ECG
-51.26953125
-11.90185546875
52.18505859375
119.93408203125
196.83837890625
294.7998046875
401.0009765625
550.23193359375
712.2802734375
862.4267578125
984.19189453125
1082.1533203125
1140.7470703125
1089.4775390625
826.72119140625
542.90771484375
304.87060546875
64.0869140625
-159.3017578125
-349.7314453125
-450.439453125
-492.5537109375
-500.79345703125
-514.5263671875
-483.3984375
-454.1015625
-432.12890625
-397.3388671875
-355.224609375
-313.1103515625
-271.91162109375
-224.30419921875
-173.9501953125
-133.6669921875
-100.7080078125
-75.0732421875
-65.00244140625
-58.59375
-56.7626953125
-52.18505859375
-53.1005859375
-44.86083984375
-42.1142578125
-34.7900390625
-35.70556640625
-32.958984375
-35.70556640625
-33.87451171875
-36.62109375
-32.958984375
-33.87451171875
-23.8037109375
-25.634765625
-24.71923828125
-22.88818359375
-21.05712890625
-23.8037109375
-24.71923828125
-24.71923828125
-14.6484375
-11.90185546875
-8.23974609375
-12.8173828125
-4.57763671875
-6.40869140625
-3.662109375
-2.74658203125
-1.8310546875
4.57763671875
14.6484375
13.73291015625
15.56396484375
18.310546875
18.310546875
11.90185546875
5.4931640625
18.310546875
22.88818359375
14.6484375
21.05712890625
22.88818359375
27.4658203125
32.04345703125
33.87451171875
40.283203125
42.1142578125
45.7763671875
44.86083984375
48.52294921875
59.50927734375
64.0869140625
63.17138671875
68.66455078125
76.904296875
76.904296875
72.32666015625
80.56640625
76.904296875
83.31298828125
89.7216796875
104.3701171875
104.3701171875
109.86328125
116.27197265625
117.1875
124.51171875
127.25830078125
125.42724609375
136.41357421875
143.73779296875
154.72412109375
172.119140625
177.6123046875
181.2744140625
186.767578125
189.51416015625
203.2470703125
209.65576171875
221.5576171875
231.62841796875
242.61474609375
254.5166015625
261.8408203125
268.24951171875
280.1513671875
289.306640625
301.20849609375
308.53271484375
313.1103515625
323.18115234375
330.50537109375
333.251953125
338.7451171875
336.9140625
343.32275390625
344.23828125
349.7314453125
339.66064453125
350.64697265625
337.82958984375
341.49169921875
341.49169921875
341.49169921875
340.576171875
339.66064453125
335.99853515625
327.7587890625
314.02587890625
308.53271484375
297.54638671875
281.982421875
275.57373046875
260.009765625
252.685546875
229.79736328125
212.40234375
198.66943359375
183.10546875
161.1328125
151.9775390625
138.24462890625
122.6806640625
115.3564453125
102.5390625
85.14404296875
67.7490234375
44.86083984375
38.4521484375
32.04345703125
17.39501953125
9.1552734375
-1.8310546875
-2.74658203125
-8.23974609375
-15.56396484375
-21.05712890625
-27.4658203125
-37.53662109375
-37.53662109375
-44.86083984375
-52.18505859375
-48.52294921875
-52.18505859375
-54.931640625
-63.17138671875
-59.50927734375
-64.0869140625
-63.17138671875
-61.34033203125
-66.83349609375
-66.83349609375
-66.83349609375
-61.34033203125
-63.17138671875
-70.49560546875
-83.31298828125
-78.7353515625
-77.81982421875
-81.48193359375
-77.81982421875
-74.15771484375
-75.98876953125
-72.32666015625
-76.904296875
-70.49560546875
-75.98876953125
-75.0732421875
-82.3974609375
-79.65087890625
-83.31298828125
-75.98876953125
-75.0732421875
-63.17138671875
-65.91796875
-75.98876953125
-80.56640625
-76.904296875
-74.15771484375
-75.98876953125
-92.46826171875
-82.3974609375
-71.4111328125
-65.00244140625
-70.49560546875
-66.83349609375
-70.49560546875
-81.48193359375
-75.98876953125
-76.904296875
-67.7490234375
-69.580078125
-65.00244140625
-64.0869140625
-70.49560546875
-62.255859375
-63.17138671875
-65.91796875
-69.580078125
-77.81982421875
-78.7353515625
-75.0732421875
-65.91796875
-63.17138671875
-61.34033203125
-65.91796875
-59.50927734375
-63.17138671875
-69.580078125
-66.83349609375
-65.00244140625
-61.34033203125
-64.0869140625
-64.0869140625
-55.84716796875
-56.7626953125
-61.34033203125
-65.00244140625
-73.2421875
-73.2421875
-66.83349609375
-75.98876953125
-64.0869140625
-58.59375
-50.35400390625
-53.1005859375
-52.18505859375
-58.59375
-67.7490234375
-71.4111328125
-64.0869140625
-65.91796875
-63.17138671875
-62.255859375
-66.83349609375
-68.66455078125
-67.7490234375
-66.83349609375
-68.66455078125
-75.0732421875
-66.83349609375
-68.66455078125
-69.580078125
-66.83349609375
-68.66455078125
-69.580078125
-73.2421875
-76.904296875
-79.65087890625
-70.49560546875
-70.49560546875
-74.15771484375
-70.49560546875
-75.0732421875
-75.0732421875
-83.31298828125
-79.65087890625
-80.56640625
-77.81982421875
-77.81982421875
-80.56640625
-73.2421875
-68.66455078125
-75.0732421875
-74.15771484375
-72.32666015625
-76.904296875
-83.31298828125
-76.904296875
-86.97509765625
-79.65087890625
-69.580078125
-68.66455078125
-70.49560546875
-67.7490234375
-65.00244140625
-73.2421875
-73.2421875
-75.98876953125
-76.904296875
-84.228515625
-86.0595703125
-82.3974609375
-78.7353515625
-76.904296875
-82.3974609375
-92.46826171875
-85.14404296875
-87.890625
-84.228515625
-73.2421875
-71.4111328125
-71.4111328125
-73.2421875
-76.904296875
-76.904296875
-83.31298828125
-87.890625
-75.98876953125
-83.31298828125
-80.56640625
-79.65087890625
-75.98876953125
-73.2421875
-68.66455078125
-71.4111328125
-79.65087890625
-78.7353515625
-79.65087890625
-79.65087890625
-84.228515625
-80.56640625
-75.0732421875
-75.0732421875
-81.48193359375
-84.228515625
-78.7353515625
-80.56640625
-85.14404296875
-87.890625
-83.31298828125
-78.7353515625
-73.2421875
-73.2421875
-73.2421875
-77.81982421875
-80.56640625
-76.904296875
-87.890625
-87.890625
-85.14404296875
-83.31298828125
-84.228515625
-76.904296875
-80.56640625
-76.904296875
-75.98876953125
-75.0732421875
-80.56640625
-78.7353515625
-72.32666015625
-55.84716796875
-35.70556640625
-42.1142578125
-35.70556640625
-31.1279296875
-29.296875
-28.38134765625
-43.9453125
-46.69189453125
-54.01611328125
-52.18505859375
-29.296875
-28.38134765625
-42.1142578125
-34.7900390625
-15.56396484375
-10.986328125
3.662109375
3.662109375
-1.8310546875
-8.23974609375
-4.57763671875
-5.4931640625
-11.90185546875
-16.4794921875
-18.310546875
-27.4658203125
-24.71923828125
-17.39501953125
-9.1552734375
-13.73291015625
-12.8173828125
-10.07080078125
-21.05712890625
-34.7900390625
-41.19873046875
-47.607421875
-53.1005859375
-56.7626953125
-62.255859375
-61.34033203125
-69.580078125
-63.17138671875
-70.49560546875
-75.98876953125
-76.904296875
-79.65087890625
-79.65087890625
-79.65087890625
-78.7353515625
-80.56640625
-80.56640625
-76.904296875
-72.32666015625
-81.48193359375
-85.14404296875
-86.97509765625
-95.21484375
-90.63720703125
-85.14404296875
-86.0595703125
-77.81982421875
-73.2421875
-75.98876953125
-76.904296875
-75.0732421875
-84.228515625
-89.7216796875
-80.56640625
-81.48193359375
-89.7216796875
-87.890625
-90.63720703125
-83.31298828125
-82.3974609375
-86.97509765625
-89.7216796875
-87.890625
-87.890625
-89.7216796875
-97.0458984375
-92.46826171875
-91.552734375
-91.552734375
-91.552734375
-84.228515625
-78.7353515625
-65.91796875
-41.19873046875
-6.40869140625
41.19873046875
102.5390625
181.2744140625
253.60107421875
349.7314453125
485.2294921875
616.14990234375
745.2392578125
866.0888671875
942.07763671875
1001.5869140625
986.02294921875
784.60693359375
475.15869140625
215.14892578125
-3.662109375
-204.16259765625
-379.94384765625
-467.83447265625
-489.80712890625
-487.060546875
-483.3984375
-479.736328125
-436.70654296875
-414.73388671875
-406.494140625
-370.78857421875
-324.0966796875
-274.658203125
-236.2060546875
-190.4296875
-159.3017578125
-113.525390625
-85.14404296875
-73.2421875
-71.4111328125
-66.83349609375
-54.01611328125
-48.52294921875
-41.19873046875
-46.69189453125
-39.36767578125
-35.70556640625
-32.958984375
-32.958984375
-31.1279296875
-31.1279296875
-30.21240234375
-28.38134765625
-21.97265625
-17.39501953125
-14.6484375
-8.23974609375
-4.57763671875
-12.8173828125
-11.90185546875
-2.74658203125
-7.32421875
-12.8173828125
-10.986328125
-8.23974609375
0.91552734375
-0.91552734375
-1.8310546875
4.57763671875
7.32421875
6.40869140625
12.8173828125
13.73291015625
11.90185546875
13.73291015625
20.1416015625
22.88818359375
22.88818359375
23.8037109375
31.1279296875
34.7900390625
32.04345703125
25.634765625
33.87451171875
37.53662109375
41.19873046875
57.67822265625
64.0869140625
59.50927734375
56.7626953125
63.17138671875
65.00244140625
61.34033203125
77.81982421875
82.3974609375
91.552734375
92.46826171875
90.63720703125
87.890625
110.77880859375
101.62353515625
108.0322265625
102.5390625
117.1875
125.42724609375
130.92041015625
134.58251953125
132.75146484375
146.484375
149.23095703125
150.146484375
162.9638671875
163.87939453125
181.2744140625
187.68310546875
185.85205078125
199.5849609375
203.2470703125
210.5712890625
225.2197265625
242.61474609375
250.8544921875
257.26318359375
274.658203125
281.982421875
286.56005859375
303.955078125
308.53271484375
314.94140625
318.603515625
318.603515625
325.01220703125
320.4345703125
323.18115234375
333.251953125
341.49169921875
359.80224609375
354.30908203125
352.47802734375
357.97119140625
352.47802734375
351.5625
349.7314453125
354.30908203125
346.98486328125
352.47802734375
351.5625
344.23828125
335.99853515625
322.265625
305.7861328125
301.20849609375
279.23583984375
268.24951171875
257.26318359375
240.78369140625
229.79736328125
211.48681640625
205.99365234375
189.51416015625
173.03466796875
159.3017578125
139.16015625
127.25830078125
112.60986328125
91.552734375
87.890625
71.4111328125
56.7626953125
47.607421875
40.283203125
30.21240234375
16.4794921875
6.40869140625
-0.91552734375
-0.91552734375
5.4931640625
1.8310546875
-21.05712890625
-21.97265625
-22.88818359375
-37.53662109375
-32.958984375
-34.7900390625
-43.9453125
-38.4521484375
-36.62109375
-43.02978515625
-49.4384765625
-55.84716796875
-59.50927734375
-63.17138671875
-57.67822265625
-61.34033203125
-65.00244140625
-62.255859375
-62.255859375
-60.4248046875
-58.59375
-56.7626953125
-64.0869140625
-61.34033203125
-68.66455078125
-71.4111328125
-68.66455078125
-65.00244140625
-63.17138671875
-65.00244140625
-59.50927734375
-60.4248046875
-65.00244140625
-62.255859375
-61.34033203125
-64.0869140625
-59.50927734375
-56.7626953125
-54.01611328125
-53.1005859375
-55.84716796875
-56.7626953125
-58.59375
-65.00244140625
-75.98876953125
-68.66455078125
-63.17138671875
-67.7490234375
-61.34033203125
-64.0869140625
-65.91796875
-64.0869140625
-63.17138671875
-72.32666015625
-70.49560546875
-66.83349609375
-62.255859375
-61.34033203125
-59.50927734375
-54.01611328125
-61.34033203125
-65.91796875
-59.50927734375
-54.01611328125
-54.931640625
-62.255859375
-62.255859375
-49.4384765625
-54.931640625
-50.35400390625
-50.35400390625
-46.69189453125
-48.52294921875
-60.4248046875
-65.00244140625
-57.67822265625
-52.18505859375
-52.18505859375
-51.26953125
-47.607421875
-54.931640625
-54.01611328125
-66.83349609375
-65.00244140625
-54.931640625
-53.1005859375
-48.52294921875
-47.607421875
-47.607421875
-49.4384765625
-51.26953125
-53.1005859375
-54.931640625
-59.50927734375
-63.17138671875
-65.91796875
-60.4248046875
-56.7626953125
-57.67822265625
-55.84716796875
-54.931640625
-58.59375
-65.91796875
-71.4111328125
-65.00244140625
-67.7490234375
-65.00244140625
-63.17138671875
-65.00244140625
-64.0869140625
-67.7490234375
-67.7490234375
-65.00244140625
-65.91796875
-68.66455078125
-64.0869140625
-58.59375
-64.0869140625
-54.931640625
-66.83349609375
-62.255859375
-64.0869140625
-59.50927734375
-61.34033203125
-78.7353515625
-84.228515625
-67.7490234375
-69.580078125
-75.98876953125
-76.904296875
-74.15771484375
-67.7490234375
-74.15771484375
-79.65087890625
-75.0732421875
-68.66455078125
-71.4111328125
-63.17138671875
-62.255859375
-63.17138671875
-65.00244140625
-63.17138671875
-71.4111328125
-76.904296875
-74.15771484375
-68.66455078125
-65.00244140625
-64.0869140625
-62.255859375
-64.0869140625
-71.4111328125
-75.0732421875
-75.98876953125
-77.81982421875
-75.0732421875
-70.49560546875
-72.32666015625
-68.66455078125
-62.255859375
-65.91796875
-65.00244140625
-65.91796875
-73.2421875
-76.904296875
-72.32666015625
-66.83349609375
-70.49560546875
-67.7490234375
-69.580078125
-66.83349609375
-68.66455078125
-73.2421875
-69.580078125
-68.66455078125
-76.904296875
-75.0732421875
-76.904296875
-70.49560546875
-65.91796875
-65.91796875
-65.00244140625
-71.4111328125
-73.2421875
-74.15771484375
-69.580078125
-58.59375
-57.67822265625
-43.02978515625
-36.62109375
-28.38134765625
-19.22607421875
-19.22607421875
-21.97265625
-20.1416015625
-23.8037109375
-32.04345703125
-30.21240234375
-21.97265625
-19.22607421875
-21.05712890625
-28.38134765625
-21.05712890625
-6.40869140625
9.1552734375
4.57763671875
-4.57763671875
4.57763671875
12.8173828125
9.1552734375
-3.662109375
-6.40869140625
-13.73291015625
-13.73291015625
-15.56396484375
-10.07080078125
-1.8310546875
2.74658203125
0
-18.310546875
-20.1416015625
-23.8037109375
-21.97265625
-28.38134765625
-29.296875
-40.283203125
-49.4384765625
-54.01611328125
-47.607421875
-64.0869140625
-68.66455078125
-75.0732421875
-75.98876953125
-78.7353515625
-82.3974609375
-80.56640625
-78.7353515625
-75.98876953125
-77.81982421875
-73.2421875
-75.0732421875
-75.98876953125
-80.56640625
-86.0595703125
-75.0732421875
-81.48193359375
-83.31298828125
-79.65087890625
-83.31298828125
-75.98876953125
-77.81982421875
-75.98876953125
-81.48193359375
-84.228515625
-86.0595703125
-86.0595703125
-80.56640625
-81.48193359375
-77.81982421875
-72.32666015625
-81.48193359375
-78.7353515625
-77.81982421875
-77.81982421875
-78.7353515625
-78.7353515625
-75.98876953125
-78.7353515625
-81.48193359375
-88.80615234375
-91.552734375
-79.65087890625
-71.4111328125
-53.1005859375
-33.87451171875
4.57763671875
54.01611328125
130.0048828125
201.416015625
287.4755859375
389.09912109375
504.45556640625
653.6865234375
788.26904296875
895.3857421875
984.19189453125
1046.44775390625
1030.8837890625
847.7783203125
553.89404296875
292.96875
57.67822265625
-151.9775390625
-345.15380859375
-443.115234375
-480.65185546875
-478.82080078125
-489.80712890625
-477.9052734375
-437.6220703125
-411.07177734375
-387.26806640625
-349.7314453125
-307.6171875
-264.58740234375
-227.96630859375
-182.18994140625
-133.6669921875
-98.876953125
-75.0732421875
-63.17138671875
-57.67822265625
-52.18505859375
-55.84716796875
-53.1005859375
-42.1142578125
-39.36767578125
-33.87451171875
-29.296875
-21.05712890625
-24.71923828125
-32.04345703125
-28.38134765625
-22.88818359375
-27.4658203125
-31.1279296875
-26.55029296875
-15.56396484375
-13.73291015625
-7.32421875
-0.91552734375
-6.40869140625
-4.57763671875
-2.74658203125
-9.1552734375
-13.73291015625
-2.74658203125
0.91552734375
2.74658203125
2.74658203125
6.40869140625
4.57763671875
-2.74658203125
0
4.57763671875
6.40869140625
8.23974609375
8.23974609375
12.8173828125
21.05712890625
21.05712890625
19.22607421875
27.4658203125
22.88818359375
21.05712890625
23.8037109375
23.8037109375
27.4658203125
31.1279296875
40.283203125
43.9453125
45.7763671875
52.18505859375
48.52294921875
55.84716796875
49.4384765625
56.7626953125
67.7490234375
72.32666015625
78.7353515625
76.904296875
76.904296875
86.97509765625
86.0595703125
92.46826171875
96.13037109375
107.11669921875
112.60986328125
115.3564453125
128.173828125
132.75146484375
137.3291015625
151.06201171875
154.72412109375
157.470703125
156.55517578125
170.2880859375
178.52783203125
194.091796875
211.48681640625
223.388671875
227.96630859375
231.62841796875
236.2060546875
246.27685546875
253.60107421875
265.5029296875
279.23583984375
285.64453125
293.88427734375
297.54638671875
304.87060546875
315.85693359375
323.18115234375
329.58984375
330.50537109375
340.576171875
341.49169921875
339.66064453125
347.900390625
358.88671875
360.7177734375
354.30908203125
353.3935546875
345.15380859375
346.98486328125
345.15380859375
341.49169921875
333.251953125
336.9140625
327.7587890625
311.279296875
303.955078125
293.88427734375
271.91162109375
255.43212890625
249.93896484375
235.29052734375
223.388671875
207.82470703125
188.5986328125
168.45703125
149.23095703125
141.90673828125
130.92041015625
106.201171875
85.14404296875
69.580078125
70.49560546875
58.59375
49.4384765625
35.70556640625
26.55029296875
9.1552734375
6.40869140625
-6.40869140625
-17.39501953125
-20.1416015625
-19.22607421875
-25.634765625
-32.04345703125
-33.87451171875
-40.283203125
-46.69189453125
-54.931640625
-56.7626953125
-58.59375
-60.4248046875
-65.91796875
-60.4248046875
-67.7490234375
-71.4111328125
-69.580078125
-72.32666015625
-70.49560546875
-75.98876953125
-73.2421875
-69.580078125
-70.49560546875
-75.0732421875
-77.81982421875
-84.228515625
-75.0732421875
-78.7353515625
-76.904296875
-75.0732421875
-79.65087890625
-78.7353515625
-74.15771484375
-77.81982421875
-80.56640625
-74.15771484375
-76.904296875
-80.56640625
-86.0595703125
-79.65087890625
-78.7353515625
-82.3974609375
-79.65087890625
-80.56640625
-75.0732421875
-75.98876953125
-75.98876953125
-71.4111328125
-79.65087890625
-79.65087890625
-75.98876953125
-77.81982421875
-73.2421875
-76.904296875
-80.56640625
-82.3974609375
-75.98876953125
-78.7353515625
-79.65087890625
-79.65087890625
-75.98876953125
-74.15771484375
-72.32666015625
-71.4111328125
-75.0732421875
-68.66455078125
-72.32666015625
-69.580078125
-70.49560546875
-70.49560546875
-77.81982421875
-73.2421875
-70.49560546875
-66.83349609375
-70.49560546875
-71.4111328125
-67.7490234375
-65.91796875
-68.66455078125
-65.00244140625
-63.17138671875
-63.17138671875
-59.50927734375
-65.91796875
-65.91796875
-68.66455078125
-66.83349609375
-73.2421875
-80.56640625
-77.81982421875
-71.4111328125
-76.904296875
-65.00244140625
-70.49560546875
-69.580078125
-70.49560546875
-70.49560546875
-77.81982421875
-80.56640625
-81.48193359375
-81.48193359375
-77.81982421875
-76.904296875
-70.49560546875
-72.32666015625
-68.66455078125
-76.904296875
-76.904296875
-75.0732421875
-79.65087890625
-81.48193359375
-79.65087890625
-81.48193359375
-73.2421875
-70.49560546875
-69.580078125
-77.81982421875
-76.904296875
-82.3974609375
-82.3974609375
-86.0595703125
-81.48193359375
-75.0732421875
-74.15771484375
-75.0732421875
-77.81982421875
-84.228515625
-87.890625
-92.46826171875
-94.29931640625
-87.890625
-85.14404296875
-82.3974609375
-79.65087890625
-85.14404296875
-85.14404296875
-85.14404296875
-93.3837890625
-89.7216796875
-86.97509765625
-84.228515625
-82.3974609375
-85.14404296875
-86.0595703125
-87.890625
-75.98876953125
-78.7353515625
-81.48193359375
-85.14404296875
-86.0595703125
-86.0595703125
-85.14404296875
-84.228515625
-77.81982421875
-87.890625
-89.7216796875
-86.97509765625
-91.552734375
-86.97509765625
-88.80615234375
-86.0595703125
-85.14404296875
-86.97509765625
-86.0595703125
-81.48193359375
-86.97509765625
-86.0595703125
-87.890625
-83.31298828125
-88.80615234375
-86.97509765625
-87.890625
-83.31298828125
-86.97509765625
-86.0595703125
-82.3974609375
-82.3974609375
-80.56640625
-80.56640625
-83.31298828125
-86.0595703125
-84.228515625
-80.56640625
-85.14404296875
-85.14404296875
-82.3974609375
-79.65087890625
-86.0595703125
-91.552734375
-90.63720703125
-88.80615234375
-87.890625
-83.31298828125
-83.31298828125
-89.7216796875
-93.3837890625
-95.21484375
-90.63720703125
-88.80615234375
-87.890625
-85.14404296875
-83.31298828125
-75.98876953125
-66.83349609375
-57.67822265625
-58.59375
-54.931640625
-53.1005859375
-43.9453125
-36.62109375
-33.87451171875
-24.71923828125
-27.4658203125
-21.97265625
-23.8037109375
-28.38134765625
-30.21240234375
-34.7900390625
-43.9453125
-43.9453125
-32.04345703125
-9.1552734375
0
-3.662109375
-12.8173828125
-11.90185546875
-4.57763671875
-11.90185546875
-17.39501953125
-24.71923828125
-23.8037109375
-24.71923828125
-17.39501953125
-10.986328125
-9.1552734375
-7.32421875
-17.39501953125
-30.21240234375
-29.296875
-31.1279296875
-43.02978515625
-42.1142578125
-35.70556640625
-49.4384765625
-47.607421875
-61.34033203125
-75.0732421875
-83.31298828125
-84.228515625
-86.0595703125
-86.0595703125
-85.14404296875
-79.65087890625
-77.81982421875
-80.56640625
-79.65087890625
-87.890625
-80.56640625
-84.228515625
-89.7216796875
-86.97509765625
-88.80615234375
-87.890625
-87.890625
-87.890625
-79.65087890625
-83.31298828125
-89.7216796875
-93.3837890625
-93.3837890625
-93.3837890625
-88.80615234375
-88.80615234375
-85.14404296875
-85.14404296875
-87.890625
-91.552734375
-90.63720703125
-76.904296875
-77.81982421875
-82.3974609375
-84.228515625
-85.14404296875
-73.2421875
-81.48193359375
-86.0595703125
-92.46826171875
-109.86328125
-111.6943359375
-92.46826171875
-65.00244140625
-40.283203125
-13.73291015625
26.55029296875
88.80615234375
164.794921875
250.8544921875
353.3935546875
463.2568359375
615.234375
775.45166015625
916.44287109375
1026.30615234375
1118.7744140625
1152.64892578125
1081.23779296875
823.05908203125
555.72509765625
313.1103515625
74.15771484375
-160.21728515625
-347.900390625
-451.35498046875
-477.9052734375
-496.2158203125
-505.37109375
-476.98974609375
-434.87548828125
-398.25439453125
-361.63330078125
-322.265625
-277.40478515625
-237.12158203125
-192.2607421875
-143.73779296875
-97.96142578125
-74.15771484375
-68.66455078125
-63.17138671875
-59.50927734375
-54.01611328125
-50.35400390625
-43.02978515625
-32.04345703125
-31.1279296875
-39.36767578125
-38.4521484375
-32.04345703125
-33.87451171875
-35.70556640625
-32.958984375
-32.958984375
-26.55029296875
-18.310546875
-19.22607421875
-16.4794921875
-13.73291015625
-13.73291015625
-19.22607421875
-14.6484375
9.1552734375
8.23974609375
0.91552734375
-0.91552734375
-1.8310546875
-5.4931640625
-3.662109375
-0.91552734375
2.74658203125
8.23974609375
8.23974609375
12.8173828125
10.986328125
19.22607421875
21.05712890625
21.05712890625
21.05712890625
25.634765625
26.55029296875
26.55029296875
26.55029296875
31.1279296875
34.7900390625
35.70556640625
34.7900390625
39.36767578125
47.607421875
48.52294921875
47.607421875
52.18505859375
57.67822265625
64.0869140625
68.66455078125
70.49560546875
77.81982421875
83.31298828125
77.81982421875
79.65087890625
84.228515625
86.97509765625
92.46826171875
95.21484375
107.11669921875
121.76513671875
122.6806640625
126.3427734375
131.8359375
135.498046875
144.6533203125
147.39990234375
156.55517578125
163.87939453125
177.6123046875
185.85205078125
189.51416015625
203.2470703125
208.740234375
217.8955078125
226.13525390625
234.375
238.95263671875
251.77001953125
267.333984375
283.8134765625
283.8134765625
287.4755859375
301.20849609375
305.7861328125
314.94140625
323.18115234375
329.58984375
339.66064453125
350.64697265625
357.0556640625
361.63330078125
367.12646484375
366.2109375
372.61962890625
379.0283203125
375.3662109375
373.53515625
369.873046875
373.53515625
376.28173828125
368.95751953125
363.46435546875
355.224609375
347.900390625
342.4072265625
335.99853515625
322.265625
307.6171875
294.7998046875
284.72900390625
271.91162109375
250.8544921875
232.5439453125
212.40234375
198.66943359375
182.18994140625
162.04833984375
153.80859375
139.16015625
123.59619140625
111.6943359375
93.3837890625
95.21484375
75.98876953125
53.1005859375
40.283203125
31.1279296875
21.97265625
21.05712890625
15.56396484375
7.32421875
-5.4931640625
-16.4794921875
-24.71923828125
-29.296875
-35.70556640625
-42.1142578125
-43.9453125
-42.1142578125
-40.283203125
-46.69189453125
-52.18505859375
-52.18505859375
-54.01611328125
-57.67822265625
-65.00244140625
-62.255859375
-59.50927734375
-62.255859375
-61.34033203125
-58.59375
-63.17138671875
-67.7490234375
-67.7490234375
-72.32666015625
-73.2421875
-66.83349609375
-67.7490234375
-66.83349609375
-68.66455078125
-66.83349609375
-65.00244140625
-66.83349609375
-72.32666015625
-71.4111328125
-73.2421875
-68.66455078125
-64.0869140625
-64.0869140625
-60.4248046875
-62.255859375
-65.00244140625
-66.83349609375
-68.66455078125
-74.15771484375
-72.32666015625
-71.4111328125
-66.83349609375
-65.00244140625
-64.0869140625
-67.7490234375
-65.91796875
-67.7490234375
-67.7490234375
-70.49560546875
-74.15771484375
-75.0732421875
-75.98876953125
-65.91796875
-56.7626953125
-61.34033203125
-65.00244140625
-68.66455078125
-69.580078125
-71.4111328125
-70.49560546875
-65.91796875
-66.83349609375
-62.255859375
-56.7626953125
-57.67822265625
-57.67822265625
-58.59375
-62.255859375
-63.17138671875
-65.00244140625
-64.0869140625
-54.01611328125
-52.18505859375
-48.52294921875
-52.18505859375
-49.4384765625
-50.35400390625
-53.1005859375
-53.1005859375
-57.67822265625
-59.50927734375
-57.67822265625
-54.01611328125
-53.1005859375
-53.1005859375
-56.7626953125
-60.4248046875
-57.67822265625
-55.84716796875
-57.67822265625
-55.84716796875
-54.01611328125
-54.01611328125
-55.84716796875
-55.84716796875
-52.18505859375
-56.7626953125
-63.17138671875
-68.66455078125
-61.34033203125
-60.4248046875
-55.84716796875
-55.84716796875
-61.34033203125
-67.7490234375
-59.50927734375
-59.50927734375
-61.34033203125
-62.255859375
-62.255859375
-64.0869140625
-62.255859375
-58.59375
-56.7626953125
-63.17138671875
-68.66455078125
-76.904296875
-69.580078125
-71.4111328125
-75.0732421875
-73.2421875
-70.49560546875
-63.17138671875
-65.91796875
-68.66455078125
-76.904296875
-82.3974609375
-81.48193359375
-77.81982421875
-75.98876953125
-73.2421875
-65.91796875
-64.0869140625
-64.0869140625
-61.34033203125
-74.15771484375
-77.81982421875
-75.98876953125
-81.48193359375
-80.56640625
-79.65087890625
-68.66455078125
-73.2421875
-72.32666015625
-69.580078125
-73.2421875
-65.91796875
-66.83349609375
-71.4111328125
-72.32666015625
-66.83349609375
-61.34033203125
-65.00244140625
-63.17138671875
-62.255859375
-63.17138671875
-65.91796875
-72.32666015625
-75.98876953125
-75.0732421875
-69.580078125
-66.83349609375
-69.580078125
-68.66455078125
-70.49560546875
-68.66455078125
-69.580078125
-69.580078125
-74.15771484375
-75.98876953125
-72.32666015625
-75.98876953125
-72.32666015625
-71.4111328125
-71.4111328125
-74.15771484375
-79.65087890625
-78.7353515625
-75.98876953125
-87.890625
-79.65087890625
-79.65087890625
-82.3974609375
-75.98876953125
-75.98876953125
-79.65087890625
-87.890625
-86.0595703125
-86.97509765625
-82.3974609375
-75.0732421875
-78.7353515625
-77.81982421875
-72.32666015625
-75.0732421875
-73.2421875
-66.83349609375
-70.49560546875
-68.66455078125
-66.83349609375
-63.17138671875
-59.50927734375
-50.35400390625
-40.283203125
-37.53662109375
-32.958984375
-31.1279296875
-21.05712890625
-23.8037109375
-23.8037109375
-29.296875
-29.296875
-21.97265625
-17.39501953125
-23.8037109375
-32.958984375
-40.283203125
-35.70556640625
-20.1416015625
0.91552734375
12.8173828125
8.23974609375
2.74658203125
5.4931640625
10.07080078125
3.662109375
-7.32421875
-11.90185546875
-22.88818359375
-21.97265625
-23.8037109375
-13.73291015625
-8.23974609375
-10.986328125
-17.39501953125
-20.1416015625
-24.71923828125
-28.38134765625
-40.283203125
-42.1142578125
-46.69189453125
-46.69189453125
-54.931640625
-62.255859375
-68.66455078125
-74.15771484375
-80.56640625
-84.228515625
-86.0595703125
-88.80615234375
-87.890625
-84.228515625
-83.31298828125
-85.14404296875
-86.0595703125
-80.56640625
-83.31298828125
-85.14404296875
-86.0595703125
-86.0595703125
-89.7216796875
-90.63720703125
-82.3974609375
-79.65087890625
-75.98876953125
-80.56640625
-86.97509765625
-87.890625
-84.228515625
-88.80615234375
-84.228515625
-85.14404296875
-81.48193359375
-74.15771484375
-75.98876953125
-82.3974609375
-92.46826171875
-88.80615234375
-86.97509765625
-85.14404296875
-84.228515625
-87.890625
-87.890625
-76.904296875
-83.31298828125
-92.46826171875
-104.3701171875
-106.201171875
-93.3837890625
-67.7490234375
-43.9453125
-18.310546875
29.296875
97.0458984375
167.54150390625
261.8408203125
369.873046875
487.97607421875
646.3623046875
809.326171875
946.6552734375
1057.43408203125
1156.31103515625
1182.861328125
1087.646484375
816.650390625
566.71142578125
319.51904296875
78.7353515625
-162.04833984375
-346.98486328125
-441.2841796875
-473.32763671875
-495.30029296875
-510.8642578125
-479.736328125
-433.9599609375
-401.91650390625
-367.12646484375
-317.68798828125
-270.08056640625
-232.5439453125
-185.85205078125
-140.9912109375
-105.28564453125
-76.904296875
-69.580078125
-66.83349609375
-70.49560546875
-70.49560546875
-62.255859375
-51.26953125
-46.69189453125
-38.4521484375
-43.02978515625
-37.53662109375
-34.7900390625
-34.7900390625
-33.87451171875
-36.62109375
-33.87451171875
-23.8037109375
-20.1416015625
-8.23974609375
-1.8310546875
-3.662109375
0
-5.4931640625
-10.986328125
-10.986328125
-0.91552734375
4.57763671875
8.23974609375
14.6484375
11.90185546875
6.40869140625
0
-0.91552734375
4.57763671875
2.74658203125
1.8310546875
7.32421875
17.39501953125
21.97265625
27.4658203125
21.05712890625
19.22607421875
19.22607421875
20.1416015625
19.22607421875
25.634765625
28.38134765625
30.21240234375
34.7900390625
33.87451171875
38.4521484375
41.19873046875
39.36767578125
42.1142578125
46.69189453125
44.86083984375
53.1005859375
59.50927734375
67.7490234375
68.66455078125
72.32666015625
81.48193359375
80.56640625
81.48193359375
86.97509765625
89.7216796875
90.63720703125
103.45458984375
108.0322265625
117.1875
123.59619140625
121.76513671875
130.92041015625
140.07568359375
151.9775390625
159.3017578125
164.794921875
177.6123046875
195.9228515625
201.416015625
207.82470703125
214.2333984375
223.388671875
236.2060546875
239.8681640625
256.34765625
268.24951171875
275.57373046875
299.37744140625
310.36376953125
313.1103515625
321.35009765625
323.18115234375
333.251953125
342.4072265625
347.900390625
356.14013671875
362.548828125
362.548828125
372.61962890625
370.78857421875
368.0419921875
365.29541015625
368.95751953125
368.95751953125
369.873046875
365.29541015625
366.2109375
369.873046875
362.548828125
356.14013671875
348.81591796875
328.67431640625
317.68798828125
303.955078125
297.54638671875
282.89794921875
270.99609375
253.60107421875
238.95263671875
223.388671875
201.416015625
182.18994140625
163.87939453125
145.56884765625
124.51171875
117.1875
112.60986328125
97.96142578125
81.48193359375
70.49560546875
55.84716796875
43.9453125
32.958984375
21.97265625
10.07080078125
5.4931640625
3.662109375
-4.57763671875
-18.310546875
-30.21240234375
-42.1142578125
-36.62109375
-39.36767578125
-47.607421875
-56.7626953125
-60.4248046875
-56.7626953125
-54.931640625
-56.7626953125
-55.84716796875
-59.50927734375
-63.17138671875
-64.0869140625
-73.2421875
-72.32666015625
-72.32666015625
-68.66455078125
-68.66455078125
-72.32666015625
-70.49560546875
-75.0732421875
-78.7353515625
-80.56640625
-79.65087890625
-83.31298828125
-82.3974609375
-75.98876953125
-80.56640625
-80.56640625
-86.0595703125
-84.228515625
-86.0595703125
-90.63720703125
-96.13037109375
-90.63720703125
-85.14404296875
-83.31298828125
-83.31298828125
-89.7216796875
-79.65087890625
-83.31298828125
-80.56640625
-80.56640625
-83.31298828125
-82.3974609375
-80.56640625
-83.31298828125
-83.31298828125
-81.48193359375
-83.31298828125
-74.15771484375
-76.904296875
-78.7353515625
-83.31298828125
-85.14404296875
-86.0595703125
-75.98876953125
-71.4111328125
-75.98876953125
-69.580078125
-68.66455078125
-72.32666015625
-76.904296875
-80.56640625
-79.65087890625
-73.2421875
-75.0732421875
-71.4111328125
-72.32666015625
-68.66455078125
-65.91796875
-66.83349609375
-72.32666015625
-75.98876953125
-72.32666015625
-64.0869140625
-60.4248046875
-59.50927734375
-61.34033203125
-66.83349609375
-63.17138671875
-61.34033203125
-62.255859375
-64.0869140625
-62.255859375
-62.255859375
-62.255859375
-62.255859375
-63.17138671875
-67.7490234375
-66.83349609375
-67.7490234375
-59.50927734375
-66.83349609375
-68.66455078125
-73.2421875
-66.83349609375
-66.83349609375
-71.4111328125
-72.32666015625
-73.2421875
-77.81982421875
-78.7353515625
-77.81982421875
-74.15771484375
-65.91796875
-67.7490234375
-74.15771484375
-72.32666015625
-75.98876953125
-75.0732421875
-70.49560546875
-71.4111328125
-72.32666015625
-74.15771484375
-77.81982421875
-75.0732421875
-75.0732421875
-75.98876953125
-81.48193359375
-86.0595703125
-86.0595703125
-81.48193359375
-81.48193359375
-83.31298828125
-84.228515625
-78.7353515625
-75.98876953125
-80.56640625
-78.7353515625
-83.31298828125
-82.3974609375
-81.48193359375
-84.228515625
-87.890625
-80.56640625
-81.48193359375
-75.0732421875
-78.7353515625
-80.56640625
-81.48193359375
-80.56640625
-81.48193359375
-86.0595703125
-89.7216796875
-87.890625
-81.48193359375
-78.7353515625
-80.56640625
-75.0732421875
-84.228515625
-93.3837890625
-92.46826171875
-87.890625
-88.80615234375
-83.31298828125
-71.4111328125
-77.81982421875
-80.56640625
-81.48193359375
-89.7216796875
-93.3837890625
-90.63720703125
-87.890625
-88.80615234375
-85.14404296875
-77.81982421875
-76.904296875
-73.2421875
-76.904296875
-77.81982421875
-87.890625
-87.890625
-91.552734375
-84.228515625
-84.228515625
-86.0595703125
-83.31298828125
-85.14404296875
-80.56640625
-86.0595703125
-88.80615234375
-91.552734375
-90.63720703125
-85.14404296875
-84.228515625
-83.31298828125
-83.31298828125
-80.56640625
-81.48193359375
-90.63720703125
-91.552734375
-88.80615234375
-91.552734375
-94.29931640625
-85.14404296875
-81.48193359375
-81.48193359375
-77.81982421875
-82.3974609375
-81.48193359375
-78.7353515625
-84.228515625
-85.14404296875
-82.3974609375
-76.904296875
-71.4111328125
-68.66455078125
-76.904296875
-83.31298828125
-91.552734375
-96.13037109375
-86.97509765625
-79.65087890625
-75.0732421875
-75.98876953125
-80.56640625
-65.00244140625
-60.4248046875
-61.34033203125
-54.931640625
-47.607421875
-45.7763671875
-36.62109375
-38.4521484375
-28.38134765625
-32.04345703125
-23.8037109375
-32.04345703125
-39.36767578125
-36.62109375
-39.36767578125
-55.84716796875
-63.17138671875
-49.4384765625
-29.296875
-9.1552734375
-0.91552734375
-8.23974609375
-10.07080078125
-9.1552734375
-16.4794921875
-28.38134765625
-30.21240234375
-35.70556640625
-35.70556640625
-21.05712890625
-18.310546875
-10.07080078125
-13.73291015625
-20.1416015625
-27.4658203125
-34.7900390625
-34.7900390625
-35.70556640625
-37.53662109375
-41.19873046875
-45.7763671875
-43.9453125
-60.4248046875
-65.91796875
-71.4111328125
-79.65087890625
-81.48193359375
-79.65087890625
-79.65087890625
-80.56640625
-80.56640625
-81.48193359375
-82.3974609375
-80.56640625
-79.65087890625
-85.14404296875
-90.63720703125
-89.7216796875
-83.31298828125
-81.48193359375
-79.65087890625
-77.81982421875
-80.56640625
-84.228515625
-89.7216796875
-90.63720703125
-89.7216796875
-90.63720703125
-93.3837890625
-94.29931640625
-92.46826171875
-94.29931640625
-92.46826171875
-89.7216796875
-95.21484375
-95.21484375
-99.79248046875
-92.46826171875
-89.7216796875
-83.31298828125
-80.56640625
-89.7216796875
-86.97509765625
-98.876953125
-113.525390625
-102.5390625
-121.76513671875
-124.51171875
-111.6943359375
-84.228515625
-58.59375
-41.19873046875
-10.986328125
47.607421875
111.6943359375
193.17626953125
294.7998046875
404.6630859375
548.40087890625
722.35107421875
874.32861328125
994.2626953125
1096.8017578125
1168.212890625
1127.9296875
911.865234375
627.13623046875
388.18359375
151.06201171875
-83.31298828125
-292.96875
-412.90283203125
-462.34130859375
-490.72265625
-517.27294921875
-501.708984375
-452.2705078125
-421.142578125
-379.94384765625
-334.16748046875
-290.22216796875
-251.77001953125
-209.65576171875
-158.38623046875
-119.93408203125
-90.63720703125
-77.81982421875
-72.32666015625
-64.0869140625
-54.01611328125
-61.34033203125
-58.59375
-52.18505859375
-52.18505859375
-50.35400390625
-47.607421875
-51.26953125
-50.35400390625
-47.607421875
-43.02978515625
-38.4521484375
-37.53662109375
-36.62109375
-26.55029296875
-27.4658203125
-30.21240234375
-26.55029296875
-20.1416015625
-21.05712890625
-20.1416015625
-11.90185546875
-18.310546875
-12.8173828125
-9.1552734375
-10.986328125
-12.8173828125
-13.73291015625
-8.23974609375
-7.32421875
-4.57763671875
0.91552734375
6.40869140625
4.57763671875
13.73291015625
14.6484375
10.07080078125
19.22607421875
21.97265625
31.1279296875
28.38134765625
33.87451171875
28.38134765625
31.1279296875
36.62109375
35.70556640625
36.62109375
42.1142578125
54.01611328125
51.26953125
57.67822265625
54.931640625
54.931640625
60.4248046875
59.50927734375
65.00244140625
64.0869140625
64.0869140625
73.2421875
83.31298828125
80.56640625
88.80615234375
97.0458984375
96.13037109375
98.876953125
104.3701171875
115.3564453125
122.6806640625
132.75146484375
139.16015625
151.06201171875
161.1328125
162.04833984375
163.87939453125
173.9501953125
189.51416015625
192.2607421875
194.091796875
215.14892578125
224.30419921875
228.8818359375
241.69921875
256.34765625
259.09423828125
266.41845703125
280.1513671875
291.1376953125
302.1240234375
310.36376953125
317.68798828125
332.33642578125
333.251953125
337.82958984375
343.32275390625
350.64697265625
356.14013671875
357.97119140625
359.80224609375
364.3798828125
367.12646484375
369.873046875
372.61962890625
377.197265625
372.61962890625
361.63330078125
360.7177734375
351.5625
345.15380859375
342.4072265625
340.576171875
329.58984375
317.68798828125
303.03955078125
295.71533203125
270.08056640625
253.60107421875
239.8681640625
215.14892578125
203.2470703125
198.66943359375
175.78125
165.71044921875
147.39990234375
126.3427734375
104.3701171875
85.14404296875
74.15771484375
60.4248046875
43.9453125
33.87451171875
29.296875
21.05712890625
9.1552734375
2.74658203125
0
-13.73291015625
-17.39501953125
-26.55029296875
-41.19873046875
-40.283203125
-43.9453125
-43.02978515625
-43.02978515625
-40.283203125
-48.52294921875
-55.84716796875
-59.50927734375
-67.7490234375
-62.255859375
-60.4248046875
-60.4248046875
-60.4248046875
-63.17138671875
-64.0869140625
-67.7490234375
-70.49560546875
-76.904296875
-77.81982421875
-72.32666015625
-73.2421875
-73.2421875
-66.83349609375
-69.580078125
-70.49560546875
-71.4111328125
-74.15771484375
-78.7353515625
-82.3974609375
-75.0732421875
-81.48193359375
-73.2421875
-72.32666015625
-71.4111328125
-70.49560546875
-76.904296875
-83.31298828125
-80.56640625
-81.48193359375
-76.904296875
-72.32666015625
-69.580078125
-66.83349609375
-65.91796875
-73.2421875
-75.98876953125
-75.98876953125
-81.48193359375
-86.97509765625
-77.81982421875
-76.904296875
-66.83349609375
-73.2421875
-72.32666015625
-74.15771484375
-73.2421875
-82.3974609375
-79.65087890625
-77.81982421875
-79.65087890625
-82.3974609375
-75.98876953125
-69.580078125
-66.83349609375
-71.4111328125
-71.4111328125
-71.4111328125
-71.4111328125
-68.66455078125
-62.255859375
-65.91796875
-65.91796875
-70.49560546875
-64.0869140625
-60.4248046875
-67.7490234375
-71.4111328125
-68.66455078125
-69.580078125
-62.255859375
-58.59375
-56.7626953125
-55.84716796875
-54.931640625
-53.1005859375
-57.67822265625
-60.4248046875
-59.50927734375
-67.7490234375
-66.83349609375
-58.59375
-58.59375
-60.4248046875
-64.0869140625
-66.83349609375
-68.66455078125
-64.0869140625
-68.66455078125
-71.4111328125
-69.580078125
-69.580078125
-68.66455078125
-71.4111328125
-66.83349609375
-74.15771484375
-78.7353515625
-80.56640625
-77.81982421875
-73.2421875
-76.904296875
-68.66455078125
-67.7490234375
-68.66455078125
-69.580078125
-75.98876953125
-76.904296875
-74.15771484375
-67.7490234375
-70.49560546875
-84.228515625
-79.65087890625
-74.15771484375
-77.81982421875
-78.7353515625
-76.904296875
-75.98876953125
-75.98876953125
-77.81982421875
-77.81982421875
-79.65087890625
-87.890625
-86.97509765625
-70.49560546875
-70.49560546875
-72.32666015625
-75.0732421875
-83.31298828125
-80.56640625
-77.81982421875
-80.56640625
-73.2421875
-68.66455078125
-65.91796875
-72.32666015625
-71.4111328125
-75.0732421875
-73.2421875
-69.580078125
-77.81982421875
-73.2421875
-77.81982421875
-73.2421875
-77.81982421875
-74.15771484375
-77.81982421875
-75.98876953125
-72.32666015625
-79.65087890625
-82.3974609375
-79.65087890625
-79.65087890625
-73.2421875
-72.32666015625
-77.81982421875
-79.65087890625
-81.48193359375
-81.48193359375
-85.14404296875
-85.14404296875
-88.80615234375
-74.15771484375
-70.49560546875
-71.4111328125
-67.7490234375
-70.49560546875
-84.228515625
-81.48193359375
-80.56640625
-87.890625
-86.0595703125
-86.0595703125
-77.81982421875
-75.0732421875
-83.31298828125
-92.46826171875
-89.7216796875
-82.3974609375
-86.97509765625
-88.80615234375
-85.14404296875
-79.65087890625
-74.15771484375
-73.2421875
-69.580078125
-78.7353515625
-86.97509765625
-86.97509765625
-89.7216796875
-86.97509765625
-80.56640625
-77.81982421875
-78.7353515625
-75.98876953125
-80.56640625
-78.7353515625
-81.48193359375
-82.3974609375
-87.890625
-83.31298828125
-83.31298828125
-84.228515625
-80.56640625
-65.91796875
-65.00244140625
-59.50927734375
-63.17138671875
-54.01611328125
-54.01611328125
-42.1142578125
-34.7900390625
-21.97265625
-18.310546875
-25.634765625
-21.05712890625
-23.8037109375
-30.21240234375
-21.97265625
-32.04345703125
-45.7763671875
-46.69189453125
-36.62109375
-13.73291015625
-2.74658203125
1.8310546875
-10.986328125
-17.39501953125
-11.90185546875
-3.662109375
-18.310546875
-18.310546875
-21.97265625
-20.1416015625
-24.71923828125
-21.05712890625
-14.6484375
-21.97265625
-21.05712890625
-22.88818359375
-31.1279296875
-29.296875
-35.70556640625
-36.62109375
-37.53662109375
-41.19873046875
-52.18505859375
-57.67822265625
-75.0732421875
-85.14404296875
-82.3974609375
-78.7353515625
-81.48193359375
-71.4111328125
-70.49560546875
-74.15771484375
-76.904296875
-86.97509765625
-86.0595703125
-78.7353515625
-84.228515625
-92.46826171875
-79.65087890625
-79.65087890625
-79.65087890625
-75.98876953125
-70.49560546875
-83.31298828125
-85.14404296875
-80.56640625
-88.80615234375
-86.97509765625
-86.97509765625
-85.14404296875
-81.48193359375
-87.890625
-86.0595703125
-81.48193359375
-77.81982421875
-77.81982421875
-74.15771484375
-75.98876953125
-78.7353515625
-65.00244140625
-70.49560546875
-80.56640625
-83.31298828125
-86.97509765625
-91.552734375
-92.46826171875
-91.552734375
-97.96142578125
-93.3837890625
-96.13037109375
-83.31298828125
-65.00244140625
-44.86083984375
-30.21240234375
16.4794921875
73.2421875
143.73779296875
223.388671875
310.36376953125
433.04443359375
589.599609375
745.2392578125
867.919921875
959.47265625
1037.29248046875
1057.43408203125
953.9794921875
670.166015625
386.3525390625
140.9912109375
-72.32666015625
-279.23583984375
-411.9873046875
-473.32763671875
-482.48291015625
-500.79345703125
-495.30029296875
-461.42578125
-436.70654296875
-409.24072265625
-370.78857421875
-320.4345703125
-281.06689453125
-249.93896484375
-204.16259765625
-162.04833984375
-132.75146484375
-95.21484375
-71.4111328125
-54.931640625
-50.35400390625
-43.9453125
-46.69189453125
-49.4384765625
-52.18505859375
-45.7763671875
-49.4384765625
-39.36767578125
-30.21240234375
-27.4658203125
-31.1279296875
-27.4658203125
-23.8037109375
-14.6484375
-17.39501953125
-23.8037109375
-19.22607421875
-24.71923828125
-20.1416015625
-5.4931640625
-4.57763671875
1.8310546875
0
3.662109375
0
-3.662109375
-1.8310546875
-1.8310546875
3.662109375
4.57763671875
3.662109375
6.40869140625
6.40869140625
1.8310546875
7.32421875
3.662109375
7.32421875
11.90185546875
15.56396484375
28.38134765625
28.38134765625
32.958984375
33.87451171875
38.4521484375
37.53662109375
44.86083984375
41.19873046875
40.283203125
43.02978515625
61.34033203125
65.91796875
62.255859375
62.255859375
61.34033203125
66.83349609375
69.580078125
78.7353515625
80.56640625
85.14404296875
99.79248046875
98.876953125
99.79248046875
106.201171875
108.94775390625
108.94775390625
121.76513671875
121.76513671875
123.59619140625
131.8359375
148.3154296875
151.06201171875
160.21728515625
166.6259765625
173.9501953125
176.69677734375
183.10546875
184.02099609375
195.9228515625
213.31787109375
226.13525390625
234.375
239.8681640625
245.361328125
258.1787109375
272.8271484375
278.3203125
280.1513671875
293.88427734375
308.53271484375
331.4208984375
330.50537109375
334.16748046875
341.49169921875
341.49169921875
345.15380859375
346.98486328125
351.5625
357.97119140625
362.548828125
370.78857421875
368.0419921875
370.78857421875
367.12646484375
357.97119140625
362.548828125
359.80224609375
358.88671875
349.7314453125
341.49169921875
329.58984375
327.7587890625
321.35009765625
303.955078125
290.22216796875
276.4892578125
264.58740234375
237.12158203125
219.7265625
214.2333984375
194.091796875
178.52783203125
172.119140625
148.3154296875
129.08935546875
113.525390625
102.5390625
91.552734375
79.65087890625
70.49560546875
58.59375
48.52294921875
33.87451171875
22.88818359375
10.986328125
-5.4931640625
-10.07080078125
-14.6484375
-20.1416015625
-24.71923828125
-25.634765625
-30.21240234375
-34.7900390625
-44.86083984375
-54.931640625
-53.1005859375
-54.931640625
-59.50927734375
-53.1005859375
-50.35400390625
-57.67822265625
-61.34033203125
-64.0869140625
-61.34033203125
-69.580078125
-62.255859375
-69.580078125
-71.4111328125
-71.4111328125
-69.580078125
-73.2421875
-65.00244140625
-60.4248046875
-54.931640625
-68.66455078125
-72.32666015625
-67.7490234375
-73.2421875
-76.904296875
-73.2421875
-73.2421875
-74.15771484375
-75.0732421875
-72.32666015625
-75.0732421875
-75.98876953125
-79.65087890625
-73.2421875
-72.32666015625
-72.32666015625
-67.7490234375
-68.66455078125
-75.0732421875
-75.98876953125
-78.7353515625
-74.15771484375
-72.32666015625
-76.904296875
-84.228515625
-79.65087890625
-68.66455078125
-75.98876953125
-77.81982421875
-74.15771484375
-73.2421875
-75.0732421875
-80.56640625
-77.81982421875
-75.0732421875
-75.98876953125
-69.580078125
-61.34033203125
-62.255859375
-65.00244140625
-65.91796875
-65.00244140625
-60.4248046875
-61.34033203125
-58.59375
-65.00244140625
-55.84716796875
-50.35400390625
-58.59375
-59.50927734375
-58.59375
-64.0869140625
-63.17138671875
-65.00244140625
-54.01611328125
-54.931640625
-59.50927734375
-57.67822265625
-53.1005859375
-56.7626953125
-54.931640625
-56.7626953125
-59.50927734375
-67.7490234375
-69.580078125
-62.255859375
-57.67822265625
-62.255859375
-61.34033203125
-66.83349609375
-68.66455078125
-59.50927734375
-64.0869140625
-69.580078125
-61.34033203125
-64.0869140625
-61.34033203125
-67.7490234375
-64.0869140625
-69.580078125
-65.91796875
-64.0869140625
-73.2421875
-71.4111328125
-71.4111328125
-64.0869140625
-65.91796875
-66.83349609375
-65.00244140625
-75.98876953125
-80.56640625
-70.49560546875
-70.49560546875
-72.32666015625
-64.0869140625
-61.34033203125
-61.34033203125
-59.50927734375
-66.83349609375
-59.50927734375
-67.7490234375
-67.7490234375
-74.15771484375
-75.0732421875
-83.31298828125
-79.65087890625
-73.2421875
-66.83349609375
-72.32666015625
-76.904296875
-74.15771484375
-70.49560546875
-74.15771484375
-67.7490234375
-70.49560546875
-69.580078125
-67.7490234375
-63.17138671875
-65.91796875
-67.7490234375
-70.49560546875
-73.2421875
-84.228515625
-88.80615234375
-83.31298828125
-75.98876953125
-74.15771484375
-69.580078125
-71.4111328125
-66.83349609375
-68.66455078125
-76.904296875
-83.31298828125
-87.890625
-83.31298828125
-81.48193359375
-76.904296875
-77.81982421875
-76.904296875
-75.98876953125
-78.7353515625
-84.228515625
-85.14404296875
-81.48193359375
-79.65087890625
-80.56640625
-74.15771484375
-75.98876953125
-76.904296875
-78.7353515625
-78.7353515625
-75.0732421875
-78.7353515625
-81.48193359375
-77.81982421875
-80.56640625
-80.56640625
-79.65087890625
-72.32666015625
-76.904296875
-83.31298828125
-85.14404296875
-86.97509765625
-83.31298828125
-76.904296875
-78.7353515625
-75.98876953125
-82.3974609375
-83.31298828125
-78.7353515625
-72.32666015625
-79.65087890625
-85.14404296875
-74.15771484375
-70.49560546875
-74.15771484375
-75.98876953125
-77.81982421875
-84.228515625
-79.65087890625
-80.56640625
-76.904296875
-86.0595703125
-82.3974609375
-80.56640625
-79.65087890625
-70.49560546875
-65.91796875
-69.580078125
-67.7490234375
-58.59375
-54.931640625
-49.4384765625
-48.52294921875
-38.4521484375
-29.296875
-29.296875
-26.55029296875
-21.05712890625
-22.88818359375
-35.70556640625
-35.70556640625
-31.1279296875
-39.36767578125
-44.86083984375
-43.9453125
-28.38134765625
-4.57763671875
10.07080078125
8.23974609375
-4.57763671875
-8.23974609375
-1.8310546875
-6.40869140625
-17.39501953125
-16.4794921875
-17.39501953125
-18.310546875
-19.22607421875
-14.6484375
-14.6484375
-15.56396484375
-23.8037109375
-28.38134765625
-25.634765625
-26.55029296875
-34.7900390625
-38.4521484375
-31.1279296875
-35.70556640625
-46.69189453125
-58.59375
-68.66455078125
-73.2421875
-73.2421875
-78.7353515625
-77.81982421875
-70.49560546875
-75.0732421875
-75.0732421875
-79.65087890625
-79.65087890625
-84.228515625
-83.31298828125
-80.56640625
-77.81982421875
-76.904296875
-78.7353515625
-70.49560546875
-71.4111328125
-81.48193359375
-84.228515625
-93.3837890625
-90.63720703125
-85.14404296875
-84.228515625
-81.48193359375
-85.14404296875
-82.3974609375
-80.56640625
-81.48193359375
-83.31298828125
-86.97509765625
-87.890625
-86.97509765625
-79.65087890625
-80.56640625
-78.7353515625
-80.56640625
-78.7353515625
-79.65087890625
-80.56640625
-84.228515625
-86.0595703125
-90.63720703125
-96.13037109375
-94.29931640625
-80.56640625
-63.17138671875
-40.283203125
-21.97265625
16.4794921875
71.4111328125
140.07568359375
237.12158203125
336.9140625
449.52392578125
599.67041015625
756.2255859375
887.14599609375
988.76953125
1084.89990234375
1118.7744140625
1044.61669921875
784.60693359375
510.8642578125
268.24951171875
28.38134765625
-204.16259765625
-376.28173828125
-464.17236328125
-487.060546875
-512.6953125
-517.27294921875
-476.98974609375
-433.9599609375
-402.83203125
-353.3935546875
-313.1103515625
-273.74267578125
-229.79736328125
-190.4296875
-151.06201171875
-114.44091796875
-83.31298828125
-64.0869140625
-58.59375
-52.18505859375
-54.01611328125
-45.7763671875
-41.19873046875
-43.9453125
-44.86083984375
-40.283203125
-35.70556640625
-33.87451171875
-29.296875
-26.55029296875
-22.88818359375
-14.6484375
-15.56396484375
-15.56396484375
-16.4794921875
-12.8173828125
-14.6484375
-3.662109375
0
2.74658203125
8.23974609375
1.8310546875
0
-3.662109375
-5.4931640625
-4.57763671875
2.74658203125
3.662109375
8.23974609375
15.56396484375
18.310546875
15.56396484375
16.4794921875
17.39501953125
11.90185546875
16.4794921875
21.97265625
18.310546875
24.71923828125
30.21240234375
34.7900390625
32.04345703125
25.634765625
26.55029296875
29.296875
32.958984375
40.283203125
48.52294921875
50.35400390625
56.7626953125
55.84716796875
60.4248046875
64.0869140625
65.91796875
63.17138671875
69.580078125
73.2421875
80.56640625
85.14404296875
97.0458984375
99.79248046875
93.3837890625
100.7080078125
111.6943359375
112.60986328125
118.10302734375
129.08935546875
137.3291015625
145.56884765625
150.146484375
155.6396484375
165.71044921875
166.6259765625
175.78125
181.2744140625
190.4296875
202.33154296875
215.14892578125
230.712890625
237.12158203125
245.361328125
250.8544921875
265.5029296875
273.74267578125
279.23583984375
283.8134765625
298.4619140625
308.53271484375
316.7724609375
328.67431640625
334.16748046875
342.4072265625
346.98486328125
343.32275390625
347.900390625
347.900390625
351.5625
365.29541015625
368.95751953125
368.95751953125
377.197265625
368.0419921875
365.29541015625
359.80224609375
358.88671875
353.3935546875
346.98486328125
340.576171875
333.251953125
335.0830078125
321.35009765625
312.19482421875
289.306640625
273.74267578125
253.60107421875
236.2060546875
220.64208984375
205.99365234375
199.5849609375
184.9365234375
157.470703125
147.39990234375
135.498046875
118.10302734375
97.0458984375
83.31298828125
74.15771484375
67.7490234375
57.67822265625
44.86083984375
40.283203125
29.296875
9.1552734375
-0.91552734375
-6.40869140625
-12.8173828125
-21.05712890625
-25.634765625
-30.21240234375
-32.04345703125
-38.4521484375
-45.7763671875
-44.86083984375
-50.35400390625
-58.59375
-61.34033203125
-62.255859375
-64.0869140625
-63.17138671875
-65.91796875
-65.91796875
-69.580078125
-75.0732421875
-73.2421875
-67.7490234375
-74.15771484375
-77.81982421875
-75.0732421875
-78.7353515625
-79.65087890625
-80.56640625
-82.3974609375
-81.48193359375
-78.7353515625
-86.97509765625
-83.31298828125
-80.56640625
-79.65087890625
-76.904296875
-79.65087890625
-85.14404296875
-86.0595703125
-84.228515625
-85.14404296875
-78.7353515625
-83.31298828125
-85.14404296875
-79.65087890625
-80.56640625
-80.56640625
-81.48193359375
-75.98876953125
-73.2421875
-75.0732421875
-80.56640625
-82.3974609375
-85.14404296875
-80.56640625
-72.32666015625
-72.32666015625
-72.32666015625
-70.49560546875
-74.15771484375
-75.0732421875
-77.81982421875
-81.48193359375
-76.904296875
-72.32666015625
-65.00244140625
-67.7490234375
-60.4248046875
-66.83349609375
-73.2421875
-81.48193359375
-75.0732421875
-73.2421875
-75.0732421875
-71.4111328125
-58.59375
-56.7626953125
-63.17138671875
-60.4248046875
-63.17138671875
-60.4248046875
-68.66455078125
-68.66455078125
-67.7490234375
-63.17138671875
-60.4248046875
-60.4248046875
-62.255859375
-65.00244140625
-68.66455078125
-70.49560546875
-70.49560546875
-73.2421875
-65.00244140625
-65.91796875
-62.255859375
-59.50927734375
-62.255859375
-64.0869140625
-65.91796875
-66.83349609375
-69.580078125
-72.32666015625
-71.4111328125
-65.91796875
-59.50927734375
-65.91796875
-62.255859375
-65.91796875
-77.81982421875
-77.81982421875
-73.2421875
-68.66455078125
-75.0732421875
-79.65087890625
-77.81982421875
-76.904296875
-75.0732421875
-73.2421875
-72.32666015625
-80.56640625
-77.81982421875
-80.56640625
-78.7353515625
-76.904296875
-75.98876953125
-75.98876953125
-80.56640625
-85.14404296875
-80.56640625
-83.31298828125
-86.97509765625
-86.97509765625
-85.14404296875
-79.65087890625
-82.3974609375
-77.81982421875
-76.904296875
-84.228515625
-85.14404296875
-78.7353515625
-83.31298828125
-88.80615234375
-86.97509765625
-88.80615234375
-83.31298828125
-81.48193359375
-82.3974609375
-86.97509765625
-79.65087890625
-80.56640625
-83.31298828125
-79.65087890625
-80.56640625
-77.81982421875
-82.3974609375
-77.81982421875
-81.48193359375
-75.98876953125
-79.65087890625
-79.65087890625
-85.14404296875
-82.3974609375
-79.65087890625
-74.15771484375
-73.2421875
-80.56640625
-75.0732421875
-75.0732421875
-81.48193359375
-86.97509765625
-85.14404296875
-81.48193359375
-81.48193359375
-73.2421875
-75.98876953125
-71.4111328125
-78.7353515625
-78.7353515625
-80.56640625
-83.31298828125
-80.56640625
-84.228515625
-76.904296875
-76.904296875
-73.2421875
-80.56640625
-74.15771484375
-79.65087890625
-85.14404296875
-86.97509765625
-86.0595703125
-80.56640625
-76.904296875
-74.15771484375
-76.904296875
-75.0732421875
-74.15771484375
-76.904296875
-86.0595703125
-88.80615234375
-86.0595703125
-82.3974609375
-84.228515625
-80.56640625
-77.81982421875
-82.3974609375
-86.97509765625
-84.228515625
-87.890625
-91.552734375
-85.14404296875
-82.3974609375
-84.228515625
-81.48193359375
-79.65087890625
-79.65087890625
-83.31298828125
-84.228515625
-86.0595703125
-86.0595703125
-82.3974609375
-81.48193359375
-75.0732421875
-62.255859375
-59.50927734375
-55.84716796875
-52.18505859375
-49.4384765625
-43.9453125
-35.70556640625
-30.21240234375
-23.8037109375
-25.634765625
-23.8037109375
-26.55029296875
-29.296875
-25.634765625
-18.310546875
-32.04345703125
-43.02978515625
-47.607421875
-32.04345703125
-15.56396484375
-0.91552734375
9.1552734375
4.57763671875
-6.40869140625
-1.8310546875
-10.986328125
-27.4658203125
-29.296875
-29.296875
-29.296875
-30.21240234375
-24.71923828125
-13.73291015625
-19.22607421875
-22.88818359375
-31.1279296875
-34.7900390625
-31.1279296875
-37.53662109375
-41.19873046875
-45.7763671875
-48.52294921875
-54.931640625
-62.255859375
-67.7490234375
-74.15771484375
-84.228515625
-92.46826171875
-95.21484375
-90.63720703125
-80.56640625
-77.81982421875
-79.65087890625
-84.228515625
-86.0595703125
-90.63720703125
-90.63720703125
-91.552734375
-86.0595703125
-81.48193359375
-74.15771484375
-77.81982421875
-85.14404296875
-83.31298828125
-89.7216796875
-89.7216796875
-91.552734375
-90.63720703125
-90.63720703125
-93.3837890625
-89.7216796875
-87.890625
-86.0595703125
-88.80615234375
-78.7353515625
-80.56640625
-86.0595703125
-84.228515625
-84.228515625
-82.3974609375
-83.31298828125
-86.97509765625
-81.48193359375
-81.48193359375
-79.65087890625
-86.0595703125
-101.62353515625
-119.0185546875
-117.1875
-92.46826171875
-65.91796875
-41.19873046875
-14.6484375
31.1279296875
99.79248046875
170.2880859375
263.671875
369.873046875
487.060546875
661.0107421875
824.89013671875
964.9658203125
1070.25146484375
1152.64892578125
1166.3818359375
1047.36328125
762.63427734375
520.93505859375
280.1513671875
42.1142578125
-191.34521484375
-365.29541015625
-456.84814453125
-487.060546875
-517.27294921875
-519.10400390625
-478.82080078125
-440.36865234375
-399.169921875
-356.14013671875
-311.279296875
-268.24951171875
-228.8818359375
-183.10546875
-139.16015625
-97.0458984375
-79.65087890625
-70.49560546875
-68.66455078125
-65.91796875
-67.7490234375
-62.255859375
-52.18505859375
-43.9453125
-40.283203125
-47.607421875
-43.02978515625
-45.7763671875
-49.4384765625
-43.9453125
-37.53662109375
-34.7900390625
-29.296875
-28.38134765625
-32.04345703125
-28.38134765625
-27.4658203125
-26.55029296875
-21.05712890625
-14.6484375
-2.74658203125
-10.07080078125
-10.986328125
-13.73291015625
-14.6484375
-17.39501953125
-4.57763671875
-9.1552734375
-7.32421875
-0.91552734375
4.57763671875
6.40869140625
8.23974609375
4.57763671875
0.91552734375
1.8310546875
5.4931640625
3.662109375
3.662109375
8.23974609375
11.90185546875
19.22607421875
27.4658203125
29.296875
21.97265625
21.05712890625
29.296875
28.38134765625
33.87451171875
43.02978515625
50.35400390625
55.84716796875
57.67822265625
58.59375
65.00244140625
64.0869140625
62.255859375
63.17138671875
70.49560546875
84.228515625
87.890625
92.46826171875
99.79248046875
109.86328125
112.60986328125
114.44091796875
117.1875
124.51171875
132.75146484375
140.9912109375
151.06201171875
158.38623046875
166.6259765625
173.03466796875
184.02099609375
186.767578125
191.34521484375
203.2470703125
212.40234375
225.2197265625
244.44580078125
257.26318359375
261.8408203125
276.4892578125
286.56005859375
292.96875
292.05322265625
296.630859375
312.19482421875
324.0966796875
329.58984375
338.7451171875
341.49169921875
349.7314453125
356.14013671875
359.80224609375
361.63330078125
365.29541015625
368.0419921875
367.12646484375
372.61962890625
380.859375
373.53515625
368.95751953125
361.63330078125
353.3935546875
348.81591796875
342.4072265625
329.58984375
320.4345703125
312.19482421875
303.03955078125
289.306640625
280.1513671875
263.671875
243.5302734375
226.13525390625
211.48681640625
186.767578125
176.69677734375
167.54150390625
154.72412109375
136.41357421875
121.76513671875
106.201171875
82.3974609375
70.49560546875
56.7626953125
45.7763671875
35.70556640625
24.71923828125
17.39501953125
17.39501953125
7.32421875
1.8310546875
-11.90185546875
-24.71923828125
-34.7900390625
-37.53662109375
-38.4521484375
-39.36767578125
-43.02978515625
-49.4384765625
-47.607421875
-51.26953125
-62.255859375
-67.7490234375
-71.4111328125
-75.98876953125
-80.56640625
-78.7353515625
-75.98876953125
-72.32666015625
-76.904296875
-84.228515625
-86.97509765625
-86.0595703125
-88.80615234375
-96.13037109375
-94.29931640625
-85.14404296875
-84.228515625
-85.14404296875
-86.0595703125
-86.97509765625
-91.552734375
-96.13037109375
-97.96142578125
-92.46826171875
-90.63720703125
-84.228515625
-82.3974609375
-82.3974609375
-84.228515625
-84.228515625
-85.14404296875
-86.97509765625
-90.63720703125
-86.97509765625
-86.0595703125
-75.98876953125
-74.15771484375
-71.4111328125
-72.32666015625
-76.904296875
-86.0595703125
-86.0595703125
-80.56640625
-80.56640625
-78.7353515625
-75.0732421875
-72.32666015625
-72.32666015625
-71.4111328125
-70.49560546875
-71.4111328125
-70.49560546875
-75.0732421875
-76.904296875
-80.56640625
-77.81982421875
-71.4111328125
-67.7490234375
-72.32666015625
-75.0732421875
-78.7353515625
-81.48193359375
-78.7353515625
-76.904296875
-77.81982421875
-72.32666015625
-67.7490234375
-67.7490234375
-67.7490234375
-68.66455078125
-71.4111328125
-77.81982421875
-78.7353515625
-76.904296875
-77.81982421875
-74.15771484375
-67.7490234375
-65.91796875
-68.66455078125
-66.83349609375
-73.2421875
-80.56640625
-75.0732421875
-86.0595703125
-78.7353515625
-74.15771484375
-71.4111328125
-74.15771484375
-72.32666015625
-75.0732421875
-76.904296875
-77.81982421875
-80.56640625
-75.0732421875
-75.98876953125
-79.65087890625
-77.81982421875
-76.904296875
-82.3974609375
-82.3974609375
-83.31298828125
-82.3974609375
-82.3974609375
-87.890625
-82.3974609375
-78.7353515625
-74.15771484375
-71.4111328125
-71.4111328125
-75.98876953125
-81.48193359375
-81.48193359375
-83.31298828125
-83.31298828125
-81.48193359375
-74.15771484375
-75.0732421875
-74.15771484375
-81.48193359375
-86.0595703125
-83.31298828125
-87.890625
-86.97509765625
-90.63720703125
-79.65087890625
-78.7353515625
-79.65087890625
-82.3974609375
-85.14404296875
-82.3974609375
-81.48193359375
-84.228515625
-84.228515625
-85.14404296875
-90.63720703125
-90.63720703125
-83.31298828125
-86.0595703125
-96.13037109375
-99.79248046875
-95.21484375
-99.79248046875
-101.62353515625
-104.3701171875
-92.46826171875
-87.890625
-86.97509765625
-86.97509765625
-84.228515625
-83.31298828125
-86.0595703125
-92.46826171875
-90.63720703125
-87.890625
-87.890625
-89.7216796875
-86.0595703125
-86.0595703125
-89.7216796875
-95.21484375
-94.29931640625
-92.46826171875
-92.46826171875
-93.3837890625
-86.0595703125
-78.7353515625
-79.65087890625
-81.48193359375
-79.65087890625
-78.7353515625
-87.890625
-87.890625
-92.46826171875
-90.63720703125
-86.0595703125
-84.228515625
-80.56640625
-81.48193359375
-85.14404296875
-84.228515625
-89.7216796875
-88.80615234375
-90.63720703125
-91.552734375
-87.890625
-86.0595703125
-84.228515625
-86.97509765625
-92.46826171875
-96.13037109375
-101.62353515625
-97.96142578125
-93.3837890625
-90.63720703125
-90.63720703125
-87.890625
-86.97509765625
-89.7216796875
-90.63720703125
-89.7216796875
-86.97509765625
-91.552734375
-97.96142578125
-96.13037109375
-88.80615234375
-91.552734375
-86.97509765625
-80.56640625
-80.56640625
-79.65087890625
-84.228515625
-88.80615234375
-87.890625
-91.552734375
-85.14404296875
-82.3974609375
-81.48193359375
-77.81982421875
-79.65087890625
-81.48193359375
-79.65087890625
-79.65087890625
-78.7353515625
-64.0869140625
-53.1005859375
-43.02978515625
-41.19873046875
-33.87451171875
-27.4658203125
-26.55029296875
-29.296875
-28.38134765625
-34.7900390625
-39.36767578125
-39.36767578125
-25.634765625
-30.21240234375
-41.19873046875
-45.7763671875
-36.62109375
-25.634765625
-8.23974609375
-7.32421875
-10.986328125
-9.1552734375
-10.07080078125
-8.23974609375
-21.05712890625
-28.38134765625
-32.04345703125
-30.21240234375
-33.87451171875
-30.21240234375
-26.55029296875
-25.634765625
-22.88818359375
-19.22607421875
-26.55029296875
-30.21240234375
-37.53662109375
-49.4384765625
-50.35400390625
-56.7626953125
-52.18505859375
-60.4248046875
-67.7490234375
-71.4111328125
-78.7353515625
-83.31298828125
-87.890625
-90.63720703125
-90.63720703125
-86.97509765625
-85.14404296875
-81.48193359375
-81.48193359375
-78.7353515625
-83.31298828125
-83.31298828125
-86.97509765625
-84.228515625
-85.14404296875
-89.7216796875
-89.7216796875
-86.0595703125
-75.0732421875
-75.98876953125
-81.48193359375
-83.31298828125
-80.56640625
-87.890625
-88.80615234375
-90.63720703125
-94.29931640625
-94.29931640625
-90.63720703125
-92.46826171875
-77.81982421875
-78.7353515625
-82.3974609375
-85.14404296875
-86.0595703125
-79.65087890625
-86.0595703125
-87.890625
-92.46826171875
-93.3837890625
-101.62353515625
-108.94775390625
-112.60986328125
-105.28564453125
-80.56640625
-55.84716796875
-34.7900390625
-1.8310546875
56.7626953125
131.8359375
218.81103515625
323.18115234375
433.04443359375
585.9375
762.63427734375
916.44287109375
1029.96826171875
1132.50732421875
1185.60791015625
1127.9296875
883.48388671875
617.0654296875
381.77490234375
141.90673828125
-107.11669921875
-314.94140625
-424.8046875
-468.75
-496.2158203125
-505.37109375
-477.9052734375
-439.453125
-408.3251953125
-368.0419921875
-326.84326171875
-282.89794921875
-247.1923828125
-197.75390625
-149.23095703125
-108.94775390625
-79.65087890625
-65.00244140625
-66.83349609375
-61.34033203125
-59.50927734375
-51.26953125
-45.7763671875
-41.19873046875
-37.53662109375
-34.7900390625
-39.36767578125
-34.7900390625
-34.7900390625
-31.1279296875
-30.21240234375
-30.21240234375
-33.87451171875
-33.87451171875
-23.8037109375
-20.1416015625
-13.73291015625
-10.986328125
-16.4794921875
-17.39501953125
-12.8173828125
-17.39501953125
-13.73291015625
-13.73291015625
-8.23974609375
-5.4931640625
-2.74658203125
2.74658203125
0
4.57763671875
0
1.8310546875
-1.8310546875
7.32421875
12.8173828125
13.73291015625
18.310546875
20.1416015625
20.1416015625
21.05712890625
23.8037109375
25.634765625
28.38134765625
34.7900390625
41.19873046875
39.36767578125
37.53662109375
41.19873046875
44.86083984375
47.607421875
54.01611328125
55.84716796875
55.84716796875
65.00244140625
73.2421875
82.3974609375
82.3974609375
86.0595703125
86.97509765625
81.48193359375
81.48193359375
89.7216796875
98.876953125
109.86328125
111.6943359375
116.27197265625
122.6806640625
124.51171875
135.498046875
141.90673828125
145.56884765625
151.9775390625
159.3017578125
173.03466796875
179.443359375
190.4296875
205.078125
216.064453125
219.7265625
228.8818359375
237.12158203125
240.78369140625
253.60107421875
268.24951171875
276.4892578125
284.72900390625
298.4619140625
309.4482421875
317.68798828125
325.927734375
335.0830078125
339.66064453125
347.900390625
357.0556640625
365.29541015625
372.61962890625
375.3662109375
373.53515625
373.53515625
377.197265625
374.45068359375
372.61962890625
373.53515625
376.28173828125
376.28173828125
375.3662109375
368.0419921875
357.97119140625
352.47802734375
336.9140625
318.603515625
305.7861328125
295.71533203125
292.05322265625
276.4892578125
261.8408203125
241.69921875
221.5576171875
205.99365234375
191.34521484375
170.2880859375
152.89306640625
143.73779296875
131.8359375
118.10302734375
103.45458984375
87.890625
75.0732421875
64.0869140625
51.26953125
38.4521484375
23.8037109375
19.22607421875
10.986328125
-3.662109375
-9.1552734375
-20.1416015625
-23.8037109375
-24.71923828125
-31.1279296875
-35.70556640625
-44.86083984375
-42.1142578125
-41.19873046875
-43.02978515625
-47.607421875
-51.26953125
-54.931640625
-53.1005859375
-57.67822265625
-64.0869140625
-75.0732421875
-70.49560546875
-60.4248046875
-59.50927734375
-65.91796875
-66.83349609375
-67.7490234375
-72.32666015625
-75.98876953125
-75.98876953125
-75.98876953125
-77.81982421875
-75.0732421875
-71.4111328125
-68.66455078125
-69.580078125
-75.98876953125
-74.15771484375
-76.904296875
-75.98876953125
-75.98876953125
-75.98876953125
-75.0732421875
-75.98876953125
-79.65087890625
-81.48193359375
-79.65087890625
-73.2421875
-78.7353515625
-74.15771484375
-76.904296875
-75.0732421875
-71.4111328125
-75.98876953125
-69.580078125
-66.83349609375
-65.91796875
-68.66455078125
-72.32666015625
-68.66455078125
-60.4248046875
-63.17138671875
-64.0869140625
-67.7490234375
-67.7490234375
-59.50927734375
-65.00244140625
-70.49560546875
-73.2421875
-64.0869140625
-63.17138671875
-63.17138671875
-62.255859375
-61.34033203125
-62.255859375
-72.32666015625
-65.91796875
-59.50927734375
-65.00244140625
-66.83349609375
-67.7490234375
-64.0869140625
-57.67822265625
-54.931640625
-56.7626953125
-52.18505859375
-60.4248046875
-64.0869140625
-72.32666015625
-70.49560546875
-66.83349609375
-62.255859375
-63.17138671875
-60.4248046875
-57.67822265625
-56.7626953125
-59.50927734375
-59.50927734375
-56.7626953125
-67.7490234375
-60.4248046875
-62.255859375
-65.00244140625
-60.4248046875
-58.59375
-55.84716796875
-59.50927734375
-57.67822265625
-59.50927734375
-66.83349609375
-73.2421875
-68.66455078125
-66.83349609375
-66.83349609375
-67.7490234375
-65.91796875
-65.91796875
-62.255859375
-65.00244140625
-75.0732421875
-69.580078125
-69.580078125
-62.255859375
-62.255859375
-60.4248046875
-61.34033203125
-68.66455078125
-76.904296875
-83.31298828125
-75.0732421875
-76.904296875
-80.56640625
-75.98876953125
-75.0732421875
-81.48193359375
-81.48193359375
-80.56640625
-74.15771484375
-77.81982421875
-77.81982421875
-77.81982421875
-74.15771484375
-65.91796875
-70.49560546875
-74.15771484375
-75.0732421875
-75.98876953125
-81.48193359375
-80.56640625
-78.7353515625
-83.31298828125
-79.65087890625
-72.32666015625
-74.15771484375
-65.91796875
-57.67822265625
-62.255859375
-75.98876953125
-80.56640625
-75.98876953125
-76.904296875
-75.98876953125
-75.98876953125
-68.66455078125
-66.83349609375
-72.32666015625
-64.0869140625
-71.4111328125
-82.3974609375
-76.904296875
-79.65087890625
-80.56640625
-73.2421875
-78.7353515625
-80.56640625
-74.15771484375
-83.31298828125
-81.48193359375
-79.65087890625
-90.63720703125
-93.3837890625
-90.63720703125
-88.80615234375
-78.7353515625
-79.65087890625
-84.228515625
-86.97509765625
-87.890625
-90.63720703125
-99.79248046875
-90.63720703125
-89.7216796875
-87.890625
-83.31298828125
-80.56640625
-84.228515625
-88.80615234375
-86.0595703125
-91.552734375
-97.96142578125
-96.13037109375
-102.5390625
-95.21484375
-84.228515625
-84.228515625
-81.48193359375
-83.31298828125
-80.56640625
-83.31298828125
-86.0595703125
-86.97509765625
-88.80615234375
-78.7353515625
-79.65087890625
-83.31298828125
-91.552734375
-89.7216796875
-86.97509765625
-88.80615234375
-98.876953125
-95.21484375
-95.21484375
-87.890625
-84.228515625
-88.80615234375
-97.96142578125
-76.904296875
-75.98876953125
-95.21484375
-96.13037109375
-102.5390625
-101.62353515625
-92.46826171875
-91.552734375
-83.31298828125
-75.0732421875
-75.0732421875
-83.31298828125
-73.2421875
-60.4248046875
-65.00244140625
-57.67822265625
-50.35400390625
-45.7763671875
-35.70556640625
-28.38134765625
-39.36767578125
-66.83349609375
-68.66455078125
-65.00244140625
-61.34033203125
-66.83349609375
-68.66455078125
-48.52294921875
-16.4794921875
3.662109375
8.23974609375
2.74658203125
-9.1552734375
-16.4794921875
-16.4794921875
-20.1416015625
-19.22607421875
-14.6484375
-23.8037109375
-28.38134765625
-24.71923828125
-24.71923828125
-22.88818359375
-21.05712890625
-24.71923828125
-28.38134765625
-33.87451171875
-43.9453125
-33.87451171875
-42.1142578125
-48.52294921875
-49.4384765625
-56.7626953125
-68.66455078125
-72.32666015625
-79.65087890625
-79.65087890625
-90.63720703125
-94.29931640625
-91.552734375
-89.7216796875
-88.80615234375
-95.21484375
-101.62353515625
-109.86328125
-109.86328125
-97.0458984375
-86.97509765625
-82.3974609375
-71.4111328125
-75.98876953125
-76.904296875
-81.48193359375
-84.228515625
-87.890625
-95.21484375
-88.80615234375
-83.31298828125
-88.80615234375
-76.904296875
-79.65087890625
-88.80615234375
-75.98876953125
-81.48193359375
-91.552734375
-88.80615234375
-92.46826171875
-88.80615234375
-74.15771484375
-57.67822265625
-66.83349609375
-69.580078125
-76.904296875
-79.65087890625
-78.7353515625
-86.0595703125
-90.63720703125
-94.29931640625
-102.5390625
-75.0732421875
-60.4248046875
-54.01611328125
-37.53662109375
0
64.0869140625
135.498046875
225.2197265625
323.18115234375
455.9326171875
618.896484375
773.62060546875
925.59814453125
1024.47509765625
1123.35205078125
1151.7333984375
1081.23779296875
810.24169921875
539.24560546875
311.279296875
71.4111328125
-173.9501953125
-352.47802734375
-441.2841796875
-477.9052734375
-498.96240234375
-514.5263671875
-476.98974609375
-429.38232421875
-395.5078125
-362.548828125
-317.68798828125
-267.333984375
-234.375
-202.33154296875
-156.55517578125
-111.6943359375
-84.228515625
-61.34033203125
-53.1005859375
-59.50927734375
-75.98876953125
-75.98876953125
-76.904296875
-69.580078125
-70.49560546875
-70.49560546875
-53.1005859375
-43.02978515625
-48.52294921875
-41.19873046875
-48.52294921875
-54.01611328125
-54.931640625
-45.7763671875
-52.18505859375
-43.02978515625
-43.9453125
-45.7763671875
-31.1279296875
-25.634765625
-15.56396484375
-21.97265625
-32.04345703125
-34.7900390625
-29.296875
-25.634765625
-14.6484375
-12.8173828125
-17.39501953125
-15.56396484375
-9.1552734375
-10.07080078125
-8.23974609375
-4.57763671875
-2.74658203125
-3.662109375
-7.32421875
2.74658203125
19.22607421875
19.22607421875
13.73291015625
12.8173828125
15.56396484375
9.1552734375
7.32421875
12.8173828125
19.22607421875
23.8037109375
26.55029296875
34.7900390625
35.70556640625
32.04345703125
40.283203125
42.1142578125
42.1142578125
43.9453125
51.26953125
58.59375
62.255859375
73.2421875
77.81982421875
75.0732421875
83.31298828125
88.80615234375
88.80615234375
98.876953125
109.86328125
118.10302734375
124.51171875
125.42724609375
127.25830078125
134.58251953125
142.822265625
154.72412109375
155.6396484375
167.54150390625
184.02099609375
195.00732421875
208.740234375
212.40234375
226.13525390625
232.5439453125
241.69921875
249.93896484375
257.26318359375
264.58740234375
280.1513671875
292.05322265625
294.7998046875
300.29296875
315.85693359375
314.94140625
321.35009765625
331.4208984375
326.84326171875
336.9140625
354.30908203125
350.64697265625
343.32275390625
346.0693359375
354.30908203125
349.7314453125
349.7314453125
355.224609375
348.81591796875
344.23828125
335.0830078125
334.16748046875
325.01220703125
320.4345703125
300.29296875
287.4755859375
268.24951171875
254.5166015625
239.8681640625
227.05078125
212.40234375
200.50048828125
183.10546875
168.45703125
155.6396484375
137.3291015625
116.27197265625
96.13037109375
98.876953125
74.15771484375
54.931640625
46.69189453125
32.04345703125
25.634765625
13.73291015625
11.90185546875
-8.23974609375
-18.310546875
-26.55029296875
-22.88818359375
-28.38134765625
-36.62109375
-48.52294921875
-54.931640625
-63.17138671875
-61.34033203125
-67.7490234375
-82.3974609375
-82.3974609375
-80.56640625
-84.228515625
-96.13037109375
-89.7216796875
-75.0732421875
-84.228515625
-86.97509765625
-97.0458984375
-100.7080078125
-108.94775390625
-91.552734375
-99.79248046875
-97.0458984375
-95.21484375
-107.11669921875
-99.79248046875
-103.45458984375
-110.77880859375
-106.201171875
-107.11669921875
-108.0322265625
-111.6943359375
-111.6943359375
-100.7080078125
-100.7080078125
-108.0322265625
-105.28564453125
-101.62353515625
-102.5390625
-107.11669921875
-104.3701171875
-97.0458984375
-90.63720703125
-90.63720703125
-88.80615234375
-86.97509765625
-95.21484375
-105.28564453125
-101.62353515625
-97.96142578125
-94.29931640625
-94.29931640625
-93.3837890625
-86.97509765625
-88.80615234375
-93.3837890625
-94.29931640625
-95.21484375
-90.63720703125
-97.0458984375
-97.0458984375
-91.552734375
-88.80615234375
-86.97509765625
-85.14404296875
-81.48193359375
-88.80615234375
-97.96142578125
-92.46826171875
-97.0458984375
-94.29931640625
-82.3974609375
-81.48193359375
-77.81982421875
-77.81982421875
-80.56640625
-79.65087890625
-81.48193359375
-75.0732421875
-87.890625
-88.80615234375
-78.7353515625
-75.0732421875
-70.49560546875
-67.7490234375
-71.4111328125
-67.7490234375
-72.32666015625
-75.0732421875
-79.65087890625
-81.48193359375
-78.7353515625
-75.98876953125
-70.49560546875
-72.32666015625
-76.904296875
-75.0732421875
-84.228515625
-81.48193359375
-81.48193359375
-86.0595703125
-85.14404296875
-76.904296875
-79.65087890625
-76.904296875
-81.48193359375
-79.65087890625
-84.228515625
-86.0595703125
-83.31298828125
-83.31298828125
-77.81982421875
-77.81982421875
-81.48193359375
-83.31298828125
-84.228515625
-88.80615234375
-92.46826171875
-95.21484375
-93.3837890625
-90.63720703125
-87.890625
-81.48193359375
-82.3974609375
-84.228515625
-87.890625
-90.63720703125
-85.14404296875
-85.14404296875
-93.3837890625
-93.3837890625
-100.7080078125
-91.552734375
-91.552734375
-88.80615234375
-86.0595703125
-86.97509765625
-94.29931640625
-98.876953125
-92.46826171875
-79.65087890625
-85.14404296875
-86.97509765625
-82.3974609375
-82.3974609375
-92.46826171875
-93.3837890625
-93.3837890625
-98.876953125
-99.79248046875
-94.29931640625
-88.80615234375
-86.97509765625
-86.0595703125
-93.3837890625
-93.3837890625
-99.79248046875
-97.96142578125
-96.13037109375
-95.21484375
-94.29931640625
-92.46826171875
-87.890625
-86.0595703125
-91.552734375
-96.13037109375
-97.96142578125
-92.46826171875
-96.13037109375
-97.0458984375
-95.21484375
-92.46826171875
-89.7216796875
-86.0595703125
-85.14404296875
-96.13037109375
-102.5390625
-99.79248046875
-99.79248046875
-95.21484375
-99.79248046875
-91.552734375
-88.80615234375
-86.0595703125
-86.97509765625
-88.80615234375
-94.29931640625
-97.96142578125
-97.0458984375
-93.3837890625
-97.0458984375
-97.0458984375
-90.63720703125
-91.552734375
-85.14404296875
-82.3974609375
-83.31298828125
-90.63720703125
-94.29931640625
-99.79248046875
-97.0458984375
-92.46826171875
-87.890625
-88.80615234375
-94.29931640625
-99.79248046875
-97.0458984375
-97.0458984375
-97.96142578125
-98.876953125
-97.0458984375
-92.46826171875
-90.63720703125
-87.890625
-97.0458984375
-100.7080078125
-99.79248046875
-97.96142578125
-92.46826171875
-91.552734375
-90.63720703125
-79.65087890625
-74.15771484375
-61.34033203125
-60.4248046875
-59.50927734375
-48.52294921875
-40.283203125
-38.4521484375
-42.1142578125
-38.4521484375
-37.53662109375
-42.1142578125
-32.958984375
-30.21240234375
-35.70556640625
-49.4384765625
-47.607421875
-33.87451171875
-16.4794921875
-7.32421875
7.32421875
8.23974609375
17.39501953125
12.8173828125
-5.4931640625
-15.56396484375
-13.73291015625
-17.39501953125
-18.310546875
-16.4794921875
-7.32421875
-6.40869140625
-10.986328125
-17.39501953125
-22.88818359375
-25.634765625
-32.04345703125
-43.02978515625
-43.02978515625
-40.283203125
-44.86083984375
-57.67822265625
-56.7626953125
-62.255859375
-67.7490234375
-75.0732421875
-77.81982421875
-80.56640625
-82.3974609375
-77.81982421875
-76.904296875
-81.48193359375
-64.0869140625
-65.91796875
-69.580078125
-74.15771484375
-74.15771484375
-79.65087890625
-84.228515625
-84.228515625
-86.0595703125
-86.0595703125
-79.65087890625
-78.7353515625
-83.31298828125
-78.7353515625
-76.904296875
-87.890625
-81.48193359375
-85.14404296875
-86.97509765625
-81.48193359375
-78.7353515625
-82.3974609375
-79.65087890625
-81.48193359375
-81.48193359375
-81.48193359375
-76.904296875
-78.7353515625
-74.15771484375
-69.580078125
-78.7353515625
-84.228515625
-96.13037109375
-109.86328125
-112.60986328125
-91.552734375
-70.49560546875
-53.1005859375
-33.87451171875
16.4794921875
76.904296875
145.56884765625
226.13525390625
320.4345703125
459.5947265625
615.234375
782.77587890625
928.3447265625
1049.1943359375
1154.47998046875
1202.08740234375
1135.25390625
877.0751953125
610.65673828125
379.0283203125
140.9912109375
-99.79248046875
-289.306640625
-399.169921875
-439.453125
-465.087890625
-493.46923828125
-468.75
-432.12890625
-397.3388671875
-358.88671875
-308.53271484375
-266.41845703125
-228.8818359375
-173.9501953125
-119.0185546875
-87.890625
-73.2421875
-53.1005859375
-55.84716796875
-57.67822265625
-54.01611328125
-47.607421875
-43.9453125
-42.1142578125
-34.7900390625
-32.04345703125
-29.296875
-37.53662109375
-33.87451171875
-32.958984375
-33.87451171875
-25.634765625
-21.97265625
-17.39501953125
-12.8173828125
-11.90185546875
-14.6484375
-17.39501953125
-12.8173828125
-7.32421875
-10.986328125
-13.73291015625
-2.74658203125
0
4.57763671875
10.07080078125
6.40869140625
1.8310546875
6.40869140625
5.4931640625
4.57763671875
7.32421875
15.56396484375
20.1416015625
19.22607421875
16.4794921875
18.310546875
25.634765625
24.71923828125
22.88818359375
15.56396484375
24.71923828125
34.7900390625
33.87451171875
43.02978515625
49.4384765625
46.69189453125
48.52294921875
51.26953125
50.35400390625
53.1005859375
59.50927734375
63.17138671875
70.49560546875
75.98876953125
75.98876953125
79.65087890625
87.890625
86.0595703125
87.890625
91.552734375
100.7080078125
107.11669921875
114.44091796875
127.25830078125
132.75146484375
134.58251953125
139.16015625
140.9912109375
147.39990234375
166.6259765625
163.87939453125
172.119140625
184.9365234375
194.091796875
205.078125
209.65576171875
215.14892578125
223.388671875
232.5439453125
239.8681640625
249.93896484375
262.75634765625
279.23583984375
291.1376953125
295.71533203125
310.36376953125
322.265625
325.927734375
333.251953125
338.7451171875
350.64697265625
365.29541015625
368.95751953125
374.45068359375
374.45068359375
378.11279296875
378.11279296875
384.521484375
381.77490234375
380.859375
382.6904296875
376.28173828125
388.18359375
383.60595703125
379.0283203125
370.78857421875
363.46435546875
353.3935546875
343.32275390625
332.33642578125
319.51904296875
306.70166015625
296.630859375
284.72900390625
263.671875
243.5302734375
222.47314453125
207.82470703125
189.51416015625
170.2880859375
150.146484375
134.58251953125
122.6806640625
112.60986328125
98.876953125
90.63720703125
81.48193359375
58.59375
41.19873046875
23.8037109375
13.73291015625
9.1552734375
3.662109375
-6.40869140625
-8.23974609375
-15.56396484375
-25.634765625
-30.21240234375
-37.53662109375
-43.02978515625
-43.9453125
-52.18505859375
-63.17138671875
-48.52294921875
-54.931640625
-59.50927734375
-59.50927734375
-65.00244140625
-71.4111328125
-74.15771484375
-72.32666015625
-75.0732421875
-77.81982421875
-74.15771484375
-74.15771484375
-75.0732421875
-77.81982421875
-84.228515625
-86.97509765625
-88.80615234375
-84.228515625
-86.97509765625
-90.63720703125
-79.65087890625
-78.7353515625
-86.97509765625
-84.228515625
-83.31298828125
-96.13037109375
-83.31298828125
-86.0595703125
-89.7216796875
-85.14404296875
-87.890625
-87.890625
-81.48193359375
-85.14404296875
-95.21484375
-91.552734375
-95.21484375
-91.552734375
-90.63720703125
-85.14404296875
-83.31298828125
-84.228515625
-88.80615234375
-94.29931640625
-87.890625
-89.7216796875
-93.3837890625
-94.29931640625
-90.63720703125
-89.7216796875
-89.7216796875
-80.56640625
-76.904296875
-79.65087890625
-82.3974609375
-84.228515625
-82.3974609375
-76.904296875
-77.81982421875
-77.81982421875
-69.580078125
-67.7490234375
-65.00244140625
-68.66455078125
-73.2421875
-76.904296875
-73.2421875
-75.0732421875
-79.65087890625
-65.00244140625
-61.34033203125
-61.34033203125
-65.00244140625
-70.49560546875
-71.4111328125
-73.2421875
-77.81982421875
-80.56640625
-76.904296875
-73.2421875
-71.4111328125
-69.580078125
-73.2421875
-74.15771484375
-65.91796875
-72.32666015625
-80.56640625
-79.65087890625
-79.65087890625
-76.904296875
-82.3974609375
-83.31298828125
-75.0732421875
-75.0732421875
-77.81982421875
-83.31298828125
-81.48193359375
-80.56640625
-84.228515625
-77.81982421875
-72.32666015625
-82.3974609375
-80.56640625
-77.81982421875
-83.31298828125
-91.552734375
-82.3974609375
-86.0595703125
-82.3974609375
-75.0732421875
-77.81982421875
-84.228515625
-85.14404296875
-92.46826171875
-89.7216796875
-86.97509765625
-92.46826171875
-97.0458984375
-97.0458984375
-86.97509765625
-83.31298828125
-84.228515625
-86.97509765625
-88.80615234375
-92.46826171875
-99.79248046875
-101.62353515625
-95.21484375
-92.46826171875
-94.29931640625
-93.3837890625
-79.65087890625
-87.890625
-87.890625
-86.97509765625
-93.3837890625
-99.79248046875
-98.876953125
-89.7216796875
-87.890625
-88.80615234375
-90.63720703125
-102.5390625
-94.29931640625
-93.3837890625
-95.21484375
-100.7080078125
-95.21484375
-93.3837890625
-97.0458984375
-97.96142578125
-103.45458984375
-101.62353515625
-92.46826171875
-92.46826171875
-96.13037109375
-93.3837890625
-98.876953125
-97.96142578125
-93.3837890625
-97.96142578125
-94.29931640625
-102.5390625
-103.45458984375
-98.876953125
-97.0458984375
-95.21484375
-94.29931640625
-95.21484375
-93.3837890625
-97.96142578125
-94.29931640625
-83.31298828125
-93.3837890625
-95.21484375
-89.7216796875
-94.29931640625
-105.28564453125
-90.63720703125
-91.552734375
-96.13037109375
-94.29931640625
-92.46826171875
-98.876953125
-106.201171875
-107.11669921875
-103.45458984375
-102.5390625
-108.94775390625
-108.0322265625
-111.6943359375
-107.11669921875
-109.86328125
-109.86328125
-111.6943359375
-104.3701171875
-93.3837890625
-104.3701171875
-97.96142578125
-97.0458984375
-90.63720703125
-86.97509765625
-95.21484375
-91.552734375
-90.63720703125
-99.79248046875
-97.96142578125
-96.13037109375
-90.63720703125
-84.228515625
-86.97509765625
-79.65087890625
-85.14404296875
-87.890625
-76.904296875
-72.32666015625
-76.904296875
-85.14404296875
-59.50927734375
-48.52294921875
-46.69189453125
-54.931640625
-54.01611328125
-65.91796875
-66.83349609375
-68.66455078125
-65.00244140625
-70.49560546875
-65.91796875
-59.50927734375
-32.958984375
-13.73291015625
-5.4931640625
-5.4931640625
-32.04345703125
-26.55029296875
-22.88818359375
-21.97265625
-28.38134765625
-35.70556640625
-36.62109375
-39.36767578125
-33.87451171875
-33.87451171875
-39.36767578125
-37.53662109375
-50.35400390625
-53.1005859375
-55.84716796875
-49.4384765625
-41.19873046875
-38.4521484375
-42.1142578125
-66.83349609375
-93.3837890625
-112.60986328125
-119.93408203125
-130.0048828125
-118.10302734375
-118.10302734375
-111.6943359375
-113.525390625
-100.7080078125
-105.28564453125
-115.3564453125
-119.0185546875
-119.93408203125
-119.93408203125
-120.849609375
-123.59619140625
-122.6806640625
-125.42724609375
-104.3701171875
-115.3564453125
-116.27197265625
-116.27197265625
-106.201171875
-97.0458984375
-101.62353515625
-87.890625
-104.3701171875
-107.11669921875
-97.96142578125
-103.45458984375
-113.525390625
-120.849609375
-121.76513671875
-112.60986328125
-89.7216796875
-80.56640625
-99.79248046875
-115.3564453125
-109.86328125
-111.6943359375
-119.93408203125
-125.42724609375
-137.3291015625
-157.470703125
-161.1328125
-151.06201171875
-124.51171875
-88.80615234375
-74.15771484375
-48.52294921875
0.91552734375
64.0869140625
133.6669921875
238.037109375
351.5625
481.5673828125
651.85546875
813.90380859375
946.6552734375
1058.349609375
1143.49365234375
1144.4091796875
993.34716796875
700.37841796875
456.84814453125
217.8955078125
-5.4931640625
-238.95263671875
-391.845703125
-464.17236328125
-509.94873046875
-544.73876953125
-549.31640625
-515.44189453125
-474.2431640625
-410.15625
-362.548828125
-303.955078125
-255.43212890625
-205.078125
-156.55517578125
-120.849609375
-85.14404296875
-55.84716796875
-51.26953125
-39.36767578125
-35.70556640625
-41.19873046875
-47.607421875
-41.19873046875
-38.4521484375
-50.35400390625
-50.35400390625
-44.86083984375
-42.1142578125
-45.7763671875
-47.607421875
-41.19873046875
-37.53662109375
-37.53662109375
-36.62109375
-34.7900390625
-39.36767578125
-33.87451171875
-24.71923828125
-24.71923828125
-27.4658203125
-31.1279296875
-30.21240234375
-39.36767578125
-34.7900390625
-10.986328125
-0.91552734375
0.91552734375
-11.90185546875
0
-10.07080078125
-7.32421875
0
10.986328125
10.07080078125
6.40869140625
11.90185546875
5.4931640625
6.40869140625
9.1552734375
11.90185546875
21.05712890625
21.97265625
32.04345703125
35.70556640625
29.296875
25.634765625
43.02978515625
45.7763671875
54.01611328125
54.01611328125
53.1005859375
61.34033203125
64.0869140625
65.00244140625
55.84716796875
54.931640625
57.67822265625
56.7626953125
63.17138671875
71.4111328125
60.4248046875
65.91796875
86.97509765625
88.80615234375
95.21484375
108.0322265625
108.0322265625
116.27197265625
127.25830078125
142.822265625
157.470703125
163.87939453125
164.794921875
165.71044921875
163.87939453125
175.78125
181.2744140625
204.16259765625
226.13525390625
239.8681640625
239.8681640625
262.75634765625
270.08056640625
272.8271484375
284.72900390625
292.05322265625
298.4619140625
299.37744140625
314.94140625
319.51904296875
327.7587890625
336.9140625
346.98486328125
347.900390625
348.81591796875
355.224609375
357.0556640625
368.0419921875
379.94384765625
382.6904296875
376.28173828125
369.873046875
361.63330078125
348.81591796875
335.0830078125
333.251953125
335.99853515625
337.82958984375
312.19482421875
287.4755859375
277.40478515625
279.23583984375
271.91162109375
261.8408203125
256.34765625
235.29052734375
212.40234375
191.34521484375
181.2744140625
172.119140625
185.85205078125
165.71044921875
132.75146484375
122.6806640625
104.3701171875
84.228515625
60.4248046875
49.4384765625
49.4384765625
32.04345703125
30.21240234375
24.71923828125
9.1552734375
-15.56396484375
-40.283203125
-48.52294921875
-50.35400390625
-53.1005859375
-55.84716796875
-57.67822265625
-69.580078125
-66.83349609375
-54.931640625
-56.7626953125
-74.15771484375
-71.4111328125
-79.65087890625
-90.63720703125
-76.904296875
-85.14404296875
-88.80615234375
-79.65087890625
-91.552734375
-99.79248046875
-98.876953125
-97.0458984375
-93.3837890625
-102.5390625
-100.7080078125
-78.7353515625
-89.7216796875
-96.13037109375
-95.21484375
-96.13037109375
-97.96142578125
-102.5390625
-86.97509765625
-86.0595703125
-91.552734375
-89.7216796875
-86.0595703125
-100.7080078125
-92.46826171875
-82.3974609375
-96.13037109375
-89.7216796875
-89.7216796875
-104.3701171875
-99.79248046875
-86.97509765625
-82.3974609375
-81.48193359375
-84.228515625
-93.3837890625
-95.21484375
-92.46826171875
-85.14404296875
-80.56640625
-78.7353515625
-80.56640625
-86.0595703125
-86.97509765625
-94.29931640625
-92.46826171875
-94.29931640625
-98.876953125
-97.96142578125
-92.46826171875
-80.56640625
-73.2421875
-75.98876953125
-82.3974609375
-87.890625
-89.7216796875
-89.7216796875
-90.63720703125
-86.0595703125
-80.56640625
-79.65087890625
-80.56640625
-75.0732421875
-81.48193359375
-82.3974609375
-80.56640625
-79.65087890625
-78.7353515625
-74.15771484375
-74.15771484375
-72.32666015625
-71.4111328125
-73.2421875
-72.32666015625
-78.7353515625
-76.904296875
-80.56640625
-86.0595703125
-82.3974609375
-79.65087890625
-75.0732421875
-71.4111328125
-69.580078125
-66.83349609375
-75.0732421875
-82.3974609375
-89.7216796875
-92.46826171875
-88.80615234375
-86.97509765625
-76.904296875
-75.98876953125
-78.7353515625
-76.904296875
-83.31298828125
-88.80615234375
-97.0458984375
-97.96142578125
-94.29931640625
-92.46826171875
-88.80615234375
-93.3837890625
-88.80615234375
-87.890625
-94.29931640625
-99.79248046875
-97.0458984375
-98.876953125
-101.62353515625
-98.876953125
-89.7216796875
-90.63720703125
-93.3837890625
-97.96142578125
-106.201171875
-113.525390625
-115.3564453125
-101.62353515625
-98.876953125
-99.79248046875
-94.29931640625
-96.13037109375
-95.21484375
-99.79248046875
-102.5390625
-98.876953125
-100.7080078125
-109.86328125
-103.45458984375
-110.77880859375
-107.11669921875
-98.876953125
-103.45458984375
-108.0322265625
-113.525390625
-116.27197265625
-107.11669921875
-110.77880859375
-107.11669921875
-102.5390625
-98.876953125
-93.3837890625
-96.13037109375
-102.5390625
-103.45458984375
-108.94775390625
-109.86328125
-115.3564453125
-100.7080078125
-100.7080078125
-100.7080078125
-102.5390625
-101.62353515625
-108.0322265625
-106.201171875
-110.77880859375
-118.10302734375
-117.1875
-112.60986328125
-105.28564453125
-91.552734375
-98.876953125
-103.45458984375
-94.29931640625
-91.552734375
-95.21484375
-97.96142578125
-105.28564453125
-108.0322265625
-108.0322265625
-100.7080078125
-97.96142578125
-97.96142578125
-97.0458984375
-93.3837890625
-99.79248046875
-99.79248046875
-91.552734375
-88.80615234375
-72.32666015625
-74.15771484375
-62.255859375
-49.4384765625
-46.69189453125
-43.9453125
-43.9453125
-52.18505859375
-48.52294921875
-48.52294921875
-48.52294921875
-43.9453125
-34.7900390625
-41.19873046875
-52.18505859375
-55.84716796875
-47.607421875
-34.7900390625
-18.310546875
-8.23974609375
-17.39501953125
-16.4794921875
-9.1552734375
-17.39501953125
-18.310546875
-25.634765625
-36.62109375
-48.52294921875
-52.18505859375
-39.36767578125
-34.7900390625
-35.70556640625
-43.02978515625
-50.35400390625
-52.18505859375
-47.607421875
-66.83349609375
-75.0732421875
-70.49560546875
-79.65087890625
-91.552734375
-79.65087890625
-84.228515625
-101.62353515625
-96.13037109375
-107.11669921875
-118.10302734375
-117.1875
-108.0322265625
-108.0322265625
-113.525390625
-97.96142578125
-86.97509765625
-98.876953125
-106.201171875
-110.77880859375
-117.1875
-110.77880859375
-111.6943359375
-112.60986328125
-104.3701171875
-103.45458984375
-101.62353515625
-106.201171875
-120.849609375
-115.3564453125
-108.94775390625
-119.93408203125
-119.93408203125
-108.94775390625
-111.6943359375
-118.10302734375
-102.5390625
-96.13037109375
-101.62353515625
-122.6806640625
-110.77880859375
-109.86328125
-123.59619140625
-118.10302734375
-106.201171875
-100.7080078125
-114.44091796875
-137.3291015625
-152.89306640625
-153.80859375
-122.6806640625
-112.60986328125
-98.876953125
-54.931640625
-6.40869140625
59.50927734375
127.25830078125
236.2060546875
352.47802734375
476.98974609375
645.44677734375
811.1572265625
935.6689453125
1038.2080078125
1134.33837890625
1142.578125
977.783203125
663.75732421875
427.55126953125
186.767578125
-54.01611328125
-288.39111328125
-425.72021484375
-485.2294921875
-493.46923828125
-508.11767578125
-516.357421875
-483.3984375
-443.115234375
-413.818359375
-377.197265625
-333.251953125
-292.05322265625
-244.44580078125
-192.2607421875
-144.6533203125
-112.60986328125
-95.21484375
-74.15771484375
-78.7353515625
-75.0732421875
-76.904296875
-88.80615234375
-72.32666015625
-64.0869140625
-67.7490234375
-58.59375
-40.283203125
-50.35400390625
-56.7626953125
-65.91796875
-54.931640625
-43.02978515625
-47.607421875
-41.19873046875
-28.38134765625
-35.70556640625
-32.958984375
-36.62109375
-42.1142578125
-47.607421875
-31.1279296875
-31.1279296875
-26.55029296875
-21.97265625
-9.1552734375
-12.8173828125
-17.39501953125
-7.32421875
-9.1552734375
-10.986328125
-12.8173828125
-11.90185546875
0.91552734375
6.40869140625
13.73291015625
5.4931640625
16.4794921875
18.310546875
16.4794921875
12.8173828125
11.90185546875
12.8173828125
7.32421875
22.88818359375
39.36767578125
43.9453125
41.19873046875
41.19873046875
40.283203125
42.1142578125
48.52294921875
52.18505859375
53.1005859375
65.91796875
81.48193359375
79.65087890625
78.7353515625
82.3974609375
86.0595703125
77.81982421875
80.56640625
85.14404296875
90.63720703125
108.0322265625
127.25830078125
132.75146484375
142.822265625
151.06201171875
152.89306640625
151.06201171875
160.21728515625
162.04833984375
170.2880859375
184.02099609375
196.83837890625
206.9091796875
215.14892578125
227.96630859375
233.45947265625
242.61474609375
249.93896484375
258.1787109375
267.333984375
284.72900390625
304.87060546875
316.7724609375
321.35009765625
334.16748046875
345.15380859375
336.9140625
356.14013671875
361.63330078125
369.873046875
375.3662109375
383.60595703125
394.59228515625
399.169921875
391.845703125
389.09912109375
386.3525390625
381.77490234375
391.845703125
391.845703125
391.845703125
380.859375
388.18359375
380.859375
358.88671875
346.98486328125
341.49169921875
324.0966796875
303.955078125
289.306640625
283.8134765625
265.5029296875
252.685546875
235.29052734375
211.48681640625
190.4296875
169.37255859375
151.9775390625
132.75146484375
126.3427734375
123.59619140625
106.201171875
80.56640625
72.32666015625
56.7626953125
36.62109375
20.1416015625
5.4931640625
-4.57763671875
-1.8310546875
-12.8173828125
-12.8173828125
-9.1552734375
-21.05712890625
-27.4658203125
-26.55029296875
-51.26953125
-63.17138671875
-65.91796875
-74.15771484375
-71.4111328125
-60.4248046875
-48.52294921875
-59.50927734375
-74.15771484375
-85.14404296875
-88.80615234375
-86.0595703125
-86.97509765625
-81.48193359375
-84.228515625
-79.65087890625
-79.65087890625
-70.49560546875
-74.15771484375
-75.0732421875
-82.3974609375
-94.29931640625
-88.80615234375
-95.21484375
-90.63720703125
-85.14404296875
-79.65087890625
-84.228515625
-83.31298828125
-93.3837890625
-104.3701171875
-108.0322265625
-108.94775390625
-94.29931640625
-88.80615234375
-90.63720703125
-75.98876953125
-76.904296875
-80.56640625
-97.0458984375
-119.93408203125
-119.0185546875
-101.62353515625
-88.80615234375
-86.97509765625
-90.63720703125
-91.552734375
-88.80615234375
-92.46826171875
-95.21484375
-91.552734375
-91.552734375
-88.80615234375
-89.7216796875
-86.97509765625
-81.48193359375
-77.81982421875
-82.3974609375
-79.65087890625
-75.0732421875
-79.65087890625
-81.48193359375
-86.0595703125
-75.98876953125
-68.66455078125
-60.4248046875
-58.59375
-61.34033203125
-65.00244140625
-73.2421875
-66.83349609375
-68.66455078125
-68.66455078125
-63.17138671875
-65.00244140625
-52.18505859375
-51.26953125
-54.931640625
-54.931640625
-65.91796875
-67.7490234375
-66.83349609375
-70.49560546875
-71.4111328125
-58.59375
-58.59375
-55.84716796875
-53.1005859375
-60.4248046875
-66.83349609375
-75.0732421875
-77.81982421875
-75.0732421875
-73.2421875
-74.15771484375
-60.4248046875
-51.26953125
-59.50927734375
-65.00244140625
-68.66455078125
-76.904296875
-76.904296875
-78.7353515625
-78.7353515625
-62.255859375
-65.00244140625
-57.67822265625
-59.50927734375
-62.255859375
-73.2421875
-71.4111328125
-79.65087890625
-86.0595703125
-75.98876953125
-69.580078125
-65.91796875
-61.34033203125
-63.17138671875
-67.7490234375
-70.49560546875
-72.32666015625
-88.80615234375
-79.65087890625
-74.15771484375
-75.0732421875
-69.580078125
-67.7490234375
-65.91796875
-71.4111328125
-80.56640625
-69.580078125
-81.48193359375
-90.63720703125
-86.0595703125
-81.48193359375
-76.904296875
-66.83349609375
-73.2421875
-71.4111328125
-75.98876953125
-86.97509765625
-88.80615234375
-94.29931640625
-86.0595703125
-91.552734375
-75.0732421875
-67.7490234375
-74.15771484375
-81.48193359375
-86.97509765625
-92.46826171875
-96.13037109375
-99.79248046875
-94.29931640625
-88.80615234375
-79.65087890625
-83.31298828125
-94.29931640625
-93.3837890625
-97.0458984375
-96.13037109375
-98.876953125
-104.3701171875
-91.552734375
-82.3974609375
-79.65087890625
-71.4111328125
-76.904296875
-72.32666015625
-65.00244140625
-67.7490234375
-57.67822265625
-46.69189453125
-41.19873046875
-34.7900390625
-40.283203125
-39.36767578125
-42.1142578125
-54.01611328125
-44.86083984375
-59.50927734375
-56.7626953125
-63.17138671875
-51.26953125
-34.7900390625
-12.8173828125
-8.23974609375
-20.1416015625
-22.88818359375
-17.39501953125
-18.310546875
-24.71923828125
-27.4658203125
-31.1279296875
-26.55029296875
-21.97265625
-18.310546875
-12.8173828125
-14.6484375
-31.1279296875
-44.86083984375
-54.931640625
-63.17138671875
-68.66455078125
-67.7490234375
-54.01611328125
-58.59375
-76.904296875
-87.890625
-96.13037109375
-118.10302734375
-123.59619140625
-125.42724609375
-119.93408203125
-111.6943359375
-108.0322265625
-97.96142578125
-98.876953125
-111.6943359375
-115.3564453125
-124.51171875
-121.76513671875
-122.6806640625
-120.849609375
-118.10302734375
-104.3701171875
-97.0458984375
-101.62353515625
-104.3701171875
-119.93408203125
-121.76513671875
-124.51171875
-132.75146484375
-126.3427734375
-108.94775390625
-104.3701171875
-100.7080078125
-108.94775390625
-118.10302734375
-120.849609375
-120.849609375
-112.60986328125
-111.6943359375
-110.77880859375
-109.86328125
-103.45458984375
-108.94775390625
-112.60986328125
-114.44091796875
-123.59619140625
-144.6533203125
-149.23095703125
-135.498046875
-129.08935546875
-105.28564453125
-56.7626953125
-10.986328125
49.4384765625
119.93408203125
197.75390625
302.1240234375
435.791015625
599.67041015625
769.04296875
910.94970703125
1024.47509765625
1122.4365234375
1139.83154296875
1034.5458984375
756.2255859375
492.5537109375
254.5166015625
11.90185546875
-240.78369140625
-402.83203125
-472.412109375
-499.8779296875
-522.76611328125
-557.55615234375
-507.2021484375
-445.86181640625
-429.38232421875
-410.15625
-356.14013671875
-305.7861328125
-254.5166015625
-197.75390625
-172.119140625
-138.24462890625
-93.3837890625
-85.14404296875
-82.3974609375
-76.904296875
-82.3974609375
-80.56640625
-77.81982421875
-76.904296875
-68.66455078125
-61.34033203125
-60.4248046875
-71.4111328125
-67.7490234375
-60.4248046875
-49.4384765625
-51.26953125
-49.4384765625
-35.70556640625
-39.36767578125
-52.18505859375
-56.7626953125
-40.283203125
-32.04345703125
-35.70556640625
-35.70556640625
-31.1279296875
-26.55029296875
-34.7900390625
-25.634765625
-10.07080078125
-18.310546875
-25.634765625
-24.71923828125
-30.21240234375
-28.38134765625
-10.07080078125
-9.1552734375
7.32421875
21.05712890625
15.56396484375
-6.40869140625
-21.97265625
-25.634765625
-17.39501953125
-12.8173828125
5.4931640625
12.8173828125
16.4794921875
9.1552734375
10.986328125
14.6484375
15.56396484375
23.8037109375
22.88818359375
36.62109375
43.02978515625
45.7763671875
43.02978515625
54.931640625
52.18505859375
43.9453125
52.18505859375
70.49560546875
73.2421875
72.32666015625
79.65087890625
101.62353515625
105.28564453125
104.3701171875
112.60986328125
122.6806640625
119.93408203125
128.173828125
151.06201171875
173.03466796875
178.52783203125
179.443359375
202.33154296875
205.99365234375
205.078125
207.82470703125
220.64208984375
234.375
243.5302734375
267.333984375
264.58740234375
276.4892578125
300.29296875
324.0966796875
324.0966796875
328.67431640625
322.265625
346.0693359375
360.7177734375
346.98486328125
362.548828125
357.97119140625
375.3662109375
387.26806640625
395.5078125
401.0009765625
405.57861328125
393.6767578125
387.26806640625
395.5078125
389.09912109375
391.845703125
394.59228515625
382.6904296875
373.53515625
363.46435546875
363.46435546875
347.900390625
341.49169921875
333.251953125
309.4482421875
265.5029296875
279.23583984375
268.24951171875
255.43212890625
229.79736328125
202.33154296875
179.443359375
164.794921875
130.92041015625
126.3427734375
127.25830078125
113.525390625
104.3701171875
70.49560546875
54.01611328125
33.87451171875
20.1416015625
18.310546875
0.91552734375
-1.8310546875
-12.8173828125
-12.8173828125
-32.04345703125
-29.296875
-22.88818359375
-37.53662109375
-33.87451171875
-65.91796875
-80.56640625
-88.80615234375
-84.228515625
-62.255859375
-57.67822265625
-53.1005859375
-65.91796875
-101.62353515625
-100.7080078125
-90.63720703125
-92.46826171875
-94.29931640625
-90.63720703125
-86.0595703125
-83.31298828125
-84.228515625
-81.48193359375
-86.97509765625
-94.29931640625
-106.201171875
-108.0322265625
-112.60986328125
-119.0185546875
-101.62353515625
-86.97509765625
-101.62353515625
-96.13037109375
-94.29931640625
-105.28564453125
-118.10302734375
-125.42724609375
-130.92041015625
-115.3564453125
-91.552734375
-90.63720703125
-97.96142578125
-105.28564453125
-116.27197265625
-108.94775390625
-108.94775390625
-98.876953125
-104.3701171875
-101.62353515625
-96.13037109375
-101.62353515625
-86.0595703125
-78.7353515625
-111.6943359375
-119.93408203125
-107.11669921875
-105.28564453125
-112.60986328125
-100.7080078125
-98.876953125
-86.97509765625
-88.80615234375
-106.201171875
-119.93408203125
-125.42724609375
-97.96142578125
-104.3701171875
-95.21484375
-86.97509765625
-74.15771484375
-87.890625
-97.96142578125
-111.6943359375
-117.1875
-119.93408203125
-114.44091796875
-102.5390625
-98.876953125
-84.228515625
-86.0595703125
-86.97509765625
-86.97509765625
-82.3974609375
-93.3837890625
-99.79248046875
-97.0458984375
-95.21484375
-92.46826171875
-89.7216796875
-74.15771484375
-81.48193359375
-76.904296875
-76.904296875
-80.56640625
-93.3837890625
-97.96142578125
-90.63720703125
-80.56640625
-76.904296875
-68.66455078125
-82.3974609375
-88.80615234375
-89.7216796875
-103.45458984375
-108.94775390625
-101.62353515625
-94.29931640625
-84.228515625
-82.3974609375
-75.0732421875
-87.890625
-94.29931640625
-86.0595703125
-92.46826171875
-106.201171875
-109.86328125
-108.0322265625
-119.0185546875
-97.0458984375
-82.3974609375
-83.31298828125
-87.890625
-97.0458984375
-105.28564453125
-121.76513671875
-116.27197265625
-112.60986328125
-113.525390625
-98.876953125
-96.13037109375
-110.77880859375
-108.94775390625
-108.94775390625
-108.0322265625
-111.6943359375
-115.3564453125
-108.0322265625
-99.79248046875
-80.56640625
-71.4111328125
-74.15771484375
-75.0732421875
-71.4111328125
-57.67822265625
-56.7626953125
-63.17138671875
-63.17138671875
-61.34033203125
-54.931640625
-45.7763671875
-47.607421875
-59.50927734375
-60.4248046875
-61.34033203125
-56.7626953125
-47.607421875
-31.1279296875
-26.55029296875
-20.1416015625
-4.57763671875
-4.57763671875
-9.1552734375
-24.71923828125
-36.62109375
-50.35400390625
-60.4248046875
-57.67822265625
-42.1142578125
-29.296875
-25.634765625
-27.4658203125
-34.7900390625
-53.1005859375
-69.580078125
-81.48193359375
-86.0595703125
-84.228515625
-80.56640625
-83.31298828125
-79.65087890625
-87.890625
-94.29931640625
-102.5390625
-107.11669921875
-114.44091796875
-121.76513671875
-109.86328125
-98.876953125
-92.46826171875
-91.552734375
-97.96142578125
-97.96142578125
-104.3701171875
-109.86328125
-111.6943359375
-105.28564453125
-109.86328125
-107.11669921875
-89.7216796875
-90.63720703125
-94.29931640625
-90.63720703125
-97.96142578125
-105.28564453125
-108.94775390625
-111.6943359375
-106.201171875
-98.876953125
-96.13037109375
-91.552734375
-82.3974609375
-90.63720703125
-97.96142578125
-108.94775390625
-112.60986328125
-114.44091796875
-114.44091796875
-108.94775390625
-101.62353515625
-114.44091796875
-118.10302734375
-120.849609375
-114.44091796875
-99.79248046875
-85.14404296875
-60.4248046875
-10.07080078125
62.255859375
140.9912109375
236.2060546875
357.0556640625
480.65185546875
640.869140625
796.5087890625
928.3447265625
1032.71484375
1120.60546875
1132.50732421875
1035.46142578125
764.46533203125
521.8505859375
280.1513671875
36.62109375
-218.81103515625
-382.6904296875
-470.5810546875
-500.79345703125
-518.1884765625
-521.8505859375
-483.3984375
-438.53759765625
-412.90283203125
-360.7177734375
-317.68798828125
-282.89794921875
-249.93896484375
-203.2470703125
-148.3154296875
-99.79248046875
-67.7490234375
-63.17138671875
-63.17138671875
-64.0869140625
-65.00244140625
-75.98876953125
-66.83349609375
-63.17138671875
-54.01611328125
-43.9453125
-41.19873046875
-32.04345703125
-23.8037109375
-32.958984375
-38.4521484375
-39.36767578125
-44.86083984375
-43.9453125
-31.1279296875
-21.05712890625
-10.07080078125
-11.90185546875
-17.39501953125
-15.56396484375
-17.39501953125
-20.1416015625
-29.296875
-24.71923828125
-12.8173828125
-1.8310546875
1.8310546875
-1.8310546875
0.91552734375
10.07080078125
3.662109375
-1.8310546875
-2.74658203125
4.57763671875
13.73291015625
23.8037109375
32.04345703125
30.21240234375
23.8037109375
22.88818359375
21.05712890625
21.97265625
20.1416015625
27.4658203125
32.958984375
46.69189453125
54.931640625
54.931640625
61.34033203125
53.1005859375
47.607421875
51.26953125
61.34033203125
60.4248046875
66.83349609375
83.31298828125
93.3837890625
94.29931640625
95.21484375
104.3701171875
98.876953125
96.13037109375
95.21484375
108.0322265625
124.51171875
138.24462890625
147.39990234375
155.6396484375
163.87939453125
160.21728515625
161.1328125
166.6259765625
173.9501953125
185.85205078125
214.2333984375
227.05078125
236.2060546875
245.361328125
253.60107421875
260.92529296875
265.5029296875
273.74267578125
281.06689453125
295.71533203125
313.1103515625
333.251953125
352.47802734375
356.14013671875
351.5625
359.80224609375
359.80224609375
347.900390625
355.224609375
371.7041015625
379.0283203125
390.0146484375
407.40966796875
409.24072265625
401.0009765625
385.43701171875
383.60595703125
387.26806640625
374.45068359375
372.61962890625
376.28173828125
365.29541015625
357.97119140625
346.0693359375
336.9140625
314.94140625
291.1376953125
275.57373046875
252.685546875
238.95263671875
232.5439453125
223.388671875
209.65576171875
186.767578125
162.04833984375
147.39990234375
122.6806640625
103.45458984375
86.0595703125
71.4111328125
68.66455078125
57.67822265625
54.931640625
48.52294921875
28.38134765625
13.73291015625
-5.4931640625
-14.6484375
-27.4658203125
-36.62109375
-27.4658203125
-16.4794921875
-21.97265625
-25.634765625
-40.283203125
-49.4384765625
-62.255859375
-57.67822265625
-58.59375
-62.255859375
-57.67822265625
-48.52294921875
-53.1005859375
-54.01611328125
-60.4248046875
-66.83349609375
-67.7490234375
-77.81982421875
-82.3974609375
-79.65087890625
-74.15771484375
-70.49560546875
-67.7490234375
-69.580078125
-74.15771484375
-81.48193359375
-86.97509765625
-85.14404296875
-105.28564453125
-84.228515625
-73.2421875
-69.580078125
-70.49560546875
-79.65087890625
-80.56640625
-88.80615234375
-89.7216796875
-91.552734375
-89.7216796875
-87.890625
-75.98876953125
-76.904296875
-72.32666015625
-80.56640625
-81.48193359375
-81.48193359375
-86.0595703125
-91.552734375
-91.552734375
-80.56640625
-71.4111328125
-67.7490234375
-63.17138671875
-69.580078125
-70.49560546875
-75.98876953125
-78.7353515625
-84.228515625
-84.228515625
-81.48193359375
-71.4111328125
-64.0869140625
-53.1005859375
-58.59375
-54.931640625
-63.17138671875
-70.49560546875
-77.81982421875
-75.98876953125
-75.0732421875
-70.49560546875
-55.84716796875
-51.26953125
-52.18505859375
-58.59375
-60.4248046875
-66.83349609375
-68.66455078125
-71.4111328125
-63.17138671875
-56.7626953125
-50.35400390625
-45.7763671875
-47.607421875
-51.26953125
-48.52294921875
-57.67822265625
-75.98876953125
-81.48193359375
-66.83349609375
-61.34033203125
-49.4384765625
-41.19873046875
-44.86083984375
-46.69189453125
-50.35400390625
-70.49560546875
-69.580078125
-74.15771484375
-69.580078125
-61.34033203125
-56.7626953125
-64.0869140625
-58.59375
-61.34033203125
-68.66455078125
-73.2421875
-69.580078125
-69.580078125
-58.59375
-50.35400390625
-41.19873046875
-28.38134765625
-21.97265625
-23.8037109375
-18.310546875
-16.4794921875
-23.8037109375
-30.21240234375
-26.55029296875
-19.22607421875
-9.1552734375
-1.8310546875
-10.07080078125
-15.56396484375
-26.55029296875
-21.05712890625
-5.4931640625
-0.91552734375
8.23974609375
8.23974609375
19.22607421875
25.634765625
29.296875
21.05712890625
17.39501953125
4.57763671875
-8.23974609375
-10.986328125
-13.73291015625
-3.662109375
12.8173828125
18.310546875
10.07080078125
-4.57763671875
-18.310546875
-33.87451171875
-48.52294921875
-51.26953125
-54.01611328125
-59.50927734375
-51.26953125
-45.7763671875
-52.18505859375
-65.00244140625
-72.32666015625
-67.7490234375
-74.15771484375
-87.890625
-73.2421875
-70.49560546875
-58.59375
-63.17138671875
-71.4111328125
-66.83349609375
-75.0732421875
-85.14404296875
-89.7216796875
-101.62353515625
-94.29931640625
-77.81982421875
-79.65087890625
-67.7490234375
-67.7490234375
-75.98876953125
-82.3974609375
-80.56640625
-89.7216796875
-95.21484375
-95.21484375
-87.890625
-81.48193359375
-72.32666015625
-68.66455078125
-74.15771484375
-80.56640625
-88.80615234375
-79.65087890625
-88.80615234375
-84.228515625
-87.890625
-74.15771484375
-76.904296875
-89.7216796875
-86.97509765625
-79.65087890625
-65.91796875
-57.67822265625
-44.86083984375
-8.23974609375
48.52294921875
130.0048828125
238.95263671875
332.33642578125
441.2841796875
596.923828125
743.408203125
883.48388671875
990.6005859375
1083.06884765625
1105.95703125
1006.16455078125
730.5908203125
466.00341796875
205.99365234375
-43.9453125
-265.5029296875
-422.05810546875
-491.63818359375
-503.5400390625
-495.30029296875
-495.30029296875
-466.9189453125
-442.19970703125
-408.3251953125
-374.45068359375
-335.0830078125
-292.05322265625
-252.685546875
-202.33154296875
-147.39990234375
-108.94775390625
-76.904296875
-59.50927734375
-53.1005859375
-52.18505859375
-59.50927734375
-53.1005859375
-50.35400390625
-45.7763671875
-29.296875
-18.310546875
-3.662109375
-17.39501953125
-17.39501953125
-24.71923828125
-28.38134765625
-24.71923828125
-31.1279296875
-21.97265625
-17.39501953125
-9.1552734375
-1.8310546875
9.1552734375
0
-9.1552734375
-2.74658203125
-8.23974609375
-10.07080078125
-10.986328125
-5.4931640625
7.32421875
15.56396484375
13.73291015625
10.986328125
7.32421875
0.91552734375
-10.986328125
-9.1552734375
-2.74658203125
10.986328125
31.1279296875
38.4521484375
29.296875
27.4658203125
22.88818359375
28.38134765625
28.38134765625
24.71923828125
30.21240234375
40.283203125
46.69189453125
58.59375
69.580078125
56.7626953125
53.1005859375
60.4248046875
54.01611328125
50.35400390625
65.00244140625
65.91796875
82.3974609375
91.552734375
93.3837890625
93.3837890625
93.3837890625
88.80615234375
91.552734375
90.63720703125
107.11669921875
125.42724609375
140.07568359375
151.9775390625
161.1328125
163.87939453125
168.45703125
171.20361328125
172.119140625
169.37255859375
192.2607421875
204.16259765625
225.2197265625
241.69921875
249.0234375
249.93896484375
262.75634765625
267.333984375
275.57373046875
273.74267578125
290.22216796875
317.68798828125
336.9140625
341.49169921875
356.14013671875
364.3798828125
368.0419921875
362.548828125
365.29541015625
367.12646484375
379.0283203125
383.60595703125
397.3388671875
407.40966796875
404.6630859375
392.76123046875
390.0146484375
382.6904296875
377.197265625
374.45068359375
373.53515625
367.12646484375
353.3935546875
359.80224609375
347.900390625
328.67431640625
304.87060546875
281.982421875
266.41845703125
239.8681640625
226.13525390625
226.13525390625
208.740234375
197.75390625
187.68310546875
168.45703125
145.56884765625
118.10302734375
102.5390625
78.7353515625
78.7353515625
65.00244140625
58.59375
57.67822265625
42.1142578125
36.62109375
20.1416015625
3.662109375
2.74658203125
-8.23974609375
-14.6484375
-13.73291015625
-13.73291015625
-10.986328125
-21.97265625
-28.38134765625
-30.21240234375
-44.86083984375
-55.84716796875
-54.931640625
-54.01611328125
-54.01611328125
-47.607421875
-34.7900390625
-48.52294921875
-57.67822265625
-65.00244140625
-68.66455078125
-76.904296875
-75.0732421875
-69.580078125
-62.255859375
-54.01611328125
-48.52294921875
-57.67822265625
-61.34033203125
-70.49560546875
-79.65087890625
-81.48193359375
-84.228515625
-86.0595703125
-83.31298828125
-73.2421875
-68.66455078125
-67.7490234375
-69.580078125
-75.98876953125
-85.14404296875
-84.228515625
-92.46826171875
-89.7216796875
-71.4111328125
-72.32666015625
-66.83349609375
-62.255859375
-73.2421875
-72.32666015625
-74.15771484375
-79.65087890625
-77.81982421875
-78.7353515625
-70.49560546875
-60.4248046875
-62.255859375
-58.59375
-61.34033203125
-80.56640625
-73.2421875
-67.7490234375
-72.32666015625
-65.91796875
-64.0869140625
-59.50927734375
-55.84716796875
-60.4248046875
-60.4248046875
-63.17138671875
-63.17138671875
-75.0732421875
-81.48193359375
-73.2421875
-69.580078125
-63.17138671875
-49.4384765625
-48.52294921875
-52.18505859375
-52.18505859375
-65.00244140625
-72.32666015625
-76.904296875
-69.580078125
-58.59375
-51.26953125
-48.52294921875
-54.931640625
-48.52294921875
-54.01611328125
-61.34033203125
-67.7490234375
-68.66455078125
-62.255859375
-58.59375
-43.9453125
-31.1279296875
-29.296875
-32.958984375
-28.38134765625
-29.296875
-30.21240234375
-34.7900390625
-27.4658203125
-19.22607421875
-12.8173828125
-3.662109375
-7.32421875
-1.8310546875
-16.4794921875
-25.634765625
-40.283203125
-32.958984375
-16.4794921875
7.32421875
22.88818359375
12.8173828125
23.8037109375
18.310546875
8.23974609375
-6.40869140625
-8.23974609375
-7.32421875
-14.6484375
-7.32421875
-6.40869140625
-2.74658203125
0
0.91552734375
-8.23974609375
-22.88818359375
-35.70556640625
-47.607421875
-51.26953125
-43.02978515625
-39.36767578125
-41.19873046875
-44.86083984375
-57.67822265625
-67.7490234375
-83.31298828125
-100.7080078125
-96.13037109375
-97.0458984375
-84.228515625
-75.98876953125
-70.49560546875
-74.15771484375
-75.0732421875
-83.31298828125
-89.7216796875
-98.876953125
-94.29931640625
-93.3837890625
-90.63720703125
-78.7353515625
-75.98876953125
-73.2421875
-86.97509765625
-88.80615234375
-89.7216796875
-98.876953125
-106.201171875
-97.0458984375
-87.890625
-86.0595703125
-83.31298828125
-86.0595703125
-88.80615234375
-94.29931640625
-88.80615234375
-98.876953125
-103.45458984375
-95.21484375
-90.63720703125
-83.31298828125
-83.31298828125
-83.31298828125
-93.3837890625
-108.94775390625
-117.1875
-109.86328125
-87.890625
-65.00244140625
-43.02978515625
-4.57763671875
50.35400390625
130.92041015625
210.5712890625
287.4755859375
398.25439453125
541.07666015625
692.138671875
853.271484375
963.134765625
1053.77197265625
1092.22412109375
1022.64404296875
774.5361328125
497.13134765625
253.60107421875
0
-236.2060546875
-409.24072265625
-493.46923828125
-498.96240234375
-496.2158203125
-514.5263671875
-496.2158203125
-458.67919921875
-427.55126953125
-393.6767578125
-349.7314453125
-296.630859375
-253.60107421875
-205.99365234375
-150.146484375
-108.0322265625
-89.7216796875
-72.32666015625
-73.2421875
-77.81982421875
-74.15771484375
-71.4111328125
-60.4248046875
-45.7763671875
-35.70556640625
-36.62109375
-33.87451171875
-43.9453125
-32.958984375
-45.7763671875
-52.18505859375
-41.19873046875
-27.4658203125
-17.39501953125
-15.56396484375
-11.90185546875
-11.90185546875
-25.634765625
-32.958984375
-31.1279296875
-32.958984375
-19.22607421875
-14.6484375
-5.4931640625
4.57763671875
0.91552734375
0
-4.57763671875
-1.8310546875
-6.40869140625
-8.23974609375
-7.32421875
5.4931640625
13.73291015625
29.296875
25.634765625
20.1416015625
16.4794921875
11.90185546875
12.8173828125
4.57763671875
9.1552734375
26.55029296875
35.70556640625
48.52294921875
52.18505859375
44.86083984375
43.9453125
36.62109375
29.296875
33.87451171875
43.02978515625
53.1005859375
75.98876953125
81.48193359375
65.91796875
84.228515625
81.48193359375
80.56640625
81.48193359375
84.228515625
88.80615234375
105.28564453125
128.173828125
132.75146484375
138.24462890625
139.16015625
140.07568359375
147.39990234375
149.23095703125
154.72412109375
162.9638671875
182.18994140625
201.416015625
211.48681640625
217.8955078125
226.13525390625
234.375
241.69921875
245.361328125
259.09423828125
271.91162109375
289.306640625
306.70166015625
323.18115234375
319.51904296875
330.50537109375
334.16748046875
340.576171875
337.82958984375
336.9140625
356.14013671875
368.0419921875
380.859375
383.60595703125
378.11279296875
381.77490234375
381.77490234375
371.7041015625
363.46435546875
352.47802734375
357.0556640625
360.7177734375
361.63330078125
358.88671875
345.15380859375
329.58984375
308.53271484375
288.39111328125
269.1650390625
250.8544921875
238.95263671875
231.62841796875
218.81103515625
205.078125
183.10546875
166.6259765625
146.484375
125.42724609375
105.28564453125
86.97509765625
77.81982421875
68.66455078125
60.4248046875
57.67822265625
52.18505859375
28.38134765625
15.56396484375
3.662109375
-13.73291015625
-32.958984375
-16.4794921875
-21.97265625
-29.296875
-29.296875
-34.7900390625
-41.19873046875
-54.01611328125
-61.34033203125
-73.2421875
-80.56640625
-71.4111328125
-62.255859375
-60.4248046875
-61.34033203125
-64.0869140625
-68.66455078125
-74.15771484375
-77.81982421875
-87.890625
-97.0458984375
-80.56640625
-72.32666015625
-69.580078125
-66.83349609375
-69.580078125
-80.56640625
-80.56640625
-81.48193359375
-91.552734375
-101.62353515625
-100.7080078125
-89.7216796875
-75.98876953125
-73.2421875
-75.98876953125
-79.65087890625
-84.228515625
-86.0595703125
-101.62353515625
-93.3837890625
-86.0595703125
-81.48193359375
-72.32666015625
-69.580078125
-77.81982421875
-78.7353515625
-82.3974609375
-78.7353515625
-88.80615234375
-91.552734375
-86.0595703125
-81.48193359375
-75.0732421875
-71.4111328125
-75.98876953125
-65.91796875
-71.4111328125
-83.31298828125
-88.80615234375
-86.97509765625
-78.7353515625
-69.580078125
-62.255859375
-57.67822265625
-62.255859375
-66.83349609375
-70.49560546875
-73.2421875
-80.56640625
-82.3974609375
-73.2421875
-69.580078125
-58.59375
-58.59375
-56.7626953125
-56.7626953125
-58.59375
-66.83349609375
-74.15771484375
-76.904296875
-70.49560546875
-61.34033203125
-54.931640625
-59.50927734375
-57.67822265625
-55.84716796875
-68.66455078125
-82.3974609375
-77.81982421875
-85.14404296875
-69.580078125
-61.34033203125
-54.01611328125
-47.607421875
-50.35400390625
-54.01611328125
-54.931640625
-55.84716796875
-59.50927734375
-61.34033203125
-51.26953125
-40.283203125
-28.38134765625
-16.4794921875
-13.73291015625
-12.8173828125
-14.6484375
-16.4794921875
-22.88818359375
-27.4658203125
-19.22607421875
-7.32421875
-5.4931640625
-9.1552734375
-17.39501953125
-15.56396484375
-4.57763671875
2.74658203125
