ECG
343.32275390625
309.4482421875
293.88427734375
290.22216796875
298.4619140625
273.74267578125
273.74267578125
258.1787109375
264.58740234375
292.05322265625
281.06689453125
317.68798828125
309.4482421875
305.7861328125
325.01220703125
358.88671875
325.01220703125
262.75634765625
238.037109375
258.1787109375
290.22216796875
293.88427734375
346.98486328125
401.91650390625
418.39599609375
421.142578125
390.93017578125
365.29541015625
389.09912109375
412.90283203125
410.15625
369.873046875
328.67431640625
333.251953125
371.7041015625
418.39599609375
438.53759765625
444.9462890625
467.83447265625
438.53759765625
414.73388671875
408.3251953125
393.6767578125
383.60595703125
405.57861328125
432.12890625
428.466796875
417.48046875
419.3115234375
371.7041015625
378.11279296875
334.16748046875
314.94140625
339.66064453125
343.32275390625
329.58984375
330.50537109375
350.64697265625
339.66064453125
348.81591796875
332.33642578125
309.4482421875
329.58984375
314.02587890625
324.0966796875
365.29541015625
388.18359375
384.521484375
351.5625
391.845703125
402.83203125
362.548828125
336.9140625
314.94140625
304.87060546875
328.67431640625
379.94384765625
425.72021484375
439.453125
447.69287109375
452.2705078125
454.1015625
400.08544921875
368.0419921875
386.3525390625
383.60595703125
396.42333984375
434.87548828125
372.61962890625
343.32275390625
312.19482421875
268.24951171875
233.45947265625
228.8818359375
256.34765625
293.88427734375
329.58984375
415.6494140625
458.67919921875
478.82080078125
564.88037109375
684.814453125
757.14111328125
810.24169921875
823.974609375
896.30126953125
1031.79931640625
1172.79052734375
1246.03271484375
1333.0078125
1404.4189453125
1349.4873046875
1140.7470703125
826.72119140625
618.896484375
453.18603515625
270.08056640625
176.69677734375
136.41357421875
54.931640625
69.580078125
114.44091796875
142.822265625
122.6806640625
114.44091796875
56.7626953125
107.11669921875
201.416015625
268.24951171875
321.35009765625
335.0830078125
420.22705078125
428.466796875
425.72021484375
427.55126953125
541.9921875
552.06298828125
520.93505859375
545.654296875
518.1884765625
456.84814453125
415.6494140625
391.845703125
454.1015625
527.34375
561.21826171875
606.0791015625
631.7138671875
628.96728515625
606.0791015625
589.599609375
628.0517578125
644.53125
552.06298828125
574.951171875
532.8369140625
570.37353515625
546.56982421875
548.40087890625
565.7958984375
562.1337890625
584.1064453125
553.89404296875
561.21826171875
533.75244140625
603.33251953125
648.193359375
671.08154296875
645.44677734375
631.7138671875
587.7685546875
593.26171875
540.1611328125
493.46923828125
531.92138671875
585.02197265625
631.7138671875
715.9423828125
767.2119140625
770.8740234375
694.88525390625
674.74365234375
684.814453125
699.462890625
707.70263671875
708.6181640625
699.462890625
658.26416015625
652.77099609375
589.599609375
611.572265625
653.6865234375
690.3076171875
747.0703125
707.70263671875
678.40576171875
748.9013671875
753.47900390625
735.16845703125
841.36962890625
898.13232421875
907.28759765625
872.49755859375
845.947265625
843.20068359375
889.892578125
845.03173828125
813.90380859375
807.4951171875
862.4267578125
853.271484375
854.18701171875
925.59814453125
958.55712890625
907.28759765625
894.47021484375
923.76708984375
877.0751953125
879.82177734375
909.11865234375
943.90869140625
990.6005859375
1005.2490234375
989.68505859375
1001.5869140625
994.2626953125
969.54345703125
951.23291015625
974.12109375
996.09375
940.24658203125
956.72607421875
952.1484375
984.19189453125
988.76953125
1047.36328125
1100.4638671875
1057.43408203125
1011.65771484375
997.00927734375
944.82421875
898.13232421875
912.78076171875
895.3857421875
892.63916015625
898.13232421875
921.93603515625
874.32861328125
836.7919921875
800.1708984375
813.90380859375
783.69140625
735.16845703125
696.71630859375
659.1796875
671.08154296875
691.22314453125
691.22314453125
679.3212890625
622.55859375
636.29150390625
637.20703125
649.10888671875
644.53125
728.759765625
711.36474609375
731.50634765625
711.36474609375
671.9970703125
652.77099609375
631.7138671875
601.50146484375
613.4033203125
613.4033203125
632.62939453125
671.08154296875
668.3349609375
687.56103515625
736.083984375
718.68896484375
687.56103515625
645.44677734375
635.3759765625
669.25048828125
649.10888671875
636.29150390625
627.13623046875
628.96728515625
622.55859375
588.68408203125
599.67041015625
595.0927734375
634.46044921875
621.64306640625
619.81201171875
579.52880859375
568.54248046875
626.220703125
638.12255859375
650.93994140625
646.3623046875
652.77099609375
631.7138671875
645.44677734375
671.9970703125
674.74365234375
658.26416015625
625.30517578125
632.62939453125
632.62939453125
632.62939453125
630.79833984375
671.9970703125
674.74365234375
679.3212890625
704.04052734375
685.72998046875
684.814453125
686.6455078125
674.74365234375
656.43310546875
619.81201171875
617.98095703125
611.572265625
630.79833984375
668.3349609375
696.71630859375
670.166015625
663.75732421875
658.26416015625
638.12255859375
609.7412109375
611.572265625
625.30517578125
643.61572265625
673.828125
695.80078125
671.08154296875
675.6591796875
668.3349609375
677.490234375
680.23681640625
690.3076171875
668.3349609375
684.814453125
746.15478515625
741.5771484375
729.67529296875
681.15234375
630.79833984375
617.98095703125
667.41943359375
695.80078125
729.67529296875
722.35107421875
709.53369140625
688.4765625
657.3486328125
683.89892578125
692.138671875
682.9833984375
686.6455078125
689.39208984375
672.91259765625
696.71630859375
726.01318359375
725.09765625
741.5771484375
790.10009765625
822.1435546875
736.083984375
690.3076171875
711.36474609375
673.828125
665.58837890625
697.6318359375
737.9150390625
760.80322265625
797.42431640625
820.3125
792.8466796875
753.47900390625
726.9287109375
725.09765625
718.68896484375
720.52001953125
724.18212890625
728.759765625
712.2802734375
717.7734375
735.16845703125
728.759765625
698.54736328125
681.15234375
680.23681640625
674.74365234375
646.3623046875
617.0654296875
637.20703125
635.3759765625
636.29150390625
676.57470703125
665.58837890625
642.7001953125
650.0244140625
649.10888671875
650.93994140625
679.3212890625
665.58837890625
665.58837890625
616.14990234375
572.20458984375
567.626953125
559.38720703125
605.16357421875
626.220703125
641.78466796875
680.23681640625
639.95361328125
612.48779296875
596.00830078125
580.4443359375
579.52880859375
648.193359375
651.85546875
687.56103515625
708.6181640625
652.77099609375
630.79833984375
615.234375
562.1337890625
535.58349609375
537.41455078125
575.86669921875
628.96728515625
645.44677734375
693.9697265625
693.9697265625
663.75732421875
655.517578125
653.6865234375
657.3486328125
675.6591796875
722.35107421875
777.28271484375
829.4677734375
918.27392578125
979.6142578125
1049.1943359375
1197.509765625
1318.359375
1398.01025390625
1417.236328125
1470.3369140625
1475.830078125
1391.6015625
1209.41162109375
954.89501953125
736.99951171875
605.16357421875
409.24072265625
300.29296875
221.5576171875
256.34765625
299.37744140625
300.29296875
292.96875
291.1376953125
339.66064453125
352.47802734375
392.76123046875
433.04443359375
470.5810546875
470.5810546875
501.708984375
564.88037109375
599.67041015625
624.3896484375
647.27783203125
662.841796875
652.77099609375
617.98095703125
634.46044921875
657.3486328125
651.85546875
655.517578125
715.02685546875
710.44921875
693.05419921875
738.83056640625
791.015625
789.1845703125
751.64794921875
747.98583984375
729.67529296875
727.84423828125
732.421875
720.52001953125
715.02685546875
693.05419921875
686.6455078125
700.37841796875
653.6865234375
664.6728515625
684.814453125
704.04052734375
719.6044921875
727.84423828125
722.35107421875
716.85791015625
713.19580078125
717.7734375
713.19580078125
711.36474609375
717.7734375
736.083984375
759.8876953125
787.353515625
834.9609375
815.73486328125
791.93115234375
773.62060546875
753.47900390625
747.98583984375
737.9150390625
713.19580078125
748.9013671875
750.732421875
778.1982421875
811.1572265625
798.33984375
779.11376953125
756.2255859375
763.5498046875
765.380859375
800.1708984375
834.9609375
850.52490234375
843.20068359375
860.595703125
844.1162109375
836.7919921875
821.22802734375
848.69384765625
852.35595703125
911.865234375
886.23046875
855.1025390625
846.86279296875
848.69384765625
871.58203125
910.94970703125
948.486328125
964.05029296875
957.6416015625
965.88134765625
981.4453125
965.88134765625
989.68505859375
989.68505859375
996.09375
980.52978515625
997.00927734375
990.6005859375
1022.64404296875
1036.376953125
1049.1943359375
1025.390625
1002.50244140625
988.76953125
1002.50244140625
1019.8974609375
1002.50244140625
980.52978515625
964.05029296875
959.47265625
967.71240234375
975.9521484375
1012.5732421875
1005.2490234375
953.06396484375
927.42919921875
926.513671875
964.9658203125
991.51611328125
1025.390625
1002.50244140625
953.9794921875
920.10498046875
877.0751953125
835.87646484375
839.53857421875
827.63671875
821.22802734375
821.22802734375
782.77587890625
790.10009765625
777.28271484375
778.1982421875
759.8876953125
726.9287109375
702.20947265625
713.19580078125
694.88525390625
686.6455078125
671.08154296875
664.6728515625
639.0380859375
598.7548828125
548.40087890625
522.76611328125
555.72509765625
580.4443359375
645.44677734375
687.56103515625
695.80078125
682.9833984375
625.30517578125
590.51513671875
570.37353515625
549.31640625
557.55615234375
567.626953125
597.83935546875
621.64306640625
643.61572265625
630.79833984375
622.55859375
593.26171875
585.9375
592.34619140625
576.7822265625
574.951171875
563.96484375
567.626953125
561.21826171875
564.88037109375
553.89404296875
577.69775390625
605.16357421875
602.4169921875
610.65673828125
588.68408203125
548.40087890625
509.94873046875
520.93505859375
544.73876953125
552.06298828125
588.68408203125
625.30517578125
638.12255859375
610.65673828125
596.00830078125
575.86669921875
569.4580078125
585.02197265625
572.20458984375
572.20458984375
598.7548828125
597.83935546875
606.0791015625
614.31884765625
614.31884765625
606.0791015625
595.0927734375
609.7412109375
608.82568359375
589.599609375
585.02197265625
574.951171875
570.37353515625
567.626953125
563.96484375
591.4306640625
594.17724609375
578.61328125
568.54248046875
564.88037109375
570.37353515625
587.7685546875
606.0791015625
634.46044921875
627.13623046875
627.13623046875
632.62939453125
625.30517578125
615.234375
611.572265625
619.81201171875
602.4169921875
567.626953125
551.1474609375
563.96484375
577.69775390625
592.34619140625
610.65673828125
603.33251953125
577.69775390625
567.626953125
565.7958984375
554.8095703125
552.978515625
552.06298828125
566.71142578125
566.71142578125
578.61328125
563.04931640625
556.640625
568.54248046875
596.923828125
596.923828125
600.5859375
614.31884765625
625.30517578125
636.29150390625
631.7138671875
635.3759765625
625.30517578125
615.234375
622.55859375
596.00830078125
608.82568359375
619.81201171875
635.3759765625
621.64306640625
612.48779296875
615.234375
645.44677734375
665.58837890625
658.26416015625
661.0107421875
657.3486328125
645.44677734375
631.7138671875
638.12255859375
649.10888671875
652.77099609375
645.44677734375
628.96728515625
585.9375
544.73876953125
535.58349609375
531.92138671875
561.21826171875
611.572265625
630.79833984375
608.82568359375
599.67041015625
596.00830078125
592.34619140625
591.4306640625
586.85302734375
567.626953125
554.8095703125
546.56982421875
541.9921875
541.07666015625
550.23193359375
529.1748046875
527.34375
525.5126953125
521.8505859375
522.76611328125
539.24560546875
531.005859375
539.24560546875
544.73876953125
524.59716796875
525.5126953125
545.654296875
544.73876953125
531.005859375
521.8505859375
497.13134765625
467.83447265625
479.736328125
492.5537109375
508.11767578125
546.56982421875
562.1337890625
535.58349609375
531.92138671875
520.01953125
506.28662109375
510.8642578125
505.37109375
512.6953125
533.75244140625
540.1611328125
522.76611328125
514.5263671875
523.681640625
523.681640625
546.56982421875
553.89404296875
566.71142578125
587.7685546875
639.95361328125
727.84423828125
781.8603515625
854.18701171875
939.3310546875
1043.701171875
1156.31103515625
1291.80908203125
1420.8984375
1495.05615234375
1541.748046875
1538.0859375
1387.939453125
1108.70361328125
837.70751953125
636.29150390625
471.49658203125
300.29296875
190.4296875
142.822265625
146.484375
145.56884765625
154.72412109375
191.34521484375
220.64208984375
243.5302734375
252.685546875
281.06689453125
325.927734375
362.548828125
400.08544921875
434.87548828125
484.31396484375
530.09033203125
536.4990234375
546.56982421875
535.58349609375
541.9921875
543.8232421875
554.8095703125
550.23193359375
568.54248046875
564.88037109375
580.4443359375
592.34619140625
566.71142578125
574.03564453125
559.38720703125
573.1201171875
584.1064453125
577.69775390625
581.35986328125
569.4580078125
574.951171875
552.978515625
541.07666015625
549.31640625
561.21826171875
595.0927734375
617.98095703125
606.0791015625
607.91015625
596.923828125
596.923828125
616.14990234375
605.16357421875
594.17724609375
607.91015625
607.91015625
600.5859375
572.20458984375
571.2890625
600.5859375
617.0654296875
621.64306640625
635.3759765625
628.96728515625
640.869140625
635.3759765625
608.82568359375
614.31884765625
622.55859375
640.869140625
643.61572265625
637.20703125
641.78466796875
628.96728515625
627.13623046875
621.64306640625
639.95361328125
666.50390625
674.74365234375
677.490234375
658.26416015625
653.6865234375
659.1796875
681.15234375
671.08154296875
678.40576171875
697.6318359375
706.787109375
710.44921875
682.06787109375
677.490234375
682.9833984375
704.9560546875
715.9423828125
731.50634765625
760.80322265625
790.10009765625
801.08642578125
793.76220703125
812.07275390625
810.24169921875
807.4951171875
823.05908203125
825.8056640625
831.298828125
837.70751953125
839.53857421875
846.86279296875
845.03173828125
850.52490234375
852.35595703125
851.4404296875
856.01806640625
871.58203125
850.52490234375
854.18701171875
849.609375
858.7646484375
856.01806640625
858.7646484375
859.68017578125
853.271484375
856.01806640625
845.947265625
827.63671875
828.55224609375
817.56591796875
812.07275390625
795.59326171875
780.029296875
759.8876953125
751.64794921875
744.32373046875
729.67529296875
719.6044921875
719.6044921875
698.54736328125
663.75732421875
644.53125
625.30517578125
606.99462890625
583.19091796875
571.2890625
557.55615234375
562.1337890625
567.626953125
579.52880859375
544.73876953125
514.5263671875
499.8779296875
493.46923828125
491.63818359375
495.30029296875
505.37109375
498.96240234375
490.72265625
476.98974609375
455.9326171875
456.84814453125
463.2568359375
443.115234375
446.77734375
446.77734375
459.5947265625
429.38232421875
420.22705078125
430.2978515625
439.453125
432.12890625
444.03076171875
438.53759765625
435.791015625
434.87548828125
437.6220703125
433.9599609375
432.12890625
422.9736328125
419.3115234375
404.6630859375
400.08544921875
406.494140625
401.0009765625
399.169921875
390.93017578125
403.74755859375
411.07177734375
396.42333984375
385.43701171875
390.93017578125
414.73388671875
417.48046875
417.48046875
411.07177734375
421.142578125
432.12890625
427.55126953125
424.8046875
440.36865234375
437.6220703125
429.38232421875
428.466796875
418.39599609375
418.39599609375
425.72021484375
415.6494140625
400.08544921875
396.42333984375
396.42333984375
416.56494140625
433.04443359375
431.21337890625
449.52392578125
448.6083984375
441.2841796875
440.36865234375
426.6357421875
414.73388671875
414.73388671875
421.142578125
423.88916015625
416.56494140625
414.73388671875
428.466796875
443.115234375
445.86181640625
442.19970703125
445.86181640625
445.86181640625
435.791015625
420.22705078125
404.6630859375
409.24072265625
417.48046875
437.6220703125
434.87548828125
425.72021484375
413.818359375
415.6494140625
403.74755859375
422.9736328125
417.48046875
402.83203125
401.91650390625
418.39599609375
411.9873046875
422.9736328125
423.88916015625
423.88916015625
417.48046875
426.6357421875
425.72021484375
424.8046875
419.3115234375
412.90283203125
392.76123046875
391.845703125
403.74755859375
404.6630859375
415.6494140625
427.55126953125
438.53759765625
415.6494140625
411.07177734375
416.56494140625
401.0009765625
415.6494140625
400.08544921875
409.24072265625
433.04443359375
429.38232421875
422.9736328125
422.05810546875
436.70654296875
439.453125
449.52392578125
444.9462890625
422.9736328125
409.24072265625
430.2978515625
456.84814453125
485.2294921875
481.5673828125
492.5537109375
484.31396484375
504.45556640625
509.94873046875
509.033203125
491.63818359375
471.49658203125
475.15869140625
478.82080078125
460.51025390625
444.9462890625
435.791015625
424.8046875
433.9599609375
436.70654296875
422.05810546875
395.5078125
375.3662109375
374.45068359375
401.0009765625
421.142578125
411.07177734375
412.90283203125
410.15625
388.18359375
382.6904296875
380.859375
368.95751953125
355.224609375
341.49169921875
349.7314453125
359.80224609375
365.29541015625
360.7177734375
359.80224609375
360.7177734375
350.64697265625
321.35009765625
320.4345703125
323.18115234375
340.576171875
337.82958984375
346.98486328125
352.47802734375
337.82958984375
336.9140625
339.66064453125
329.58984375
344.23828125
364.3798828125
369.873046875
354.30908203125
351.5625
356.14013671875
357.97119140625
355.224609375
346.98486328125
348.81591796875
340.576171875
332.33642578125
338.7451171875
332.33642578125
332.33642578125
341.49169921875
344.23828125
354.30908203125
378.11279296875
404.6630859375
431.21337890625
480.65185546875
550.23193359375
635.3759765625
730.5908203125
825.8056640625
919.189453125
1062.92724609375
1202.08740234375
1294.5556640625
1344.90966796875
1414.48974609375
1409.912109375
1230.46875
932.0068359375
693.05419921875
486.14501953125
306.70166015625
119.93408203125
8.23974609375
-25.634765625
-43.9453125
-79.65087890625
-73.2421875
-29.296875
19.22607421875
31.1279296875
57.67822265625
105.28564453125
143.73779296875
175.78125
203.2470703125
250.8544921875
292.05322265625
329.58984375
352.47802734375
350.64697265625
354.30908203125
362.548828125
367.12646484375
349.7314453125
350.64697265625
354.30908203125
356.14013671875
364.3798828125
375.3662109375
377.197265625
385.43701171875
378.11279296875
367.12646484375
375.3662109375
384.521484375
379.0283203125
381.77490234375
396.42333984375
398.25439453125
399.169921875
402.83203125
391.845703125
388.18359375
398.25439453125
399.169921875
405.57861328125
399.169921875
406.494140625
403.74755859375
421.142578125
416.56494140625
407.40966796875
409.24072265625
408.3251953125
365.29541015625
361.63330078125
351.5625
335.0830078125
354.30908203125
350.64697265625
325.927734375
411.07177734375
522.76611328125
515.44189453125
480.65185546875
467.83447265625
459.5947265625
457.763671875
466.9189453125
473.32763671875
477.9052734375
477.9052734375
456.84814453125
454.1015625
465.087890625
470.5810546875
479.736328125
480.65185546875
488.8916015625
490.72265625
489.80712890625
493.46923828125
498.046875
506.28662109375
506.28662109375
510.8642578125
523.681640625
539.24560546875
550.23193359375
555.72509765625
564.88037109375
560.302734375
570.37353515625
585.02197265625
594.17724609375
593.26171875
585.02197265625
596.00830078125
618.896484375
626.220703125
635.3759765625
654.60205078125
663.75732421875
659.1796875
661.92626953125
654.60205078125
663.75732421875
674.74365234375
686.6455078125
691.22314453125
682.06787109375
665.58837890625
693.9697265625
682.06787109375
685.72998046875
685.72998046875
661.92626953125
682.06787109375
681.15234375
678.40576171875
662.841796875
660.09521484375
655.517578125
632.62939453125
626.220703125
609.7412109375
606.0791015625
595.0927734375
579.52880859375
574.951171875
555.72509765625
539.24560546875
525.5126953125
514.5263671875
486.14501953125
468.75
452.2705078125
443.115234375
433.9599609375
421.142578125
412.90283203125
395.5078125
379.0283203125
364.3798828125
357.97119140625
346.98486328125
345.15380859375
351.5625
341.49169921875
337.82958984375
314.94140625
303.955078125
294.7998046875
296.630859375
292.96875
287.4755859375
274.658203125
281.982421875
278.3203125
284.72900390625
279.23583984375
261.8408203125
252.685546875
249.93896484375
245.361328125
246.27685546875
249.0234375
253.60107421875
249.0234375
255.43212890625
247.1923828125
246.27685546875
248.10791015625
249.93896484375
250.8544921875
245.361328125
246.27685546875
250.8544921875
261.8408203125
257.26318359375
241.69921875
248.10791015625
240.78369140625
236.2060546875
230.712890625
227.96630859375
230.712890625
238.95263671875
247.1923828125
249.0234375
250.8544921875
245.361328125
255.43212890625
239.8681640625
230.712890625
227.05078125
227.05078125
236.2060546875
245.361328125
244.44580078125
238.037109375
249.0234375
249.93896484375
246.27685546875
239.8681640625
232.5439453125
240.78369140625
240.78369140625
249.93896484375
261.8408203125
248.10791015625
244.44580078125
249.93896484375
249.93896484375
235.29052734375
238.037109375
246.27685546875
250.8544921875
258.1787109375
250.8544921875
254.5166015625
246.27685546875
249.0234375
244.44580078125
238.95263671875
235.29052734375
245.361328125
253.60107421875
248.10791015625
238.95263671875
231.62841796875
234.375
219.7265625
222.47314453125
227.96630859375
216.064453125
217.8955078125
225.2197265625
226.13525390625
233.45947265625
231.62841796875
227.96630859375
226.13525390625
223.388671875
216.97998046875
216.064453125
215.14892578125
216.97998046875
227.96630859375
228.8818359375
226.13525390625
217.8955078125
217.8955078125
206.9091796875
211.48681640625
209.65576171875
207.82470703125
216.97998046875
214.2333984375
208.740234375
203.2470703125
196.83837890625
196.83837890625
205.078125
202.33154296875
203.2470703125
198.66943359375
188.5986328125
207.82470703125
215.14892578125
208.740234375
201.416015625
189.51416015625
183.10546875
182.18994140625
178.52783203125
173.9501953125
183.10546875
192.2607421875
202.33154296875
203.2470703125
173.9501953125
184.9365234375
205.99365234375
202.33154296875
187.68310546875
205.99365234375
213.31787109375
222.47314453125
227.05078125
223.388671875
237.12158203125
238.037109375
236.2060546875
226.13525390625
220.64208984375
230.712890625
250.8544921875
251.77001953125
239.8681640625
238.95263671875
241.69921875
238.037109375
247.1923828125
251.77001953125
250.8544921875
248.10791015625
258.1787109375
268.24951171875
266.41845703125
263.671875
257.26318359375
249.0234375
243.5302734375
230.712890625
217.8955078125
219.7265625
227.96630859375
233.45947265625
234.375
230.712890625
205.99365234375
200.50048828125
207.82470703125
198.66943359375
195.00732421875
189.51416015625
182.18994140625
181.2744140625
179.443359375
173.9501953125
159.3017578125
138.24462890625
131.8359375
139.16015625
130.92041015625
144.6533203125
155.6396484375
145.56884765625
151.06201171875
146.484375
152.89306640625
147.39990234375
143.73779296875
143.73779296875
143.73779296875
144.6533203125
142.822265625
145.56884765625
153.80859375
141.90673828125
139.16015625
142.822265625
133.6669921875
129.08935546875
133.6669921875
139.16015625
147.39990234375
151.9775390625
150.146484375
144.6533203125
131.8359375
133.6669921875
121.76513671875
111.6943359375
119.0185546875
121.76513671875
122.6806640625
112.60986328125
121.76513671875
132.75146484375
148.3154296875
177.6123046875
195.9228515625
241.69921875
291.1376953125
373.53515625
453.18603515625
560.302734375
659.1796875
749.81689453125
888.97705078125
1018.98193359375
1104.1259765625
1169.12841796875
1226.806640625
1194.76318359375
968.6279296875
682.9833984375
448.6083984375
237.12158203125
54.01611328125
-128.173828125
-219.7265625
-249.93896484375
-264.58740234375
-279.23583984375
-268.24951171875
-219.7265625
-177.6123046875
-154.72412109375
-126.3427734375
-80.56640625
-47.607421875
-14.6484375
22.88818359375
75.0732421875
106.201171875
129.08935546875
140.9912109375
151.9775390625
151.9775390625
152.89306640625
151.9775390625
160.21728515625
160.21728515625
164.794921875
162.9638671875
168.45703125
170.2880859375
179.443359375
173.9501953125
177.6123046875
173.03466796875
171.20361328125
177.6123046875
183.10546875
187.68310546875
186.767578125
194.091796875
190.4296875
180.35888671875
181.2744140625
180.35888671875
194.091796875
184.9365234375
202.33154296875
204.16259765625
198.66943359375
191.34521484375
195.9228515625
204.16259765625
208.740234375
224.30419921875
211.48681640625
200.50048828125
210.5712890625
210.5712890625
213.31787109375
216.97998046875
216.064453125
213.31787109375
227.96630859375
237.12158203125
227.96630859375
220.64208984375
231.62841796875
234.375
234.375
237.12158203125
241.69921875
240.78369140625
244.44580078125
251.77001953125
249.93896484375
253.60107421875
263.671875
274.658203125
270.08056640625
269.1650390625
278.3203125
281.06689453125
281.982421875
276.4892578125
293.88427734375
301.20849609375
316.7724609375
319.51904296875
324.0966796875
332.33642578125
345.15380859375
357.97119140625
358.88671875
363.46435546875
371.7041015625
381.77490234375
385.43701171875
390.0146484375
401.0009765625
421.142578125
430.2978515625
437.6220703125
442.19970703125
448.6083984375
454.1015625
453.18603515625
458.67919921875
476.07421875
480.65185546875
492.5537109375
500.79345703125
494.384765625
486.14501953125
483.3984375
488.8916015625
490.72265625
499.8779296875
500.79345703125
498.046875
488.8916015625
483.3984375
480.65185546875
466.00341796875
453.18603515625
453.18603515625
456.84814453125
426.6357421875
418.39599609375
415.6494140625
394.59228515625
373.53515625
363.46435546875
351.5625
326.84326171875
307.6171875
293.88427734375
286.56005859375
274.658203125
259.09423828125
247.1923828125
230.712890625
217.8955078125
200.50048828125
189.51416015625
176.69677734375
158.38623046875
147.39990234375
147.39990234375
143.73779296875
130.0048828125
127.25830078125
121.76513671875
104.3701171875
102.5390625
96.13037109375
94.29931640625
90.63720703125
89.7216796875
90.63720703125
86.0595703125
86.0595703125
75.98876953125
73.2421875
74.15771484375
63.17138671875
65.00244140625
66.83349609375
69.580078125
71.4111328125
76.904296875
71.4111328125
81.48193359375
67.7490234375
45.7763671875
54.931640625
51.26953125
56.7626953125
68.66455078125
62.255859375
75.0732421875
74.15771484375
70.49560546875
43.02978515625
34.7900390625
45.7763671875
57.67822265625
63.17138671875
52.18505859375
51.26953125
51.26953125
49.4384765625
45.7763671875
47.607421875
41.19873046875
38.4521484375
34.7900390625
41.19873046875
43.9453125
43.02978515625
49.4384765625
44.86083984375
46.69189453125
44.86083984375
34.7900390625
48.52294921875
43.9453125
50.35400390625
52.18505859375
55.84716796875
60.4248046875
62.255859375
65.91796875
56.7626953125
63.17138671875
61.34033203125
61.34033203125
65.00244140625
65.91796875
72.32666015625
66.83349609375
65.91796875
61.34033203125
53.1005859375
53.1005859375
54.931640625
57.67822265625
53.1005859375
75.0732421875
79.65087890625
76.904296875
78.7353515625
69.580078125
57.67822265625
50.35400390625
50.35400390625
47.607421875
54.01611328125
60.4248046875
60.4248046875
55.84716796875
50.35400390625
57.67822265625
53.1005859375
51.26953125
37.53662109375
32.958984375
43.9453125
43.9453125
53.1005859375
50.35400390625
49.4384765625
52.18505859375
51.26953125
38.4521484375
36.62109375
34.7900390625
38.4521484375
43.02978515625
39.36767578125
43.9453125
40.283203125
38.4521484375
34.7900390625
29.296875
36.62109375
37.53662109375
35.70556640625
38.4521484375
36.62109375
35.70556640625
28.38134765625
29.296875
40.283203125
32.04345703125
30.21240234375
32.04345703125
29.296875
31.1279296875
46.69189453125
37.53662109375
32.04345703125
34.7900390625
33.87451171875
24.71923828125
19.22607421875
21.05712890625
21.97265625
32.958984375
31.1279296875
33.87451171875
21.05712890625
25.634765625
21.97265625
14.6484375
11.90185546875
14.6484375
16.4794921875
18.310546875
30.21240234375
19.22607421875
17.39501953125
18.310546875
7.32421875
3.662109375
5.4931640625
8.23974609375
10.07080078125
12.8173828125
3.662109375
0
0
4.57763671875
10.986328125
21.97265625
32.958984375
28.38134765625
19.22607421875
11.90185546875
10.986328125
14.6484375
7.32421875
10.986328125
13.73291015625
4.57763671875
-4.57763671875
2.74658203125
7.32421875
1.8310546875
11.90185546875
10.986328125
12.8173828125
9.1552734375
-1.8310546875
0
6.40869140625
8.23974609375
21.05712890625
32.958984375
34.7900390625
33.87451171875
33.87451171875
45.7763671875
55.84716796875
49.4384765625
53.1005859375
46.69189453125
45.7763671875
49.4384765625
62.255859375
61.34033203125
53.1005859375
45.7763671875
45.7763671875
55.84716796875
59.50927734375
68.66455078125
83.31298828125
87.890625
90.63720703125
92.46826171875
85.14404296875
82.3974609375
75.98876953125
65.00244140625
57.67822265625
59.50927734375
56.7626953125
54.931640625
58.59375
64.0869140625
58.59375
45.7763671875
27.4658203125
28.38134765625
33.87451171875
37.53662109375
36.62109375
28.38134765625
21.97265625
8.23974609375
7.32421875
-8.23974609375
-16.4794921875
-14.6484375
-7.32421875
-18.310546875
-10.986328125
0.91552734375
6.40869140625
-0.91552734375
-10.986328125
-9.1552734375
-11.90185546875
-18.310546875
-21.05712890625
-10.986328125
-18.310546875
-4.57763671875
-2.74658203125
-9.1552734375
-15.56396484375
-21.97265625
-23.8037109375
-27.4658203125
-23.8037109375
-24.71923828125
-30.21240234375
-19.22607421875
-8.23974609375
-8.23974609375
-17.39501953125
-19.22607421875
-21.97265625
-32.04345703125
-25.634765625
-26.55029296875
-19.22607421875
-24.71923828125
-25.634765625
-32.04345703125
-36.62109375
-28.38134765625
-1.8310546875
30.21240234375
46.69189453125
73.2421875
136.41357421875
220.64208984375
309.4482421875
403.74755859375
512.6953125
621.64306640625
777.28271484375
898.13232421875
990.6005859375
1062.01171875
1122.4365234375
1085.8154296875
869.7509765625
587.7685546875
346.0693359375
117.1875
-95.21484375
-293.88427734375
-396.42333984375
-420.22705078125
-432.12890625
-450.439453125
-434.87548828125
-397.3388671875
-359.80224609375
-322.265625
-277.40478515625
-240.78369140625
-196.83837890625
-151.9775390625
-102.5390625
-57.67822265625
-19.22607421875
3.662109375
1.8310546875
-2.74658203125
5.4931640625
5.4931640625
2.74658203125
18.310546875
21.97265625
24.71923828125
30.21240234375
34.7900390625
33.87451171875
36.62109375
31.1279296875
22.88818359375
19.22607421875
20.1416015625
26.55029296875
35.70556640625
43.02978515625
43.9453125
42.1142578125
41.19873046875
48.52294921875
51.26953125
53.1005859375
50.35400390625
61.34033203125
63.17138671875
68.66455078125
69.580078125
70.49560546875
65.91796875
65.00244140625
65.91796875
60.4248046875
65.00244140625
71.4111328125
79.65087890625
85.14404296875
87.890625
79.65087890625
79.65087890625
81.48193359375
73.2421875
77.81982421875
84.228515625
94.29931640625
94.29931640625
94.29931640625
103.45458984375
103.45458984375
100.7080078125
104.3701171875
108.0322265625
108.0322265625
113.525390625
115.3564453125
130.0048828125
140.9912109375
139.16015625
144.6533203125
145.56884765625
150.146484375
151.9775390625
144.6533203125
151.9775390625
162.9638671875
173.9501953125
184.02099609375
185.85205078125
199.5849609375
202.33154296875
206.9091796875
212.40234375
222.47314453125
226.13525390625
241.69921875
254.5166015625
270.08056640625
278.3203125
284.72900390625
294.7998046875
294.7998046875
299.37744140625
306.70166015625
318.603515625
334.16748046875
332.33642578125
346.98486328125
357.0556640625
357.97119140625
352.47802734375
354.30908203125
360.7177734375
354.30908203125
357.97119140625
360.7177734375
367.12646484375
371.7041015625
364.3798828125
366.2109375
357.97119140625
347.900390625
342.4072265625
332.33642578125
325.01220703125
318.603515625
312.19482421875
304.87060546875
288.39111328125
266.41845703125
243.5302734375
222.47314453125
202.33154296875
196.83837890625
179.443359375
160.21728515625
150.146484375
139.16015625
126.3427734375
108.94775390625
91.552734375
86.97509765625
82.3974609375
67.7490234375
57.67822265625
55.84716796875
45.7763671875
39.36767578125
30.21240234375
16.4794921875
1.8310546875
-10.07080078125
-17.39501953125
-21.97265625
-34.7900390625
-36.62109375
-26.55029296875
-24.71923828125
-37.53662109375
-46.69189453125
-49.4384765625
-56.7626953125
-65.00244140625
-67.7490234375
-71.4111328125
-66.83349609375
-58.59375
-62.255859375
-62.255859375
-68.66455078125
-74.15771484375
-73.2421875
-82.3974609375
-87.890625
-81.48193359375
-76.904296875
-67.7490234375
-70.49560546875
-74.15771484375
-68.66455078125
-76.904296875
-83.31298828125
-85.14404296875
-86.0595703125
-87.890625
-86.0595703125
-82.3974609375
-86.0595703125
-84.228515625
-88.80615234375
-90.63720703125
-88.80615234375
-90.63720703125
-92.46826171875
-95.21484375
-82.3974609375
-67.7490234375
-73.2421875
-66.83349609375
-70.49560546875
-73.2421875
-83.31298828125
-82.3974609375
-87.890625
-84.228515625
-83.31298828125
-75.0732421875
-71.4111328125
-71.4111328125
-69.580078125
-68.66455078125
-73.2421875
-69.580078125
-72.32666015625
-77.81982421875
-70.49560546875
-61.34033203125
-58.59375
-58.59375
-58.59375
-56.7626953125
-62.255859375
-65.00244140625
-66.83349609375
-65.00244140625
-69.580078125
-59.50927734375
-52.18505859375
-56.7626953125
-62.255859375
-62.255859375
-63.17138671875
-68.66455078125
-74.15771484375
-74.15771484375
-68.66455078125
-65.91796875
-64.0869140625
-55.84716796875
-59.50927734375
-66.83349609375
-64.0869140625
-62.255859375
-59.50927734375
-61.34033203125
-63.17138671875
-64.0869140625
-55.84716796875
-61.34033203125
-66.83349609375
-63.17138671875
-74.15771484375
-76.904296875
-80.56640625
-85.14404296875
-78.7353515625
-71.4111328125
-69.580078125
-72.32666015625
-72.32666015625
-74.15771484375
-75.0732421875
-81.48193359375
-83.31298828125
-86.97509765625
-86.97509765625
-78.7353515625
-68.66455078125
-77.81982421875
-81.48193359375
-76.904296875
-80.56640625
-86.97509765625
-86.0595703125
-86.97509765625
-86.0595703125
-86.97509765625
-75.0732421875
-75.0732421875
-84.228515625
-84.228515625
-84.228515625
-87.890625
-91.552734375
-93.3837890625
-86.97509765625
-83.31298828125
-82.3974609375
-82.3974609375
-85.14404296875
-89.7216796875
-85.14404296875
-91.552734375
-97.0458984375
-92.46826171875
-87.890625
-90.63720703125
-87.890625
-89.7216796875
-86.0595703125
-90.63720703125
-95.21484375
-95.21484375
-98.876953125
-100.7080078125
-96.13037109375
-84.228515625
-87.890625
-87.890625
-91.552734375
-96.13037109375
-95.21484375
-100.7080078125
-101.62353515625
-95.21484375
-103.45458984375
-95.21484375
-86.0595703125
-86.0595703125
-92.46826171875
-96.13037109375
-97.0458984375
-97.0458984375
-107.11669921875
-102.5390625
-99.79248046875
-96.13037109375
-92.46826171875
-90.63720703125
-90.63720703125
-96.13037109375
-101.62353515625
-105.28564453125
-104.3701171875
-101.62353515625
-98.876953125
-90.63720703125
-93.3837890625
-96.13037109375
-101.62353515625
-105.28564453125
-101.62353515625
-100.7080078125
-103.45458984375
-96.13037109375
-95.21484375
-92.46826171875
-93.3837890625
-97.96142578125
-97.96142578125
-106.201171875
-107.11669921875
-106.201171875
-105.28564453125
-103.45458984375
-107.11669921875
-105.28564453125
-99.79248046875
-104.3701171875
-102.5390625
-107.11669921875
-98.876953125
-98.876953125
-108.0322265625
-112.60986328125
-105.28564453125
-95.21484375
-90.63720703125
-83.31298828125
-82.3974609375
-80.56640625
-81.48193359375
-78.7353515625
-71.4111328125
-54.931640625
-52.18505859375
-39.36767578125
-40.283203125
-48.52294921875
-40.283203125
-38.4521484375
-45.7763671875
-54.01611328125
-65.00244140625
-70.49560546875
-60.4248046875
-37.53662109375
-10.07080078125
-8.23974609375
-22.88818359375
-37.53662109375
-32.958984375
-32.958984375
-35.70556640625
-29.296875
-31.1279296875
-35.70556640625
-38.4521484375
-42.1142578125
-41.19873046875
-35.70556640625
-39.36767578125
-54.01611328125
-55.84716796875
-66.83349609375
-71.4111328125
-74.15771484375
-72.32666015625
-68.66455078125
-80.56640625
-86.0595703125
-92.46826171875
-97.0458984375
-101.62353515625
-111.6943359375
-119.93408203125
-111.6943359375
-102.5390625
-110.77880859375
-110.77880859375
-111.6943359375
-112.60986328125
-114.44091796875
-118.10302734375
-118.10302734375
-112.60986328125
-107.11669921875
-102.5390625
-105.28564453125
-99.79248046875
-108.0322265625
-122.6806640625
-114.44091796875
-119.0185546875
-115.3564453125
-114.44091796875
-112.60986328125
-106.201171875
-100.7080078125
-110.77880859375
-109.86328125
-113.525390625
-112.60986328125
-113.525390625
-118.10302734375
-114.44091796875
-106.201171875
-104.3701171875
-111.6943359375
-117.1875
-125.42724609375
-131.8359375
-128.173828125
-115.3564453125
-100.7080078125
-69.580078125
-39.36767578125
9.1552734375
73.2421875
148.3154296875
238.95263671875
347.900390625
456.84814453125
595.0927734375
750.732421875
877.99072265625
963.134765625
1049.1943359375
1083.06884765625
975.9521484375
709.53369140625
458.67919921875
219.7265625
-21.05712890625
-258.1787109375
-432.12890625
-507.2021484375
-522.76611328125
-541.9921875
-542.90771484375
-511.77978515625
-463.2568359375
-430.2978515625
-390.93017578125
-346.98486328125
-298.4619140625
-258.1787109375
-206.9091796875
-166.6259765625
-125.42724609375
-104.3701171875
-94.29931640625
-91.552734375
-90.63720703125
-88.80615234375
-75.0732421875
-66.83349609375
-65.91796875
-59.50927734375
-64.0869140625
-64.0869140625
-65.91796875
-57.67822265625
-58.59375
-56.7626953125
-50.35400390625
-43.9453125
-35.70556640625
-32.958984375
-35.70556640625
-34.7900390625
-39.36767578125
-42.1142578125
-46.69189453125
-42.1142578125
-31.1279296875
-30.21240234375
-22.88818359375
-21.05712890625
-23.8037109375
-23.8037109375
-22.88818359375
-25.634765625
-26.55029296875
-25.634765625
-15.56396484375
-9.1552734375
-10.07080078125
-6.40869140625
-5.4931640625
-5.4931640625
-7.32421875
-4.57763671875
-4.57763671875
-8.23974609375
-1.8310546875
6.40869140625
11.90185546875
12.8173828125
13.73291015625
17.39501953125
19.22607421875
15.56396484375
16.4794921875
23.8037109375
31.1279296875
35.70556640625
43.9453125
45.7763671875
47.607421875
51.26953125
50.35400390625
52.18505859375
57.67822265625
65.91796875
75.0732421875
84.228515625
93.3837890625
100.7080078125
103.45458984375
108.0322265625
111.6943359375
118.10302734375
125.42724609375
132.75146484375
144.6533203125
159.3017578125
173.03466796875
178.52783203125
181.2744140625
190.4296875
201.416015625
204.16259765625
205.99365234375
221.5576171875
232.5439453125
243.5302734375
261.8408203125
265.5029296875
269.1650390625
276.4892578125
275.57373046875
282.89794921875
283.8134765625
286.56005859375
292.05322265625
301.20849609375
302.1240234375
295.71533203125
298.4619140625
299.37744140625
297.54638671875
296.630859375
290.22216796875
289.306640625
287.4755859375
285.64453125
280.1513671875
270.08056640625
262.75634765625
250.8544921875
233.45947265625
216.064453125
200.50048828125
189.51416015625
172.119140625
162.04833984375
150.146484375
136.41357421875
118.10302734375
96.13037109375
75.98876953125
59.50927734375
49.4384765625
35.70556640625
21.97265625
11.90185546875
5.4931640625
-9.1552734375
-21.97265625
-32.958984375
-42.1142578125
-54.931640625
-67.7490234375
-74.15771484375
-75.98876953125
-80.56640625
-87.890625
-93.3837890625
-99.79248046875
-108.0322265625
-111.6943359375
-118.10302734375
-123.59619140625
-126.3427734375
-129.08935546875
-121.76513671875
-119.93408203125
-127.25830078125
-133.6669921875
-137.3291015625
-139.16015625
-140.07568359375
-142.822265625
-143.73779296875
-135.498046875
-138.24462890625
-134.58251953125
-140.07568359375
-145.56884765625
-148.3154296875
-151.06201171875
-152.89306640625
-159.3017578125
-160.21728515625
-153.80859375
-147.39990234375
-148.3154296875
-146.484375
-149.23095703125
-150.146484375
-146.484375
-156.55517578125
-160.21728515625
-152.89306640625
-156.55517578125
-152.89306640625
-143.73779296875
-146.484375
-151.9775390625
-151.06201171875
-153.80859375
-160.21728515625
-161.1328125
-158.38623046875
-154.72412109375
-152.89306640625
-147.39990234375
-143.73779296875
-146.484375
-151.06201171875
-149.23095703125
-151.06201171875
-153.80859375
-151.9775390625
-145.56884765625
-140.07568359375
-135.498046875
-132.75146484375
-135.498046875
-139.16015625
-134.58251953125
-132.75146484375
-143.73779296875
-142.822265625
-133.6669921875
-130.92041015625
-128.173828125
-125.42724609375
-132.75146484375
-134.58251953125
-131.8359375
-133.6669921875
-133.6669921875
-135.498046875
-136.41357421875
-129.08935546875
-128.173828125
-127.25830078125
-126.3427734375
-135.498046875
-144.6533203125
-148.3154296875
-147.39990234375
-145.56884765625
-137.3291015625
-136.41357421875
-132.75146484375
-132.75146484375
-136.41357421875
-137.3291015625
-140.07568359375
-146.484375
-150.146484375
-148.3154296875
-140.07568359375
-141.90673828125
-136.41357421875
-136.41357421875
-139.16015625
-147.39990234375
-153.80859375
-152.89306640625
-149.23095703125
-150.146484375
-146.484375
-144.6533203125
-142.822265625
-144.6533203125
-146.484375
-146.484375
-151.06201171875
-155.6396484375
-156.55517578125
-155.6396484375
-151.9775390625
-151.9775390625
-151.06201171875
-151.9775390625
-155.6396484375
-148.3154296875
-151.06201171875
-152.89306640625
-150.146484375
-151.06201171875
-146.484375
-147.39990234375
-148.3154296875
-147.39990234375
-150.146484375
-149.23095703125
-152.89306640625
-160.21728515625
-157.470703125
-157.470703125
-153.80859375
-147.39990234375
-148.3154296875
-151.06201171875
-150.146484375
-158.38623046875
-157.470703125
-153.80859375
-160.21728515625
-159.3017578125
-153.80859375
-151.06201171875
-145.56884765625
-148.3154296875
-153.80859375
-149.23095703125
-155.6396484375
-164.794921875
-165.71044921875
-161.1328125
-160.21728515625
-157.470703125
-156.55517578125
-158.38623046875
-158.38623046875
-162.9638671875
-162.9638671875
-162.9638671875
-169.37255859375
-168.45703125
-163.87939453125
-158.38623046875
-157.470703125
-157.470703125
-160.21728515625
-164.794921875
-167.54150390625
-167.54150390625
-171.20361328125
-171.20361328125
-164.794921875
-160.21728515625
-160.21728515625
-160.21728515625
-161.1328125
-162.04833984375
-163.87939453125
-160.21728515625
-164.794921875
-170.2880859375
-160.21728515625
-155.6396484375
-157.470703125
-154.72412109375
-158.38623046875
-165.71044921875
-163.87939453125
-165.71044921875
-171.20361328125
-168.45703125
-167.54150390625
-160.21728515625
-156.55517578125
-158.38623046875
-162.9638671875
-163.87939453125
-165.71044921875
-167.54150390625
-169.37255859375
-168.45703125
-168.45703125
-163.87939453125
-162.04833984375
-163.87939453125
-163.87939453125
-164.794921875
-168.45703125
-170.2880859375
-178.52783203125
-172.119140625
-165.71044921875
-160.21728515625
-157.470703125
-159.3017578125
-159.3017578125
-158.38623046875
-160.21728515625
-157.470703125
-158.38623046875
-151.06201171875
-143.73779296875
-129.08935546875
-120.849609375
-111.6943359375
-107.11669921875
-109.86328125
-110.77880859375
-113.525390625
-115.3564453125
-112.60986328125
-111.6943359375
-115.3564453125
-121.76513671875
-119.0185546875
-116.27197265625
-100.7080078125
-86.0595703125
-86.0595703125
-92.46826171875
-90.63720703125
-88.80615234375
-84.228515625
-79.65087890625
-83.31298828125
-95.21484375
-97.0458984375
-108.0322265625
-112.60986328125
-107.11669921875
-94.29931640625
-98.876953125
-103.45458984375
-113.525390625
-118.10302734375
-123.59619140625
-129.08935546875
-130.92041015625
-143.73779296875
-156.55517578125
-153.80859375
-148.3154296875
-149.23095703125
-152.89306640625
-165.71044921875
-163.87939453125
-166.6259765625
-171.20361328125
-173.9501953125
-182.18994140625
-172.119140625
-168.45703125
-164.794921875
-161.1328125
-163.87939453125
-173.9501953125
-173.03466796875
-172.119140625
-175.78125
-178.52783203125
-177.6123046875
-175.78125
-169.37255859375
-169.37255859375
-169.37255859375
-171.20361328125
-173.03466796875
-175.78125
-174.86572265625
-182.18994140625
-183.10546875
-173.9501953125
-168.45703125
-167.54150390625
-167.54150390625
-168.45703125
-171.20361328125
-174.86572265625
-179.443359375
-190.4296875
-196.83837890625
-199.5849609375
-189.51416015625
-168.45703125
-150.146484375
-135.498046875
-112.60986328125
-64.0869140625
5.4931640625
70.49560546875
162.9638671875
281.982421875
409.24072265625
573.1201171875
729.67529296875
848.69384765625
937.5
1023.5595703125
1032.71484375
878.90625
600.5859375
358.88671875
115.3564453125
-129.08935546875
-374.45068359375
-530.09033203125
-587.7685546875
-596.923828125
-608.82568359375
-609.7412109375
-566.71142578125
-520.93505859375
-488.8916015625
-442.19970703125
-398.25439453125
-362.548828125
-323.18115234375
-275.57373046875
-227.96630859375
-194.091796875
-166.6259765625
-152.89306640625
-140.07568359375
-130.92041015625
-132.75146484375
-130.92041015625
-130.0048828125
-127.25830078125
-129.08935546875
-131.8359375
-128.173828125
-119.0185546875
-107.11669921875
-99.79248046875
-103.45458984375
-104.3701171875
-104.3701171875
-101.62353515625
-102.5390625
-103.45458984375
-101.62353515625
-95.21484375
-85.14404296875
-77.81982421875
-80.56640625
-79.65087890625
-78.7353515625
-83.31298828125
-76.904296875
-76.904296875
-78.7353515625
-74.15771484375
-68.66455078125
-64.0869140625
-65.00244140625
-67.7490234375
-65.91796875
-64.0869140625
-58.59375
-63.17138671875
-59.50927734375
-53.1005859375
-44.86083984375
-39.36767578125
-42.1142578125
-43.02978515625
-39.36767578125
-30.21240234375
-33.87451171875
-40.283203125
-35.70556640625
-31.1279296875
-24.71923828125
-20.1416015625
-17.39501953125
-14.6484375
-8.23974609375
-10.986328125
-9.1552734375
-6.40869140625
0.91552734375
8.23974609375
17.39501953125
29.296875
31.1279296875
34.7900390625
36.62109375
39.36767578125
43.02978515625
51.26953125
62.255859375
71.4111328125
86.0595703125
97.96142578125
97.0458984375
105.28564453125
112.60986328125
119.0185546875
127.25830078125
133.6669921875
145.56884765625
162.9638671875
174.86572265625
182.18994140625
191.34521484375
202.33154296875
205.078125
211.48681640625
218.81103515625
219.7265625
232.5439453125
240.78369140625
249.0234375
260.92529296875
260.009765625
260.009765625
257.26318359375
257.26318359375
255.43212890625
253.60107421875
260.92529296875
260.92529296875
259.09423828125
262.75634765625
255.43212890625
248.10791015625
243.5302734375
237.12158203125
222.47314453125
209.65576171875
205.99365234375
198.66943359375
191.34521484375
184.9365234375
166.6259765625
144.6533203125
122.6806640625
108.0322265625
92.46826171875
72.32666015625
55.84716796875
45.7763671875
35.70556640625
22.88818359375
5.4931640625
-10.07080078125
-24.71923828125
-34.7900390625
-52.18505859375
-65.91796875
-73.2421875
-81.48193359375
-88.80615234375
-94.29931640625
-105.28564453125
-115.3564453125
-130.92041015625
-133.6669921875
-140.07568359375
-144.6533203125
-154.72412109375
-156.55517578125
-155.6396484375
-159.3017578125
-167.54150390625
-168.45703125
-175.78125
-179.443359375
-185.85205078125
-193.17626953125
-192.2607421875
-184.9365234375
-173.03466796875
-177.6123046875
-184.02099609375
-187.68310546875
-192.2607421875
-193.17626953125
-199.5849609375
-202.33154296875
-198.66943359375
-195.00732421875
-188.5986328125
-179.443359375
-177.6123046875
-187.68310546875
-191.34521484375
-196.83837890625
-193.17626953125
-193.17626953125
-192.2607421875
-187.68310546875
-179.443359375
-174.86572265625
-178.52783203125
-178.52783203125
-182.18994140625
-184.02099609375
-186.767578125
-191.34521484375
-181.2744140625
-184.02099609375
-175.78125
-173.9501953125
-179.443359375
-181.2744140625
-180.35888671875
-180.35888671875
-184.9365234375
-188.5986328125
-182.18994140625
-180.35888671875
-174.86572265625
-166.6259765625
-166.6259765625
-172.119140625
-175.78125
-172.119140625
-178.52783203125
-181.2744140625
-179.443359375
-172.119140625
-168.45703125
-172.119140625
-173.03466796875
-172.119140625
-172.119140625
-173.9501953125
-179.443359375
-176.69677734375
-172.119140625
-172.119140625
-169.37255859375
-157.470703125
-162.9638671875
-169.37255859375
-174.86572265625
-173.9501953125
-176.69677734375
-180.35888671875
-176.69677734375
-172.119140625
-162.04833984375
-162.04833984375
-161.1328125
-162.9638671875
-167.54150390625
-175.78125
-176.69677734375
-177.6123046875
-177.6123046875
-173.9501953125
-170.2880859375
-162.04833984375
-164.794921875
-171.20361328125
-179.443359375
-188.5986328125
-186.767578125
-186.767578125
-185.85205078125
-184.02099609375
-178.52783203125
-176.69677734375
-180.35888671875
-184.9365234375
-193.17626953125
-195.00732421875
-187.68310546875
-192.2607421875
-192.2607421875
-190.4296875
-184.9365234375
-184.9365234375
-187.68310546875
-189.51416015625
-192.2607421875
-195.9228515625
-199.5849609375
-200.50048828125
-197.75390625
-191.34521484375
-184.9365234375
-184.9365234375
-187.68310546875
-189.51416015625
-190.4296875
-196.83837890625
-195.9228515625
-196.83837890625
-193.17626953125
-190.4296875
-191.34521484375
-189.51416015625
-188.5986328125
-190.4296875
-189.51416015625
-191.34521484375
-195.9228515625
-198.66943359375
-193.17626953125
-188.5986328125
-183.10546875
-183.10546875
-179.443359375
-182.18994140625
-191.34521484375
-194.091796875
-191.34521484375
-192.2607421875
-191.34521484375
-187.68310546875
-180.35888671875
-186.767578125
-192.2607421875
-190.4296875
-195.9228515625
-196.83837890625
-195.9228515625
-200.50048828125
-202.33154296875
-202.33154296875
-194.091796875
-185.85205078125
-194.091796875
-200.50048828125
-201.416015625
-203.2470703125
-205.078125
-204.16259765625
-201.416015625
-196.83837890625
-193.17626953125
-192.2607421875
-191.34521484375
-192.2607421875
-196.83837890625
-195.9228515625
-201.416015625
-198.66943359375
-196.83837890625
-195.00732421875
-189.51416015625
-191.34521484375
-193.17626953125
-193.17626953125
-197.75390625
-200.50048828125
-203.2470703125
-203.2470703125
-196.83837890625
-194.091796875
-189.51416015625
-187.68310546875
-191.34521484375
-188.5986328125
-188.5986328125
-195.00732421875
-195.9228515625
-197.75390625
-196.83837890625
-193.17626953125
-196.83837890625
-192.2607421875
-190.4296875
-195.00732421875
-200.50048828125
-200.50048828125
-202.33154296875
-204.16259765625
-202.33154296875
-196.83837890625
-197.75390625
-197.75390625
-190.4296875
-191.34521484375
-193.17626953125
-200.50048828125
-206.9091796875
-207.82470703125
-197.75390625
-193.17626953125
-188.5986328125
-185.85205078125
-189.51416015625
-184.9365234375
-180.35888671875
-179.443359375
-169.37255859375
-169.37255859375
-155.6396484375
-138.24462890625
-131.8359375
-133.6669921875
-130.0048828125
-134.58251953125
-141.90673828125
-136.41357421875
-141.90673828125
-148.3154296875
-153.80859375
-151.06201171875
-149.23095703125
-127.25830078125
-110.77880859375
-105.28564453125
-111.6943359375
-116.27197265625
-113.525390625
-118.10302734375
-111.6943359375
-108.0322265625
-113.525390625
-118.10302734375
-123.59619140625
-126.3427734375
-127.25830078125
-119.0185546875
-127.25830078125
-142.822265625
-147.39990234375
-148.3154296875
-148.3154296875
-147.39990234375
-150.146484375
-162.9638671875
-174.86572265625
-179.443359375
-184.9365234375
-189.51416015625
-196.83837890625
-198.66943359375
-194.091796875
-190.4296875
-195.00732421875
-191.34521484375
-191.34521484375
-198.66943359375
-201.416015625
-208.740234375
-205.99365234375
-198.66943359375
-203.2470703125
-196.83837890625
-195.9228515625
-198.66943359375
-201.416015625
-205.078125
-207.82470703125
-214.2333984375
-201.416015625
-197.75390625
-196.83837890625
-197.75390625
-198.66943359375
-199.5849609375
-201.416015625
-205.078125
-210.5712890625
-202.33154296875
-193.17626953125
-205.078125
-196.83837890625
-192.2607421875
-200.50048828125
-205.078125
-211.48681640625
-229.79736328125
-236.2060546875
-232.5439453125
-209.65576171875
-179.443359375
-159.3017578125
-121.76513671875
-74.15771484375
-9.1552734375
63.17138671875
153.80859375
259.09423828125
396.42333984375
571.2890625
727.84423828125
847.7783203125
947.57080078125
1009.82666015625
977.783203125
755.31005859375
456.84814453125
217.8955078125
-32.958984375
-281.06689453125
-490.72265625
-596.00830078125
-623.47412109375
-620.7275390625
-638.12255859375
-634.46044921875
-589.599609375
-559.38720703125
-526.42822265625
-476.98974609375
-429.38232421875
-383.60595703125
-339.66064453125
-293.88427734375
-253.60107421875
-217.8955078125
-193.17626953125
-188.5986328125
-178.52783203125
-171.20361328125
-168.45703125
-164.794921875
-161.1328125
-158.38623046875
-149.23095703125
-146.484375
-149.23095703125
-144.6533203125
-139.16015625
-142.822265625
-134.58251953125
-126.3427734375
-128.173828125
-124.51171875
-127.25830078125
-125.42724609375
-125.42724609375
-130.0048828125
-128.173828125
-124.51171875
-113.525390625
-113.525390625
-109.86328125
-97.0458984375
-98.876953125
-102.5390625
-104.3701171875
-107.11669921875
-108.0322265625
-99.79248046875
-93.3837890625
-94.29931640625
-78.7353515625
-75.98876953125
-85.14404296875
-90.63720703125
-91.552734375
-86.0595703125
-84.228515625
-76.904296875
-74.15771484375
-65.91796875
-65.00244140625
-56.7626953125
-57.67822265625
-62.255859375
-59.50927734375
-55.84716796875
-52.18505859375
-43.02978515625
-41.19873046875
-27.4658203125
-17.39501953125
-15.56396484375
-15.56396484375
-20.1416015625
-14.6484375
-14.6484375
-18.310546875
-5.4931640625
8.23974609375
11.90185546875
20.1416015625
21.97265625
28.38134765625
27.4658203125
33.87451171875
43.02978515625
43.02978515625
62.255859375
76.904296875
81.48193359375
89.7216796875
100.7080078125
108.94775390625
115.3564453125
120.849609375
129.08935546875
137.3291015625
147.39990234375
158.38623046875
173.9501953125
174.86572265625
186.767578125
198.66943359375
213.31787109375
209.65576171875
211.48681640625
218.81103515625
226.13525390625
234.375
240.78369140625
240.78369140625
241.69921875
239.8681640625
236.2060546875
232.5439453125
227.96630859375
228.8818359375
230.712890625
230.712890625
223.388671875
223.388671875
215.14892578125
202.33154296875
195.00732421875
182.18994140625
165.71044921875
153.80859375
136.41357421875
131.8359375
125.42724609375
103.45458984375
88.80615234375
72.32666015625
51.26953125
27.4658203125
13.73291015625
0.91552734375
-10.986328125
-23.8037109375
-38.4521484375
-42.1142578125
-48.52294921875
-71.4111328125
-87.890625
-102.5390625
-109.86328125
-119.0185546875
-125.42724609375
-137.3291015625
-138.24462890625
-142.822265625
-151.9775390625
-158.38623046875
-166.6259765625
-181.2744140625
-177.6123046875
-179.443359375
-182.18994140625
-184.02099609375
-182.18994140625
-190.4296875
-195.00732421875
-189.51416015625
-192.2607421875
-201.416015625
-209.65576171875
-210.5712890625
-205.99365234375
-205.078125
-209.65576171875
-203.2470703125
-202.33154296875
-208.740234375
-219.7265625
-221.5576171875
-221.5576171875
-219.7265625
-219.7265625
-206.9091796875
-205.078125
-212.40234375
-210.5712890625
-206.9091796875
-209.65576171875
-216.064453125
-214.2333984375
-210.5712890625
-210.5712890625
-203.2470703125
-203.2470703125
-197.75390625
-195.00732421875
-199.5849609375
-206.9091796875
-211.48681640625
-204.16259765625
-203.2470703125
-205.078125
-194.091796875
-184.9365234375
-189.51416015625
-192.2607421875
-193.17626953125
-196.83837890625
-201.416015625
-207.82470703125
-205.078125
-196.83837890625
-196.83837890625
-196.83837890625
-187.68310546875
-189.51416015625
-197.75390625
-198.66943359375
-198.66943359375
-201.416015625
-201.416015625
-190.4296875
-186.767578125
-183.10546875
-183.10546875
-185.85205078125
-180.35888671875
-186.767578125
-189.51416015625
-195.9228515625
-199.5849609375
-187.68310546875
-180.35888671875
-173.9501953125
-180.35888671875
-184.9365234375
-191.34521484375
-189.51416015625
-185.85205078125
-188.5986328125
-195.9228515625
-196.83837890625
-189.51416015625
-180.35888671875
-183.10546875
-189.51416015625
-194.091796875
-200.50048828125
-199.5849609375
-202.33154296875
-205.99365234375
-205.99365234375
-196.83837890625
-184.02099609375
-188.5986328125
-191.34521484375
-194.091796875
-202.33154296875
-206.9091796875
-211.48681640625
-211.48681640625
-206.9091796875
-201.416015625
-195.9228515625
-199.5849609375
-196.83837890625
-194.091796875
-196.83837890625
-206.9091796875
-207.82470703125
-202.33154296875
-204.16259765625
-197.75390625
-196.83837890625
-192.2607421875
-195.9228515625
-198.66943359375
-203.2470703125
-197.75390625
-205.99365234375
-206.9091796875
-210.5712890625
-205.078125
-199.5849609375
-201.416015625
-205.078125
-205.99365234375
-212.40234375
-207.82470703125
-208.740234375
-214.2333984375
-210.5712890625
-212.40234375
-204.16259765625
-197.75390625
-203.2470703125
-202.33154296875
-207.82470703125
-216.064453125
-218.81103515625
-216.064453125
-227.05078125
-207.82470703125
-199.5849609375
-204.16259765625
-205.078125
-201.416015625
-204.16259765625
-211.48681640625
-213.31787109375
-211.48681640625
-211.48681640625
-210.5712890625
-210.5712890625
-211.48681640625
-207.82470703125
-205.078125
-226.13525390625
-217.8955078125
-215.14892578125
-215.14892578125
-216.97998046875
-221.5576171875
-205.078125
-198.66943359375
-205.078125
-211.48681640625
-209.65576171875
-223.388671875
-229.79736328125
-224.30419921875
-216.064453125
-210.5712890625
-209.65576171875
-211.48681640625
-211.48681640625
-206.9091796875
-206.9091796875
-219.7265625
-223.388671875
-220.64208984375
-222.47314453125
-220.64208984375
-207.82470703125
-204.16259765625
-213.31787109375
-212.40234375
-219.7265625
-223.388671875
-220.64208984375
-220.64208984375
-220.64208984375
-216.97998046875
-217.8955078125
-212.40234375
-213.31787109375
-216.97998046875
-219.7265625
-221.5576171875
-216.97998046875
-216.064453125
-216.064453125
-216.97998046875
-201.416015625
-194.091796875
-197.75390625
-201.416015625
-215.14892578125
-213.31787109375
-213.31787109375
-218.81103515625
-214.2333984375
-201.416015625
-199.5849609375
-198.66943359375
-204.16259765625
-192.2607421875
-189.51416015625
-193.17626953125
-185.85205078125
-174.86572265625
-167.54150390625
-154.72412109375
-144.6533203125
-145.56884765625
-152.89306640625
-159.3017578125
-162.04833984375
-165.71044921875
-166.6259765625
-167.54150390625
-173.03466796875
-171.20361328125
-166.6259765625
-150.146484375
-131.8359375
-128.173828125
-135.498046875
-143.73779296875
-144.6533203125
-140.9912109375
-142.822265625
-135.498046875
-139.16015625
-144.6533203125
-151.06201171875
-150.146484375
-151.9775390625
-151.06201171875
-155.6396484375
-169.37255859375
-168.45703125
-168.45703125
-177.6123046875
-181.2744140625
-181.2744140625
-190.4296875
-195.9228515625
-208.740234375
-215.14892578125
-216.064453125
-214.2333984375
-210.5712890625
-206.9091796875
-212.40234375
-212.40234375
-210.5712890625
-209.65576171875
-212.40234375
-216.97998046875
-219.7265625
-214.2333984375
-212.40234375
-207.82470703125
-202.33154296875
-205.078125
-207.82470703125
-215.14892578125
-215.14892578125
-221.5576171875
-227.96630859375
-219.7265625
-214.2333984375
-204.16259765625
-210.5712890625
-221.5576171875
-221.5576171875
-227.96630859375
-231.62841796875
-233.45947265625
-235.29052734375
-233.45947265625
-227.05078125
-222.47314453125
-220.64208984375
-221.5576171875
-236.2060546875
-250.8544921875
-251.77001953125
-249.93896484375
-243.5302734375
-227.05078125
-207.82470703125
-180.35888671875
-148.3154296875
-102.5390625
-45.7763671875
32.04345703125
119.0185546875
224.30419921875
354.30908203125
504.45556640625
643.61572265625
751.64794921875
834.04541015625
884.3994140625
844.1162109375
606.99462890625
319.51904296875
69.580078125
-164.794921875
-378.11279296875
-548.40087890625
-628.0517578125
-639.0380859375
-638.12255859375
-643.61572265625
-630.79833984375
-590.51513671875
-564.88037109375
-534.66796875
-486.14501953125
-434.87548828125
-393.6767578125
-352.47802734375
-314.02587890625
-270.08056640625
-237.12158203125
-217.8955078125
-201.416015625
-199.5849609375
-193.17626953125
-182.18994140625
-171.20361328125
-170.2880859375
-175.78125
-169.37255859375
-173.03466796875
-173.9501953125
-169.37255859375
-171.20361328125
-164.794921875
-160.21728515625
-151.9775390625
-150.146484375
-144.6533203125
-136.41357421875
-142.822265625
-149.23095703125
-151.06201171875
-149.23095703125
-144.6533203125
-142.822265625
-124.51171875
-128.173828125
-130.0048828125
-131.8359375
-132.75146484375
-134.58251953125
-138.24462890625
-137.3291015625
-127.25830078125
-114.44091796875
-107.11669921875
-107.11669921875
-105.28564453125
-104.3701171875
-105.28564453125
-107.11669921875
-110.77880859375
-106.201171875
-99.79248046875
-89.7216796875
-79.65087890625
-80.56640625
-81.48193359375
-80.56640625
-80.56640625
-73.2421875
-75.98876953125
-72.32666015625
-74.15771484375
-64.0869140625
-52.18505859375
-49.4384765625
-46.69189453125
-42.1142578125
-43.02978515625
-44.86083984375
-40.283203125
-35.70556640625
-23.8037109375
-15.56396484375
-4.57763671875
4.57763671875
1.8310546875
7.32421875
6.40869140625
12.8173828125
17.39501953125
26.55029296875
42.1142578125
51.26953125
65.00244140625
79.65087890625
80.56640625
86.0595703125
94.29931640625
104.3701171875
107.11669921875
110.77880859375
120.849609375
145.56884765625
160.21728515625
163.87939453125
163.87939453125
172.119140625
177.6123046875
187.68310546875
188.5986328125
193.17626953125
199.5849609375
208.740234375
211.48681640625
213.31787109375
214.2333984375
215.14892578125
211.48681640625
206.9091796875
209.65576171875
205.078125
206.9091796875
205.078125
206.9091796875
206.9091796875
194.091796875
185.85205078125
176.69677734375
160.21728515625
147.39990234375
131.8359375
122.6806640625
109.86328125
98.876953125
82.3974609375
60.4248046875
43.02978515625
21.97265625
6.40869140625
-13.73291015625
-21.05712890625
-30.21240234375
-40.283203125
-55.84716796875
-65.91796875
-82.3974609375
-97.0458984375
-109.86328125
-122.6806640625
-133.6669921875
-139.16015625
-147.39990234375
-151.9775390625
-159.3017578125
-164.794921875
-179.443359375
-177.6123046875
-192.2607421875
-196.83837890625
-204.16259765625
-209.65576171875
-208.740234375
-211.48681640625
-214.2333984375
-216.97998046875
-218.81103515625
-221.5576171875
-232.5439453125
-237.12158203125
-241.69921875
-241.69921875
-240.78369140625
-234.375
-228.8818359375
-224.30419921875
-234.375
-241.69921875
-237.12158203125
-240.78369140625
-244.44580078125
-244.44580078125
-241.69921875
-231.62841796875
-227.96630859375
-227.96630859375
-227.05078125
-236.2060546875
-237.12158203125
-235.29052734375
-240.78369140625
-236.2060546875
-227.96630859375
-222.47314453125
-214.2333984375
-212.40234375
-213.31787109375
-219.7265625
-221.5576171875
-227.96630859375
-227.05078125
-219.7265625
-215.14892578125
-216.97998046875
-211.48681640625
-207.82470703125
-215.14892578125
-215.14892578125
-216.97998046875
-223.388671875
-226.13525390625
-224.30419921875
-217.8955078125
-213.31787109375
-208.740234375
-207.82470703125
-208.740234375
-211.48681640625
-216.97998046875
-220.64208984375
-226.13525390625
-220.64208984375
-222.47314453125
-219.7265625
-212.40234375
-211.48681640625
-215.14892578125
-220.64208984375
-228.8818359375
-222.47314453125
-229.79736328125
-229.79736328125
-227.96630859375
-216.97998046875
-210.5712890625
-214.2333984375
-216.064453125
-220.64208984375
-218.81103515625
-223.388671875
-223.388671875
-221.5576171875
-221.5576171875
-210.5712890625
-205.99365234375
-210.5712890625
-211.48681640625
-213.31787109375
-216.064453125
-219.7265625
-225.2197265625
-220.64208984375
-211.48681640625
-211.48681640625
-212.40234375
-211.48681640625
-219.7265625
-223.388671875
-222.47314453125
-229.79736328125
-232.5439453125
-224.30419921875
-224.30419921875
-228.8818359375
-222.47314453125
-224.30419921875
-237.12158203125
-235.29052734375
-234.375
-239.8681640625
-236.2060546875
-242.61474609375
-239.8681640625
-234.375
-224.30419921875
-230.712890625
-231.62841796875
-232.5439453125
-238.037109375
-238.037109375
-242.61474609375
-243.5302734375
-238.037109375
-230.712890625
-224.30419921875
-227.96630859375
-232.5439453125
-233.45947265625
-235.29052734375
-238.95263671875
-239.8681640625
-240.78369140625
-238.037109375
-233.45947265625
-228.8818359375
-226.13525390625
-227.05078125
-227.96630859375
-229.79736328125
-230.712890625
-233.45947265625
-231.62841796875
-231.62841796875
-230.712890625
-223.388671875
-224.30419921875
-230.712890625
-231.62841796875
-229.79736328125
-231.62841796875
-238.037109375
-238.95263671875
-236.2060546875
-227.05078125
-227.05078125
-228.8818359375
-230.712890625
-230.712890625
-227.96630859375
-229.79736328125
-237.12158203125
-238.95263671875
-231.62841796875
-230.712890625
-228.8818359375
-228.8818359375
-223.388671875
-223.388671875
-236.2060546875
-242.61474609375
-243.5302734375
-238.037109375
-232.5439453125
-230.712890625
-225.2197265625
-229.79736328125
-230.712890625
-233.45947265625
-237.12158203125
-242.61474609375
-241.69921875
-238.95263671875
-235.29052734375
-227.96630859375
-228.8818359375
-229.79736328125
-229.79736328125
-229.79736328125
-237.12158203125
-238.95263671875
-240.78369140625
-236.2060546875
-231.62841796875
-227.96630859375
-223.388671875
-225.2197265625
-224.30419921875
-225.2197265625
-229.79736328125
-232.5439453125
-229.79736328125
-230.712890625
-231.62841796875
-226.13525390625
-221.5576171875
-221.5576171875
-226.13525390625
-233.45947265625
-236.2060546875
-238.95263671875
-244.44580078125
-237.12158203125
-231.62841796875
-227.96630859375
-221.5576171875
-217.8955078125
-221.5576171875
-219.7265625
-214.2333984375
-213.31787109375
-206.9091796875
-197.75390625
-187.68310546875
-176.69677734375
-170.2880859375
-167.54150390625
-175.78125
-178.52783203125
-176.69677734375
-174.86572265625
-179.443359375
-184.9365234375
-197.75390625
-191.34521484375
-184.02099609375
-162.9638671875
-151.9775390625
-152.89306640625
-156.55517578125
-159.3017578125
-156.55517578125
-151.06201171875
-155.6396484375
-154.72412109375
-154.72412109375
-162.9638671875
-169.37255859375
-163.87939453125
-159.3017578125
-163.87939453125
-170.2880859375
-177.6123046875
-175.78125
-175.78125
-181.2744140625
-181.2744140625
-185.85205078125
-198.66943359375
-216.064453125
-223.388671875
-229.79736328125
-228.8818359375
-230.712890625
-237.12158203125
-232.5439453125
-233.45947265625
-238.037109375
-236.2060546875
-235.29052734375
-236.2060546875
-240.78369140625
-237.12158203125
-238.95263671875
-235.29052734375
-230.712890625
-232.5439453125
-235.29052734375
-237.12158203125
-241.69921875
-246.27685546875
-248.10791015625
-242.61474609375
-245.361328125
-238.95263671875
-232.5439453125
-235.29052734375
-233.45947265625
-233.45947265625
-243.5302734375
-249.0234375
-244.44580078125
-240.78369140625
-239.8681640625
-235.29052734375
-228.8818359375
-237.12158203125
-244.44580078125
-248.10791015625
-260.009765625
-277.40478515625
-275.57373046875
-263.671875
-247.1923828125
-216.97998046875
-195.00732421875
-164.794921875
-108.0322265625
-44.86083984375
32.04345703125
128.173828125
238.95263671875
372.61962890625
542.90771484375
695.80078125
798.33984375
890.80810546875
953.06396484375
918.27392578125
704.04052734375
423.88916015625
180.35888671875
-63.17138671875
-308.53271484375
-524.59716796875
-636.29150390625
-664.6728515625
-670.166015625
-685.72998046875
-667.41943359375
-626.220703125
-594.17724609375
-552.06298828125
-507.2021484375
-454.1015625
-411.07177734375
-376.28173828125
-325.927734375
-281.06689453125
-249.93896484375
-234.375
-227.96630859375
-224.30419921875
-216.97998046875
-208.740234375
-202.33154296875
-201.416015625
-195.00732421875
-194.091796875
-195.9228515625
-192.2607421875
-193.17626953125
-187.68310546875
-184.9365234375
-177.6123046875
-167.54150390625
-164.794921875
-166.6259765625
-166.6259765625
-168.45703125
-167.54150390625
-165.71044921875
-161.1328125
-156.55517578125
-150.146484375
-147.39990234375
-148.3154296875
-150.146484375
-147.39990234375
-148.3154296875
-150.146484375
-155.6396484375
-144.6533203125
-139.16015625
-133.6669921875
-131.8359375
-130.0048828125
-132.75146484375
-128.173828125
-129.08935546875
-132.75146484375
-135.498046875
-131.8359375
-116.27197265625
-111.6943359375
-107.11669921875
-105.28564453125
-100.7080078125
-105.28564453125
-102.5390625
-102.5390625
-101.62353515625
-99.79248046875
-88.80615234375
-81.48193359375
-69.580078125
-68.66455078125
-70.49560546875
-63.17138671875
-65.00244140625
-64.0869140625
-59.50927734375
-55.84716796875
-44.86083984375
-29.296875
-18.310546875
-21.05712890625
-20.1416015625
-12.8173828125
-8.23974609375
-6.40869140625
-1.8310546875
5.4931640625
20.1416015625
34.7900390625
50.35400390625
57.67822265625
69.580078125
71.4111328125
80.56640625
86.97509765625
89.7216796875
101.62353515625
113.525390625
126.3427734375
134.58251953125
143.73779296875
153.80859375
163.87939453125
165.71044921875
165.71044921875
172.119140625
182.18994140625
195.9228515625
197.75390625
202.33154296875
205.99365234375
205.078125
205.99365234375
207.82470703125
206.9091796875
200.50048828125
205.99365234375
205.99365234375
204.16259765625
201.416015625
194.091796875
181.2744140625
171.20361328125
163.87939453125
149.23095703125
137.3291015625
130.92041015625
118.10302734375
100.7080078125
90.63720703125
68.66455078125
54.931640625
35.70556640625
17.39501953125
1.8310546875
-20.1416015625
-34.7900390625
-48.52294921875
-54.931640625
-65.00244140625
-85.14404296875
-99.79248046875
-118.10302734375
-128.173828125
-135.498046875
-151.06201171875
-154.72412109375
-160.21728515625
-165.71044921875
-170.2880859375
-177.6123046875
-192.2607421875
-196.83837890625
-207.82470703125
-213.31787109375
-215.14892578125
-217.8955078125
-216.97998046875
-216.97998046875
-220.64208984375
-222.47314453125
-220.64208984375
-227.96630859375
-229.79736328125
-239.8681640625
-248.10791015625
-244.44580078125
-244.44580078125
-237.12158203125
-230.712890625
-231.62841796875
-234.375
-247.1923828125
-250.8544921875
-249.93896484375
-255.43212890625
-250.8544921875
-246.27685546875
-240.78369140625
-240.78369140625
-243.5302734375
-244.44580078125
-246.27685546875
-244.44580078125
-245.361328125
-251.77001953125
-247.1923828125
-245.361328125
-238.037109375
-234.375
-241.69921875
-237.12158203125
-235.29052734375
-242.61474609375
-246.27685546875
-246.27685546875
-242.61474609375
-234.375
-232.5439453125
-229.79736328125
-234.375
-236.2060546875
-241.69921875
-238.95263671875
-234.375
-238.95263671875
-237.12158203125
-226.13525390625
-226.13525390625
-228.8818359375
-224.30419921875
-229.79736328125
-229.79736328125
-226.13525390625
-224.30419921875
-233.45947265625
-228.8818359375
-217.8955078125
-216.064453125
-215.14892578125
-212.40234375
-211.48681640625
-221.5576171875
-220.64208984375
-219.7265625
-216.97998046875
-220.64208984375
-224.30419921875
-209.65576171875
-209.65576171875
-216.97998046875
-225.2197265625
-216.064453125
-222.47314453125
-225.2197265625
-227.96630859375
-222.47314453125
-223.388671875
-213.31787109375
-217.8955078125
-216.97998046875
-212.40234375
-219.7265625
-224.30419921875
-224.30419921875
-224.30419921875
-222.47314453125
-222.47314453125
-216.97998046875
-218.81103515625
-220.64208984375
-225.2197265625
-236.2060546875
-232.5439453125
-230.712890625
-230.712890625
-231.62841796875
-230.712890625
-221.5576171875
-223.388671875
-223.388671875
-226.13525390625
-226.13525390625
-229.79736328125
-227.96630859375
-235.29052734375
-229.79736328125
-224.30419921875
-219.7265625
-217.8955078125
-227.05078125
-224.30419921875
-231.62841796875
-232.5439453125
-230.712890625
-233.45947265625
-233.45947265625
-230.712890625
-219.7265625
-209.65576171875
-218.81103515625
-226.13525390625
-233.45947265625
-225.2197265625
-228.8818359375
-227.05078125
-222.47314453125
-215.14892578125
-210.5712890625
-214.2333984375
-216.97998046875
-218.81103515625
-224.30419921875
-225.2197265625
-230.712890625
-233.45947265625
-228.8818359375
-227.05078125
-222.47314453125
-212.40234375
-216.064453125
-218.81103515625
-220.64208984375
-222.47314453125
-225.2197265625
-227.96630859375
-222.47314453125
-222.47314453125
-223.388671875
-225.2197265625
-220.64208984375
-220.64208984375
-224.30419921875
-224.30419921875
-227.96630859375
-232.5439453125
-225.2197265625
-222.47314453125
-221.5576171875
-217.8955078125
-219.7265625
-222.47314453125
-225.2197265625
-226.13525390625
-223.388671875
-233.45947265625
-231.62841796875
-223.388671875
-221.5576171875
-224.30419921875
-225.2197265625
-229.79736328125
-225.2197265625
-225.2197265625
-227.96630859375
-231.62841796875
-229.79736328125
-223.388671875
-217.8955078125
-212.40234375
-217.8955078125
-224.30419921875
-216.97998046875
-226.13525390625
-227.96630859375
-232.5439453125
-232.5439453125
-225.2197265625
-222.47314453125
-216.97998046875
-221.5576171875
-227.05078125
-223.388671875
-219.7265625
-227.05078125
-232.5439453125
-223.388671875
-223.388671875
-223.388671875
-224.30419921875
-221.5576171875
-228.8818359375
-221.5576171875
-223.388671875
-226.13525390625
-229.79736328125
-222.47314453125
-214.2333984375
-214.2333984375
-211.48681640625
-216.97998046875
-219.7265625
-224.30419921875
-225.2197265625
-223.388671875
-223.388671875
-227.05078125
-221.5576171875
-216.064453125
-208.740234375
-202.33154296875
-201.416015625
-196.83837890625
-194.091796875
-195.00732421875
-190.4296875
-183.10546875
-168.45703125
-158.38623046875
-157.470703125
-151.9775390625
-151.06201171875
-161.1328125
-162.04833984375
-164.794921875
-176.69677734375
-180.35888671875
-177.6123046875
-158.38623046875
-137.3291015625
-129.08935546875
-130.92041015625
-134.58251953125
-137.3291015625
-137.3291015625
-139.16015625
-144.6533203125
-145.56884765625
-140.07568359375
-148.3154296875
-152.89306640625
-147.39990234375
-140.9912109375
-144.6533203125
-156.55517578125
-165.71044921875
-168.45703125
-173.9501953125
-181.2744140625
-173.9501953125
-174.86572265625
-182.18994140625
-202.33154296875
-209.65576171875
-215.14892578125
-221.5576171875
-221.5576171875
-222.47314453125
-214.2333984375
-207.82470703125
-210.5712890625
-210.5712890625
-206.9091796875
-216.064453125
-216.064453125
-220.64208984375
-217.8955078125
-216.97998046875
-204.16259765625
-205.99365234375
-202.33154296875
-208.740234375
-212.40234375
-218.81103515625
-220.64208984375
-224.30419921875
-220.64208984375
-214.2333984375
-206.9091796875
-203.2470703125
-208.740234375
-209.65576171875
-214.2333984375
-216.97998046875
-220.64208984375
-225.2197265625
-217.8955078125
-214.2333984375
-211.48681640625
-208.740234375
-212.40234375
-218.81103515625
-228.8818359375
-240.78369140625
-238.95263671875
-227.05078125
-202.33154296875
-186.767578125
-154.72412109375
-114.44091796875
-58.59375
4.57763671875
94.29931640625
196.83837890625
311.279296875
463.2568359375
633.544921875
773.62060546875
878.90625
976.86767578125
1009.82666015625
907.28759765625
632.62939453125
379.0283203125
136.41357421875
-107.11669921875
-352.47802734375
-528.25927734375
-613.4033203125
-619.81201171875
-629.8828125
-638.12255859375
-602.4169921875
-566.71142578125
-543.8232421875
-504.45556640625
-450.439453125
-400.08544921875
-357.97119140625
-312.19482421875
-261.8408203125
-225.2197265625
-200.50048828125
-189.51416015625
-184.02099609375
-177.6123046875
-172.119140625
-164.794921875
-151.9775390625
-153.80859375
-151.9775390625
-147.39990234375
-151.9775390625
-151.06201171875
-151.9775390625
-151.9775390625
-143.73779296875
-140.9912109375
-127.25830078125
-126.3427734375
-124.51171875
-131.8359375
-130.92041015625
-124.51171875
-127.25830078125
-128.173828125
-124.51171875
-114.44091796875
-113.525390625
-111.6943359375
-107.11669921875
-104.3701171875
-108.0322265625
-111.6943359375
-111.6943359375
-105.28564453125
-100.7080078125
-98.876953125
-89.7216796875
-87.890625
-88.80615234375
-81.48193359375
-85.14404296875
-86.0595703125
-86.0595703125
-88.80615234375
-84.228515625
-69.580078125
-62.255859375
-67.7490234375
-63.17138671875
-58.59375
-65.91796875
-66.83349609375
-62.255859375
-65.00244140625
-59.50927734375
-50.35400390625
-45.7763671875
-40.283203125
-31.1279296875
-34.7900390625
-35.70556640625
-32.958984375
-26.55029296875
-26.55029296875
-17.39501953125
-10.986328125
0.91552734375
7.32421875
10.07080078125
20.1416015625
22.88818359375
23.8037109375
40.283203125
44.86083984375
48.52294921875
66.83349609375
74.15771484375
82.3974609375
84.228515625
92.46826171875
111.6943359375
115.3564453125
114.44091796875
126.3427734375
150.146484375
163.87939453125
179.443359375
183.10546875
192.2607421875
191.34521484375
198.66943359375
201.416015625
202.33154296875
204.16259765625
215.14892578125
227.05078125
236.2060546875
238.037109375
237.12158203125
232.5439453125
230.712890625
237.12158203125
230.712890625
232.5439453125
225.2197265625
227.05078125
240.78369140625
232.5439453125
215.14892578125
200.50048828125
190.4296875
178.52783203125
161.1328125
140.07568359375
129.08935546875
117.1875
104.3701171875
89.7216796875
69.580078125
45.7763671875
30.21240234375
16.4794921875
-10.07080078125
-23.8037109375
-36.62109375
-46.69189453125
-51.26953125
-71.4111328125
-78.7353515625
-89.7216796875
-107.11669921875
-130.0048828125
-144.6533203125
-155.6396484375
-160.21728515625
-169.37255859375
-172.119140625
-176.69677734375
-183.10546875
-196.83837890625
-196.83837890625
-197.75390625
-206.9091796875
-218.81103515625
-221.5576171875
-214.2333984375
-216.97998046875
-222.47314453125
-228.8818359375
-238.037109375
-240.78369140625
-247.1923828125
-248.10791015625
-238.037109375
-235.29052734375
-232.5439453125
-225.2197265625
-229.79736328125
-238.95263671875
-243.5302734375
-249.93896484375
-238.95263671875
-237.12158203125
-257.26318359375
-247.1923828125
-249.93896484375
-247.1923828125
-244.44580078125
-234.375
-237.12158203125
-230.712890625
-236.2060546875
-238.95263671875
-245.361328125
-249.0234375
-238.95263671875
-234.375
-231.62841796875
-235.29052734375
-231.62841796875
-234.375
-247.1923828125
-238.95263671875
-237.12158203125
-241.69921875
-230.712890625
-224.30419921875
-223.388671875
-222.47314453125
-229.79736328125
-226.13525390625
-230.712890625
-236.2060546875
-236.2060546875
-232.5439453125
-227.96630859375
-227.05078125
-220.64208984375
-215.14892578125
-218.81103515625
-224.30419921875
-226.13525390625
-237.12158203125
-241.69921875
-240.78369140625
-228.8818359375
-223.388671875
-220.64208984375
-218.81103515625
-224.30419921875
-227.96630859375
-229.79736328125
-224.30419921875
-218.81103515625
-211.48681640625
-201.416015625
-200.50048828125
-205.99365234375
-204.16259765625
-206.9091796875
-208.740234375
-205.99365234375
-208.740234375
-206.9091796875
-209.65576171875
-206.9091796875
-197.75390625
-187.68310546875
-195.9228515625
-196.83837890625
-194.091796875
-204.16259765625
-220.64208984375
-218.81103515625
-206.9091796875
-203.2470703125
-196.83837890625
-188.5986328125
-198.66943359375
-196.83837890625
-207.82470703125
-208.740234375
-205.078125
-205.99365234375
-204.16259765625
-200.50048828125
-196.83837890625
-196.83837890625
-197.75390625
-198.66943359375
-205.99365234375
-207.82470703125
-210.5712890625
-215.14892578125
-217.8955078125
-210.5712890625
-211.48681640625
-206.9091796875
-198.66943359375
-200.50048828125
-203.2470703125
-204.16259765625
-204.16259765625
-208.740234375
-204.16259765625
-197.75390625
-197.75390625
-199.5849609375
-200.50048828125
-203.2470703125
-205.078125
-206.9091796875
-208.740234375
-212.40234375
-204.16259765625
-202.33154296875
-204.16259765625
-205.078125
-205.078125
-208.740234375
-207.82470703125
-206.9091796875
-213.31787109375
-214.2333984375
-204.16259765625
-206.9091796875
-204.16259765625
-201.416015625
-203.2470703125
-204.16259765625
-202.33154296875
-209.65576171875
-215.14892578125
-220.64208984375
-212.40234375
-205.99365234375
-202.33154296875
-198.66943359375
-200.50048828125
-203.2470703125
-211.48681640625
-208.740234375
-208.740234375
-215.14892578125
-210.5712890625
-209.65576171875
-208.740234375
-206.9091796875
-205.99365234375
-199.5849609375
-208.740234375
-213.31787109375
-216.97998046875
-211.48681640625
-207.82470703125
-195.9228515625
-195.9228515625
-198.66943359375
-204.16259765625
-205.99365234375
-207.82470703125
-216.064453125
-222.47314453125
-222.47314453125
-215.14892578125
-214.2333984375
-207.82470703125
-206.9091796875
-208.740234375
-209.65576171875
-217.8955078125
-216.064453125
-214.2333984375
-213.31787109375
-210.5712890625
-205.078125
-205.078125
-201.416015625
-203.2470703125
-205.99365234375
-207.82470703125
-205.99365234375
-204.16259765625
-201.416015625
-196.83837890625
-188.5986328125
-174.86572265625
-161.1328125
-158.38623046875
-148.3154296875
-143.73779296875
-150.146484375
-157.470703125
-156.55517578125
-154.72412109375
-149.23095703125
-144.6533203125
-148.3154296875
-157.470703125
-160.21728515625
-153.80859375
-139.16015625
-130.0048828125
-132.75146484375
-135.498046875
-128.173828125
-109.86328125
-116.27197265625
-120.849609375
-124.51171875
-130.0048828125
-138.24462890625
-145.56884765625
-145.56884765625
-132.75146484375
-125.42724609375
-132.75146484375
-139.16015625
-137.3291015625
-150.146484375
-170.2880859375
-162.9638671875
-166.6259765625
-178.52783203125
-179.443359375
-175.78125
-173.9501953125
-185.85205078125
-198.66943359375
-203.2470703125
-210.5712890625
-208.740234375
-208.740234375
-211.48681640625
-208.740234375
-204.16259765625
-197.75390625
-191.34521484375
-196.83837890625
-201.416015625
-208.740234375
-215.14892578125
-214.2333984375
-214.2333984375
-213.31787109375
-201.416015625
-199.5849609375
-207.82470703125
-208.740234375
-202.33154296875
-205.078125
-202.33154296875
-206.9091796875
-205.99365234375
-206.9091796875
-207.82470703125
-207.82470703125
-213.31787109375
-219.7265625
-225.2197265625
-212.40234375
-209.65576171875
-216.064453125
-218.81103515625
-220.64208984375
-232.5439453125
-238.95263671875
-217.8955078125
-199.5849609375
-184.9365234375
-171.20361328125
-135.498046875
-85.14404296875
-20.1416015625
75.0732421875
173.03466796875
292.05322265625
449.52392578125
613.4033203125
769.04296875
879.82177734375
981.4453125
1029.96826171875
957.6416015625
700.37841796875
444.9462890625
209.65576171875
-26.55029296875
-280.1513671875
-478.82080078125
-584.1064453125
-613.4033203125
-628.96728515625
-643.61572265625
-611.572265625
-567.626953125
-535.58349609375
-488.8916015625
-444.9462890625
-403.74755859375
-371.7041015625
-329.58984375
-289.306640625
-243.5302734375
-203.2470703125
-179.443359375
-165.71044921875
-164.794921875
-165.71044921875
-161.1328125
-154.72412109375
-154.72412109375
-153.80859375
-154.72412109375
-152.89306640625
-138.24462890625
-132.75146484375
-140.9912109375
-130.92041015625
-131.8359375
-127.25830078125
-125.42724609375
-121.76513671875
-121.76513671875
-117.1875
-113.525390625
-108.0322265625
-99.79248046875
-102.5390625
-110.77880859375
-107.11669921875
-105.28564453125
-108.94775390625
-104.3701171875
-98.876953125
-93.3837890625
-86.97509765625
-80.56640625
-86.0595703125
-85.14404296875
-90.63720703125
-75.98876953125
-79.65087890625
-81.48193359375
-79.65087890625
-70.49560546875
-65.91796875
-62.255859375
-62.255859375
-71.4111328125
-69.580078125
-60.4248046875
-62.255859375
-43.9453125
-42.1142578125
-41.19873046875
-33.87451171875
-21.05712890625
-28.38134765625
-31.1279296875
-27.4658203125
-19.22607421875
-18.310546875
-21.05712890625
-7.32421875
11.90185546875
19.22607421875
18.310546875
21.97265625
26.55029296875
21.97265625
23.8037109375
26.55029296875
32.04345703125
38.4521484375
47.607421875
69.580078125
83.31298828125
91.552734375
97.0458984375
97.0458984375
97.96142578125
126.3427734375
144.6533203125
150.146484375
159.3017578125
177.6123046875
185.85205078125
197.75390625
203.2470703125
215.14892578125
220.64208984375
220.64208984375
223.388671875
241.69921875
252.685546875
259.09423828125
274.658203125
270.99609375
270.08056640625
274.658203125
262.75634765625
270.99609375
268.24951171875
268.24951171875
265.5029296875
280.1513671875
281.982421875
267.333984375
265.5029296875
264.58740234375
252.685546875
236.2060546875
227.96630859375
224.30419921875
217.8955078125
205.078125
190.4296875
165.71044921875
139.16015625
119.93408203125
108.0322265625
85.14404296875
66.83349609375
52.18505859375
39.36767578125
29.296875
21.05712890625
9.1552734375
-6.40869140625
-31.1279296875
-43.02978515625
-57.67822265625
-79.65087890625
-100.7080078125
-99.79248046875
-100.7080078125
-111.6943359375
-119.93408203125
-135.498046875
-142.822265625
-152.89306640625
-158.38623046875
-161.1328125
-157.470703125
-159.3017578125
-167.54150390625
-173.03466796875
-175.78125
-182.18994140625
-193.17626953125
-201.416015625
-202.33154296875
-210.5712890625
-200.50048828125
-197.75390625
-194.091796875
-196.83837890625
-210.5712890625
-216.064453125
-203.2470703125
-205.99365234375
-212.40234375
-212.40234375
-205.99365234375
-198.66943359375
-202.33154296875
-198.66943359375
-206.9091796875
-209.65576171875
-209.65576171875
-215.14892578125
-213.31787109375
-218.81103515625
-212.40234375
-205.078125
-203.2470703125
-201.416015625
-195.9228515625
-196.83837890625
-199.5849609375
-205.078125
-207.82470703125
-209.65576171875
-213.31787109375
-200.50048828125
-196.83837890625
-195.00732421875
-200.50048828125
-195.00732421875
-192.2607421875
-195.00732421875
-189.51416015625
-185.85205078125
-199.5849609375
-197.75390625
-186.767578125
-181.2744140625
-186.767578125
-186.767578125
-187.68310546875
-186.767578125
-190.4296875
-191.34521484375
-185.85205078125
-189.51416015625
-184.9365234375
-176.69677734375
-181.2744140625
-182.18994140625
-188.5986328125
-190.4296875
-184.9365234375
-183.10546875
-181.2744140625
-174.86572265625
-175.78125
-179.443359375
-177.6123046875
-176.69677734375
-177.6123046875
-182.18994140625
-185.85205078125
-189.51416015625
-176.69677734375
-171.20361328125
-174.86572265625
-174.86572265625
-182.18994140625
-173.03466796875
-176.69677734375
-183.10546875
-186.767578125
-184.02099609375
-186.767578125
-180.35888671875
-181.2744140625
-190.4296875
-186.767578125
-184.9365234375
-206.9091796875
-195.9228515625
-187.68310546875
-187.68310546875
-189.51416015625
-192.2607421875
-185.85205078125
-181.2744140625
-182.18994140625
-183.10546875
-191.34521484375
-195.9228515625
-190.4296875
-194.091796875
-192.2607421875
-177.6123046875
-180.35888671875
-183.10546875
-185.85205078125
-187.68310546875
-192.2607421875
-198.66943359375
-195.00732421875
-198.66943359375
-180.35888671875
-181.2744140625
-181.2744140625
-182.18994140625
-185.85205078125
-183.10546875
-186.767578125
-194.091796875
-191.34521484375
-187.68310546875
-185.85205078125
-184.9365234375
-175.78125
-176.69677734375
-183.10546875
-179.443359375
-184.02099609375
-193.17626953125
-201.416015625
-196.83837890625
-193.17626953125
-186.767578125
-184.9365234375
-187.68310546875
-183.10546875
-188.5986328125
-187.68310546875
-195.00732421875
-195.00732421875
-196.83837890625
-189.51416015625
-182.18994140625
-182.18994140625
-182.18994140625
-193.17626953125
-197.75390625
-199.5849609375
-191.34521484375
-192.2607421875
-192.2607421875
-181.2744140625
-176.69677734375
-174.86572265625
-170.2880859375
-170.2880859375
-166.6259765625
-156.55517578125
-149.23095703125
-141.90673828125
-137.3291015625
-133.6669921875
-133.6669921875
-138.24462890625
-135.498046875
-135.498046875
-133.6669921875
-147.39990234375
-161.1328125
-152.89306640625
-145.56884765625
-132.75146484375
-113.525390625
-100.7080078125
-105.28564453125
-113.525390625
-117.1875
-119.93408203125
-123.59619140625
-123.59619140625
-124.51171875
-126.3427734375
-128.173828125
-124.51171875
-123.59619140625
-124.51171875
-123.59619140625
-129.08935546875
-140.07568359375
-150.146484375
-151.9775390625
-156.55517578125
-163.87939453125
-164.794921875
-179.443359375
-191.34521484375
-194.091796875
-198.66943359375
-205.99365234375
-216.064453125
-216.064453125
-211.48681640625
-207.82470703125
-201.416015625
-201.416015625
-199.5849609375
-201.416015625
-209.65576171875
-210.5712890625
-211.48681640625
-206.9091796875
-204.16259765625
-201.416015625
-203.2470703125
-209.65576171875
-220.64208984375
-216.064453125
-205.99365234375
-202.33154296875
-211.48681640625
-195.9228515625
-205.99365234375
-200.50048828125
-201.416015625
-193.17626953125
-205.078125
-205.99365234375
-186.767578125
-187.68310546875
-227.05078125
-227.05078125
-221.5576171875
-201.416015625
-207.82470703125
-233.45947265625
-202.33154296875
-225.2197265625
-241.69921875
-200.50048828125
-174.86572265625
-167.54150390625
-118.10302734375
-86.0595703125
-40.283203125
41.19873046875
164.794921875
253.60107421875
376.28173828125
531.92138671875
673.828125
777.28271484375
857.84912109375
947.57080078125
935.6689453125
721.435546875
441.2841796875
186.767578125
-67.7490234375
-302.1240234375
-498.046875
-610.65673828125
-638.12255859375
-634.46044921875
-639.0380859375
-628.0517578125
-592.34619140625
-563.04931640625
-534.66796875
-487.060546875
-443.115234375
-407.40966796875
-365.29541015625
-303.955078125
-261.8408203125
-236.2060546875
-218.81103515625
-210.5712890625
-206.9091796875
-204.16259765625
-205.99365234375
-200.50048828125
-194.091796875
-179.443359375
-173.03466796875
-176.69677734375
-179.443359375
-175.78125
-174.86572265625
-182.18994140625
-173.9501953125
-170.2880859375
-166.6259765625
-165.71044921875
-159.3017578125
-157.470703125
-155.6396484375
-158.38623046875
-148.3154296875
-139.16015625
-144.6533203125
-150.146484375
-151.06201171875
-143.73779296875
-124.51171875
-122.6806640625
-136.41357421875
-137.3291015625
-136.41357421875
-140.07568359375
-134.58251953125
-130.0048828125
-128.173828125
-113.525390625
-108.94775390625
-110.77880859375
-114.44091796875
-112.60986328125
-107.11669921875
-111.6943359375
-111.6943359375
-108.94775390625
-102.5390625
-93.3837890625
-83.31298828125
-84.228515625
-87.890625
-85.14404296875
-81.48193359375
-81.48193359375
-79.65087890625
-75.98876953125
-60.4248046875
-54.01611328125
-44.86083984375
-37.53662109375
-35.70556640625
-34.7900390625
-34.7900390625
-34.7900390625
-24.71923828125
-11.90185546875
-7.32421875
13.73291015625
19.22607421875
18.310546875
23.8037109375
29.296875
34.7900390625
39.36767578125
51.26953125
69.580078125
80.56640625
91.552734375
112.60986328125
109.86328125
120.849609375
129.08935546875
135.498046875
143.73779296875
151.9775390625
158.38623046875
173.03466796875
194.091796875
205.99365234375
214.2333984375
226.13525390625
227.96630859375
223.388671875
227.96630859375
229.79736328125
239.8681640625
239.8681640625
244.44580078125
249.0234375
246.27685546875
236.2060546875
240.78369140625
231.62841796875
237.12158203125
224.30419921875
225.2197265625
215.14892578125
218.81103515625
208.740234375
195.9228515625
172.119140625
158.38623046875
135.498046875
122.6806640625
103.45458984375
87.890625
74.15771484375
56.7626953125
38.4521484375
34.7900390625
8.23974609375
-14.6484375
-22.88818359375
-41.19873046875
-69.580078125
-73.2421875
-84.228515625
-90.63720703125
-96.13037109375
-107.11669921875
-135.498046875
-151.9775390625
-156.55517578125
-156.55517578125
-163.87939453125
-171.20361328125
-158.38623046875
-156.55517578125
-162.04833984375
-160.21728515625
-170.2880859375
-184.02099609375
-194.091796875
-205.078125
-205.99365234375
-207.82470703125
-215.14892578125
-208.740234375
-203.2470703125
-195.9228515625
-197.75390625
-216.97998046875
-220.64208984375
-217.8955078125
-231.62841796875
-220.64208984375
-207.82470703125
-218.81103515625
-220.64208984375
-223.388671875
-221.5576171875
-218.81103515625
-222.47314453125
-223.388671875
-226.13525390625
-225.2197265625
-224.30419921875
-232.5439453125
-211.48681640625
-205.99365234375
-204.16259765625
-202.33154296875
-216.97998046875
-220.64208984375
-210.5712890625
-205.99365234375
-214.2333984375
-209.65576171875
-199.5849609375
-203.2470703125
-203.2470703125
-195.00732421875
-197.75390625
-209.65576171875
-212.40234375
-199.5849609375
-195.9228515625
-195.00732421875
-183.10546875
-195.00732421875
-211.48681640625
-205.078125
-187.68310546875
-180.35888671875
-184.9365234375
-201.416015625
-195.00732421875
-203.2470703125
-194.091796875
-188.5986328125
-184.02099609375
-191.34521484375
-197.75390625
-202.33154296875
-208.740234375
-204.16259765625
-197.75390625
-184.02099609375
-180.35888671875
-177.6123046875
-183.10546875
-187.68310546875
-191.34521484375
-194.091796875
-198.66943359375
-199.5849609375
-191.34521484375
-192.2607421875
-189.51416015625
-195.00732421875
-195.9228515625
-187.68310546875
-200.50048828125
-195.00732421875
-192.2607421875
-199.5849609375
-179.443359375
-188.5986328125
-188.5986328125
-190.4296875
-195.00732421875
-198.66943359375
-213.31787109375
-221.5576171875
-212.40234375
-194.091796875
-191.34521484375
-180.35888671875
-186.767578125
-179.443359375
-195.00732421875
-199.5849609375
-205.99365234375
-223.388671875
-219.7265625
-212.40234375
-188.5986328125
-197.75390625
-191.34521484375
-203.2470703125
-216.064453125
-219.7265625
-216.97998046875
-216.97998046875
-210.5712890625
-214.2333984375
-216.064453125
-211.48681640625
-201.416015625
-206.9091796875
-218.81103515625
-215.14892578125
-213.31787109375
-221.5576171875
-219.7265625
-211.48681640625
-205.99365234375
-197.75390625
-184.9365234375
-177.6123046875
-172.119140625
-171.20361328125
-166.6259765625
-165.71044921875
-163.87939453125
-163.87939453125
-162.9638671875
-162.04833984375
-150.146484375
-140.07568359375
-151.06201171875
-161.1328125
-171.20361328125
-172.119140625
-169.37255859375
-147.39990234375
-130.92041015625
-121.76513671875
-123.59619140625
-119.0185546875
-119.0185546875
-129.08935546875
-127.25830078125
-137.3291015625
-131.8359375
-124.51171875
-132.75146484375
-138.24462890625
-140.07568359375
-142.822265625
-145.56884765625
-148.3154296875
-158.38623046875
-167.54150390625
-163.87939453125
-160.21728515625
-163.87939453125
-184.02099609375
-195.9228515625
-199.5849609375
-197.75390625
-202.33154296875
-198.66943359375
-206.9091796875
-206.9091796875
-205.99365234375
-208.740234375
-192.2607421875
-185.85205078125
-190.4296875
-205.078125
-212.40234375
-204.16259765625
-207.82470703125
-213.31787109375
-210.5712890625
-205.078125
-203.2470703125
-201.416015625
-207.82470703125
-209.65576171875
-198.66943359375
-195.9228515625
-200.50048828125
-220.64208984375
-205.99365234375
-205.99365234375
-198.66943359375
-189.51416015625
-199.5849609375
-198.66943359375
-209.65576171875
-196.83837890625
-196.83837890625
-210.5712890625
-207.82470703125
-204.16259765625
-214.2333984375
-221.5576171875
-231.62841796875
-235.29052734375
-212.40234375
-190.4296875
-174.86572265625
-151.9775390625
-104.3701171875
-25.634765625
60.4248046875
162.04833984375
270.99609375
407.40966796875
566.71142578125
737.9150390625
856.93359375
953.9794921875
1025.390625
1006.16455078125
822.1435546875
534.66796875
302.1240234375
64.0869140625
-181.2744140625
-405.57861328125
-537.41455078125
-592.34619140625
-614.31884765625
-628.0517578125
-610.65673828125
-570.37353515625
-535.58349609375
-499.8779296875
-449.52392578125
-405.57861328125
-367.12646484375
-324.0966796875
-274.658203125
-220.64208984375
-183.10546875
-160.21728515625
-161.1328125
-163.87939453125
-174.86572265625
-162.04833984375
-165.71044921875
-161.1328125
-158.38623046875
-149.23095703125
-140.9912109375
-140.07568359375
-144.6533203125
-143.73779296875
-143.73779296875
-143.73779296875
-140.07568359375
-144.6533203125
-135.498046875
-125.42724609375
-119.93408203125
-118.10302734375
-119.93408203125
-118.10302734375
-119.0185546875
-119.93408203125
-130.0048828125
-130.0048828125
-115.3564453125
-119.0185546875
-116.27197265625
-106.201171875
-100.7080078125
-102.5390625
-102.5390625
-101.62353515625
-99.79248046875
-101.62353515625
-104.3701171875
-97.0458984375
-94.29931640625
-88.80615234375
-79.65087890625
-75.0732421875
-82.3974609375
-76.904296875
-83.31298828125
-78.7353515625
-54.01611328125
-51.26953125
-43.9453125
-57.67822265625
-56.7626953125
-47.607421875
-33.87451171875
-33.87451171875
-38.4521484375
-38.4521484375
-25.634765625
-18.310546875
-7.32421875
1.8310546875
8.23974609375
11.90185546875
19.22607421875
24.71923828125
32.04345703125
30.21240234375
43.9453125
51.26953125
66.83349609375
81.48193359375
95.21484375
101.62353515625
106.201171875
118.10302734375
129.08935546875
135.498046875
154.72412109375
173.9501953125
184.02099609375
185.85205078125
207.82470703125
222.47314453125
221.5576171875
226.13525390625
240.78369140625
238.037109375
256.34765625
267.333984375
273.74267578125
288.39111328125
297.54638671875
304.87060546875
312.19482421875
299.37744140625
303.955078125
303.03955078125
306.70166015625
318.603515625
326.84326171875
314.94140625
310.36376953125
297.54638671875
299.37744140625
294.7998046875
287.4755859375
281.06689453125
266.41845703125
249.0234375
246.27685546875
229.79736328125
205.99365234375
183.10546875
159.3017578125
146.484375
119.0185546875
86.0595703125
75.0732421875
74.15771484375
51.26953125
41.19873046875
27.4658203125
8.23974609375
-15.56396484375
-40.283203125
-57.67822265625
-73.2421875
-73.2421875
-81.48193359375
-85.14404296875
-97.0458984375
-101.62353515625
-120.849609375
-129.08935546875
-132.75146484375
-143.73779296875
-151.06201171875
-155.6396484375
-159.3017578125
-156.55517578125
-159.3017578125
-172.119140625
-184.02099609375
-182.18994140625
-183.10546875
-187.68310546875
-189.51416015625
-191.34521484375
-194.091796875
-186.767578125
-183.10546875
-187.68310546875
-185.85205078125
-199.5849609375
-210.5712890625
-214.2333984375
-216.064453125
-216.064453125
-212.40234375
-198.66943359375
-200.50048828125
-200.50048828125
-205.078125
-208.740234375
-213.31787109375
-216.97998046875
-222.47314453125
-227.05078125
-226.13525390625
-216.064453125
-208.740234375
-218.81103515625
-225.2197265625
-218.81103515625
-227.96630859375
-238.037109375
-245.361328125
-208.740234375
-184.9365234375
-188.5986328125
-195.00732421875
-211.48681640625
-212.40234375
-219.7265625
-207.82470703125
-216.064453125
-217.8955078125
-194.091796875
-211.48681640625
-203.2470703125
-184.02099609375
-186.767578125
-202.33154296875
-206.9091796875
-204.16259765625
-217.8955078125
-222.47314453125
-167.54150390625
-158.38623046875
-180.35888671875
-172.119140625
-164.794921875
-185.85205078125
-183.10546875
-156.55517578125
-172.119140625
-173.03466796875
-171.20361328125
-187.68310546875
-178.52783203125
-151.9775390625
-147.39990234375
-151.06201171875
-165.71044921875
-174.86572265625
-187.68310546875
-197.75390625
-191.34521484375
-168.45703125
-134.58251953125
-144.6533203125
-157.470703125
-167.54150390625
-172.119140625
-175.78125
-184.9365234375
-192.2607421875
-180.35888671875
-168.45703125
-170.2880859375
-155.6396484375
-156.55517578125
-154.72412109375
-179.443359375
-188.5986328125
-157.470703125
-157.470703125
-135.498046875
-124.51171875
-117.1875
-118.10302734375
-127.25830078125
-141.90673828125
-136.41357421875
-135.498046875
-131.8359375
-128.173828125
-140.07568359375
-134.58251953125
-124.51171875
-135.498046875
-140.07568359375
-97.96142578125
-97.0458984375
-99.79248046875
-107.11669921875
-108.94775390625
-104.3701171875
-85.14404296875
-83.31298828125
-95.21484375
-111.6943359375
-115.3564453125
-116.27197265625
-130.0048828125
-139.16015625
-135.498046875
-127.25830078125
-126.3427734375
-130.0048828125
-131.8359375
-153.80859375
-143.73779296875
-138.24462890625
-175.78125
-192.2607421875
-192.2607421875
-177.6123046875
-167.54150390625
-165.71044921875
-176.69677734375
-178.52783203125
-192.2607421875
-203.2470703125
-196.83837890625
-196.83837890625
-203.2470703125
-187.68310546875
-184.9365234375
-183.10546875
-190.4296875
-175.78125
-175.78125
-175.78125
-183.10546875
-192.2607421875
-198.66943359375
-205.99365234375
-197.75390625
-159.3017578125
-158.38623046875
-173.03466796875
-183.10546875
-183.10546875
-169.37255859375
-181.2744140625
-206.9091796875
-185.85205078125
-171.20361328125
-176.69677734375
-183.10546875
-179.443359375
-194.091796875
-193.17626953125
-183.10546875
-203.2470703125
-225.2197265625
-223.388671875
-220.64208984375
-200.50048828125
-162.04833984375
-119.93408203125
-87.890625
-58.59375
6.40869140625
79.65087890625
186.767578125
313.1103515625
481.5673828125
644.53125
782.77587890625
920.10498046875
1016.2353515625
1065.673828125
975.03662109375
732.421875
464.17236328125
231.62841796875
5.4931640625
-236.2060546875
-439.453125
-531.005859375
-583.19091796875
-606.99462890625
-633.544921875
-614.31884765625
-567.626953125
-515.44189453125
-458.67919921875
-409.24072265625
-365.29541015625
-350.64697265625
-314.94140625
-255.43212890625
-216.97998046875
-185.85205078125
-181.2744140625
-155.6396484375
-151.9775390625
-146.484375
-147.39990234375
-154.72412109375
-151.9775390625
-140.9912109375
-145.56884765625
-126.3427734375
-142.822265625
-146.484375
-131.8359375
-130.92041015625
-127.25830078125
-140.07568359375
-125.42724609375
-132.75146484375
-145.56884765625
-150.146484375
-142.822265625
-147.39990234375
-120.849609375
-91.552734375
-128.173828125
-130.0048828125
-119.0185546875
-104.3701171875
-99.79248046875
-124.51171875
-129.08935546875
-112.60986328125
-101.62353515625
-99.79248046875
-91.552734375
-95.21484375
-98.876953125
-91.552734375
-80.56640625
-79.65087890625
-81.48193359375
-103.45458984375
-88.80615234375
-82.3974609375
-68.66455078125
-73.2421875
-80.56640625
-65.91796875
-70.49560546875
-67.7490234375
-62.255859375
-46.69189453125
-42.1142578125
-32.958984375
-31.1279296875
-32.04345703125
-40.283203125
-26.55029296875
-7.32421875
-16.4794921875
-10.986328125
3.662109375
19.22607421875
25.634765625
26.55029296875
35.70556640625
37.53662109375
38.4521484375
47.607421875
56.7626953125
56.7626953125
70.49560546875
88.80615234375
108.94775390625
122.6806640625
129.08935546875
130.92041015625
145.56884765625
151.9775390625
153.80859375
159.3017578125
182.18994140625
205.078125
224.30419921875
236.2060546875
246.27685546875
256.34765625
265.5029296875
264.58740234375
262.75634765625
270.08056640625
274.658203125
293.88427734375
300.29296875
305.7861328125
305.7861328125
300.29296875
293.88427734375
292.96875
287.4755859375
285.64453125
283.8134765625
270.08056640625
261.8408203125
260.009765625
242.61474609375
232.5439453125
214.2333984375
198.66943359375
173.03466796875
149.23095703125
140.07568359375
123.59619140625
108.0322265625
89.7216796875
60.4248046875
32.958984375
20.1416015625
-2.74658203125
-10.07080078125
-32.958984375
-46.69189453125
-57.67822265625
-71.4111328125
-79.65087890625
-96.13037109375
-111.6943359375
-114.44091796875
-132.75146484375
-149.23095703125
-158.38623046875
-150.146484375
-158.38623046875
-160.21728515625
-158.38623046875
-159.3017578125
-165.71044921875
-175.78125
-181.2744140625
-186.767578125
-190.4296875
-183.10546875
-177.6123046875
-184.9365234375
-184.02099609375
-186.767578125
-190.4296875
-195.9228515625
-204.16259765625
-201.416015625
-201.416015625
-200.50048828125
-199.5849609375
-197.75390625
-200.50048828125
-205.078125
-205.078125
-208.740234375
-217.8955078125
-212.40234375
-213.31787109375
-210.5712890625
-207.82470703125
-200.50048828125
-200.50048828125
-205.99365234375
-211.48681640625
-214.2333984375
-205.99365234375
-201.416015625
-210.5712890625
-208.740234375
-208.740234375
-201.416015625
-195.9228515625
-197.75390625
-199.5849609375
-199.5849609375
-195.00732421875
-201.416015625
-201.416015625
-199.5849609375
-193.17626953125
-188.5986328125
-189.51416015625
-186.767578125
-190.4296875
-185.85205078125
-185.85205078125
-189.51416015625
-196.83837890625
-182.18994140625
-176.69677734375
-177.6123046875
-177.6123046875
-171.20361328125
-178.52783203125
-174.86572265625
-169.37255859375
-179.443359375
-185.85205078125
-173.9501953125
-162.9638671875
-160.21728515625
-163.87939453125
-167.54150390625
-169.37255859375
-173.9501953125
-169.37255859375
-174.86572265625
-172.119140625
-170.2880859375
-167.54150390625
-161.1328125
-162.9638671875
-156.55517578125
-154.72412109375
-158.38623046875
-160.21728515625
-152.89306640625
-151.9775390625
-150.146484375
-143.73779296875
-130.0048828125
-125.42724609375
-121.76513671875
-127.25830078125
-126.3427734375
-118.10302734375
-119.93408203125
-121.76513671875
-110.77880859375
-115.3564453125
-125.42724609375
-125.42724609375
-114.44091796875
-109.86328125
-106.201171875
-103.45458984375
-94.29931640625
-96.13037109375
-96.13037109375
-92.46826171875
-90.63720703125
-86.97509765625
-83.31298828125
-87.890625
-106.201171875
-118.10302734375
-128.173828125
-122.6806640625
-102.5390625
-106.201171875
-115.3564453125
-121.76513671875
-132.75146484375
-145.56884765625
-151.06201171875
-157.470703125
-169.37255859375
-190.4296875
-185.85205078125
-179.443359375
-176.69677734375
-179.443359375
-186.767578125
-186.767578125
-190.4296875
-195.00732421875
-206.9091796875
-206.9091796875
-206.9091796875
-202.33154296875
-193.17626953125
-193.17626953125
-195.9228515625
-204.16259765625
-194.091796875
-197.75390625
-197.75390625
-201.416015625
-200.50048828125
-200.50048828125
-198.66943359375
-194.091796875
-195.00732421875
-197.75390625
-208.740234375
-207.82470703125
-215.14892578125
-208.740234375
-208.740234375
-203.2470703125
-194.091796875
-196.83837890625
-195.9228515625
-198.66943359375
-205.078125
-213.31787109375
-226.13525390625
-241.69921875
-236.2060546875
-211.48681640625
-199.5849609375
-176.69677734375
-164.794921875
-124.51171875
-62.255859375
5.4931640625
99.79248046875
210.5712890625
322.265625
494.384765625
672.91259765625
829.4677734375
941.162109375
1046.44775390625
1064.75830078125
940.24658203125
652.77099609375
398.25439453125
153.80859375
-75.98876953125
-327.7587890625
-495.30029296875
-564.88037109375
-593.26171875
-608.82568359375
-617.98095703125
-598.7548828125
-555.72509765625
-512.6953125
-467.83447265625
-414.73388671875
-375.3662109375
-340.576171875
-307.6171875
-260.92529296875
-216.97998046875
-193.17626953125
-182.18994140625
-170.2880859375
-164.794921875
-161.1328125
-162.9638671875
-154.72412109375
-154.72412109375
-152.89306640625
-153.80859375
-157.470703125
-157.470703125
-146.484375
-135.498046875
-128.173828125
-124.51171875
-126.3427734375
-133.6669921875
-116.27197265625
-118.10302734375
-128.173828125
-123.59619140625
-122.6806640625
-114.44091796875
-109.86328125
-111.6943359375
-108.94775390625
-97.96142578125
-108.94775390625
-107.11669921875
-100.7080078125
-104.3701171875
-94.29931640625
-87.890625
-83.31298828125
-84.228515625
-84.228515625
-85.14404296875
-85.14404296875
-79.65087890625
-76.904296875
-77.81982421875
-75.98876953125
-69.580078125
-64.0869140625
-65.91796875
-66.83349609375
-60.4248046875
-56.7626953125
-62.255859375
-64.0869140625
-43.02978515625
-30.21240234375
-28.38134765625
-21.05712890625
-13.73291015625
-4.57763671875
-3.662109375
-7.32421875
-10.986328125
-6.40869140625
-0.91552734375
9.1552734375
23.8037109375
32.04345703125
39.36767578125
48.52294921875
49.4384765625
56.7626953125
67.7490234375
76.904296875
80.56640625
103.45458984375
118.10302734375
130.92041015625
130.92041015625
141.90673828125
160.21728515625
164.794921875
163.87939453125
184.9365234375
201.416015625
216.064453125
232.5439453125
251.77001953125
264.58740234375
276.4892578125
271.91162109375
270.08056640625
278.3203125
271.91162109375
281.982421875
299.37744140625
304.87060546875
314.02587890625
320.4345703125
309.4482421875
312.19482421875
317.68798828125
304.87060546875
291.1376953125
283.8134765625
283.8134765625
289.306640625
277.40478515625
263.671875
238.037109375
235.29052734375
222.47314453125
197.75390625
176.69677734375
160.21728515625
136.41357421875
124.51171875
107.11669921875
85.14404296875
62.255859375
52.18505859375
30.21240234375
14.6484375
-7.32421875
-22.88818359375
-35.70556640625
-43.02978515625
-48.52294921875
-65.00244140625
-75.98876953125
-86.0595703125
-101.62353515625
-110.77880859375
-123.59619140625
-130.0048828125
-136.41357421875
-132.75146484375
-135.498046875
-143.73779296875
-150.146484375
-149.23095703125
-157.470703125
-166.6259765625
-170.2880859375
-171.20361328125
-175.78125
-180.35888671875
-172.119140625
-175.78125
-188.5986328125
-181.2744140625
-173.9501953125
-183.10546875
-184.02099609375
-192.2607421875
-191.34521484375
-184.9365234375
-185.85205078125
-184.9365234375
-192.2607421875
-197.75390625
-206.9091796875
-210.5712890625
-210.5712890625
-210.5712890625
-203.2470703125
-197.75390625
-197.75390625
-196.83837890625
-189.51416015625
-198.66943359375
-208.740234375
-192.2607421875
-203.2470703125
-197.75390625
-190.4296875
-194.091796875
-185.85205078125
-184.02099609375
-188.5986328125
-192.2607421875
-184.02099609375
-187.68310546875
-191.34521484375
-184.02099609375
-178.52783203125
-176.69677734375
-169.37255859375
-160.21728515625
-170.2880859375
-176.69677734375
-171.20361328125
-176.69677734375
-181.2744140625
-176.69677734375
-172.119140625
-167.54150390625
-162.9638671875
-159.3017578125
-162.04833984375
-165.71044921875
-171.20361328125
-169.37255859375
-168.45703125
-165.71044921875
-169.37255859375
-161.1328125
-157.470703125
-162.04833984375
-151.06201171875
-148.3154296875
-146.484375
-141.90673828125
-147.39990234375
-136.41357421875
-135.498046875
-122.6806640625
-109.86328125
-110.77880859375
-108.0322265625
-112.60986328125
-123.59619140625
-126.3427734375
-111.6943359375
-107.11669921875
-125.42724609375
-121.76513671875
-94.29931640625
-84.228515625
-87.890625
-87.890625
-75.98876953125
-88.80615234375
-89.7216796875
-70.49560546875
-80.56640625
-76.904296875
-72.32666015625
-72.32666015625
-77.81982421875
-90.63720703125
-102.5390625
-106.201171875
-107.11669921875
-105.28564453125
-99.79248046875
-103.45458984375
-110.77880859375
-121.76513671875
-137.3291015625
-140.9912109375
-144.6533203125
-152.89306640625
-173.03466796875
-186.767578125
-182.18994140625
-148.3154296875
-149.23095703125
-165.71044921875
-175.78125
-178.52783203125
-185.85205078125
-186.767578125
-187.68310546875
-188.5986328125
-192.2607421875
-191.34521484375
-184.02099609375
-179.443359375
-188.5986328125
-184.9365234375
-187.68310546875
-190.4296875
-195.9228515625
-194.091796875
-195.00732421875
-185.85205078125
-180.35888671875
-185.85205078125
-188.5986328125
-192.2607421875
-195.00732421875
-198.66943359375
-200.50048828125
-205.078125
-198.66943359375
-196.83837890625
-199.5849609375
-193.17626953125
-188.5986328125
-191.34521484375
-204.16259765625
-220.64208984375
-225.2197265625
-225.2197265625
-205.078125
-187.68310546875
-171.20361328125
-151.06201171875
-119.93408203125
-66.83349609375
11.90185546875
105.28564453125
200.50048828125
321.35009765625
483.3984375
646.3623046875
780.029296875
875.244140625
952.1484375
953.06396484375
778.1982421875
492.5537109375
238.95263671875
-5.4931640625
-223.388671875
-432.12890625
-556.640625
-606.0791015625
-600.5859375
-606.99462890625
-611.572265625
-569.4580078125
-544.73876953125
-509.033203125
-466.00341796875
-415.6494140625
-365.29541015625
-335.0830078125
-294.7998046875
-251.77001953125
-218.81103515625
-187.68310546875
-174.86572265625
-169.37255859375
-170.2880859375
-154.72412109375
-149.23095703125
-148.3154296875
-140.9912109375
-139.16015625
-141.90673828125
-150.146484375
-146.484375
-137.3291015625
-132.75146484375
-125.42724609375
-122.6806640625
-121.76513671875
-118.10302734375
-118.10302734375
-121.76513671875
-126.3427734375
-127.25830078125
-118.10302734375
-107.11669921875
-105.28564453125
-100.7080078125
-108.0322265625
-106.201171875
-104.3701171875
-104.3701171875
-102.5390625
-101.62353515625
-105.28564453125
-99.79248046875
-86.97509765625
-77.81982421875
-77.81982421875
-79.65087890625
-79.65087890625
-74.15771484375
-79.65087890625
-82.3974609375
-76.904296875
-66.83349609375
-63.17138671875
-51.26953125
-49.4384765625
-52.18505859375
-53.1005859375
-44.86083984375
-51.26953125
-51.26953125
-43.9453125
-36.62109375
-24.71923828125
-17.39501953125
-10.986328125
-15.56396484375
-6.40869140625
-7.32421875
-0.91552734375
4.57763671875
11.90185546875
19.22607421875
29.296875
49.4384765625
51.26953125
56.7626953125
68.66455078125
76.904296875
81.48193359375
84.228515625
91.552734375
107.11669921875
120.849609375
137.3291015625
157.470703125
161.1328125
170.2880859375
179.443359375
177.6123046875
202.33154296875
218.81103515625
225.2197265625
239.8681640625
255.43212890625
260.009765625
267.333984375
272.8271484375
275.57373046875
280.1513671875
289.306640625
294.7998046875
301.20849609375
307.6171875
316.7724609375
314.02587890625
306.70166015625
299.37744140625
300.29296875
288.39111328125
274.658203125
274.658203125
263.671875
257.26318359375
249.93896484375
238.037109375
216.97998046875
192.2607421875
174.86572265625
155.6396484375
134.58251953125
119.93408203125
100.7080078125
89.7216796875
72.32666015625
52.18505859375
31.1279296875
13.73291015625
-9.1552734375
-32.958984375
-38.4521484375
-47.607421875
-59.50927734375
-62.255859375
-65.00244140625
-86.97509765625
-97.96142578125
-104.3701171875
-124.51171875
-124.51171875
-128.173828125
-140.07568359375
-139.16015625
-137.3291015625
-139.16015625
-149.23095703125
-151.9775390625
-160.21728515625
-165.71044921875
-171.20361328125
-180.35888671875
-182.18994140625
-174.86572265625
-169.37255859375
-166.6259765625
-173.9501953125
-179.443359375
-177.6123046875
-187.68310546875
-193.17626953125
-197.75390625
-195.9228515625
-188.5986328125
-187.68310546875
-184.9365234375
-184.9365234375
-195.00732421875
-190.4296875
-196.83837890625
-199.5849609375
-204.16259765625
-205.99365234375
-200.50048828125
-191.34521484375
-187.68310546875
-191.34521484375
-196.83837890625
-195.00732421875
-197.75390625
-199.5849609375
-196.83837890625
-196.83837890625
-193.17626953125
-188.5986328125
-183.10546875
-182.18994140625
-188.5986328125
-188.5986328125
-188.5986328125
-187.68310546875
-193.17626953125
-192.2607421875
-186.767578125
-180.35888671875
-175.78125
-173.03466796875
-175.78125
-175.78125
-178.52783203125
-183.10546875
-180.35888671875
-181.2744140625
-171.20361328125
-168.45703125
-163.87939453125
-162.04833984375
-167.54150390625
-174.86572265625
-173.03466796875
-176.69677734375
-164.794921875
-165.71044921875
-164.794921875
-158.38623046875
-159.3017578125
-162.9638671875
-161.1328125
-164.794921875
-170.2880859375
-173.03466796875
-176.69677734375
-174.86572265625
-162.9638671875
-155.6396484375
-151.9775390625
-154.72412109375
-149.23095703125
-153.80859375
-151.06201171875
-140.07568359375
-140.9912109375
-139.16015625
-136.41357421875
-132.75146484375
-120.849609375
-113.525390625
-113.525390625
-115.3564453125
-115.3564453125
-115.3564453125
-111.6943359375
-99.79248046875
-100.7080078125
-107.11669921875
-110.77880859375
-110.77880859375
-98.876953125
-92.46826171875
-83.31298828125
-90.63720703125
-100.7080078125
-84.228515625
-84.228515625
-88.80615234375
-90.63720703125
-85.14404296875
-85.14404296875
-93.3837890625
-102.5390625
-112.60986328125
-123.59619140625
-115.3564453125
-110.77880859375
-113.525390625
-119.0185546875
-130.92041015625
-139.16015625
-141.90673828125
-145.56884765625
-157.470703125
-172.119140625
-175.78125
-168.45703125
-167.54150390625
-169.37255859375
-170.2880859375
-184.02099609375
-185.85205078125
-192.2607421875
-196.83837890625
-197.75390625
-192.2607421875
-185.85205078125
-190.4296875
-182.18994140625
-182.18994140625
-188.5986328125
-184.9365234375
-195.9228515625
-194.091796875
-196.83837890625
-195.9228515625
-191.34521484375
-191.34521484375
-184.9365234375
-184.02099609375
-186.767578125
-188.5986328125
-189.51416015625
-195.00732421875
-196.83837890625
-195.00732421875
-189.51416015625
-183.10546875
-178.52783203125
-178.52783203125
-188.5986328125
-195.00732421875
-203.2470703125
-214.2333984375
-230.712890625
-224.30419921875
-212.40234375
-188.5986328125
-157.470703125
-140.07568359375
-102.5390625
-52.18505859375
42.1142578125
127.25830078125
232.5439453125
357.0556640625
508.11767578125
686.6455078125
850.52490234375
963.134765625
1050.10986328125
1078.4912109375
991.51611328125
736.083984375
481.5673828125
247.1923828125
0.91552734375
-251.77001953125
-444.03076171875
-535.58349609375
-567.626953125
-593.26171875
-610.65673828125
-595.0927734375
-543.8232421875
-503.5400390625
-464.17236328125
-411.9873046875
-368.95751953125
-325.927734375
-292.96875
-255.43212890625
-215.14892578125
-189.51416015625
-179.443359375
-170.2880859375
-162.04833984375
-150.146484375
-142.822265625
-141.90673828125
-142.822265625
-147.39990234375
-151.06201171875
-150.146484375
-146.484375
-140.07568359375
-133.6669921875
-127.25830078125
-121.76513671875
-115.3564453125
-122.6806640625
-116.27197265625
-120.849609375
-122.6806640625
-119.93408203125
-117.1875
-117.1875
-108.0322265625
-99.79248046875
-100.7080078125
-99.79248046875
-106.201171875
-105.28564453125
-98.876953125
-101.62353515625
-101.62353515625
-96.13037109375
-87.890625
-81.48193359375
-79.65087890625
-81.48193359375
-85.14404296875
-82.3974609375
-84.228515625
-83.31298828125
-84.228515625
-75.0732421875
-65.00244140625
-57.67822265625
-57.67822265625
-57.67822265625
-54.931640625
-56.7626953125
-52.18505859375
-50.35400390625
-46.69189453125
-39.36767578125
-30.21240234375
-22.88818359375
-22.88818359375
-17.39501953125
-12.8173828125
-21.97265625
-9.1552734375
-3.662109375
3.662109375
12.8173828125
27.4658203125
37.53662109375
41.19873046875
44.86083984375
52.18505859375
60.4248046875
65.00244140625
69.580078125
82.3974609375
96.13037109375
109.86328125
126.3427734375
133.6669921875
145.56884765625
158.38623046875
163.87939453125
171.20361328125
188.5986328125
205.078125
221.5576171875
236.2060546875
246.27685546875
255.43212890625
254.5166015625
264.58740234375
275.57373046875
281.06689453125
281.982421875
291.1376953125
297.54638671875
309.4482421875
314.02587890625
302.1240234375
313.1103515625
315.85693359375
308.53271484375
301.20849609375
292.96875
287.4755859375
283.8134765625
278.3203125
269.1650390625
254.5166015625
236.2060546875
216.97998046875
196.83837890625
177.6123046875
160.21728515625
143.73779296875
123.59619140625
118.10302734375
99.79248046875
76.904296875
54.931640625
35.70556640625
13.73291015625
-6.40869140625
-14.6484375
-35.70556640625
-43.02978515625
-52.18505859375
-61.34033203125
-72.32666015625
-85.14404296875
-94.29931640625
-108.94775390625
-116.27197265625
-130.0048828125
-141.90673828125
-125.42724609375
-132.75146484375
-138.24462890625
-140.07568359375
-147.39990234375
-156.55517578125
-163.87939453125
-163.87939453125
-167.54150390625
-164.794921875
-165.71044921875
-166.6259765625
-161.1328125
-166.6259765625
-172.119140625
-171.20361328125
-173.03466796875
-181.2744140625
-186.767578125
-184.9365234375
-180.35888671875
-175.78125
-171.20361328125
-177.6123046875
-182.18994140625
-181.2744140625
-183.10546875
-187.68310546875
-187.68310546875
-184.02099609375
-183.10546875
-181.2744140625
-174.86572265625
-180.35888671875
-178.52783203125
-184.9365234375
-186.767578125
-193.17626953125
-195.00732421875
-195.00732421875
-188.5986328125
-178.52783203125
-172.119140625
-173.9501953125
-178.52783203125
-182.18994140625
-184.02099609375
-184.9365234375
-192.2607421875
-186.767578125
-189.51416015625
-172.119140625
-168.45703125
-173.03466796875
-181.2744140625
-168.45703125
-173.9501953125
-180.35888671875
-184.9365234375
-183.10546875
-176.69677734375
-167.54150390625
-165.71044921875
-166.6259765625
-169.37255859375
-175.78125
-179.443359375
-184.02099609375
-183.10546875
-181.2744140625
-177.6123046875
-166.6259765625
-158.38623046875
-163.87939453125
-166.6259765625
-168.45703125
-171.20361328125
-171.20361328125
-170.2880859375
-165.71044921875
