ECG
-50.35400390625
-51.26953125
-50.35400390625
-45.7763671875
-48.52294921875
-51.26953125
-54.01611328125
-53.1005859375
-54.931640625
-63.17138671875
-63.17138671875
-62.255859375
-70.49560546875
-71.4111328125
-75.98876953125
-63.17138671875
-67.7490234375
-81.48193359375
-97.0458984375
-93.3837890625
-92.46826171875
-83.31298828125
-76.904296875
-77.81982421875
-82.3974609375
-76.904296875
-61.34033203125
-54.01611328125
-70.49560546875
-66.83349609375
-41.19873046875
-35.70556640625
-44.86083984375
-46.69189453125
-42.1142578125
-47.607421875
-46.69189453125
-43.9453125
-49.4384765625
-53.1005859375
-47.607421875
-58.59375
-63.17138671875
-61.34033203125
-58.59375
-50.35400390625
-57.67822265625
-51.26953125
-56.7626953125
-67.7490234375
-69.580078125
-59.50927734375
-52.18505859375
-45.7763671875
-42.1142578125
-33.87451171875
-31.1279296875
-17.39501953125
-19.22607421875
-30.21240234375
-23.8037109375
-9.1552734375
-3.662109375
21.97265625
43.9453125
33.87451171875
31.1279296875
27.4658203125
21.05712890625
28.38134765625
33.87451171875
36.62109375
31.1279296875
22.88818359375
22.88818359375
4.57763671875
-15.56396484375
-15.56396484375
-13.73291015625
-11.90185546875
-5.4931640625
-9.1552734375
-28.38134765625
-43.9453125
-38.4521484375
-42.1142578125
-35.70556640625
-42.1142578125
-52.18505859375
-50.35400390625
-54.01611328125
-61.34033203125
-58.59375
-65.00244140625
-62.255859375
-61.34033203125
-67.7490234375
-67.7490234375
-61.34033203125
-77.81982421875
-72.32666015625
-72.32666015625
-70.49560546875
-68.66455078125
-79.65087890625
-81.48193359375
-81.48193359375
-85.14404296875
-98.876953125
-105.28564453125
-101.62353515625
-95.21484375
-94.29931640625
-84.228515625
-93.3837890625
-99.79248046875
-101.62353515625
-116.27197265625
-122.6806640625
-119.0185546875
-97.0458984375
-66.83349609375
-59.50927734375
-54.01611328125
-46.69189453125
-58.59375
-65.91796875
-64.0869140625
-66.83349609375
-73.2421875
-59.50927734375
-56.7626953125
-65.00244140625
-68.66455078125
-84.228515625
-97.96142578125
-92.46826171875
-108.0322265625
-133.6669921875
-142.822265625
-124.51171875
-93.3837890625
-43.02978515625
-15.56396484375
43.9453125
130.0048828125
244.44580078125
347.900390625
444.9462890625
531.92138671875
661.0107421875
794.677734375
927.42919921875
1026.30615234375
1095.88623046875
1138.916015625
1149.90234375
1127.01416015625
998.84033203125
795.59326171875
571.2890625
402.83203125
255.43212890625
151.9775390625
83.31298828125
58.59375
45.7763671875
37.53662109375
39.36767578125
26.55029296875
10.07080078125
10.07080078125
-0.91552734375
-13.73291015625
-10.986328125
-23.8037109375
-9.1552734375
-3.662109375
-9.1552734375
-20.1416015625
-29.296875
-19.22607421875
-31.1279296875
-44.86083984375
-36.62109375
-47.607421875
-49.4384765625
-29.296875
-31.1279296875
-31.1279296875
-21.97265625
-14.6484375
-24.71923828125
-31.1279296875
-30.21240234375
-22.88818359375
-21.97265625
-23.8037109375
-29.296875
-43.9453125
-38.4521484375
-24.71923828125
-44.86083984375
-50.35400390625
-42.1142578125
-43.02978515625
-42.1142578125
-29.296875
-27.4658203125
-18.310546875
-11.90185546875
-5.4931640625
-4.57763671875
0.91552734375
5.4931640625
4.57763671875
6.40869140625
9.1552734375
0.91552734375
3.662109375
7.32421875
9.1552734375
8.23974609375
2.74658203125
9.1552734375
10.07080078125
-7.32421875
-2.74658203125
11.90185546875
10.986328125
10.07080078125
17.39501953125
10.986328125
18.310546875
30.21240234375
24.71923828125
21.05712890625
27.4658203125
34.7900390625
46.69189453125
65.00244140625
65.91796875
76.904296875
83.31298828125
87.890625
81.48193359375
80.56640625
83.31298828125
96.13037109375
95.21484375
105.28564453125
97.96142578125
108.0322265625
125.42724609375
136.41357421875
131.8359375
139.16015625
148.3154296875
154.72412109375
156.55517578125
168.45703125
179.443359375
193.17626953125
183.10546875
188.5986328125
179.443359375
190.4296875
209.65576171875
227.05078125
227.05078125
238.95263671875
247.1923828125
239.8681640625
249.93896484375
259.09423828125
260.009765625
260.009765625
274.658203125
276.4892578125
275.57373046875
290.22216796875
279.23583984375
276.4892578125
281.06689453125
273.74267578125
252.685546875
249.0234375
255.43212890625
260.009765625
251.77001953125
244.44580078125
234.375
228.8818359375
227.05078125
216.97998046875
195.9228515625
177.6123046875
155.6396484375
135.498046875
119.93408203125
96.13037109375
85.14404296875
70.49560546875
67.7490234375
64.0869140625
64.0869140625
54.01611328125
41.19873046875
38.4521484375
24.71923828125
28.38134765625
21.97265625
7.32421875
-7.32421875
-12.8173828125
-9.1552734375
-6.40869140625
-7.32421875
-23.8037109375
-25.634765625
-21.97265625
-32.04345703125
-29.296875
-12.8173828125
-16.4794921875
-21.97265625
-18.310546875
-21.97265625
-40.283203125
-47.607421875
-44.86083984375
-37.53662109375
-35.70556640625
-36.62109375
-29.296875
-26.55029296875
-33.87451171875
-22.88818359375
-23.8037109375
-39.36767578125
-21.97265625
-28.38134765625
-32.958984375
-28.38134765625
-15.56396484375
-33.87451171875
-32.958984375
-37.53662109375
-29.296875
-34.7900390625
-33.87451171875
-23.8037109375
-18.310546875
-22.88818359375
-22.88818359375
-27.4658203125
-25.634765625
-35.70556640625
-42.1142578125
-46.69189453125
-56.7626953125
-52.18505859375
-33.87451171875
-39.36767578125
-36.62109375
-41.19873046875
-50.35400390625
-36.62109375
-32.04345703125
-36.62109375
-37.53662109375
-45.7763671875
-44.86083984375
-43.9453125
-40.283203125
-33.87451171875
-47.607421875
-45.7763671875
-46.69189453125
-43.02978515625
-49.4384765625
-56.7626953125
-47.607421875
-55.84716796875
-47.607421875
-71.4111328125
-66.83349609375
-59.50927734375
-81.48193359375
-78.7353515625
-86.97509765625
-67.7490234375
-75.98876953125
-80.56640625
-72.32666015625
-70.49560546875
-54.931640625
-43.02978515625
-26.55029296875
-34.7900390625
-36.62109375
-43.02978515625
-35.70556640625
-44.86083984375
-47.607421875
-49.4384765625
-57.67822265625
-63.17138671875
-69.580078125
-76.904296875
-80.56640625
-74.15771484375
-64.0869140625
-59.50927734375
-57.67822265625
-50.35400390625
-61.34033203125
-63.17138671875
-64.0869140625
-65.91796875
-69.580078125
-75.98876953125
-81.48193359375
-75.98876953125
-79.65087890625
-72.32666015625
-68.66455078125
-64.0869140625
-73.2421875
-80.56640625
-86.0595703125
-76.904296875
-89.7216796875
-74.15771484375
-68.66455078125
-65.91796875
-68.66455078125
-73.2421875
-86.97509765625
-83.31298828125
-76.904296875
-78.7353515625
-87.890625
-91.552734375
-67.7490234375
-60.4248046875
-70.49560546875
-78.7353515625
-88.80615234375
-88.80615234375
-86.97509765625
-103.45458984375
-91.552734375
-80.56640625
-82.3974609375
-67.7490234375
-65.91796875
-75.0732421875
-67.7490234375
-77.81982421875
-78.7353515625
-88.80615234375
-84.228515625
-88.80615234375
-85.14404296875
-88.80615234375
-83.31298828125
-80.56640625
-86.97509765625
-97.0458984375
-75.0732421875
-75.98876953125
-69.580078125
-64.0869140625
-52.18505859375
-47.607421875
-42.1142578125
-42.1142578125
-38.4521484375
-43.02978515625
-31.1279296875
-0.91552734375
10.986328125
19.22607421875
26.55029296875
31.1279296875
24.71923828125
15.56396484375
10.986328125
0.91552734375
-1.8310546875
2.74658203125
-13.73291015625
-43.02978515625
-51.26953125
-45.7763671875
-40.283203125
-54.01611328125
-54.931640625
-76.904296875
-81.48193359375
-85.14404296875
-81.48193359375
-82.3974609375
-98.876953125
-108.0322265625
-114.44091796875
-111.6943359375
-106.201171875
-123.59619140625
-125.42724609375
-132.75146484375
-132.75146484375
-136.41357421875
-139.16015625
-145.56884765625
-119.0185546875
-103.45458984375
-106.201171875
-105.28564453125
-110.77880859375
-117.1875
-115.3564453125
-120.849609375
-120.849609375
-118.10302734375
-130.0048828125
-135.498046875
-133.6669921875
-143.73779296875
-136.41357421875
-116.27197265625
-118.10302734375
-123.59619140625
-114.44091796875
-117.1875
-118.10302734375
-116.27197265625
-122.6806640625
-124.51171875
-120.849609375
-128.173828125
-138.24462890625
-137.3291015625
-130.92041015625
-130.92041015625
-128.173828125
-125.42724609375
-128.173828125
-130.0048828125
-126.3427734375
-122.6806640625
-126.3427734375
-122.6806640625
-134.58251953125
-143.73779296875
-163.87939453125
-173.9501953125
-175.78125
-145.56884765625
-123.59619140625
-92.46826171875
-48.52294921875
41.19873046875
155.6396484375
265.5029296875
370.78857421875
474.2431640625
579.52880859375
705.87158203125
824.89013671875
925.59814453125
1011.65771484375
1058.349609375
1090.39306640625
1087.646484375
998.84033203125
814.8193359375
565.7958984375
371.7041015625
235.29052734375
125.42724609375
49.4384765625
23.8037109375
20.1416015625
-4.57763671875
-14.6484375
-23.8037109375
-50.35400390625
-65.00244140625
-75.98876953125
-68.66455078125
-75.98876953125
-86.97509765625
-81.48193359375
-80.56640625
-85.14404296875
-86.97509765625
-84.228515625
-92.46826171875
-93.3837890625
-97.96142578125
-101.62353515625
-100.7080078125
-96.13037109375
-102.5390625
-107.11669921875
-98.876953125
-103.45458984375
-104.3701171875
-91.552734375
-79.65087890625
-77.81982421875
-82.3974609375
-78.7353515625
-79.65087890625
-80.56640625
-82.3974609375
-85.14404296875
-79.65087890625
-84.228515625
-82.3974609375
-84.228515625
-85.14404296875
-92.46826171875
-86.0595703125
-84.228515625
-81.48193359375
-75.0732421875
-86.0595703125
-75.0732421875
-74.15771484375
-78.7353515625
-78.7353515625
-79.65087890625
-77.81982421875
-75.0732421875
-62.255859375
-60.4248046875
-69.580078125
-63.17138671875
-59.50927734375
-67.7490234375
-55.84716796875
-57.67822265625
-54.01611328125
-46.69189453125
-33.87451171875
-32.04345703125
-28.38134765625
-25.634765625
-21.05712890625
-23.8037109375
-28.38134765625
-23.8037109375
-10.07080078125
-1.8310546875
2.74658203125
11.90185546875
0.91552734375
2.74658203125
10.986328125
18.310546875
23.8037109375
31.1279296875
35.70556640625
24.71923828125
23.8037109375
32.958984375
46.69189453125
51.26953125
55.84716796875
61.34033203125
75.98876953125
83.31298828125
82.3974609375
83.31298828125
87.890625
102.5390625
117.1875
113.525390625
119.93408203125
135.498046875
143.73779296875
157.470703125
162.9638671875
163.87939453125
173.9501953125
178.52783203125
172.119140625
174.86572265625
177.6123046875
178.52783203125
191.34521484375
195.00732421875
191.34521484375
195.00732421875
201.416015625
201.416015625
211.48681640625
210.5712890625
216.064453125
218.81103515625
212.40234375
210.5712890625
199.5849609375
190.4296875
177.6123046875
165.71044921875
143.73779296875
141.90673828125
142.822265625
126.3427734375
113.525390625
104.3701171875
101.62353515625
90.63720703125
72.32666015625
50.35400390625
24.71923828125
12.8173828125
10.986328125
-4.57763671875
-22.88818359375
-37.53662109375
-39.36767578125
-39.36767578125
-41.19873046875
-47.607421875
-64.0869140625
-73.2421875
-73.2421875
-71.4111328125
-70.49560546875
-71.4111328125
-76.904296875
-91.552734375
-86.0595703125
-79.65087890625
-88.80615234375
-97.0458984375
-105.28564453125
-110.77880859375
-109.86328125
-118.10302734375
-116.27197265625
-115.3564453125
-100.7080078125
-94.29931640625
-111.6943359375
-113.525390625
-102.5390625
-87.890625
-95.21484375
-84.228515625
-79.65087890625
-89.7216796875
-89.7216796875
-89.7216796875
-93.3837890625
-91.552734375
-88.80615234375
-87.890625
-75.98876953125
-75.0732421875
-71.4111328125
-75.98876953125
-72.32666015625
-75.0732421875
-81.48193359375
-80.56640625
-78.7353515625
-79.65087890625
-88.80615234375
-86.0595703125
-84.228515625
-87.890625
-75.98876953125
-90.63720703125
-106.201171875
-97.0458984375
-97.0458984375
-84.228515625
-87.890625
-86.97509765625
-87.890625
-81.48193359375
-91.552734375
-93.3837890625
-93.3837890625
-96.13037109375
-97.0458984375
-96.13037109375
-102.5390625
-95.21484375
-101.62353515625
-94.29931640625
-97.0458984375
-95.21484375
-96.13037109375
-95.21484375
-93.3837890625
-97.0458984375
-98.876953125
-94.29931640625
-83.31298828125
-90.63720703125
-105.28564453125
-108.0322265625
-105.28564453125
-104.3701171875
-122.6806640625
-127.25830078125
-115.3564453125
-105.28564453125
-106.201171875
-108.94775390625
-101.62353515625
-107.11669921875
-114.44091796875
-118.10302734375
-111.6943359375
-113.525390625
-105.28564453125
-101.62353515625
-105.28564453125
-118.10302734375
-120.849609375
-113.525390625
-113.525390625
-119.93408203125
-119.0185546875
-121.76513671875
-126.3427734375
-119.0185546875
-107.11669921875
-108.0322265625
-120.849609375
-113.525390625
-104.3701171875
-127.25830078125
-136.41357421875
-126.3427734375
-119.93408203125
-120.849609375
-113.525390625
-119.0185546875
-120.849609375
-113.525390625
-103.45458984375
-108.94775390625
-115.3564453125
-122.6806640625
-127.25830078125
-114.44091796875
-115.3564453125
-111.6943359375
-117.1875
-130.92041015625
-120.849609375
-127.25830078125
-119.93408203125
-108.94775390625
-110.77880859375
-120.849609375
-120.849609375
-123.59619140625
-115.3564453125
-106.201171875
-108.0322265625
-106.201171875
-108.0322265625
-91.552734375
-78.7353515625
-66.83349609375
-65.00244140625
-69.580078125
-69.580078125
-79.65087890625
-75.98876953125
-69.580078125
-59.50927734375
-37.53662109375
-5.4931640625
9.1552734375
0
-14.6484375
-2.74658203125
-16.4794921875
-32.958984375
-27.4658203125
-21.97265625
-14.6484375
-17.39501953125
-35.70556640625
-58.59375
-65.91796875
-46.69189453125
-50.35400390625
-77.81982421875
-98.876953125
-106.201171875
-110.77880859375
-114.44091796875
-102.5390625
-121.76513671875
-126.3427734375
-131.8359375
-123.59619140625
-119.93408203125
-125.42724609375
-137.3291015625
-143.73779296875
-147.39990234375
-143.73779296875
-133.6669921875
-130.92041015625
-144.6533203125
-139.16015625
-132.75146484375
-137.3291015625
-133.6669921875
-127.25830078125
-131.8359375
-138.24462890625
-143.73779296875
-151.9775390625
-150.146484375
-149.23095703125
-140.07568359375
-135.498046875
-148.3154296875
-153.80859375
-151.06201171875
-146.484375
-146.484375
-140.9912109375
-147.39990234375
-150.146484375
-151.06201171875
-143.73779296875
-140.9912109375
-147.39990234375
-152.89306640625
-149.23095703125
-140.07568359375
-151.06201171875
-146.484375
-130.0048828125
-124.51171875
-126.3427734375
-130.0048828125
-137.3291015625
-151.9775390625
-145.56884765625
-139.16015625
-141.90673828125
-157.470703125
-174.86572265625
-195.00732421875
-194.091796875
-166.6259765625
-140.07568359375
-105.28564453125
-74.15771484375
-23.8037109375
62.255859375
180.35888671875
279.23583984375
377.197265625
461.42578125
598.7548828125
731.50634765625
850.52490234375
956.72607421875
1037.29248046875
1069.3359375
1083.984375
1070.25146484375
953.9794921875
760.80322265625
524.59716796875
369.873046875
232.5439453125
105.28564453125
43.9453125
28.38134765625
2.74658203125
2.74658203125
-4.57763671875
-27.4658203125
-41.19873046875
-49.4384765625
-68.66455078125
-69.580078125
-69.580078125
-75.0732421875
-84.228515625
-88.80615234375
-88.80615234375
-81.48193359375
-87.890625
-87.890625
-94.29931640625
-101.62353515625
-108.94775390625
-97.96142578125
-97.96142578125
-97.96142578125
-91.552734375
-82.3974609375
-78.7353515625
-88.80615234375
-87.890625
-86.97509765625
-76.904296875
-77.81982421875
-98.876953125
-92.46826171875
-86.0595703125
-93.3837890625
-78.7353515625
-75.0732421875
-86.0595703125
-83.31298828125
-79.65087890625
-82.3974609375
-72.32666015625
-71.4111328125
-86.0595703125
-76.904296875
-84.228515625
-69.580078125
-65.91796875
-68.66455078125
-71.4111328125
-69.580078125
-61.34033203125
-55.84716796875
-59.50927734375
-54.931640625
-51.26953125
-49.4384765625
-44.86083984375
-53.1005859375
-43.02978515625
-50.35400390625
-43.02978515625
-43.9453125
-32.958984375
-36.62109375
-26.55029296875
-24.71923828125
-31.1279296875
-12.8173828125
-2.74658203125
-10.07080078125
-10.07080078125
-6.40869140625
10.07080078125
-0.91552734375
-6.40869140625
5.4931640625
18.310546875
8.23974609375
10.986328125
3.662109375
10.07080078125
27.4658203125
40.283203125
43.02978515625
59.50927734375
50.35400390625
46.69189453125
61.34033203125
71.4111328125
75.98876953125
84.228515625
102.5390625
108.0322265625
106.201171875
116.27197265625
130.0048828125
132.75146484375
136.41357421875
134.58251953125
146.484375
158.38623046875
167.54150390625
191.34521484375
185.85205078125
189.51416015625
184.9365234375
200.50048828125
203.2470703125
205.99365234375
207.82470703125
216.97998046875
215.14892578125
214.2333984375
214.2333984375
216.064453125
211.48681640625
214.2333984375
214.2333984375
205.99365234375
213.31787109375
224.30419921875
192.2607421875
175.78125
176.69677734375
168.45703125
162.04833984375
153.80859375
135.498046875
121.76513671875
104.3701171875
86.97509765625
79.65087890625
59.50927734375
43.9453125
28.38134765625
12.8173828125
4.57763671875
0
7.32421875
1.8310546875
-7.32421875
-20.1416015625
-29.296875
-39.36767578125
-35.70556640625
-41.19873046875
-48.52294921875
-64.0869140625
-68.66455078125
-70.49560546875
-72.32666015625
-67.7490234375
-74.15771484375
-79.65087890625
-81.48193359375
-86.0595703125
-86.0595703125
-83.31298828125
-77.81982421875
-82.3974609375
-81.48193359375
-93.3837890625
-88.80615234375
-81.48193359375
-75.0732421875
-73.2421875
-76.904296875
-82.3974609375
-69.580078125
-65.00244140625
-71.4111328125
-81.48193359375
-79.65087890625
-74.15771484375
-62.255859375
-71.4111328125
-76.904296875
-67.7490234375
-57.67822265625
-62.255859375
-62.255859375
-68.66455078125
-70.49560546875
-72.32666015625
-74.15771484375
-65.91796875
-67.7490234375
-70.49560546875
-65.00244140625
-63.17138671875
-71.4111328125
-56.7626953125
-54.01611328125
-62.255859375
-61.34033203125
-59.50927734375
-51.26953125
-55.84716796875
-56.7626953125
-61.34033203125
-65.00244140625
-57.67822265625
-61.34033203125
-67.7490234375
-65.91796875
-62.255859375
-73.2421875
-70.49560546875
-70.49560546875
-75.0732421875
-67.7490234375
-65.91796875
-66.83349609375
-75.0732421875
-72.32666015625
-67.7490234375
-78.7353515625
-80.56640625
-76.904296875
-81.48193359375
-75.98876953125
-79.65087890625
-86.97509765625
-87.890625
-82.3974609375
-86.0595703125
-90.63720703125
-97.0458984375
-79.65087890625
-75.98876953125
-65.91796875
-63.17138671875
-68.66455078125
-85.14404296875
-82.3974609375
-78.7353515625
-75.0732421875
-73.2421875
-70.49560546875
-78.7353515625
-83.31298828125
-77.81982421875
-79.65087890625
-93.3837890625
-94.29931640625
-83.31298828125
-75.98876953125
-79.65087890625
-84.228515625
-82.3974609375
-86.97509765625
-82.3974609375
-79.65087890625
-89.7216796875
-101.62353515625
-105.28564453125
-91.552734375
-84.228515625
-82.3974609375
-79.65087890625
-75.0732421875
-69.580078125
-70.49560546875
-58.59375
-41.19873046875
-50.35400390625
-44.86083984375
-45.7763671875
-45.7763671875
-54.01611328125
-51.26953125
-43.9453125
-10.986328125
0.91552734375
11.90185546875
17.39501953125
41.19873046875
38.4521484375
30.21240234375
23.8037109375
24.71923828125
24.71923828125
6.40869140625
4.57763671875
17.39501953125
0.91552734375
-19.22607421875
-26.55029296875
-32.958984375
-49.4384765625
-65.00244140625
-70.49560546875
-91.552734375
-94.29931640625
-87.890625
-95.21484375
-92.46826171875
-81.48193359375
-80.56640625
-95.21484375
-89.7216796875
-96.13037109375
-106.201171875
-124.51171875
-118.10302734375
-110.77880859375
-102.5390625
-109.86328125
-115.3564453125
-112.60986328125
-109.86328125
-105.28564453125
-107.11669921875
-106.201171875
-115.3564453125
-121.76513671875
-125.42724609375
-130.0048828125
-121.76513671875
-108.0322265625
-118.10302734375
-136.41357421875
-130.92041015625
-113.525390625
-112.60986328125
-108.0322265625
-119.0185546875
-131.8359375
-125.42724609375
-128.173828125
-130.92041015625
-134.58251953125
-124.51171875
-128.173828125
-129.08935546875
-121.76513671875
-132.75146484375
-140.07568359375
-125.42724609375
-122.6806640625
-136.41357421875
-138.24462890625
-142.822265625
-138.24462890625
-131.8359375
-126.3427734375
-113.525390625
-129.08935546875
-145.56884765625
-144.6533203125
-170.2880859375
-181.2744140625
-175.78125
-160.21728515625
-128.173828125
-102.5390625
-66.83349609375
10.07080078125
114.44091796875
222.47314453125
311.279296875
409.24072265625
519.10400390625
640.869140625
768.12744140625
886.23046875
968.6279296875
1027.2216796875
1075.74462890625
1082.1533203125
1049.1943359375
908.203125
708.6181640625
493.46923828125
338.7451171875
211.48681640625
106.201171875
63.17138671875
35.70556640625
10.07080078125
16.4794921875
-1.8310546875
-16.4794921875
-29.296875
-32.958984375
-42.1142578125
-54.01611328125
-65.00244140625
-68.66455078125
-72.32666015625
-67.7490234375
-66.83349609375
-75.0732421875
-78.7353515625
-80.56640625
-79.65087890625
-87.890625
-87.890625
-81.48193359375
-95.21484375
-90.63720703125
-86.97509765625
-79.65087890625
-86.97509765625
-79.65087890625
-75.98876953125
-84.228515625
-80.56640625
-68.66455078125
-64.0869140625
-61.34033203125
-58.59375
-75.0732421875
-83.31298828125
-74.15771484375
-85.14404296875
-82.3974609375
-82.3974609375
-73.2421875
-65.00244140625
-61.34033203125
-56.7626953125
-54.01611328125
-61.34033203125
-61.34033203125
-49.4384765625
-41.19873046875
-45.7763671875
-49.4384765625
-49.4384765625
-48.52294921875
-45.7763671875
-41.19873046875
-49.4384765625
-44.86083984375
-49.4384765625
-38.4521484375
-35.70556640625
-29.296875
-29.296875
-31.1279296875
-31.1279296875
-30.21240234375
-32.958984375
-30.21240234375
-29.296875
-31.1279296875
-18.310546875
-7.32421875
-1.8310546875
-6.40869140625
-5.4931640625
-1.8310546875
5.4931640625
21.05712890625
35.70556640625
29.296875
18.310546875
29.296875
30.21240234375
32.958984375
36.62109375
47.607421875
53.1005859375
60.4248046875
65.91796875
74.15771484375
82.3974609375
91.552734375
89.7216796875
95.21484375
108.0322265625
103.45458984375
111.6943359375
119.93408203125
134.58251953125
136.41357421875
147.39990234375
156.55517578125
167.54150390625
176.69677734375
184.02099609375
182.18994140625
182.18994140625
184.02099609375
187.68310546875
189.51416015625
187.68310546875
191.34521484375
200.50048828125
197.75390625
204.16259765625
201.416015625
203.2470703125
204.16259765625
196.83837890625
189.51416015625
188.5986328125
192.2607421875
179.443359375
173.9501953125
176.69677734375
163.87939453125
148.3154296875
130.0048828125
115.3564453125
109.86328125
97.0458984375
94.29931640625
86.0595703125
49.4384765625
32.04345703125
36.62109375
27.4658203125
12.8173828125
-4.57763671875
-11.90185546875
-8.23974609375
-21.05712890625
-30.21240234375
-41.19873046875
-36.62109375
-45.7763671875
-54.01611328125
-51.26953125
-57.67822265625
-62.255859375
-64.0869140625
-60.4248046875
-55.84716796875
-67.7490234375
-74.15771484375
-75.0732421875
-89.7216796875
-95.21484375
-87.890625
-83.31298828125
-83.31298828125
-74.15771484375
-75.98876953125
-83.31298828125
-84.228515625
-75.98876953125
-75.0732421875
-75.98876953125
-85.14404296875
-84.228515625
-76.904296875
-80.56640625
-87.890625
-80.56640625
-67.7490234375
-74.15771484375
-78.7353515625
-80.56640625
-78.7353515625
-78.7353515625
-94.29931640625
-82.3974609375
-83.31298828125
-75.0732421875
-73.2421875
-68.66455078125
-70.49560546875
-73.2421875
-72.32666015625
-67.7490234375
-65.00244140625
-60.4248046875
-69.580078125
-74.15771484375
-74.15771484375
-75.0732421875
-86.0595703125
-93.3837890625
-101.62353515625
-91.552734375
-72.32666015625
-67.7490234375
-79.65087890625
-69.580078125
-69.580078125
-61.34033203125
-65.00244140625
-72.32666015625
-77.81982421875
-83.31298828125
-83.31298828125
-85.14404296875
-81.48193359375
-75.0732421875
-81.48193359375
-88.80615234375
-88.80615234375
-83.31298828125
-96.13037109375
-97.96142578125
-98.876953125
-87.890625
-83.31298828125
-86.0595703125
-87.890625
-86.97509765625
-90.63720703125
-90.63720703125
-86.0595703125
-84.228515625
-83.31298828125
-75.98876953125
-79.65087890625
-84.228515625
-86.97509765625
-88.80615234375
-108.0322265625
-112.60986328125
-107.11669921875
-101.62353515625
-96.13037109375
-94.29931640625
-93.3837890625
-98.876953125
-95.21484375
-96.13037109375
-99.79248046875
-107.11669921875
-115.3564453125
-102.5390625
-98.876953125
-99.79248046875
-96.13037109375
-93.3837890625
-97.96142578125
-92.46826171875
-101.62353515625
-109.86328125
-110.77880859375
-104.3701171875
-105.28564453125
-111.6943359375
-109.86328125
-113.525390625
-120.849609375
-108.94775390625
-109.86328125
-102.5390625
-94.29931640625
-95.21484375
-104.3701171875
-98.876953125
-95.21484375
-104.3701171875
-104.3701171875
-105.28564453125
-110.77880859375
-105.28564453125
-97.0458984375
-94.29931640625
-89.7216796875
-86.97509765625
-86.97509765625
-92.46826171875
-72.32666015625
-69.580078125
-75.0732421875
-84.228515625
-84.228515625
-68.66455078125
-55.84716796875
-47.607421875
-39.36767578125
-12.8173828125
15.56396484375
22.88818359375
19.22607421875
19.22607421875
1.8310546875
-6.40869140625
-3.662109375
-8.23974609375
-19.22607421875
-13.73291015625
-10.986328125
-26.55029296875
-51.26953125
-59.50927734375
-54.931640625
-56.7626953125
-71.4111328125
-76.904296875
-78.7353515625
-103.45458984375
-119.0185546875
-116.27197265625
-110.77880859375
-123.59619140625
-121.76513671875
-130.0048828125
-130.92041015625
-130.0048828125
-131.8359375
-123.59619140625
-140.9912109375
-145.56884765625
-150.146484375
-146.484375
-137.3291015625
-127.25830078125
-132.75146484375
-138.24462890625
-130.0048828125
-121.76513671875
-130.92041015625
-130.0048828125
-129.08935546875
-139.16015625
-131.8359375
-130.92041015625
-131.8359375
-135.498046875
-133.6669921875
-140.9912109375
-140.9912109375
-143.73779296875
-144.6533203125
-145.56884765625
-139.16015625
-149.23095703125
-144.6533203125
-144.6533203125
-151.9775390625
-144.6533203125
-151.06201171875
-145.56884765625
-152.89306640625
-143.73779296875
-132.75146484375
-140.9912109375
-135.498046875
-130.92041015625
-130.0048828125
-135.498046875
-131.8359375
-148.3154296875
-152.89306640625
-163.87939453125
-160.21728515625
-178.52783203125
-205.99365234375
-197.75390625
-176.69677734375
-160.21728515625
-135.498046875
-102.5390625
-57.67822265625
30.21240234375
151.9775390625
269.1650390625
366.2109375
456.84814453125
565.7958984375
685.72998046875
807.4951171875
921.93603515625
1004.33349609375
1045.5322265625
1062.92724609375
1049.1943359375
952.1484375
773.62060546875
551.1474609375
378.11279296875
233.45947265625
127.25830078125
52.18505859375
28.38134765625
1.8310546875
-21.97265625
-32.958984375
-38.4521484375
-50.35400390625
-66.83349609375
-75.0732421875
-78.7353515625
-79.65087890625
-90.63720703125
-103.45458984375
-110.77880859375
-110.77880859375
-103.45458984375
-110.77880859375
-120.849609375
-120.849609375
-108.0322265625
-109.86328125
-109.86328125
-107.11669921875
-105.28564453125
-116.27197265625
-113.525390625
-113.525390625
-109.86328125
-103.45458984375
-101.62353515625
-108.94775390625
-108.0322265625
-108.0322265625
-113.525390625
-109.86328125
-105.28564453125
-97.96142578125
-105.28564453125
-111.6943359375
-107.11669921875
-112.60986328125
-111.6943359375
-107.11669921875
-104.3701171875
-105.28564453125
-100.7080078125
-104.3701171875
-97.96142578125
-93.3837890625
-95.21484375
-99.79248046875
-99.79248046875
-95.21484375
-111.6943359375
-108.94775390625
-91.552734375
-86.0595703125
-80.56640625
-72.32666015625
-74.15771484375
-78.7353515625
-75.0732421875
-65.00244140625
-76.904296875
-75.0732421875
-63.17138671875
-63.17138671875
-66.83349609375
-66.83349609375
-53.1005859375
-43.02978515625
-48.52294921875
-50.35400390625
-48.52294921875
-46.69189453125
-45.7763671875
-37.53662109375
-24.71923828125
-26.55029296875
-13.73291015625
-15.56396484375
-7.32421875
-3.662109375
4.57763671875
8.23974609375
8.23974609375
13.73291015625
32.958984375
36.62109375
37.53662109375
44.86083984375
53.1005859375
58.59375
65.00244140625
58.59375
71.4111328125
80.56640625
79.65087890625
82.3974609375
84.228515625
86.97509765625
107.11669921875
115.3564453125
127.25830078125
144.6533203125
151.06201171875
151.06201171875
151.9775390625
159.3017578125
158.38623046875
142.822265625
142.822265625
142.822265625
156.55517578125
163.87939453125
170.2880859375
161.1328125
179.443359375
187.68310546875
188.5986328125
186.767578125
171.20361328125
165.71044921875
164.794921875
160.21728515625
139.16015625
124.51171875
119.93408203125
109.86328125
99.79248046875
82.3974609375
65.00244140625
59.50927734375
55.84716796875
40.283203125
21.05712890625
9.1552734375
-3.662109375
-20.1416015625
-42.1142578125
-57.67822265625
-78.7353515625
-86.0595703125
-84.228515625
-71.4111328125
-70.49560546875
-71.4111328125
-78.7353515625
-85.14404296875
-90.63720703125
-100.7080078125
-95.21484375
-96.13037109375
-111.6943359375
-108.0322265625
-108.94775390625
-114.44091796875
-111.6943359375
-114.44091796875
-100.7080078125
-106.201171875
-118.10302734375
-120.849609375
-115.3564453125
-121.76513671875
-121.76513671875
-125.42724609375
-131.8359375
-117.1875
-109.86328125
-111.6943359375
-112.60986328125
-129.08935546875
-108.94775390625
-98.876953125
-97.0458984375
-101.62353515625
-104.3701171875
-107.11669921875
-114.44091796875
-121.76513671875
-124.51171875
-110.77880859375
-94.29931640625
-89.7216796875
-98.876953125
-103.45458984375
-109.86328125
-109.86328125
-99.79248046875
-103.45458984375
-101.62353515625
-99.79248046875
-87.890625
-90.63720703125
-99.79248046875
-104.3701171875
-94.29931640625
-106.201171875
-108.0322265625
-106.201171875
-108.0322265625
-106.201171875
-113.525390625
-108.94775390625
-107.11669921875
-110.77880859375
-116.27197265625
-124.51171875
-110.77880859375
-109.86328125
-112.60986328125
-117.1875
-117.1875
-128.173828125
-117.1875
-108.94775390625
-111.6943359375
-121.76513671875
-116.27197265625
-118.10302734375
-129.08935546875
-136.41357421875
-130.0048828125
-140.07568359375
-129.08935546875
-125.42724609375
-128.173828125
-129.08935546875
-119.93408203125
-128.173828125
-134.58251953125
-119.93408203125
-124.51171875
-124.51171875
-116.27197265625
-124.51171875
-128.173828125
-125.42724609375
-143.73779296875
-162.9638671875
-153.80859375
-151.06201171875
-139.16015625
-119.93408203125
-121.76513671875
-130.92041015625
-129.08935546875
-130.92041015625
-134.58251953125
-128.173828125
-131.8359375
-140.07568359375
-141.90673828125
-134.58251953125
-135.498046875
-130.0048828125
-137.3291015625
-139.16015625
-152.89306640625
-149.23095703125
-138.24462890625
-135.498046875
-137.3291015625
-146.484375
-156.55517578125
-141.90673828125
-130.0048828125
-139.16015625
-150.146484375
-151.9775390625
-150.146484375
-152.89306640625
-148.3154296875
-161.1328125
-159.3017578125
-152.89306640625
-151.06201171875
-141.90673828125
-135.498046875
-138.24462890625
-142.822265625
-151.9775390625
-153.80859375
-159.3017578125
-164.794921875
-160.21728515625
-159.3017578125
-159.3017578125
-162.9638671875
-167.54150390625
-151.9775390625
-138.24462890625
-135.498046875
-138.24462890625
-127.25830078125
-115.3564453125
-97.0458984375
-100.7080078125
-107.11669921875
-110.77880859375
-109.86328125
-112.60986328125
-115.3564453125
-110.77880859375
-93.3837890625
-78.7353515625
-54.01611328125
-27.4658203125
-20.1416015625
-21.97265625
-46.69189453125
-39.36767578125
-50.35400390625
-58.59375
-61.34033203125
-50.35400390625
-48.52294921875
-70.49560546875
-76.904296875
-86.97509765625
-100.7080078125
-103.45458984375
-123.59619140625
-137.3291015625
-135.498046875
-140.07568359375
-151.06201171875
-161.1328125
-160.21728515625
-159.3017578125
-160.21728515625
-155.6396484375
-172.119140625
-174.86572265625
-178.52783203125
-171.20361328125
-184.02099609375
-189.51416015625
-178.52783203125
-179.443359375
-185.85205078125
-176.69677734375
-184.9365234375
-195.9228515625
-191.34521484375
-193.17626953125
-194.091796875
-187.68310546875
-188.5986328125
-193.17626953125
-195.00732421875
-187.68310546875
-182.18994140625
-181.2744140625
-195.00732421875
-187.68310546875
-182.18994140625
-192.2607421875
-190.4296875
-185.85205078125
-193.17626953125
-177.6123046875
-177.6123046875
-191.34521484375
-186.767578125
-198.66943359375
-195.9228515625
-190.4296875
-191.34521484375
-201.416015625
-203.2470703125
-187.68310546875
-189.51416015625
-192.2607421875
-185.85205078125
-186.767578125
-187.68310546875
-168.45703125
-173.03466796875
-193.17626953125
-200.50048828125
-209.65576171875
-234.375
-234.375
-238.95263671875
-223.388671875
-187.68310546875
-147.39990234375
-108.94775390625
-23.8037109375
87.890625
205.078125
306.70166015625
396.42333984375
509.033203125
649.10888671875
765.380859375
870.66650390625
956.72607421875
1006.16455078125
1022.64404296875
1016.2353515625
946.6552734375
772.705078125
526.42822265625
343.32275390625
195.00732421875
78.7353515625
-3.662109375
-24.71923828125
-41.19873046875
-58.59375
-66.83349609375
-74.15771484375
-99.79248046875
-120.849609375
-127.25830078125
-119.93408203125
-119.93408203125
-138.24462890625
-146.484375
-151.9775390625
-151.06201171875
-149.23095703125
-139.16015625
-147.39990234375
-157.470703125
-155.6396484375
-157.470703125
-150.146484375
-151.06201171875
-164.794921875
-153.80859375
-148.3154296875
-140.9912109375
-140.9912109375
-140.07568359375
-156.55517578125
-148.3154296875
-142.822265625
-148.3154296875
-142.822265625
-142.822265625
-137.3291015625
-153.80859375
-151.06201171875
-153.80859375
-140.07568359375
-147.39990234375
-142.822265625
-140.9912109375
-133.6669921875
-130.0048828125
-131.8359375
-123.59619140625
-128.173828125
-118.10302734375
-119.0185546875
-114.44091796875
-122.6806640625
-126.3427734375
-120.849609375
-114.44091796875
-114.44091796875
-116.27197265625
-113.525390625
-112.60986328125
-115.3564453125
-117.1875
-113.525390625
-108.0322265625
-105.28564453125
-108.94775390625
-94.29931640625
-98.876953125
-88.80615234375
-86.97509765625
-91.552734375
-97.96142578125
-99.79248046875
-86.0595703125
-61.34033203125
-55.84716796875
-71.4111328125
-68.66455078125
-55.84716796875
-58.59375
-56.7626953125
-36.62109375
-34.7900390625
-35.70556640625
-37.53662109375
-15.56396484375
-26.55029296875
-41.19873046875
-29.296875
-15.56396484375
-1.8310546875
19.22607421875
19.22607421875
21.97265625
27.4658203125
34.7900390625
33.87451171875
48.52294921875
54.931640625
54.931640625
60.4248046875
59.50927734375
65.00244140625
74.15771484375
88.80615234375
90.63720703125
91.552734375
96.13037109375
113.525390625
116.27197265625
133.6669921875
130.92041015625
140.07568359375
140.9912109375
138.24462890625
154.72412109375
162.9638671875
160.21728515625
155.6396484375
161.1328125
151.06201171875
144.6533203125
152.89306640625
139.16015625
132.75146484375
121.76513671875
118.10302734375
111.6943359375
108.0322265625
98.876953125
90.63720703125
66.83349609375
59.50927734375
52.18505859375
32.958984375
3.662109375
-13.73291015625
-10.986328125
-25.634765625
-42.1142578125
-56.7626953125
-63.17138671875
-59.50927734375
-68.66455078125
-74.15771484375
-77.81982421875
-86.97509765625
-102.5390625
-105.28564453125
-110.77880859375
-107.11669921875
-115.3564453125
-123.59619140625
-134.58251953125
-138.24462890625
-138.24462890625
-143.73779296875
-142.822265625
-139.16015625
-149.23095703125
-157.470703125
-150.146484375
-145.56884765625
-140.9912109375
-141.90673828125
-133.6669921875
-140.07568359375
-134.58251953125
-138.24462890625
-144.6533203125
-132.75146484375
-140.07568359375
-138.24462890625
-142.822265625
-139.16015625
-137.3291015625
-134.58251953125
-142.822265625
-140.9912109375
-140.9912109375
-140.07568359375
-141.90673828125
-145.56884765625
-151.06201171875
-150.146484375
-152.89306640625
-145.56884765625
-146.484375
-139.16015625
-132.75146484375
-131.8359375
-136.41357421875
-139.16015625
-152.89306640625
-156.55517578125
-144.6533203125
-134.58251953125
-144.6533203125
-141.90673828125
-136.41357421875
-142.822265625
-150.146484375
-146.484375
-143.73779296875
-151.06201171875
-142.822265625
-140.9912109375
-148.3154296875
-151.9775390625
-147.39990234375
-141.90673828125
-135.498046875
-141.90673828125
-148.3154296875
-143.73779296875
-145.56884765625
-156.55517578125
-159.3017578125
-150.146484375
-142.822265625
-160.21728515625
-150.146484375
-151.06201171875
-152.89306640625
-153.80859375
-164.794921875
-166.6259765625
-154.72412109375
-157.470703125
-159.3017578125
-168.45703125
-164.794921875
-162.04833984375
-155.6396484375
-165.71044921875
-162.9638671875
-156.55517578125
-163.87939453125
-167.54150390625
-168.45703125
-173.03466796875
-168.45703125
-178.52783203125
-178.52783203125
-184.9365234375
-175.78125
-178.52783203125
-187.68310546875
-173.03466796875
-173.9501953125
-176.69677734375
-180.35888671875
-173.9501953125
-173.03466796875
-176.69677734375
-171.20361328125
-169.37255859375
-164.794921875
-168.45703125
-182.18994140625
-180.35888671875
-183.10546875
-184.02099609375
-191.34521484375
-190.4296875
-184.9365234375
-181.2744140625
-182.18994140625
-179.443359375
-183.10546875
-179.443359375
-176.69677734375
-196.83837890625
-187.68310546875
-170.2880859375
-186.767578125
-199.5849609375
-184.9365234375
-182.18994140625
-188.5986328125
-184.9365234375
-173.03466796875
-178.52783203125
-192.2607421875
-192.2607421875
-190.4296875
-186.767578125
-191.34521484375
-193.17626953125
-193.17626953125
-196.83837890625
-192.2607421875
-188.5986328125
-198.66943359375
-200.50048828125
-194.091796875
-180.35888671875
-176.69677734375
-183.10546875
-180.35888671875
-182.18994140625
-178.52783203125
-178.52783203125
-190.4296875
-190.4296875
-184.9365234375
-186.767578125
-181.2744140625
-175.78125
-179.443359375
-178.52783203125
-176.69677734375
-155.6396484375
-145.56884765625
-141.90673828125
-133.6669921875
-135.498046875
-150.146484375
-145.56884765625
-140.07568359375
-133.6669921875
-118.10302734375
-89.7216796875
-69.580078125
-59.50927734375
-57.67822265625
-54.931640625
-61.34033203125
-56.7626953125
-63.17138671875
-63.17138671875
-64.0869140625
-79.65087890625
-75.98876953125
-93.3837890625
-102.5390625
-101.62353515625
-116.27197265625
-124.51171875
-139.16015625
-152.89306640625
-166.6259765625
-169.37255859375
-170.2880859375
-180.35888671875
-185.85205078125
-187.68310546875
-195.00732421875
-198.66943359375
-192.2607421875
-192.2607421875
-194.091796875
-202.33154296875
-214.2333984375
-212.40234375
-213.31787109375
-202.33154296875
-199.5849609375
-207.82470703125
-214.2333984375
-209.65576171875
-213.31787109375
-205.99365234375
-209.65576171875
-216.064453125
-218.81103515625
-216.064453125
-207.82470703125
-210.5712890625
-225.2197265625
-220.64208984375
-209.65576171875
-211.48681640625
-220.64208984375
-220.64208984375
-216.064453125
-219.7265625
-216.97998046875
-212.40234375
-214.2333984375
-210.5712890625
-208.740234375
-221.5576171875
-220.64208984375
-220.64208984375
-230.712890625
-228.8818359375
-227.05078125
-228.8818359375
-227.05078125
-227.05078125
-217.8955078125
-205.99365234375
-225.2197265625
-237.12158203125
-231.62841796875
-240.78369140625
-260.92529296875
-260.009765625
-247.1923828125
-241.69921875
-220.64208984375
-181.2744140625
-144.6533203125
-99.79248046875
-3.662109375
109.86328125
227.96630859375
326.84326171875
418.39599609375
542.90771484375
661.0107421875
782.77587890625
870.66650390625
940.24658203125
982.36083984375
986.9384765625
963.134765625
823.974609375
609.7412109375
391.845703125
249.93896484375
114.44091796875
8.23974609375
-39.36767578125
-47.607421875
-63.17138671875
-75.98876953125
-89.7216796875
-107.11669921875
-123.59619140625
-133.6669921875
-151.9775390625
-158.38623046875
-163.87939453125
-163.87939453125
-162.9638671875
-161.1328125
-167.54150390625
-183.10546875
-172.119140625
-175.78125
-172.119140625
-176.69677734375
-178.52783203125
-171.20361328125
-164.794921875
-176.69677734375
-179.443359375
-178.52783203125
-169.37255859375
-155.6396484375
-162.04833984375
-167.54150390625
-172.119140625
-172.119140625
-180.35888671875
-176.69677734375
-165.71044921875
-150.146484375
-151.9775390625
-146.484375
-145.56884765625
-154.72412109375
-166.6259765625
-161.1328125
-155.6396484375
-157.470703125
-149.23095703125
-161.1328125
-157.470703125
-149.23095703125
-161.1328125
-162.04833984375
-155.6396484375
-139.16015625
-132.75146484375
-130.0048828125
-126.3427734375
-128.173828125
-140.9912109375
-133.6669921875
-138.24462890625
-139.16015625
-133.6669921875
-128.173828125
-131.8359375
-125.42724609375
-109.86328125
-104.3701171875
-104.3701171875
-96.13037109375
-103.45458984375
-110.77880859375
-108.0322265625
-95.21484375
-83.31298828125
-91.552734375
-90.63720703125
-75.0732421875
-63.17138671875
-64.0869140625
-69.580078125
-72.32666015625
-58.59375
-48.52294921875
-47.607421875
-59.50927734375
-47.607421875
-37.53662109375
-31.1279296875
-29.296875
-21.97265625
-19.22607421875
-18.310546875
1.8310546875
5.4931640625
0.91552734375
18.310546875
26.55029296875
18.310546875
37.53662109375
50.35400390625
56.7626953125
80.56640625
76.904296875
64.0869140625
66.83349609375
73.2421875
76.904296875
70.49560546875
88.80615234375
98.876953125
104.3701171875
96.13037109375
102.5390625
105.28564453125
117.1875
130.92041015625
124.51171875
119.93408203125
130.0048828125
127.25830078125
122.6806640625
119.0185546875
118.10302734375
126.3427734375
136.41357421875
133.6669921875
104.3701171875
95.21484375
76.904296875
65.00244140625
47.607421875
40.283203125
34.7900390625
25.634765625
8.23974609375
2.74658203125
-16.4794921875
-28.38134765625
-41.19873046875
-59.50927734375
-72.32666015625
-88.80615234375
-107.11669921875
-111.6943359375
-106.201171875
-106.201171875
-111.6943359375
-132.75146484375
-137.3291015625
-133.6669921875
-144.6533203125
-148.3154296875
-150.146484375
-145.56884765625
-163.87939453125
-164.794921875
-164.794921875
-162.9638671875
-161.1328125
-159.3017578125
-168.45703125
-158.38623046875
-159.3017578125
-173.9501953125
-164.794921875
-163.87939453125
-165.71044921875
-167.54150390625
-163.87939453125
-160.21728515625
-163.87939453125
-169.37255859375
-173.9501953125
-167.54150390625
-152.89306640625
-141.90673828125
-152.89306640625
-162.04833984375
-159.3017578125
-151.9775390625
-148.3154296875
-151.9775390625
-154.72412109375
-149.23095703125
-147.39990234375
-147.39990234375
-144.6533203125
-159.3017578125
-156.55517578125
-152.89306640625
-147.39990234375
-148.3154296875
-151.06201171875
-151.06201171875
-152.89306640625
-161.1328125
-165.71044921875
-152.89306640625
-143.73779296875
-163.87939453125
-162.9638671875
-162.9638671875
-160.21728515625
-161.1328125
-159.3017578125
-165.71044921875
-157.470703125
-147.39990234375
-150.146484375
-153.80859375
-156.55517578125
-159.3017578125
-166.6259765625
-175.78125
-155.6396484375
-144.6533203125
-144.6533203125
-142.822265625
-153.80859375
-151.06201171875
-154.72412109375
-162.9638671875
-162.9638671875
-159.3017578125
-166.6259765625
-161.1328125
-167.54150390625
-169.37255859375
-162.04833984375
-157.470703125
-163.87939453125
-170.2880859375
-181.2744140625
-169.37255859375
-173.03466796875
-170.2880859375
-171.20361328125
-168.45703125
-175.78125
-175.78125
-173.9501953125
-171.20361328125
-175.78125
-178.52783203125
-180.35888671875
-162.04833984375
-156.55517578125
-173.03466796875
-153.80859375
-165.71044921875
-173.03466796875
-172.119140625
-170.2880859375
-158.38623046875
-168.45703125
-168.45703125
-173.03466796875
-184.02099609375
-183.10546875
-170.2880859375
-173.9501953125
-188.5986328125
-187.68310546875
-185.85205078125
-179.443359375
-171.20361328125
-163.87939453125
-166.6259765625
-179.443359375
-184.02099609375
-188.5986328125
-187.68310546875
-175.78125
-181.2744140625
-186.767578125
-187.68310546875
-196.83837890625
-193.17626953125
-181.2744140625
-173.9501953125
-183.10546875
-192.2607421875
-190.4296875
-189.51416015625
-171.20361328125
-162.9638671875
-162.04833984375
-167.54150390625
-156.55517578125
-134.58251953125
-132.75146484375
-138.24462890625
-127.25830078125
-131.8359375
-140.9912109375
-140.9912109375
-140.07568359375
-144.6533203125
-114.44091796875
-84.228515625
-65.91796875
-66.83349609375
-45.7763671875
-32.04345703125
-37.53662109375
-52.18505859375
-61.34033203125
-65.00244140625
-67.7490234375
-78.7353515625
-96.13037109375
-89.7216796875
-89.7216796875
-104.3701171875
-109.86328125
-117.1875
-135.498046875
-144.6533203125
-155.6396484375
-169.37255859375
-182.18994140625
-183.10546875
-188.5986328125
-190.4296875
-193.17626953125
-195.9228515625
-191.34521484375
-195.9228515625
-194.091796875
-184.02099609375
-202.33154296875
-207.82470703125
-206.9091796875
-198.66943359375
-204.16259765625
-205.99365234375
-202.33154296875
-207.82470703125
-214.2333984375
-210.5712890625
-216.064453125
-219.7265625
-222.47314453125
-204.16259765625
-193.17626953125
-196.83837890625
-198.66943359375
-195.9228515625
-202.33154296875
-204.16259765625
-214.2333984375
-220.64208984375
-206.9091796875
-193.17626953125
-215.14892578125
-227.05078125
-222.47314453125
-214.2333984375
-205.078125
-199.5849609375
-208.740234375
-209.65576171875
-198.66943359375
-196.83837890625
-205.078125
-205.078125
-212.40234375
-202.33154296875
-207.82470703125
-211.48681640625
-208.740234375
-216.97998046875
-223.388671875
-233.45947265625
-243.5302734375
-262.75634765625
-263.671875
-260.92529296875
-249.0234375
-213.31787109375
-175.78125
-127.25830078125
-51.26953125
55.84716796875
181.2744140625
286.56005859375
377.197265625
464.17236328125
591.4306640625
721.435546875
825.8056640625
892.63916015625
953.9794921875
982.36083984375
989.68505859375
923.76708984375
766.29638671875
536.4990234375
362.548828125
216.064453125
77.81982421875
-18.310546875
-46.69189453125
-65.91796875
-78.7353515625
-97.0458984375
-101.62353515625
-91.552734375
-111.6943359375
-134.58251953125
-140.9912109375
-147.39990234375
-126.3427734375
-159.3017578125
-162.04833984375
-160.21728515625
-162.04833984375
-170.2880859375
-174.86572265625
-166.6259765625
-174.86572265625
-167.54150390625
-171.20361328125
-176.69677734375
-169.37255859375
-161.1328125
-160.21728515625
-173.9501953125
-176.69677734375
-173.03466796875
-172.119140625
-165.71044921875
-173.9501953125
-183.10546875
-176.69677734375
-163.87939453125
-162.9638671875
-168.45703125
-173.9501953125
-177.6123046875
-175.78125
-173.03466796875
-170.2880859375
-157.470703125
-158.38623046875
-153.80859375
-149.23095703125
-155.6396484375
-147.39990234375
-147.39990234375
-143.73779296875
-139.16015625
-151.9775390625
-146.484375
-144.6533203125
-147.39990234375
-142.822265625
-141.90673828125
-133.6669921875
-136.41357421875
-136.41357421875
-132.75146484375
-129.08935546875
-127.25830078125
-114.44091796875
-114.44091796875
-119.0185546875
-121.76513671875
-110.77880859375
-101.62353515625
-106.201171875
-103.45458984375
-86.0595703125
-97.0458984375
-105.28564453125
-94.29931640625
-90.63720703125
-90.63720703125
-79.65087890625
-64.0869140625
-70.49560546875
-67.7490234375
-60.4248046875
-48.52294921875
-42.1142578125
-38.4521484375
-32.958984375
-35.70556640625
-34.7900390625
-26.55029296875
-18.310546875
-15.56396484375
-8.23974609375
0.91552734375
10.07080078125
16.4794921875
15.56396484375
17.39501953125
24.71923828125
32.04345703125
34.7900390625
54.931640625
72.32666015625
73.2421875
65.91796875
72.32666015625
82.3974609375
91.552734375
94.29931640625
97.0458984375
97.96142578125
93.3837890625
102.5390625
107.11669921875
112.60986328125
122.6806640625
129.08935546875
127.25830078125
130.0048828125
118.10302734375
129.08935546875
124.51171875
124.51171875
123.59619140625
114.44091796875
108.0322265625
105.28564453125
87.890625
72.32666015625
65.91796875
47.607421875
36.62109375
35.70556640625
20.1416015625
-10.07080078125
-6.40869140625
-20.1416015625
-31.1279296875
-48.52294921875
-59.50927734375
-68.66455078125
-88.80615234375
-94.29931640625
-101.62353515625
-107.11669921875
-105.28564453125
-113.525390625
-116.27197265625
-118.10302734375
-123.59619140625
-138.24462890625
-148.3154296875
-154.72412109375
-158.38623046875
-158.38623046875
-157.470703125
-154.72412109375
-163.87939453125
-168.45703125
-168.45703125
-171.20361328125
-162.04833984375
-169.37255859375
-158.38623046875
-155.6396484375
-156.55517578125
-156.55517578125
-149.23095703125
-158.38623046875
-157.470703125
-162.9638671875
-162.04833984375
-150.146484375
-156.55517578125
-157.470703125
-156.55517578125
-158.38623046875
-160.21728515625
-140.07568359375
-144.6533203125
-155.6396484375
-151.06201171875
-154.72412109375
-149.23095703125
-150.146484375
-137.3291015625
-140.07568359375
-142.822265625
-140.07568359375
-145.56884765625
-158.38623046875
-159.3017578125
-151.06201171875
-145.56884765625
-136.41357421875
-136.41357421875
-151.06201171875
-153.80859375
-147.39990234375
-153.80859375
-153.80859375
-152.89306640625
-166.6259765625
-166.6259765625
-146.484375
-144.6533203125
-143.73779296875
-145.56884765625
-147.39990234375
-149.23095703125
-152.89306640625
-153.80859375
-158.38623046875
-160.21728515625
-158.38623046875
-151.9775390625
-151.06201171875
-150.146484375
-146.484375
-146.484375
-149.23095703125
-145.56884765625
-161.1328125
-151.9775390625
-151.9775390625
-146.484375
-150.146484375
-157.470703125
-172.119140625
-177.6123046875
-179.443359375
-163.87939453125
-154.72412109375
-162.04833984375
-167.54150390625
-165.71044921875
-168.45703125
-172.119140625
-170.2880859375
-173.9501953125
-168.45703125
-168.45703125
-165.71044921875
-161.1328125
-165.71044921875
-170.2880859375
-165.71044921875
-172.119140625
-181.2744140625
-173.9501953125
-177.6123046875
-174.86572265625
-172.119140625
-180.35888671875
-173.03466796875
-166.6259765625
-171.20361328125
-175.78125
-176.69677734375
-175.78125
-181.2744140625
-184.9365234375
-176.69677734375
-171.20361328125
-177.6123046875
-177.6123046875
-172.119140625
-173.03466796875
-173.9501953125
-175.78125
-187.68310546875
-187.68310546875
-171.20361328125
-180.35888671875
-187.68310546875
-175.78125
-179.443359375
-184.02099609375
-179.443359375
-165.71044921875
-171.20361328125
-172.119140625
-140.9912109375
-129.08935546875
-140.07568359375
-136.41357421875
-136.41357421875
-150.146484375
-159.3017578125
-151.9775390625
-145.56884765625
-134.58251953125
-107.11669921875
-53.1005859375
-49.4384765625
-50.35400390625
-45.7763671875
-54.931640625
-54.01611328125
-49.4384765625
-53.1005859375
-66.83349609375
-78.7353515625
-84.228515625
-92.46826171875
-103.45458984375
-112.60986328125
-112.60986328125
-132.75146484375
-145.56884765625
-167.54150390625
-168.45703125
-165.71044921875
-162.9638671875
-174.86572265625
-179.443359375
-182.18994140625
-183.10546875
-184.9365234375
-185.85205078125
-189.51416015625
-197.75390625
-194.091796875
-197.75390625
-195.00732421875
-199.5849609375
-195.9228515625
-205.99365234375
-215.14892578125
-207.82470703125
-212.40234375
-207.82470703125
-205.078125
-210.5712890625
-206.9091796875
-203.2470703125
-205.078125
-218.81103515625
-216.064453125
-217.8955078125
-204.16259765625
-210.5712890625
-211.48681640625
-211.48681640625
-204.16259765625
-201.416015625
-209.65576171875
-216.97998046875
-219.7265625
-226.13525390625
-227.96630859375
-224.30419921875
-216.97998046875
-212.40234375
-213.31787109375
-216.064453125
-211.48681640625
-227.96630859375
-219.7265625
-204.16259765625
-200.50048828125
-207.82470703125
-214.2333984375
-208.740234375
-205.078125
-208.740234375
-216.064453125
-233.45947265625
-234.375
-244.44580078125
-251.77001953125
-231.62841796875
-222.47314453125
-197.75390625
-169.37255859375
-107.11669921875
4.57763671875
112.60986328125
211.48681640625
308.53271484375
398.25439453125
499.8779296875
641.78466796875
768.12744140625
863.34228515625
941.162109375
986.9384765625
1007.99560546875
986.02294921875
883.48388671875
692.138671875
471.49658203125
311.279296875
168.45703125
43.9453125
-16.4794921875
-36.62109375
-55.84716796875
-81.48193359375
-87.890625
-107.11669921875
-124.51171875
-123.59619140625
-130.0048828125
-133.6669921875
-138.24462890625
-152.89306640625
-166.6259765625
-181.2744140625
-179.443359375
-173.9501953125
-168.45703125
-173.03466796875
-173.03466796875
-166.6259765625
-162.9638671875
-174.86572265625
-176.69677734375
-174.86572265625
-171.20361328125
-173.03466796875
-173.9501953125
-172.119140625
-169.37255859375
-168.45703125
-163.87939453125
-162.04833984375
-153.80859375
-162.9638671875
-163.87939453125
-151.06201171875
-153.80859375
-145.56884765625
-142.822265625
-146.484375
-146.484375
-139.16015625
-145.56884765625
-140.07568359375
-145.56884765625
-151.9775390625
-153.80859375
-151.06201171875
-144.6533203125
-148.3154296875
-135.498046875
-129.08935546875
-126.3427734375
-130.0048828125
-128.173828125
-143.73779296875
-147.39990234375
-140.07568359375
-134.58251953125
-125.42724609375
-119.0185546875
-110.77880859375
-109.86328125
-122.6806640625
-125.42724609375
-118.10302734375
-113.525390625
-99.79248046875
-97.0458984375
-99.79248046875
-90.63720703125
-88.80615234375
-80.56640625
-73.2421875
-79.65087890625
-75.98876953125
-70.49560546875
-65.91796875
-54.01611328125
-49.4384765625
-51.26953125
-51.26953125
-46.69189453125
-34.7900390625
-30.21240234375
-30.21240234375
-31.1279296875
-21.97265625
-4.57763671875
6.40869140625
10.986328125
12.8173828125
10.986328125
10.07080078125
20.1416015625
31.1279296875
39.36767578125
55.84716796875
51.26953125
44.86083984375
47.607421875
57.67822265625
70.49560546875
79.65087890625
93.3837890625
97.0458984375
91.552734375
113.525390625
130.92041015625
126.3427734375
114.44091796875
118.10302734375
121.76513671875
123.59619140625
132.75146484375
139.16015625
137.3291015625
129.08935546875
130.92041015625
139.16015625
144.6533203125
137.3291015625
120.849609375
109.86328125
99.79248046875
99.79248046875
88.80615234375
79.65087890625
75.0732421875
61.34033203125
53.1005859375
37.53662109375
33.87451171875
14.6484375
-10.07080078125
-26.55029296875
-43.9453125
-53.1005859375
-56.7626953125
-67.7490234375
-78.7353515625
-83.31298828125
-97.0458984375
-108.0322265625
-115.3564453125
-119.0185546875
-127.25830078125
-125.42724609375
-130.92041015625
-141.90673828125
-146.484375
-152.89306640625
-151.9775390625
-151.9775390625
-154.72412109375
-162.9638671875
-156.55517578125
-156.55517578125
-157.470703125
-159.3017578125
-156.55517578125
-162.04833984375
-163.87939453125
-162.9638671875
-159.3017578125
-155.6396484375
-158.38623046875
-162.9638671875
-148.3154296875
-146.484375
-164.794921875
-158.38623046875
-144.6533203125
-140.9912109375
-141.90673828125
-149.23095703125
-142.822265625
-140.9912109375
-147.39990234375
-160.21728515625
-152.89306640625
-149.23095703125
-142.822265625
-140.07568359375
-150.146484375
-151.9775390625
-144.6533203125
-140.9912109375
-144.6533203125
-142.822265625
-147.39990234375
-140.07568359375
-141.90673828125
-143.73779296875
-149.23095703125
-146.484375
-143.73779296875
-151.06201171875
-153.80859375
-152.89306640625
-153.80859375
-157.470703125
-146.484375
-142.822265625
-137.3291015625
-140.07568359375
-143.73779296875
-144.6533203125
-139.16015625
-140.07568359375
-145.56884765625
-150.146484375
-145.56884765625
-148.3154296875
-148.3154296875
-141.90673828125
-154.72412109375
-155.6396484375
-156.55517578125
-156.55517578125
-162.04833984375
-154.72412109375
-155.6396484375
-162.04833984375
-158.38623046875
-151.9775390625
-153.80859375
-159.3017578125
-159.3017578125
-162.9638671875
-151.9775390625
-148.3154296875
-146.484375
-145.56884765625
-162.04833984375
-167.54150390625
-166.6259765625
-157.470703125
-171.20361328125
-167.54150390625
-153.80859375
-144.6533203125
-148.3154296875
-158.38623046875
-159.3017578125
-171.20361328125
-167.54150390625
-157.470703125
-167.54150390625
-169.37255859375
-174.86572265625
-172.119140625
-180.35888671875
-185.85205078125
-169.37255859375
-177.6123046875
-185.85205078125
-188.5986328125
-182.18994140625
-173.9501953125
-172.119140625
-173.9501953125
-164.794921875
-172.119140625
-173.9501953125
-175.78125
-178.52783203125
-173.9501953125
-173.03466796875
-166.6259765625
-161.1328125
-171.20361328125
-182.18994140625
-183.10546875
-180.35888671875
-183.10546875
-179.443359375
-171.20361328125
-166.6259765625
-171.20361328125
-176.69677734375
-179.443359375
-177.6123046875
-173.03466796875
-175.78125
-173.03466796875
-175.78125
-173.03466796875
-173.03466796875
-185.85205078125
-187.68310546875
-187.68310546875
-186.767578125
-185.85205078125
-187.68310546875
-189.51416015625
-179.443359375
-175.78125
-181.2744140625
-188.5986328125
-187.68310546875
-185.85205078125
-184.9365234375
-184.9365234375
-182.18994140625
-174.86572265625
-184.02099609375
-173.03466796875
-162.04833984375
-159.3017578125
-140.9912109375
-134.58251953125
-140.07568359375
-144.6533203125
-147.39990234375
-141.90673828125
-142.822265625
-143.73779296875
-129.08935546875
-103.45458984375
-86.0595703125
-60.4248046875
-52.18505859375
-53.1005859375
-68.66455078125
-74.15771484375
-73.2421875
-78.7353515625
-81.48193359375
-85.14404296875
-75.0732421875
-86.97509765625
-104.3701171875
-118.10302734375
-113.525390625
-122.6806640625
-133.6669921875
-142.822265625
-144.6533203125
-152.89306640625
-155.6396484375
-162.04833984375
-184.9365234375
-180.35888671875
-184.9365234375
-189.51416015625
-197.75390625
-198.66943359375
-195.00732421875
-189.51416015625
-203.2470703125
-204.16259765625
-201.416015625
-196.83837890625
-186.767578125
-182.18994140625
-194.091796875
-196.83837890625
-201.416015625
-208.740234375
-205.99365234375
-197.75390625
-208.740234375
-199.5849609375
-193.17626953125
-188.5986328125
-205.078125
-208.740234375
-211.48681640625
-215.14892578125
-225.2197265625
-231.62841796875
-218.81103515625
-203.2470703125
-212.40234375
-198.66943359375
-206.9091796875
-199.5849609375
-204.16259765625
-210.5712890625
-204.16259765625
-200.50048828125
-214.2333984375
-217.8955078125
-200.50048828125
-196.83837890625
-192.2607421875
-196.83837890625
-190.4296875
-189.51416015625
-195.9228515625
-195.9228515625
-205.99365234375
-212.40234375
-216.97998046875
-240.78369140625
-251.77001953125
-238.95263671875
-224.30419921875
-196.83837890625
-172.119140625
-119.93408203125
-44.86083984375
48.52294921875
154.72412109375
262.75634765625
363.46435546875
470.5810546875
606.0791015625
727.84423828125
840.4541015625
929.26025390625
975.03662109375
1006.16455078125
1017.15087890625
947.57080078125
771.78955078125
546.56982421875
359.80224609375
208.740234375
93.3837890625
-3.662109375
-35.70556640625
-54.931640625
-68.66455078125
-76.904296875
-97.0458984375
-110.77880859375
-117.1875
-123.59619140625
-136.41357421875
-151.9775390625
-153.80859375
-150.146484375
-153.80859375
-164.794921875
-166.6259765625
-171.20361328125
-171.20361328125
-166.6259765625
-168.45703125
-165.71044921875
-159.3017578125
-152.89306640625
-162.04833984375
-157.470703125
-162.04833984375
-161.1328125
-168.45703125
-172.119140625
-173.9501953125
-173.03466796875
-173.03466796875
-176.69677734375
-165.71044921875
-167.54150390625
-167.54150390625
-170.2880859375
-171.20361328125
-173.03466796875
-165.71044921875
-172.119140625
-162.9638671875
-164.794921875
-167.54150390625
-159.3017578125
-159.3017578125
-143.73779296875
-143.73779296875
-130.92041015625
-126.3427734375
-125.42724609375
-131.8359375
-138.24462890625
-142.822265625
-130.92041015625
-121.76513671875
-119.0185546875
-112.60986328125
-112.60986328125
-117.1875
-102.5390625
-84.228515625
-115.3564453125
-114.44091796875
-111.6943359375
-104.3701171875
-104.3701171875
-103.45458984375
-104.3701171875
-102.5390625
-98.876953125
-96.13037109375
-96.13037109375
-86.0595703125
-86.97509765625
-90.63720703125
-77.81982421875
-88.80615234375
-82.3974609375
-69.580078125
-62.255859375
-58.59375
-67.7490234375
-70.49560546875
-60.4248046875
-63.17138671875
-52.18505859375
-36.62109375
-11.90185546875
-8.23974609375
-14.6484375
-4.57763671875
9.1552734375
8.23974609375
15.56396484375
27.4658203125
28.38134765625
36.62109375
43.9453125
35.70556640625
51.26953125
56.7626953125
54.931640625
59.50927734375
72.32666015625
94.29931640625
108.0322265625
108.94775390625
121.76513671875
118.10302734375
129.08935546875
119.93408203125
121.76513671875
127.25830078125
137.3291015625
134.58251953125
155.6396484375
142.822265625
145.56884765625
140.07568359375
129.08935546875
123.59619140625
129.08935546875
144.6533203125
151.9775390625
121.76513671875
130.0048828125
127.25830078125
113.525390625
95.21484375
86.0595703125
74.15771484375
49.4384765625
10.986328125
-7.32421875
-9.1552734375
-32.04345703125
-32.958984375
-28.38134765625
-49.4384765625
-73.2421875
-77.81982421875
-69.580078125
-83.31298828125
-105.28564453125
-117.1875
-115.3564453125
-118.10302734375
-136.41357421875
-130.92041015625
-137.3291015625
-137.3291015625
-145.56884765625
-149.23095703125
-163.87939453125
-151.9775390625
-153.80859375
-158.38623046875
-160.21728515625
-151.06201171875
-150.146484375
-151.9775390625
-153.80859375
-141.90673828125
-147.39990234375
-138.24462890625
-145.56884765625
-161.1328125
-157.470703125
-148.3154296875
-158.38623046875
-154.72412109375
-151.06201171875
-156.55517578125
-172.119140625
-173.9501953125
-159.3017578125
-143.73779296875
-148.3154296875
-138.24462890625
-148.3154296875
-150.146484375
-161.1328125
-162.9638671875
-161.1328125
-162.9638671875
-158.38623046875
-163.87939453125
-168.45703125
-152.89306640625
-158.38623046875
-157.470703125
-159.3017578125
-156.55517578125
-151.9775390625
-150.146484375
-140.07568359375
-144.6533203125
-148.3154296875
-151.06201171875
-157.470703125
-141.90673828125
-152.89306640625
-151.06201171875
-176.69677734375
-165.71044921875
-149.23095703125
-154.72412109375
-151.9775390625
-151.06201171875
-151.06201171875
-142.822265625
-146.484375
-150.146484375
-152.89306640625
-154.72412109375
-151.06201171875
-153.80859375
-135.498046875
-148.3154296875
-157.470703125
-155.6396484375
-161.1328125
-161.1328125
-169.37255859375
-171.20361328125
-161.1328125
-158.38623046875
-162.9638671875
-172.119140625
-165.71044921875
-162.9638671875
-183.10546875
-176.69677734375
-168.45703125
-178.52783203125
-186.767578125
-207.82470703125
-205.078125
-192.2607421875
-187.68310546875
-178.52783203125
-167.54150390625
-160.21728515625
-162.9638671875
-166.6259765625
-171.20361328125
-170.2880859375
-173.9501953125
-180.35888671875
-177.6123046875
-163.87939453125
-179.443359375
-191.34521484375
-178.52783203125
-194.091796875
-184.9365234375
-173.03466796875
-171.20361328125
-165.71044921875
-173.9501953125
-180.35888671875
-181.2744140625
-190.4296875
-191.34521484375
-191.34521484375
-191.34521484375
-193.17626953125
-187.68310546875
-191.34521484375
-184.02099609375
-184.9365234375
-188.5986328125
-184.02099609375
-184.02099609375
-194.091796875
-193.17626953125
-193.17626953125
-190.4296875
-196.83837890625
-195.00732421875
-196.83837890625
-208.740234375
-214.2333984375
-208.740234375
-205.99365234375
-216.97998046875
-212.40234375
-200.50048828125
-199.5849609375
-197.75390625
-195.00732421875
-187.68310546875
-192.2607421875
-208.740234375
-203.2470703125
-190.4296875
-195.00732421875
-195.9228515625
-192.2607421875
-195.00732421875
-199.5849609375
-192.2607421875
-196.83837890625
-205.078125
-211.48681640625
-211.48681640625
-198.66943359375
-195.9228515625
-188.5986328125
-183.10546875
-194.091796875
-194.091796875
-187.68310546875
-191.34521484375
-189.51416015625
-195.00732421875
-193.17626953125
-198.66943359375
-206.9091796875
-209.65576171875
-213.31787109375
-206.9091796875
-188.5986328125
-183.10546875
-183.10546875
-185.85205078125
-172.119140625
-155.6396484375
-151.9775390625
-158.38623046875
-160.21728515625
-152.89306640625
-158.38623046875
-148.3154296875
-151.9775390625
-136.41357421875
-118.10302734375
-94.29931640625
-80.56640625
-73.2421875
-75.98876953125
-102.5390625
-113.525390625
-99.79248046875
-103.45458984375
-110.77880859375
-109.86328125
-104.3701171875
-124.51171875
-136.41357421875
-139.16015625
-133.6669921875
-143.73779296875
-164.794921875
-182.18994140625
-184.02099609375
-195.00732421875
-197.75390625
-194.091796875
-199.5849609375
-211.48681640625
-215.14892578125
-219.7265625
-212.40234375
-222.47314453125
-236.2060546875
-237.12158203125
-233.45947265625
-233.45947265625
-221.5576171875
-205.99365234375
-218.81103515625
-220.64208984375
-212.40234375
-227.96630859375
-228.8818359375
-224.30419921875
-229.79736328125
-233.45947265625
-215.14892578125
-225.2197265625
-238.037109375
-231.62841796875
-237.12158203125
-242.61474609375
-239.8681640625
-231.62841796875
-224.30419921875
-229.79736328125
-224.30419921875
-232.5439453125
-236.2060546875
-237.12158203125
-237.12158203125
-243.5302734375
-230.712890625
-231.62841796875
-233.45947265625
-229.79736328125
-227.05078125
-234.375
-231.62841796875
-234.375
-230.712890625
-227.96630859375
-237.12158203125
-233.45947265625
-247.1923828125
-258.1787109375
-256.34765625
-260.92529296875
-277.40478515625
-279.23583984375
-272.8271484375
-261.8408203125
-238.037109375
-211.48681640625
-167.54150390625
-67.7490234375
65.00244140625
183.10546875
276.4892578125
371.7041015625
466.00341796875
605.16357421875
730.5908203125
823.974609375
890.80810546875
941.162109375
962.21923828125
957.6416015625
868.83544921875
693.05419921875
444.03076171875
267.333984375
129.08935546875
24.71923828125
-49.4384765625
-76.904296875
-91.552734375
-103.45458984375
-119.0185546875
-139.16015625
-144.6533203125
-141.90673828125
-150.146484375
-160.21728515625
-172.119140625
-176.69677734375
-177.6123046875
-186.767578125
-191.34521484375
-185.85205078125
-198.66943359375
-199.5849609375
-205.99365234375
-202.33154296875
-200.50048828125
-195.9228515625
-195.00732421875
-196.83837890625
-196.83837890625
-195.9228515625
-188.5986328125
-188.5986328125
-197.75390625
-204.16259765625
-205.99365234375
-193.17626953125
-199.5849609375
-200.50048828125
-184.02099609375
-192.2607421875
-197.75390625
-206.9091796875
-187.68310546875
-196.83837890625
-186.767578125
-186.767578125
-186.767578125
-194.091796875
-184.9365234375
-175.78125
-179.443359375
-176.69677734375
-178.52783203125
-170.2880859375
-164.794921875
-165.71044921875
-173.9501953125
-177.6123046875
-181.2744140625
-168.45703125
-165.71044921875
-166.6259765625
-172.119140625
-161.1328125
-158.38623046875
-151.9775390625
-147.39990234375
-151.9775390625
-140.07568359375
-142.822265625
-142.822265625
-134.58251953125
-133.6669921875
-127.25830078125
-137.3291015625
-135.498046875
-124.51171875
-119.93408203125
-108.0322265625
-101.62353515625
-110.77880859375
-119.93408203125
-109.86328125
-99.79248046875
-98.876953125
-96.13037109375
-92.46826171875
-79.65087890625
-71.4111328125
-70.49560546875
-69.580078125
-68.66455078125
-48.52294921875
-34.7900390625
-21.05712890625
-27.4658203125
-28.38134765625
-22.88818359375
-21.97265625
-25.634765625
-12.8173828125
0.91552734375
5.4931640625
13.73291015625
32.04345703125
35.70556640625
39.36767578125
41.19873046875
52.18505859375
53.1005859375
65.00244140625
65.91796875
67.7490234375
67.7490234375
65.00244140625
65.00244140625
70.49560546875
86.97509765625
91.552734375
91.552734375
88.80615234375
78.7353515625
76.904296875
97.96142578125
107.11669921875
104.3701171875
115.3564453125
112.60986328125
98.876953125
89.7216796875
78.7353515625
59.50927734375
51.26953125
43.9453125
26.55029296875
13.73291015625
7.32421875
-5.4931640625
-16.4794921875
-30.21240234375
-48.52294921875
-69.580078125
-92.46826171875
-103.45458984375
-104.3701171875
-109.86328125
-117.1875
-138.24462890625
-139.16015625
-142.822265625
-157.470703125
-161.1328125
-172.119140625
-168.45703125
-172.119140625
-189.51416015625
-199.5849609375
-181.2744140625
-181.2744140625
-192.2607421875
-188.5986328125
-195.9228515625
-185.85205078125
-195.00732421875
-205.078125
-205.99365234375
-192.2607421875
-195.9228515625
-192.2607421875
-180.35888671875
-202.33154296875
-214.2333984375
-205.078125
-205.078125
-203.2470703125
-203.2470703125
-187.68310546875
-200.50048828125
-208.740234375
-205.078125
-188.5986328125
-191.34521484375
-184.9365234375
-187.68310546875
-187.68310546875
-184.9365234375
-191.34521484375
-192.2607421875
-177.6123046875
-182.18994140625
-188.5986328125
-201.416015625
-200.50048828125
-194.091796875
-191.34521484375
-190.4296875
-189.51416015625
-187.68310546875
-186.767578125
-185.85205078125
-192.2607421875
-192.2607421875
-191.34521484375
-193.17626953125
-191.34521484375
-180.35888671875
-175.78125
-178.52783203125
-179.443359375
-187.68310546875
-193.17626953125
-204.16259765625
-209.65576171875
-195.9228515625
-190.4296875
-197.75390625
-184.9365234375
-186.767578125
-199.5849609375
-199.5849609375
-194.091796875
-191.34521484375
-205.99365234375
-205.99365234375
-212.40234375
-208.740234375
-198.66943359375
-206.9091796875
-216.064453125
-196.83837890625
-204.16259765625
-205.078125
-205.078125
-216.064453125
-203.2470703125
-199.5849609375
-196.83837890625
-202.33154296875
-212.40234375
-209.65576171875
-200.50048828125
-211.48681640625
-200.50048828125
-196.83837890625
-212.40234375
-218.81103515625
-210.5712890625
-213.31787109375
-203.2470703125
-205.078125
-211.48681640625
-213.31787109375
-203.2470703125
-209.65576171875
-202.33154296875
-218.81103515625
-216.97998046875
-212.40234375
-214.2333984375
-216.97998046875
-214.2333984375
-219.7265625
-218.81103515625
-216.064453125
-214.2333984375
-208.740234375
-207.82470703125
-225.2197265625
-222.47314453125
-211.48681640625
-217.8955078125
-228.8818359375
-218.81103515625
-219.7265625
-216.97998046875
-221.5576171875
-224.30419921875
-220.64208984375
-223.388671875
-236.2060546875
-238.95263671875
-240.78369140625
-216.064453125
-205.078125
-214.2333984375
-239.8681640625
-244.44580078125
-230.712890625
-226.13525390625
-225.2197265625
-223.388671875
-213.31787109375
-214.2333984375
-232.5439453125
-229.79736328125
-227.96630859375
-207.82470703125
-209.65576171875
-205.99365234375
-209.65576171875
-222.47314453125
-231.62841796875
-235.29052734375
-229.79736328125
-220.64208984375
-214.2333984375
-207.82470703125
-204.16259765625
-198.66943359375
-184.9365234375
-174.86572265625
-194.091796875
-202.33154296875
-189.51416015625
-180.35888671875
-178.52783203125
-179.443359375
-159.3017578125
-151.9775390625
-136.41357421875
-119.0185546875
-109.86328125
-106.201171875
-119.93408203125
-115.3564453125
-117.1875
-124.51171875
-131.8359375
-125.42724609375
-133.6669921875
-131.8359375
-140.07568359375
-154.72412109375
-172.119140625
-170.2880859375
-179.443359375
-184.9365234375
-205.078125
-216.97998046875
-214.2333984375
-217.8955078125
-224.30419921875
-225.2197265625
-229.79736328125
-239.8681640625
-242.61474609375
-241.69921875
-240.78369140625
-240.78369140625
-238.037109375
-235.29052734375
-236.2060546875
-236.2060546875
-249.0234375
-239.8681640625
-240.78369140625
-242.61474609375
-243.5302734375
-238.037109375
-244.44580078125
-246.27685546875
-249.93896484375
-249.93896484375
-238.037109375
-242.61474609375
-248.10791015625
-242.61474609375
-240.78369140625
-255.43212890625
-258.1787109375
-252.685546875
-254.5166015625
-265.5029296875
-251.77001953125
-248.10791015625
-247.1923828125
-238.037109375
-246.27685546875
-238.95263671875
-239.8681640625
-249.93896484375
-248.10791015625
-264.58740234375
-256.34765625
-244.44580078125
-254.5166015625
-257.26318359375
-253.60107421875
-250.8544921875
-250.8544921875
-255.43212890625
-267.333984375
-271.91162109375
-281.06689453125
-293.88427734375
-291.1376953125
-280.1513671875
-260.009765625
-234.375
-199.5849609375
-140.9912109375
-50.35400390625
64.0869140625
182.18994140625
282.89794921875
357.97119140625
476.07421875
599.67041015625
709.53369140625
813.90380859375
882.568359375
932.0068359375
948.486328125
932.0068359375
845.947265625
680.23681640625
441.2841796875
291.1376953125
150.146484375
19.22607421875
-56.7626953125
-87.890625
-106.201171875
-121.76513671875
-130.0048828125
-141.90673828125
-155.6396484375
-175.78125
-178.52783203125
-168.45703125
-174.86572265625
-182.18994140625
-196.83837890625
-196.83837890625
-199.5849609375
-204.16259765625
-205.99365234375
-205.078125
-204.16259765625
-213.31787109375
-220.64208984375
-234.375
-231.62841796875
-235.29052734375
-244.44580078125
-217.8955078125
-201.416015625
-202.33154296875
-194.091796875
-190.4296875
-178.52783203125
-181.2744140625
-197.75390625
-200.50048828125
-197.75390625
-201.416015625
-207.82470703125
-190.4296875
-184.9365234375
-181.2744140625
-186.767578125
-193.17626953125
-188.5986328125
-188.5986328125
-182.18994140625
-180.35888671875
-170.2880859375
-174.86572265625
-179.443359375
-178.52783203125
-174.86572265625
-183.10546875
-173.9501953125
-176.69677734375
-185.85205078125
-180.35888671875
-162.04833984375
-158.38623046875
-159.3017578125
-151.9775390625
-151.06201171875
-159.3017578125
-162.04833984375
-156.55517578125
-165.71044921875
-163.87939453125
-162.04833984375
-151.9775390625
-142.822265625
-133.6669921875
-143.73779296875
-140.07568359375
-131.8359375
-119.93408203125
-111.6943359375
-113.525390625
-113.525390625
-104.3701171875
-96.13037109375
-106.201171875
-102.5390625
-100.7080078125
-92.46826171875
-90.63720703125
-82.3974609375
-73.2421875
-75.98876953125
-61.34033203125
-37.53662109375
-35.70556640625
-43.02978515625
-43.02978515625
-38.4521484375
-22.88818359375
-19.22607421875
-15.56396484375
4.57763671875
5.4931640625
10.986328125
17.39501953125
29.296875
30.21240234375
24.71923828125
30.21240234375
35.70556640625
43.02978515625
52.18505859375
52.18505859375
52.18505859375
55.84716796875
71.4111328125
76.904296875
62.255859375
74.15771484375
78.7353515625
86.0595703125
90.63720703125
82.3974609375
75.0732421875
81.48193359375
93.3837890625
92.46826171875
90.63720703125
91.552734375
93.3837890625
79.65087890625
75.0732421875
67.7490234375
60.4248046875
38.4521484375
29.296875
15.56396484375
-1.8310546875
-20.1416015625
-32.04345703125
-47.607421875
-58.59375
-78.7353515625
-82.3974609375
-96.13037109375
-112.60986328125
-108.0322265625
-120.849609375
-132.75146484375
-134.58251953125
-142.822265625
-140.07568359375
-145.56884765625
-159.3017578125
-166.6259765625
-170.2880859375
-179.443359375
-175.78125
-179.443359375
-185.85205078125
-184.9365234375
-194.091796875
-204.16259765625
-196.83837890625
-202.33154296875
-202.33154296875
-195.9228515625
-186.767578125
-191.34521484375
-183.10546875
-190.4296875
-189.51416015625
-184.9365234375
-192.2607421875
-191.34521484375
-191.34521484375
-190.4296875
-201.416015625
-208.740234375
-201.416015625
-187.68310546875
-180.35888671875
-183.10546875
-178.52783203125
-177.6123046875
-184.9365234375
-189.51416015625
-185.85205078125
-169.37255859375
-175.78125
-174.86572265625
-167.54150390625
-169.37255859375
-170.2880859375
-166.6259765625
-172.119140625
-171.20361328125
-173.03466796875
-171.20361328125
-180.35888671875
-176.69677734375
-176.69677734375
-183.10546875
-187.68310546875
-182.18994140625
-176.69677734375
-166.6259765625
-167.54150390625
-187.68310546875
-187.68310546875
-186.767578125
-198.66943359375
-172.119140625
-171.20361328125
-168.45703125
-176.69677734375
-178.52783203125
-178.52783203125
-173.03466796875
-172.119140625
-177.6123046875
-170.2880859375
-174.86572265625
-175.78125
-180.35888671875
-182.18994140625
-189.51416015625
-192.2607421875
-192.2607421875
-183.10546875
-186.767578125
-178.52783203125
-183.10546875
-183.10546875
-188.5986328125
-195.00732421875
-193.17626953125
-203.2470703125
-204.16259765625
-198.66943359375
-197.75390625
-197.75390625
-191.34521484375
-201.416015625
-206.9091796875
-193.17626953125
-185.85205078125
-193.17626953125
-195.00732421875
-209.65576171875
-201.416015625
-195.00732421875
-202.33154296875
-205.078125
-212.40234375
-209.65576171875
-203.2470703125
-194.091796875
-190.4296875
-195.9228515625
-189.51416015625
-185.85205078125
-194.091796875
-196.83837890625
-196.83837890625
-208.740234375
-202.33154296875
-203.2470703125
-203.2470703125
-203.2470703125
-196.83837890625
-190.4296875
-194.091796875
-198.66943359375
-205.99365234375
-208.740234375
-208.740234375
-216.97998046875
-207.82470703125
-211.48681640625
-212.40234375
-205.078125
-196.83837890625
-193.17626953125
-198.66943359375
-205.99365234375
-211.48681640625
-214.2333984375
-205.99365234375
-199.5849609375
-195.00732421875
-202.33154296875
-213.31787109375
-209.65576171875
-209.65576171875
-218.81103515625
-210.5712890625
-211.48681640625
-208.740234375
-214.2333984375
-224.30419921875
-211.48681640625
-202.33154296875
-209.65576171875
-206.9091796875
-209.65576171875
-215.14892578125
-205.99365234375
-186.767578125
-168.45703125
-145.56884765625
-147.39990234375
-143.73779296875
-150.146484375
-146.484375
-149.23095703125
-153.80859375
-143.73779296875
-135.498046875
-119.0185546875
-93.3837890625
-94.29931640625
-86.97509765625
-91.552734375
-89.7216796875
-107.11669921875
-111.6943359375
-106.201171875
-106.201171875
-107.11669921875
-111.6943359375
-123.59619140625
-135.498046875
-137.3291015625
-141.90673828125
-157.470703125
-174.86572265625
-184.9365234375
-192.2607421875
-190.4296875
-194.091796875
-196.83837890625
-211.48681640625
-204.16259765625
-212.40234375
-217.8955078125
-214.2333984375
-215.14892578125
-223.388671875
-224.30419921875
-225.2197265625
-225.2197265625
-222.47314453125
-216.97998046875
-227.05078125
-215.14892578125
-226.13525390625
-234.375
-229.79736328125
-229.79736328125
-238.95263671875
-229.79736328125
-225.2197265625
-228.8818359375
-226.13525390625
-229.79736328125
-229.79736328125
-235.29052734375
-228.8818359375
-232.5439453125
-245.361328125
-235.29052734375
-235.29052734375
-230.712890625
-230.712890625
-227.96630859375
-235.29052734375
-238.95263671875
-244.44580078125
-234.375
-231.62841796875
-237.12158203125
-236.2060546875
-233.45947265625
-222.47314453125
-220.64208984375
-245.361328125
-236.2060546875
-227.96630859375
-231.62841796875
-242.61474609375
-233.45947265625
-233.45947265625
-244.44580078125
-267.333984375
-284.72900390625
-284.72900390625
-279.23583984375
-256.34765625
-216.97998046875
-176.69677734375
-106.201171875
-11.90185546875
106.201171875
211.48681640625
310.36376953125
396.42333984375
515.44189453125
647.27783203125
765.380859375
845.03173828125
910.0341796875
946.6552734375
979.6142578125
955.810546875
825.8056640625
623.47412109375
395.5078125
239.8681640625
103.45458984375
1.8310546875
-54.931640625
-76.904296875
-97.0458984375
-102.5390625
-112.60986328125
-132.75146484375
-151.9775390625
-162.9638671875
-173.9501953125
-179.443359375
-167.54150390625
-173.03466796875
-189.51416015625
-201.416015625
-194.091796875
-189.51416015625
-203.2470703125
-209.65576171875
-210.5712890625
-210.5712890625
-205.99365234375
-212.40234375
-217.8955078125
-215.14892578125
-207.82470703125
-196.83837890625
-198.66943359375
-203.2470703125
-196.83837890625
-187.68310546875
-189.51416015625
-192.2607421875
-190.4296875
-193.17626953125
-196.83837890625
-202.33154296875
-198.66943359375
-185.85205078125
-182.18994140625
-191.34521484375
-182.18994140625
-178.52783203125
-180.35888671875
-187.68310546875
-181.2744140625
-184.02099609375
-184.9365234375
-175.78125
-163.87939453125
-166.6259765625
-166.6259765625
-162.04833984375
-153.80859375
-168.45703125
-170.2880859375
-154.72412109375
-144.6533203125
-148.3154296875
-151.06201171875
-150.146484375
-152.89306640625
-143.73779296875
-143.73779296875
-153.80859375
-145.56884765625
-140.9912109375
-140.07568359375
-128.173828125
-119.0185546875
-130.92041015625
-131.8359375
-114.44091796875
-112.60986328125
-117.1875
-109.86328125
-118.10302734375
-105.28564453125
-106.201171875
-91.552734375
-78.7353515625
-69.580078125
-63.17138671875
-61.34033203125
-56.7626953125
-52.18505859375
-43.9453125
-45.7763671875
-40.283203125
-34.7900390625
-36.62109375
-21.05712890625
-5.4931640625
-10.986328125
-6.40869140625
-3.662109375
-7.32421875
1.8310546875
1.8310546875
7.32421875
20.1416015625
34.7900390625
52.18505859375
54.01611328125
59.50927734375
75.98876953125
72.32666015625
65.91796875
74.15771484375
75.0732421875
83.31298828125
98.876953125
105.28564453125
114.44091796875
113.525390625
121.76513671875
121.76513671875
106.201171875
118.10302734375
142.822265625
135.498046875
127.25830078125
127.25830078125
123.59619140625
115.3564453125
106.201171875
109.86328125
86.97509765625
72.32666015625
66.83349609375
54.931640625
43.9453125
29.296875
12.8173828125
-2.74658203125
-13.73291015625
-19.22607421875
-42.1142578125
-56.7626953125
-76.904296875
-84.228515625
-82.3974609375
-94.29931640625
-99.79248046875
-119.0185546875
-126.3427734375
-131.8359375
-149.23095703125
-156.55517578125
-155.6396484375
-163.87939453125
-173.03466796875
-189.51416015625
-188.5986328125
-180.35888671875
-176.69677734375
-173.9501953125
-167.54150390625
-164.794921875
-174.86572265625
-181.2744140625
-180.35888671875
-176.69677734375
-180.35888671875
-181.2744140625
-178.52783203125
-177.6123046875
-181.2744140625
-163.87939453125
-176.69677734375
-188.5986328125
-187.68310546875
-177.6123046875
-167.54150390625
-166.6259765625
-172.119140625
-170.2880859375
-173.9501953125
-170.2880859375
-178.52783203125
-163.87939453125
-171.20361328125
-169.37255859375
-174.86572265625
-173.03466796875
-174.86572265625
-179.443359375
-182.18994140625
-175.78125
-176.69677734375
-169.37255859375
-160.21728515625
-162.9638671875
-173.9501953125
-172.119140625
-159.3017578125
-174.86572265625
-165.71044921875
-153.80859375
-172.119140625
-181.2744140625
-176.69677734375
-179.443359375
-195.9228515625
-187.68310546875
-179.443359375
-180.35888671875
-186.767578125
-173.03466796875
-176.69677734375
-179.443359375
-176.69677734375
-181.2744140625
-182.18994140625
-168.45703125
-155.6396484375
-174.86572265625
-175.78125
-166.6259765625
-176.69677734375
-184.9365234375
-169.37255859375
-178.52783203125
-178.52783203125
-184.02099609375
-183.10546875
-195.00732421875
-198.66943359375
-202.33154296875
-198.66943359375
-183.10546875
-199.5849609375
-205.99365234375
-198.66943359375
-191.34521484375
-197.75390625
-197.75390625
-196.83837890625
-188.5986328125
-194.091796875
-203.2470703125
-205.99365234375
-191.34521484375
-190.4296875
-191.34521484375
-194.091796875
-215.14892578125
-199.5849609375
-202.33154296875
-203.2470703125
-199.5849609375
-209.65576171875
-196.83837890625
-196.83837890625
-195.9228515625
-203.2470703125
-205.99365234375
-204.16259765625
-206.9091796875
-205.99365234375
-196.83837890625
-208.740234375
-206.9091796875
-205.99365234375
-198.66943359375
-200.50048828125
-198.66943359375
-197.75390625
-205.078125
-201.416015625
-199.5849609375
-203.2470703125
-207.82470703125
-219.7265625
-216.064453125
-224.30419921875
-226.13525390625
-227.05078125
-226.13525390625
-222.47314453125
-220.64208984375
-208.740234375
-199.5849609375
-199.5849609375
-194.091796875
-211.48681640625
-220.64208984375
-218.81103515625
-211.48681640625
-202.33154296875
-200.50048828125
-193.17626953125
-211.48681640625
-210.5712890625
-209.65576171875
-205.078125
-204.16259765625
-213.31787109375
-204.16259765625
-194.091796875
-200.50048828125
-207.82470703125
-205.078125
-218.81103515625
-221.5576171875
-205.078125
-198.66943359375
-201.416015625
-204.16259765625
-208.740234375
-209.65576171875
-185.85205078125
-198.66943359375
-200.50048828125
-196.83837890625
-196.83837890625
-195.00732421875
-200.50048828125
-199.5849609375
-186.767578125
-172.119140625
-162.04833984375
-161.1328125
-159.3017578125
-159.3017578125
-162.04833984375
-162.04833984375
-151.06201171875
-145.56884765625
-124.51171875
-99.79248046875
-84.228515625
-85.14404296875
-88.80615234375
-82.3974609375
-83.31298828125
-88.80615234375
-77.81982421875
-95.21484375
-101.62353515625
-94.29931640625
-119.0185546875
-127.25830078125
-125.42724609375
-130.92041015625
-141.90673828125
-160.21728515625
-177.6123046875
-181.2744140625
-180.35888671875
-191.34521484375
-194.091796875
-186.767578125
-208.740234375
-216.064453125
-213.31787109375
-200.50048828125
-195.9228515625
-202.33154296875
-203.2470703125
-199.5849609375
-200.50048828125
-205.078125
-217.8955078125
-214.2333984375
-213.31787109375
-198.66943359375
-206.9091796875
-208.740234375
-203.2470703125
-199.5849609375
-208.740234375
-205.078125
-210.5712890625
-218.81103515625
-224.30419921875
-239.8681640625
-241.69921875
-244.44580078125
-236.2060546875
-218.81103515625
-206.9091796875
-202.33154296875
-206.9091796875
-211.48681640625
-220.64208984375
-225.2197265625
-219.7265625
-213.31787109375
-217.8955078125
-203.2470703125
-216.064453125
-225.2197265625
-229.79736328125
-224.30419921875
-219.7265625
-221.5576171875
-212.40234375
-214.2333984375
-197.75390625
-196.83837890625
-202.33154296875
-214.2333984375
-227.96630859375
-234.375
-253.60107421875
-258.1787109375
-255.43212890625
-238.037109375
-231.62841796875
-194.091796875
-142.822265625
-47.607421875
67.7490234375
181.2744140625
292.05322265625
373.53515625
469.66552734375
597.83935546875
726.9287109375
821.22802734375
920.10498046875
969.54345703125
989.68505859375
986.02294921875
927.42919921875
755.31005859375
527.34375
322.265625
177.6123046875
67.7490234375
-21.05712890625
-43.02978515625
-63.17138671875
-98.876953125
-98.876953125
-97.0458984375
-126.3427734375
-129.08935546875
-140.07568359375
-145.56884765625
-156.55517578125
-160.21728515625
-163.87939453125
-163.87939453125
-178.52783203125
-166.6259765625
-168.45703125
-173.9501953125
-173.9501953125
-174.86572265625
-169.37255859375
-158.38623046875
-163.87939453125
-166.6259765625
-158.38623046875
-164.794921875
-170.2880859375
-162.04833984375
-162.9638671875
-171.20361328125
-166.6259765625
-162.9638671875
-158.38623046875
-152.89306640625
-150.146484375
-156.55517578125
-158.38623046875
-153.80859375
-151.06201171875
-151.06201171875
-152.89306640625
-153.80859375
-151.9775390625
-156.55517578125
-164.794921875
-164.794921875
-161.1328125
-145.56884765625
-139.16015625
-150.146484375
-142.822265625
-128.173828125
-129.08935546875
-128.173828125
-137.3291015625
-126.3427734375
-127.25830078125
-137.3291015625
-143.73779296875
-138.24462890625
-140.07568359375
-151.06201171875
-132.75146484375
-123.59619140625
-124.51171875
-121.76513671875
-109.86328125
-93.3837890625
-86.97509765625
-90.63720703125
-86.0595703125
-73.2421875
-77.81982421875
-75.98876953125
-74.15771484375
-73.2421875
-72.32666015625
-85.14404296875
-87.890625
-80.56640625
-64.0869140625
-56.7626953125
-48.52294921875
-40.283203125
-39.36767578125
-33.87451171875
-25.634765625
-23.8037109375
-8.23974609375
-7.32421875
10.07080078125
18.310546875
23.8037109375
25.634765625
27.4658203125
36.62109375
47.607421875
42.1142578125
40.283203125
49.4384765625
63.17138671875
74.15771484375
72.32666015625
74.15771484375
85.14404296875
103.45458984375
120.849609375
126.3427734375
130.0048828125
126.3427734375
137.3291015625
137.3291015625
143.73779296875
143.73779296875
151.06201171875
140.07568359375
145.56884765625
165.71044921875
168.45703125
170.2880859375
167.54150390625
169.37255859375
169.37255859375
163.87939453125
164.794921875
155.6396484375
130.92041015625
123.59619140625
109.86328125
93.3837890625
89.7216796875
82.3974609375
65.00244140625
45.7763671875
32.04345703125
21.05712890625
5.4931640625
-8.23974609375
-30.21240234375
-50.35400390625
-59.50927734375
-72.32666015625
-96.13037109375
-86.0595703125
-76.904296875
-96.13037109375
-101.62353515625
-96.13037109375
-97.96142578125
-100.7080078125
-107.11669921875
-129.08935546875
-136.41357421875
-128.173828125
-130.92041015625
-135.498046875
-145.56884765625
-140.07568359375
-133.6669921875
-126.3427734375
-124.51171875
-122.6806640625
-121.76513671875
-125.42724609375
-130.92041015625
-133.6669921875
-133.6669921875
-135.498046875
-144.6533203125
-150.146484375
-140.07568359375
-136.41357421875
-133.6669921875
-144.6533203125
-137.3291015625
-140.07568359375
-139.16015625
-131.8359375
-130.92041015625
-119.0185546875
-124.51171875
-128.173828125
-127.25830078125
-134.58251953125
-126.3427734375
-133.6669921875
-142.822265625
-142.822265625
-153.80859375
-151.06201171875
-132.75146484375
-132.75146484375
-124.51171875
-123.59619140625
-121.76513671875
-124.51171875
-125.42724609375
-129.08935546875
-126.3427734375
-126.3427734375
-130.92041015625
-134.58251953125
-124.51171875
-132.75146484375
-138.24462890625
-134.58251953125
-131.8359375
-129.08935546875
-137.3291015625
-137.3291015625
-132.75146484375
-130.92041015625
-140.9912109375
-137.3291015625
-129.08935546875
-135.498046875
-139.16015625
-141.90673828125
-135.498046875
-134.58251953125
-135.498046875
-131.8359375
-133.6669921875
-134.58251953125
-129.08935546875
-130.92041015625
-139.16015625
-143.73779296875
-144.6533203125
-139.16015625
-131.8359375
-132.75146484375
-133.6669921875
-144.6533203125
-147.39990234375
-151.06201171875
-147.39990234375
-144.6533203125
-155.6396484375
-166.6259765625
-166.6259765625
-162.04833984375
-169.37255859375
-149.23095703125
-140.9912109375
-148.3154296875
-148.3154296875
-144.6533203125
-143.73779296875
-140.07568359375
-148.3154296875
-146.484375
-150.146484375
-148.3154296875
-151.06201171875
-148.3154296875
-163.87939453125
-170.2880859375
-174.86572265625
-173.9501953125
-162.04833984375
-169.37255859375
-180.35888671875
-161.1328125
-146.484375
-151.9775390625
-150.146484375
-148.3154296875
-150.146484375
-150.146484375
-153.80859375
-151.9775390625
-165.71044921875
-149.23095703125
-169.37255859375
-180.35888671875
-180.35888671875
-173.9501953125
-165.71044921875
-162.9638671875
-155.6396484375
-147.39990234375
-153.80859375
-157.470703125
-147.39990234375
-148.3154296875
-155.6396484375
-155.6396484375
-154.72412109375
-157.470703125
-162.04833984375
-170.2880859375
-174.86572265625
-173.03466796875
-172.119140625
-169.37255859375
-162.9638671875
-168.45703125
-167.54150390625
-153.80859375
-160.21728515625
-165.71044921875
-162.04833984375
-170.2880859375
-165.71044921875
-171.20361328125
-169.37255859375
-158.38623046875
-154.72412109375
-158.38623046875
-157.470703125
-162.9638671875
-165.71044921875
-171.20361328125
-173.9501953125
-172.119140625
-174.86572265625
-164.794921875
-159.3017578125
-164.794921875
-162.9638671875
-158.38623046875
-152.89306640625
-156.55517578125
-148.3154296875
-126.3427734375
-110.77880859375
-102.5390625
-105.28564453125
-106.201171875
-105.28564453125
-109.86328125
-116.27197265625
-99.79248046875
-79.65087890625
-65.91796875
-61.34033203125
-47.607421875
-28.38134765625
-44.86083984375
-42.1142578125
-40.283203125
-37.53662109375
-38.4521484375
-37.53662109375
-54.01611328125
-66.83349609375
-74.15771484375
-66.83349609375
-66.83349609375
-85.14404296875
-103.45458984375
-114.44091796875
-132.75146484375
-140.07568359375
-145.56884765625
-156.55517578125
-151.9775390625
-155.6396484375
-161.1328125
-156.55517578125
-169.37255859375
-176.69677734375
-177.6123046875
-184.9365234375
-186.767578125
-179.443359375
-181.2744140625
-178.52783203125
-180.35888671875
-184.9365234375
-171.20361328125
-167.54150390625
-188.5986328125
-188.5986328125
-175.78125
-178.52783203125
-183.10546875
-184.9365234375
-183.10546875
-184.9365234375
-186.767578125
-173.9501953125
-173.03466796875
-181.2744140625
-191.34521484375
-186.767578125
-188.5986328125
-196.83837890625
-195.9228515625
-185.85205078125
-177.6123046875
-174.86572265625
-182.18994140625
-183.10546875
-175.78125
-177.6123046875
-175.78125
-178.52783203125
-179.443359375
-176.69677734375
-183.10546875
-179.443359375
-180.35888671875
-192.2607421875
-203.2470703125
-194.091796875
-194.091796875
-203.2470703125
-218.81103515625
-230.712890625
-228.8818359375
-215.14892578125
-197.75390625
-168.45703125
-142.822265625
-90.63720703125
3.662109375
122.6806640625
231.62841796875
334.16748046875
431.21337890625
540.1611328125
661.0107421875
780.029296875
870.66650390625
955.810546875
1004.33349609375
1019.8974609375
1012.5732421875
927.42919921875
734.2529296875
501.708984375
332.33642578125
190.4296875
79.65087890625
1.8310546875
-28.38134765625
-39.36767578125
-56.7626953125
-72.32666015625
-86.0595703125
-90.63720703125
-103.45458984375
-110.77880859375
-109.86328125
-117.1875
-129.08935546875
-132.75146484375
-128.173828125
-143.73779296875
-148.3154296875
-151.06201171875
-151.9775390625
-146.484375
-158.38623046875
-159.3017578125
-152.89306640625
-162.9638671875
-150.146484375
-143.73779296875
-143.73779296875
-145.56884765625
-148.3154296875
-143.73779296875
-150.146484375
-144.6533203125
-138.24462890625
-142.822265625
-140.07568359375
-136.41357421875
-131.8359375
-142.822265625
-142.822265625
-143.73779296875
-146.484375
-147.39990234375
-144.6533203125
-135.498046875
-128.173828125
-132.75146484375
-136.41357421875
-124.51171875
-112.60986328125
-122.6806640625
-129.08935546875
-125.42724609375
-127.25830078125
-119.93408203125
-111.6943359375
-100.7080078125
-99.79248046875
-109.86328125
-104.3701171875
-108.0322265625
-110.77880859375
-108.0322265625
-107.11669921875
-111.6943359375
-124.51171875
-137.3291015625
-116.27197265625
-104.3701171875
-103.45458984375
-98.876953125
-83.31298828125
-80.56640625
-70.49560546875
-69.580078125
-59.50927734375
-64.0869140625
-64.0869140625
-53.1005859375
-53.1005859375
-49.4384765625
-41.19873046875
-40.283203125
-28.38134765625
-28.38134765625
-21.97265625
-6.40869140625
-8.23974609375
-11.90185546875
-6.40869140625
3.662109375
0.91552734375
-6.40869140625
-1.8310546875
20.1416015625
37.53662109375
43.02978515625
49.4384765625
54.931640625
58.59375
73.2421875
75.0732421875
67.7490234375
81.48193359375
80.56640625
93.3837890625
89.7216796875
89.7216796875
92.46826171875
95.21484375
109.86328125
105.28564453125
118.10302734375
125.42724609375
149.23095703125
145.56884765625
150.146484375
154.72412109375
156.55517578125
173.03466796875
176.69677734375
174.86572265625
160.21728515625
154.72412109375
163.87939453125
166.6259765625
166.6259765625
165.71044921875
150.146484375
137.3291015625
126.3427734375
114.44091796875
89.7216796875
81.48193359375
68.66455078125
56.7626953125
35.70556640625
28.38134765625
15.56396484375
-5.4931640625
-12.8173828125
-22.88818359375
-46.69189453125
-58.59375
-73.2421875
-65.91796875
-66.83349609375
-81.48193359375
-93.3837890625
-88.80615234375
-97.96142578125
-108.94775390625
-119.93408203125
-124.51171875
-122.6806640625
-122.6806640625
-121.76513671875
-127.25830078125
-136.41357421875
-140.07568359375
-147.39990234375
-155.6396484375
-154.72412109375
-149.23095703125
-148.3154296875
-140.07568359375
-127.25830078125
-130.92041015625
-127.25830078125
-132.75146484375
-141.90673828125
-159.3017578125
-153.80859375
-130.92041015625
-123.59619140625
-134.58251953125
-130.92041015625
-125.42724609375
-118.10302734375
-139.16015625
-137.3291015625
-132.75146484375
-123.59619140625
-108.0322265625
-120.849609375
-132.75146484375
-133.6669921875
-122.6806640625
-117.1875
-113.525390625
-106.201171875
-124.51171875
-124.51171875
-119.93408203125
-120.849609375
-117.1875
-104.3701171875
-106.201171875
-118.10302734375
-126.3427734375
-130.0048828125
-140.9912109375
-126.3427734375
-114.44091796875
-126.3427734375
-112.60986328125
-102.5390625
-105.28564453125
-114.44091796875
-114.44091796875
-119.93408203125
-130.0048828125
-131.8359375
-125.42724609375
-121.76513671875
-128.173828125
-137.3291015625
-147.39990234375
-140.9912109375
-131.8359375
-130.0048828125
-134.58251953125
-133.6669921875
-137.3291015625
-134.58251953125
-146.484375
-145.56884765625
-132.75146484375
-135.498046875
-142.822265625
-130.92041015625
-125.42724609375
-147.39990234375
-152.89306640625
-151.06201171875
-148.3154296875
-155.6396484375
-156.55517578125
-147.39990234375
-130.0048828125
-145.56884765625
-150.146484375
-148.3154296875
-152.89306640625
-157.470703125
-162.04833984375
-140.07568359375
-136.41357421875
-127.25830078125
-128.173828125
-129.08935546875
-139.16015625
-140.07568359375
-140.07568359375
-142.822265625
-152.89306640625
-158.38623046875
-150.146484375
-157.470703125
-154.72412109375
-157.470703125
-161.1328125
-169.37255859375
-172.119140625
-160.21728515625
-151.9775390625
-157.470703125
-162.04833984375
-168.45703125
-162.04833984375
-162.9638671875
-159.3017578125
-152.89306640625
-157.470703125
-153.80859375
-162.04833984375
-165.71044921875
-152.89306640625
-165.71044921875
-175.78125
-178.52783203125
-179.443359375
-162.04833984375
-153.80859375
-160.21728515625
-159.3017578125
-155.6396484375
-154.72412109375
-158.38623046875
-160.21728515625
-166.6259765625
-166.6259765625
-169.37255859375
-169.37255859375
-159.3017578125
-162.9638671875
-165.71044921875
-153.80859375
-157.470703125
-158.38623046875
-162.9638671875
-147.39990234375
-149.23095703125
-155.6396484375
-159.3017578125
-149.23095703125
-151.06201171875
-151.9775390625
-122.6806640625
-94.29931640625
-109.86328125
-120.849609375
-127.25830078125
-122.6806640625
-130.92041015625
-115.3564453125
-115.3564453125
-90.63720703125
-70.49560546875
-52.18505859375
-65.00244140625
-61.34033203125
-54.931640625
-45.7763671875
-54.931640625
-62.255859375
-52.18505859375
-65.91796875
-68.66455078125
-66.83349609375
-83.31298828125
-96.13037109375
-97.96142578125
-97.96142578125
-109.86328125
-127.25830078125
-128.173828125
-130.92041015625
-140.9912109375
-149.23095703125
-153.80859375
-162.04833984375
-164.794921875
-161.1328125
-162.04833984375
-177.6123046875
-189.51416015625
-178.52783203125
-184.02099609375
-160.21728515625
-166.6259765625
-173.9501953125
-178.52783203125
-179.443359375
-189.51416015625
-193.17626953125
-188.5986328125
-184.02099609375
-185.85205078125
-195.00732421875
-199.5849609375
-196.83837890625
-199.5849609375
-197.75390625
-204.16259765625
-189.51416015625
-170.2880859375
-171.20361328125
-176.69677734375
-187.68310546875
-193.17626953125
-201.416015625
-206.9091796875
-191.34521484375
-183.10546875
-195.00732421875
-195.9228515625
-202.33154296875
-191.34521484375
-185.85205078125
-205.99365234375
-201.416015625
-198.66943359375
-196.83837890625
-188.5986328125
-186.767578125
-174.86572265625
-172.119140625
-181.2744140625
-193.17626953125
-196.83837890625
-205.078125
-214.2333984375
-227.05078125
-239.8681640625
-234.375
-220.64208984375
-191.34521484375
-158.38623046875
-124.51171875
-46.69189453125
65.91796875
184.02099609375
272.8271484375
374.45068359375
469.66552734375
607.91015625
750.732421875
846.86279296875
934.75341796875
988.76953125
1012.5732421875
993.34716796875
919.189453125
764.46533203125
545.654296875
363.46435546875
221.5576171875
107.11669921875
15.56396484375
-15.56396484375
-31.1279296875
-44.86083984375
-60.4248046875
-75.98876953125
-70.49560546875
-89.7216796875
-102.5390625
-110.77880859375
-119.93408203125
-124.51171875
-123.59619140625
-110.77880859375
-119.93408203125
-135.498046875
-138.24462890625
-144.6533203125
-144.6533203125
-154.72412109375
-148.3154296875
-151.06201171875
-143.73779296875
-150.146484375
-158.38623046875
-148.3154296875
-148.3154296875
-155.6396484375
-152.89306640625
-143.73779296875
-155.6396484375
-151.06201171875
-148.3154296875
-161.1328125
-151.9775390625
-137.3291015625
-119.0185546875
-135.498046875
-135.498046875
-149.23095703125
-160.21728515625
-158.38623046875
-137.3291015625
-124.51171875
-114.44091796875
-118.10302734375
-111.6943359375
-118.10302734375
-119.93408203125
-119.0185546875
-121.76513671875
-122.6806640625
-124.51171875
-112.60986328125
-108.0322265625
-102.5390625
-99.79248046875
-100.7080078125
-88.80615234375
-97.0458984375
-106.201171875
-98.876953125
-101.62353515625
-91.552734375
-82.3974609375
-93.3837890625
-91.552734375
-88.80615234375
-86.97509765625
-90.63720703125
-85.14404296875
-72.32666015625
-84.228515625
-71.4111328125
-54.931640625
-61.34033203125
-46.69189453125
-43.9453125
-43.9453125
-43.02978515625
-32.958984375
-34.7900390625
-43.02978515625
-44.86083984375
-38.4521484375
-30.21240234375
-21.05712890625
-3.662109375
7.32421875
12.8173828125
22.88818359375
34.7900390625
46.69189453125
45.7763671875
49.4384765625
64.0869140625
66.83349609375
65.00244140625
72.32666015625
65.91796875
76.904296875
94.29931640625
99.79248046875
97.96142578125
113.525390625
115.3564453125
124.51171875
136.41357421875
136.41357421875
135.498046875
140.07568359375
142.822265625
158.38623046875
148.3154296875
156.55517578125
159.3017578125
159.3017578125
168.45703125
153.80859375
153.80859375
162.04833984375
164.794921875
161.1328125
150.146484375
151.9775390625
151.9775390625
137.3291015625
122.6806640625
99.79248046875
96.13037109375
96.13037109375
87.890625
65.00244140625
42.1142578125
44.86083984375
30.21240234375
4.57763671875
-13.73291015625
-17.39501953125
-26.55029296875
-38.4521484375
-40.283203125
-59.50927734375
-62.255859375
-72.32666015625
-81.48193359375
-91.552734375
-91.552734375
-97.96142578125
-104.3701171875
-107.11669921875
-104.3701171875
-113.525390625
-120.849609375
-119.0185546875
-119.0185546875
-120.849609375
-125.42724609375
-135.498046875
-133.6669921875
-115.3564453125
-113.525390625
-120.849609375
-115.3564453125
-123.59619140625
-128.173828125
-126.3427734375
-126.3427734375
-137.3291015625
-140.9912109375
-132.75146484375
-131.8359375
-127.25830078125
-132.75146484375
-127.25830078125
-126.3427734375
-132.75146484375
-117.1875
-104.3701171875
-120.849609375
-124.51171875
-120.849609375
-129.08935546875
-142.822265625
-137.3291015625
-137.3291015625
-119.93408203125
-118.10302734375
-118.10302734375
-121.76513671875
-113.525390625
-108.0322265625
-109.86328125
-117.1875
-124.51171875
-121.76513671875
-125.42724609375
-119.93408203125
-120.849609375
-117.1875
-109.86328125
-116.27197265625
-122.6806640625
-125.42724609375
-118.10302734375
-118.10302734375
-119.93408203125
-116.27197265625
-101.62353515625
-106.201171875
-108.94775390625
-101.62353515625
-108.94775390625
-118.10302734375
-119.0185546875
-121.76513671875
-125.42724609375
-128.173828125
-120.849609375
-119.93408203125
-126.3427734375
-136.41357421875
-148.3154296875
-125.42724609375
-125.42724609375
-133.6669921875
-131.8359375
-124.51171875
-132.75146484375
-140.9912109375
-133.6669921875
-135.498046875
-136.41357421875
-135.498046875
-140.9912109375
-138.24462890625
-140.07568359375
-130.0048828125
-125.42724609375
-140.07568359375
-140.9912109375
-139.16015625
-144.6533203125
-144.6533203125
-138.24462890625
-136.41357421875
-141.90673828125
-147.39990234375
-141.90673828125
-137.3291015625
-130.92041015625
-131.8359375
-140.07568359375
-149.23095703125
-141.90673828125
-140.07568359375
-141.90673828125
-140.07568359375
-142.822265625
-143.73779296875
-142.822265625
-142.822265625
-138.24462890625
-135.498046875
-140.07568359375
-140.9912109375
-141.90673828125
-142.822265625
-139.16015625
-142.822265625
-149.23095703125
-135.498046875
-127.25830078125
-157.470703125
-163.87939453125
-150.146484375
-140.07568359375
-141.90673828125
-141.90673828125
-142.822265625
-147.39990234375
-142.822265625
-142.822265625
-137.3291015625
-140.9912109375
-134.58251953125
-140.07568359375
-142.822265625
-145.56884765625
-141.90673828125
-141.90673828125
-145.56884765625
-148.3154296875
-151.9775390625
-150.146484375
-154.72412109375
-154.72412109375
-162.04833984375
-151.9775390625
-151.9775390625
-139.16015625
-139.16015625
-150.146484375
-143.73779296875
-147.39990234375
-149.23095703125
-150.146484375
-163.87939453125
-166.6259765625
-155.6396484375
-147.39990234375
-160.21728515625
-166.6259765625
-170.2880859375
-173.9501953125
-167.54150390625
-153.80859375
-153.80859375
-130.0048828125
-129.08935546875
-130.0048828125
-128.173828125
-135.498046875
-130.0048828125
-115.3564453125
-97.96142578125
-90.63720703125
-98.876953125
-105.28564453125
-96.13037109375
-101.62353515625
-108.0322265625
-86.97509765625
-86.97509765625
-70.49560546875
-40.283203125
-33.87451171875
-40.283203125
-28.38134765625
-31.1279296875
-32.958984375
-39.36767578125
-43.9453125
-40.283203125
-50.35400390625
-55.84716796875
-62.255859375
-68.66455078125
-68.66455078125
-79.65087890625
-92.46826171875
-99.79248046875
-127.25830078125
-130.92041015625
-137.3291015625
-146.484375
-147.39990234375
-139.16015625
-142.822265625
-158.38623046875
-167.54150390625
-164.794921875
-174.86572265625
-180.35888671875
-175.78125
-170.2880859375
-173.03466796875
-187.68310546875
-174.86572265625
-183.10546875
-177.6123046875
-174.86572265625
-186.767578125
-190.4296875
-176.69677734375
-174.86572265625
-164.794921875
-166.6259765625
-168.45703125
-170.2880859375
-178.52783203125
-169.37255859375
-158.38623046875
-163.87939453125
-168.45703125
-167.54150390625
-175.78125
-162.04833984375
-155.6396484375
-161.1328125
-168.45703125
-175.78125
-185.85205078125
-186.767578125
-175.78125
-176.69677734375
-173.03466796875
-164.794921875
-171.20361328125
-174.86572265625
-183.10546875
-175.78125
-171.20361328125
-173.9501953125
-184.9365234375
-176.69677734375
-181.2744140625
-190.4296875
-196.83837890625
-198.66943359375
-211.48681640625
-225.2197265625
-225.2197265625
-205.99365234375
-164.794921875
-134.58251953125
-101.62353515625
-35.70556640625
82.3974609375
195.9228515625
289.306640625
384.521484375
487.060546875
620.7275390625
750.732421875
852.35595703125
933.837890625
1001.5869140625
1033.63037109375
1017.15087890625
946.6552734375
796.5087890625
574.951171875
365.29541015625
217.8955078125
111.6943359375
38.4521484375
3.662109375
-11.90185546875
-34.7900390625
-51.26953125
-49.4384765625
-65.91796875
-82.3974609375
-87.890625
-105.28564453125
-102.5390625
-117.1875
-114.44091796875
-111.6943359375
-108.94775390625
-114.44091796875
-127.25830078125
-136.41357421875
-138.24462890625
-135.498046875
-143.73779296875
-133.6669921875
-131.8359375
-144.6533203125
-143.73779296875
-139.16015625
-137.3291015625
-135.498046875
-125.42724609375
-114.44091796875
-123.59619140625
-126.3427734375
-138.24462890625
-133.6669921875
-126.3427734375
-115.3564453125
-119.0185546875
-123.59619140625
-122.6806640625
-122.6806640625
-116.27197265625
-108.0322265625
-104.3701171875
-118.10302734375
-113.525390625
-111.6943359375
-109.86328125
-124.51171875
-109.86328125
-90.63720703125
-94.29931640625
-98.876953125
-99.79248046875
-103.45458984375
-101.62353515625
-97.96142578125
-97.0458984375
-94.29931640625
-86.0595703125
-96.13037109375
-87.890625
-84.228515625
-75.0732421875
-81.48193359375
-85.14404296875
-75.98876953125
-75.98876953125
-73.2421875
-70.49560546875
-65.91796875
-56.7626953125
-45.7763671875
-43.02978515625
-56.7626953125
-43.9453125
-33.87451171875
-49.4384765625
-40.283203125
-30.21240234375
-16.4794921875
-17.39501953125
-12.8173828125
-10.07080078125
-8.23974609375
-13.73291015625
-0.91552734375
-7.32421875
9.1552734375
17.39501953125
26.55029296875
25.634765625
34.7900390625
48.52294921875
54.931640625
50.35400390625
55.84716796875
73.2421875
72.32666015625
67.7490234375
84.228515625
88.80615234375
93.3837890625
112.60986328125
113.525390625
114.44091796875
128.173828125
134.58251953125
131.8359375
129.08935546875
140.07568359375
149.23095703125
165.71044921875
161.1328125
158.38623046875
176.69677734375
184.02099609375
180.35888671875
173.03466796875
177.6123046875
188.5986328125
190.4296875
189.51416015625
180.35888671875
175.78125
172.119140625
158.38623046875
153.80859375
151.06201171875
142.822265625
124.51171875
108.94775390625
108.94775390625
96.13037109375
86.0595703125
69.580078125
57.67822265625
27.4658203125
21.05712890625
10.07080078125
-0.91552734375
-13.73291015625
-21.97265625
-32.958984375
-61.34033203125
-77.81982421875
-77.81982421875
-75.0732421875
-84.228515625
-80.56640625
-94.29931640625
-98.876953125
-98.876953125
-98.876953125
-106.201171875
-101.62353515625
-110.77880859375
-111.6943359375
-119.0185546875
-126.3427734375
-125.42724609375
-123.59619140625
-122.6806640625
-119.93408203125
-116.27197265625
-130.0048828125
-131.8359375
-139.16015625
-138.24462890625
-137.3291015625
-131.8359375
-122.6806640625
-116.27197265625
-117.1875
-130.0048828125
-124.51171875
-123.59619140625
-138.24462890625
-137.3291015625
-129.08935546875
-124.51171875
-117.1875
-113.525390625
-107.11669921875
-111.6943359375
-118.10302734375
-118.10302734375
-128.173828125
-148.3154296875
-131.8359375
-117.1875
-114.44091796875
-106.201171875
-102.5390625
-100.7080078125
-97.0458984375
-101.62353515625
-111.6943359375
-118.10302734375
-115.3564453125
-105.28564453125
-106.201171875
-111.6943359375
-120.849609375
-113.525390625
-108.94775390625
-108.94775390625
-119.0185546875
-112.60986328125
-113.525390625
-112.60986328125
-115.3564453125
-115.3564453125
-118.10302734375
-133.6669921875
-129.08935546875
-112.60986328125
-122.6806640625
-120.849609375
-122.6806640625
-130.0048828125
-127.25830078125
-114.44091796875
-122.6806640625
-128.173828125
-121.76513671875
-117.1875
-116.27197265625
-123.59619140625
-125.42724609375
-121.76513671875
-126.3427734375
-138.24462890625
-144.6533203125
-134.58251953125
-140.9912109375
-139.16015625
-146.484375
-140.9912109375
-142.822265625
-140.9912109375
-125.42724609375
-123.59619140625
-130.0048828125
-132.75146484375
-129.08935546875
-120.849609375
-121.76513671875
-125.42724609375
-127.25830078125
-132.75146484375
-130.0048828125
-128.173828125
-130.92041015625
-135.498046875
-137.3291015625
-133.6669921875
-132.75146484375
-142.822265625
-144.6533203125
-142.822265625
-147.39990234375
-146.484375
-151.06201171875
-137.3291015625
-132.75146484375
-143.73779296875
-140.07568359375
-137.3291015625
-147.39990234375
-142.822265625
-141.90673828125
-138.24462890625
-139.16015625
-128.173828125
-135.498046875
-145.56884765625
-151.9775390625
-158.38623046875
-147.39990234375
-152.89306640625
-150.146484375
-159.3017578125
-152.89306640625
-148.3154296875
-156.55517578125
-141.90673828125
-128.173828125
-138.24462890625
-136.41357421875
-142.822265625
-144.6533203125
-129.08935546875
-140.07568359375
-143.73779296875
-146.484375
-137.3291015625
-141.90673828125
-147.39990234375
-131.8359375
-123.59619140625
-130.92041015625
-132.75146484375
-130.92041015625
-134.58251953125
-137.3291015625
-142.822265625
-148.3154296875
-140.07568359375
-134.58251953125
-137.3291015625
-147.39990234375
-141.90673828125
-135.498046875
-139.16015625
-139.16015625
-140.9912109375
-151.9775390625
-139.16015625
-139.16015625
-147.39990234375
-148.3154296875
-147.39990234375
-144.6533203125
-141.90673828125
-133.6669921875
-133.6669921875
-142.822265625
-147.39990234375
-136.41357421875
-137.3291015625
-126.3427734375
-119.93408203125
-119.93408203125
-130.0048828125
-135.498046875
-110.77880859375
-106.201171875
-90.63720703125
-84.228515625
-95.21484375
-86.97509765625
-82.3974609375
-96.13037109375
-89.7216796875
-88.80615234375
-83.31298828125
-65.91796875
-54.01611328125
-32.958984375
-22.88818359375
-40.283203125
-29.296875
-29.296875
-42.1142578125
-34.7900390625
-48.52294921875
-51.26953125
-46.69189453125
-47.607421875
-77.81982421875
-107.11669921875
-111.6943359375
-110.77880859375
-130.92041015625
-127.25830078125
-127.25830078125
-120.849609375
-123.59619140625
-126.3427734375
-133.6669921875
-143.73779296875
-145.56884765625
-139.16015625
-151.06201171875
-166.6259765625
-161.1328125
-170.2880859375
-167.54150390625
-167.54150390625
-164.794921875
-163.87939453125
-158.38623046875
-148.3154296875
-162.9638671875
-165.71044921875
-154.72412109375
-162.04833984375
-170.2880859375
-178.52783203125
-167.54150390625
-176.69677734375
-174.86572265625
-160.21728515625
-165.71044921875
-151.06201171875
-158.38623046875
-161.1328125
-162.9638671875
-156.55517578125
-154.72412109375
-151.9775390625
-152.89306640625
-170.2880859375
-181.2744140625
-181.2744140625
-176.69677734375
-172.119140625
-168.45703125
-155.6396484375
-156.55517578125
-154.72412109375
-159.3017578125
-162.04833984375
-153.80859375
-161.1328125
-158.38623046875
-152.89306640625
-163.87939453125
-166.6259765625
-172.119140625
-188.5986328125
-199.5849609375
-216.97998046875
-207.82470703125
-200.50048828125
-173.03466796875
-139.16015625
-113.525390625
-59.50927734375
37.53662109375
159.3017578125
252.685546875
349.7314453125
446.77734375
564.88037109375
692.138671875
808.41064453125
909.11865234375
979.6142578125
1015.31982421875
1021.728515625
1006.16455078125
891.7236328125
708.6181640625
469.66552734375
298.4619140625
166.6259765625
75.0732421875
11.90185546875
-9.1552734375
-24.71923828125
-39.36767578125
-43.9453125
-59.50927734375
-77.81982421875
-84.228515625
-91.552734375
-100.7080078125
-101.62353515625
-110.77880859375
-117.1875
-124.51171875
-120.849609375
-129.08935546875
-136.41357421875
-132.75146484375
-136.41357421875
-132.75146484375
-132.75146484375
-138.24462890625
-149.23095703125
-152.89306640625
-149.23095703125
-153.80859375
-149.23095703125
-153.80859375
-153.80859375
-138.24462890625
-120.849609375
-119.0185546875
-123.59619140625
-110.77880859375
-105.28564453125
-105.28564453125
-108.0322265625
-108.94775390625
-108.94775390625
-119.0185546875
-119.93408203125
-120.849609375
-130.92041015625
-127.25830078125
-129.08935546875
-134.58251953125
-125.42724609375
-103.45458984375
-102.5390625
-89.7216796875
-85.14404296875
-88.80615234375
-92.46826171875
-96.13037109375
-103.45458984375
-116.27197265625
-104.3701171875
-94.29931640625
-87.890625
-84.228515625
-79.65087890625
-94.29931640625
-98.876953125
-88.80615234375
-65.00244140625
-74.15771484375
-65.91796875
-64.0869140625
-80.56640625
-79.65087890625
-72.32666015625
-68.66455078125
-52.18505859375
-43.02978515625
-36.62109375
-36.62109375
-29.296875
-33.87451171875
-36.62109375
-32.958984375
-28.38134765625
-12.8173828125
-4.57763671875
1.8310546875
-0.91552734375
7.32421875
10.986328125
15.56396484375
16.4794921875
16.4794921875
32.04345703125
40.283203125
37.53662109375
44.86083984375
50.35400390625
54.01611328125
65.91796875
75.98876953125
78.7353515625
85.14404296875
88.80615234375
102.5390625
108.94775390625
114.44091796875
118.10302734375
121.76513671875
127.25830078125
138.24462890625
159.3017578125
151.9775390625
146.484375
167.54150390625
163.87939453125
159.3017578125
169.37255859375
170.2880859375
182.18994140625
176.69677734375
174.86572265625
189.51416015625
195.9228515625
197.75390625
179.443359375
179.443359375
179.443359375
169.37255859375
160.21728515625
159.3017578125
148.3154296875
127.25830078125
111.6943359375
106.201171875
87.890625
79.65087890625
65.91796875
43.02978515625
23.8037109375
18.310546875
5.4931640625
-13.73291015625
-16.4794921875
-20.1416015625
-27.4658203125
-45.7763671875
-54.01611328125
-56.7626953125
-70.49560546875
-102.5390625
-105.28564453125
-97.96142578125
-91.552734375
-100.7080078125
-111.6943359375
-103.45458984375
-108.0322265625
-115.3564453125
-119.0185546875
-114.44091796875
-119.93408203125
-114.44091796875
-119.93408203125
-124.51171875
-123.59619140625
-112.60986328125
-121.76513671875
-131.8359375
-128.173828125
-115.3564453125
-119.0185546875
-130.0048828125
-122.6806640625
-121.76513671875
-119.0185546875
-115.3564453125
-119.93408203125
-120.849609375
-128.173828125
-130.92041015625
-123.59619140625
-118.10302734375
-120.849609375
-130.0048828125
-128.173828125
-113.525390625
-108.0322265625
-112.60986328125
-107.11669921875
-111.6943359375
-116.27197265625
-125.42724609375
-133.6669921875
-125.42724609375
-127.25830078125
-122.6806640625
-108.94775390625
-114.44091796875
-117.1875
-107.11669921875
-105.28564453125
-120.849609375
-127.25830078125
-119.0185546875
-109.86328125
-108.94775390625
-110.77880859375
-114.44091796875
-122.6806640625
-121.76513671875
-121.76513671875
-118.10302734375
-113.525390625
-113.525390625
-119.93408203125
-121.76513671875
-123.59619140625
-121.76513671875
-128.173828125
-127.25830078125
-131.8359375
-125.42724609375
-129.08935546875
-130.0048828125
-127.25830078125
-123.59619140625
-125.42724609375
-115.3564453125
-117.1875
-133.6669921875
-143.73779296875
-144.6533203125
-142.822265625
-130.92041015625
-124.51171875
-122.6806640625
-130.0048828125
-132.75146484375
-132.75146484375
-127.25830078125
-134.58251953125
-145.56884765625
-136.41357421875
-132.75146484375
-139.16015625
-145.56884765625
-139.16015625
-135.498046875
-130.92041015625
-136.41357421875
-143.73779296875
-148.3154296875
-141.90673828125
-142.822265625
-133.6669921875
-130.92041015625
-140.07568359375
-155.6396484375
-148.3154296875
-147.39990234375
-148.3154296875
-154.72412109375
-145.56884765625
-148.3154296875
-154.72412109375
-140.9912109375
-140.9912109375
-141.90673828125
-147.39990234375
-146.484375
-150.146484375
-143.73779296875
-135.498046875
-143.73779296875
-152.89306640625
-157.470703125
-151.9775390625
-156.55517578125
-158.38623046875
-151.9775390625
-150.146484375
-151.9775390625
-148.3154296875
-146.484375
-140.07568359375
-149.23095703125
-158.38623046875
-151.9775390625
-146.484375
-148.3154296875
-148.3154296875
-154.72412109375
-151.06201171875
-157.470703125
-155.6396484375
-154.72412109375
-151.9775390625
-151.06201171875
-159.3017578125
-152.89306640625
-138.24462890625
-144.6533203125
-146.484375
-146.484375
-132.75146484375
-138.24462890625
-146.484375
-142.822265625
-139.16015625
-151.06201171875
-148.3154296875
-146.484375
-138.24462890625
-146.484375
-148.3154296875
-152.89306640625
-153.80859375
-144.6533203125
-134.58251953125
-135.498046875
-133.6669921875
-151.06201171875
-153.80859375
-150.146484375
-149.23095703125
-155.6396484375
-151.06201171875
-144.6533203125
-129.08935546875
-124.51171875
-134.58251953125
-147.39990234375
-141.90673828125
-141.90673828125
-135.498046875
-108.94775390625
-94.29931640625
-103.45458984375
-108.94775390625
-102.5390625
-102.5390625
-109.86328125
-106.201171875
-100.7080078125
-98.876953125
-70.49560546875
-59.50927734375
-67.7490234375
-50.35400390625
-43.02978515625
-47.607421875
-54.01611328125
-35.70556640625
-49.4384765625
-71.4111328125
-59.50927734375
-54.01611328125
-69.580078125
-86.0595703125
-85.14404296875
-86.0595703125
-107.11669921875
-120.849609375
-130.0048828125
-126.3427734375
-125.42724609375
-126.3427734375
-144.6533203125
-145.56884765625
-147.39990234375
-162.04833984375
-174.86572265625
-164.794921875
-146.484375
-160.21728515625
-162.9638671875
-158.38623046875
-157.470703125
-151.06201171875
-171.20361328125
-171.20361328125
-168.45703125
-161.1328125
-169.37255859375
-169.37255859375
-172.119140625
-165.71044921875
-170.2880859375
-170.2880859375
-175.78125
-173.03466796875
-181.2744140625
-169.37255859375
-173.9501953125
-174.86572265625
-157.470703125
-162.9638671875
-165.71044921875
-169.37255859375
-164.794921875
-161.1328125
-158.38623046875
-165.71044921875
-172.119140625
-178.52783203125
-171.20361328125
-165.71044921875
-173.03466796875
-178.52783203125
-179.443359375
-178.52783203125
-180.35888671875
-175.78125
-179.443359375
-169.37255859375
-168.45703125
-183.10546875
-183.10546875
-189.51416015625
-214.2333984375
-226.13525390625
-213.31787109375
-191.34521484375
-177.6123046875
-149.23095703125
-103.45458984375
-35.70556640625
65.91796875
180.35888671875
287.4755859375
384.521484375
475.15869140625
595.0927734375
725.09765625
830.38330078125
932.92236328125
996.09375
1021.728515625
1031.79931640625
979.6142578125
822.1435546875
595.0927734375
396.42333984375
260.009765625
124.51171875
33.87451171875
-14.6484375
-25.634765625
-36.62109375
-58.59375
-88.80615234375
-92.46826171875
-82.3974609375
-95.21484375
-102.5390625
-112.60986328125
-116.27197265625
-123.59619140625
-127.25830078125
-130.0048828125
-126.3427734375
-130.92041015625
-129.08935546875
-125.42724609375
-132.75146484375
-138.24462890625
-130.92041015625
-129.08935546875
-132.75146484375
-132.75146484375
-141.90673828125
-140.07568359375
-138.24462890625
-131.8359375
-134.58251953125
-133.6669921875
-130.92041015625
-132.75146484375
-130.92041015625
-134.58251953125
-136.41357421875
-144.6533203125
-147.39990234375
-137.3291015625
-133.6669921875
-128.173828125
