ECG
276.4892578125
292.96875
295.71533203125
290.22216796875
290.22216796875
286.56005859375
258.1787109375
241.69921875
242.61474609375
249.0234375
270.99609375
301.20849609375
325.927734375
386.3525390625
501.708984375
611.572265625
721.435546875
831.298828125
920.10498046875
1032.71484375
1166.3818359375
1289.0625
1392.51708984375
1481.3232421875
1527.099609375
1549.98779296875
1532.5927734375
1423.64501953125
1224.9755859375
971.37451171875
802.001953125
648.193359375
526.42822265625
458.67919921875
434.87548828125
425.72021484375
403.74755859375
399.169921875
380.859375
370.78857421875
365.29541015625
371.7041015625
349.7314453125
332.33642578125
340.576171875
330.50537109375
325.01220703125
326.84326171875
321.35009765625
309.4482421875
308.53271484375
306.70166015625
314.94140625
314.02587890625
287.4755859375
278.3203125
294.7998046875
307.6171875
291.1376953125
293.88427734375
303.955078125
309.4482421875
310.36376953125
341.49169921875
338.7451171875
331.4208984375
325.927734375
333.251953125
334.16748046875
321.35009765625
321.35009765625
331.4208984375
335.99853515625
346.98486328125
344.23828125
321.35009765625
325.927734375
331.4208984375
339.66064453125
322.265625
321.35009765625
314.02587890625
312.19482421875
306.70166015625
308.53271484375
307.6171875
302.1240234375
307.6171875
316.7724609375
319.51904296875
330.50537109375
324.0966796875
313.1103515625
320.4345703125
320.4345703125
323.18115234375
324.0966796875
322.265625
330.50537109375
338.7451171875
336.9140625
332.33642578125
332.33642578125
343.32275390625
354.30908203125
355.224609375
339.66064453125
344.23828125
347.900390625
342.4072265625
351.5625
368.95751953125
378.11279296875
367.12646484375
380.859375
400.08544921875
395.5078125
415.6494140625
432.12890625
432.12890625
439.453125
445.86181640625
448.6083984375
445.86181640625
440.36865234375
443.115234375
446.77734375
467.83447265625
473.32763671875
496.2158203125
525.5126953125
531.005859375
519.10400390625
522.76611328125
535.58349609375
535.58349609375
541.07666015625
546.56982421875
546.56982421875
556.640625
555.72509765625
565.7958984375
570.37353515625
584.1064453125
590.51513671875
587.7685546875
584.1064453125
595.0927734375
600.5859375
603.33251953125
607.91015625
605.16357421875
594.17724609375
585.02197265625
587.7685546875
597.83935546875
592.34619140625
585.02197265625
566.71142578125
563.04931640625
564.88037109375
551.1474609375
536.4990234375
514.5263671875
490.72265625
468.75
473.32763671875
469.66552734375
451.35498046875
436.70654296875
415.6494140625
411.9873046875
405.57861328125
404.6630859375
403.74755859375
388.18359375
356.14013671875
349.7314453125
343.32275390625
336.9140625
335.0830078125
341.49169921875
331.4208984375
321.35009765625
335.99853515625
330.50537109375
318.603515625
311.279296875
319.51904296875
328.67431640625
319.51904296875
314.94140625
302.1240234375
286.56005859375
295.71533203125
286.56005859375
278.3203125
275.57373046875
288.39111328125
300.29296875
304.87060546875
303.955078125
302.1240234375
293.88427734375
295.71533203125
298.4619140625
305.7861328125
297.54638671875
301.20849609375
301.20849609375
299.37744140625
296.630859375
293.88427734375
299.37744140625
287.4755859375
279.23583984375
265.5029296875
271.91162109375
296.630859375
299.37744140625
291.1376953125
281.06689453125
283.8134765625
282.89794921875
280.1513671875
275.57373046875
294.7998046875
302.1240234375
292.05322265625
309.4482421875
310.36376953125
306.70166015625
301.20849609375
296.630859375
274.658203125
288.39111328125
288.39111328125
299.37744140625
317.68798828125
322.265625
310.36376953125
313.1103515625
315.85693359375
312.19482421875
310.36376953125
303.03955078125
296.630859375
297.54638671875
298.4619140625
303.03955078125
294.7998046875
292.96875
289.306640625
289.306640625
278.3203125
276.4892578125
266.41845703125
264.58740234375
265.5029296875
270.99609375
270.08056640625
267.333984375
281.982421875
281.06689453125
285.64453125
290.22216796875
275.57373046875
275.57373046875
278.3203125
275.57373046875
268.24951171875
267.333984375
270.08056640625
269.1650390625
262.75634765625
260.92529296875
244.44580078125
241.69921875
236.2060546875
222.47314453125
218.81103515625
234.375
260.009765625
267.333984375
265.5029296875
277.40478515625
281.982421875
289.306640625
289.306640625
288.39111328125
281.982421875
270.08056640625
260.92529296875
260.009765625
258.1787109375
258.1787109375
257.26318359375
260.009765625
269.1650390625
265.5029296875
259.09423828125
260.92529296875
255.43212890625
254.5166015625
248.10791015625
251.77001953125
241.69921875
237.12158203125
238.037109375
242.61474609375
248.10791015625
244.44580078125
238.95263671875
242.61474609375
247.1923828125
260.92529296875
249.93896484375
241.69921875
235.29052734375
221.5576171875
224.30419921875
233.45947265625
246.27685546875
245.361328125
255.43212890625
255.43212890625
247.1923828125
253.60107421875
267.333984375
256.34765625
250.8544921875
258.1787109375
248.10791015625
249.0234375
251.77001953125
249.93896484375
252.685546875
242.61474609375
249.93896484375
237.12158203125
248.10791015625
267.333984375
285.64453125
292.96875
308.53271484375
299.37744140625
280.1513671875
269.1650390625
280.1513671875
296.630859375
318.603515625
345.15380859375
343.32275390625
361.63330078125
376.28173828125
361.63330078125
348.81591796875
358.88671875
360.7177734375
357.97119140625
347.900390625
329.58984375
324.0966796875
316.7724609375
323.18115234375
324.0966796875
303.955078125
295.71533203125
292.05322265625
281.06689453125
270.99609375
258.1787109375
251.77001953125
249.93896484375
262.75634765625
250.8544921875
243.5302734375
229.79736328125
216.97998046875
209.65576171875
196.83837890625
226.13525390625
245.361328125
235.29052734375
233.45947265625
234.375
230.712890625
234.375
235.29052734375
237.12158203125
230.712890625
225.2197265625
225.2197265625
223.388671875
218.81103515625
211.48681640625
213.31787109375
213.31787109375
212.40234375
229.79736328125
231.62841796875
233.45947265625
234.375
234.375
232.5439453125
223.388671875
218.81103515625
212.40234375
206.9091796875
223.388671875
233.45947265625
235.29052734375
235.29052734375
241.69921875
243.5302734375
236.2060546875
238.95263671875
232.5439453125
223.388671875
231.62841796875
235.29052734375
234.375
227.05078125
227.05078125
218.81103515625
206.9091796875
183.10546875
184.9365234375
167.54150390625
162.9638671875
184.9365234375
212.40234375
250.8544921875
328.67431640625
434.87548828125
556.640625
665.58837890625
779.11376953125
883.48388671875
1013.48876953125
1145.32470703125
1254.2724609375
1356.8115234375
1434.63134765625
1466.6748046875
1478.57666015625
1447.44873046875
1285.400390625
1062.92724609375
821.22802734375
653.6865234375
516.357421875
425.72021484375
388.18359375
371.7041015625
350.64697265625
336.9140625
329.58984375
324.0966796875
312.19482421875
286.56005859375
266.41845703125
261.8408203125
260.009765625
267.333984375
260.92529296875
242.61474609375
247.1923828125
252.685546875
259.09423828125
258.1787109375
248.10791015625
249.0234375
246.27685546875
243.5302734375
242.61474609375
254.5166015625
258.1787109375
253.60107421875
257.26318359375
251.77001953125
257.26318359375
254.5166015625
249.0234375
242.61474609375
241.69921875
255.43212890625
261.8408203125
258.1787109375
260.009765625
262.75634765625
255.43212890625
259.09423828125
262.75634765625
264.58740234375
272.8271484375
272.8271484375
262.75634765625
251.77001953125
243.5302734375
252.685546875
260.009765625
267.333984375
266.41845703125
259.09423828125
273.74267578125
290.22216796875
278.3203125
282.89794921875
276.4892578125
267.333984375
271.91162109375
270.99609375
257.26318359375
265.5029296875
274.658203125
292.05322265625
304.87060546875
306.70166015625
302.1240234375
300.29296875
302.1240234375
292.05322265625
301.20849609375
301.20849609375
306.70166015625
297.54638671875
308.53271484375
327.7587890625
335.0830078125
347.900390625
351.5625
355.224609375
367.12646484375
383.60595703125
375.3662109375
375.3662109375
376.28173828125
390.93017578125
386.3525390625
383.60595703125
392.76123046875
411.9873046875
415.6494140625
419.3115234375
415.6494140625
422.9736328125
431.21337890625
439.453125
449.52392578125
454.1015625
461.42578125
461.42578125
463.2568359375
471.49658203125
476.98974609375
494.384765625
503.5400390625
496.2158203125
497.13134765625
507.2021484375
515.44189453125
520.01953125
538.330078125
544.73876953125
543.8232421875
541.07666015625
545.654296875
533.75244140625
534.66796875
544.73876953125
553.89404296875
550.23193359375
537.41455078125
534.66796875
539.24560546875
551.1474609375
544.73876953125
534.66796875
522.76611328125
511.77978515625
505.37109375
481.5673828125
457.763671875
436.70654296875
417.48046875
405.57861328125
395.5078125
390.0146484375
380.859375
372.61962890625
370.78857421875
349.7314453125
332.33642578125
325.01220703125
303.955078125
296.630859375
293.88427734375
284.72900390625
285.64453125
286.56005859375
280.1513671875
277.40478515625
282.89794921875
272.8271484375
270.99609375
270.99609375
266.41845703125
255.43212890625
252.685546875
247.1923828125
258.1787109375
260.009765625
231.62841796875
212.40234375
207.82470703125
195.00732421875
197.75390625
199.5849609375
205.99365234375
216.97998046875
218.81103515625
219.7265625
220.64208984375
212.40234375
214.2333984375
211.48681640625
217.8955078125
215.14892578125
210.5712890625
215.14892578125
225.2197265625
227.96630859375
230.712890625
217.8955078125
210.5712890625
220.64208984375
229.79736328125
235.29052734375
227.96630859375
225.2197265625
227.05078125
227.96630859375
232.5439453125
235.29052734375
232.5439453125
227.05078125
227.96630859375
221.5576171875
217.8955078125
221.5576171875
221.5576171875
208.740234375
211.48681640625
223.388671875
239.8681640625
246.27685546875
243.5302734375
233.45947265625
232.5439453125
245.361328125
236.2060546875
208.740234375
210.5712890625
211.48681640625
215.14892578125
222.47314453125
227.05078125
220.64208984375
220.64208984375
229.79736328125
235.29052734375
227.05078125
228.8818359375
234.375
230.712890625
229.79736328125
224.30419921875
216.064453125
219.7265625
232.5439453125
233.45947265625
221.5576171875
219.7265625
216.064453125
217.8955078125
209.65576171875
196.83837890625
188.5986328125
199.5849609375
204.16259765625
199.5849609375
205.99365234375
203.2470703125
205.99365234375
222.47314453125
210.5712890625
199.5849609375
196.83837890625
210.5712890625
212.40234375
205.99365234375
200.50048828125
203.2470703125
194.091796875
205.99365234375
209.65576171875
198.66943359375
208.740234375
214.2333984375
212.40234375
216.064453125
207.82470703125
206.9091796875
201.416015625
198.66943359375
200.50048828125
195.00732421875
192.2607421875
195.00732421875
198.66943359375
205.99365234375
209.65576171875
204.16259765625
196.83837890625
205.99365234375
205.99365234375
212.40234375
205.99365234375
188.5986328125
195.00732421875
195.9228515625
191.34521484375
198.66943359375
205.078125
199.5849609375
190.4296875
184.9365234375
199.5849609375
196.83837890625
192.2607421875
193.17626953125
191.34521484375
180.35888671875
180.35888671875
184.02099609375
192.2607421875
207.82470703125
209.65576171875
195.00732421875
191.34521484375
194.091796875
190.4296875
187.68310546875
189.51416015625
186.767578125
194.091796875
196.83837890625
199.5849609375
190.4296875
187.68310546875
187.68310546875
181.2744140625
195.00732421875
188.5986328125
176.69677734375
187.68310546875
183.10546875
173.9501953125
190.4296875
200.50048828125
196.83837890625
204.16259765625
207.82470703125
203.2470703125
202.33154296875
198.66943359375
195.00732421875
184.02099609375
180.35888671875
192.2607421875
195.00732421875
193.17626953125
180.35888671875
184.9365234375
188.5986328125
190.4296875
196.83837890625
196.83837890625
196.83837890625
192.2607421875
180.35888671875
187.68310546875
187.68310546875
184.9365234375
185.85205078125
186.767578125
198.66943359375
196.83837890625
194.091796875
212.40234375
233.45947265625
227.96630859375
247.1923828125
235.29052734375
226.13525390625
209.65576171875
213.31787109375
226.13525390625
227.05078125
260.92529296875
278.3203125
277.40478515625
285.64453125
298.4619140625
281.982421875
292.05322265625
281.982421875
280.1513671875
284.72900390625
273.74267578125
270.08056640625
276.4892578125
272.8271484375
265.5029296875
258.1787109375
245.361328125
229.79736328125
226.13525390625
204.16259765625
193.17626953125
190.4296875
185.85205078125
193.17626953125
195.9228515625
178.52783203125
186.767578125
182.18994140625
179.443359375
181.2744140625
168.45703125
170.2880859375
188.5986328125
183.10546875
187.68310546875
176.69677734375
171.20361328125
161.1328125
167.54150390625
171.20361328125
176.69677734375
170.2880859375
171.20361328125
158.38623046875
150.146484375
152.89306640625
153.80859375
154.72412109375
156.55517578125
152.89306640625
165.71044921875
160.21728515625
158.38623046875
157.470703125
146.484375
154.72412109375
142.822265625
157.470703125
167.54150390625
155.6396484375
151.9775390625
150.146484375
166.6259765625
165.71044921875
156.55517578125
152.89306640625
149.23095703125
151.9775390625
162.9638671875
167.54150390625
158.38623046875
167.54150390625
157.470703125
129.08935546875
123.59619140625
116.27197265625
114.44091796875
127.25830078125
144.6533203125
186.767578125
227.05078125
302.1240234375
386.3525390625
509.94873046875
615.234375
715.9423828125
821.22802734375
949.40185546875
1085.8154296875
1207.58056640625
1300.96435546875
1365.05126953125
1396.17919921875
1393.4326171875
1351.318359375
1185.60791015625
957.6416015625
715.02685546875
562.1337890625
447.69287109375
371.7041015625
314.02587890625
314.94140625
295.71533203125
269.1650390625
269.1650390625
246.27685546875
234.375
225.2197265625
218.81103515625
200.50048828125
177.6123046875
164.794921875
162.9638671875
166.6259765625
188.5986328125
219.7265625
199.5849609375
196.83837890625
201.416015625
214.2333984375
208.740234375
212.40234375
203.2470703125
195.9228515625
192.2607421875
198.66943359375
198.66943359375
189.51416015625
197.75390625
196.83837890625
202.33154296875
201.416015625
193.17626953125
194.091796875
189.51416015625
187.68310546875
179.443359375
195.00732421875
197.75390625
205.99365234375
190.4296875
184.02099609375
187.68310546875
194.091796875
198.66943359375
203.2470703125
202.33154296875
197.75390625
204.16259765625
209.65576171875
194.091796875
197.75390625
205.99365234375
206.9091796875
188.5986328125
196.83837890625
203.2470703125
212.40234375
215.14892578125
218.81103515625
208.740234375
215.14892578125
227.96630859375
234.375
230.712890625
231.62841796875
237.12158203125
241.69921875
245.361328125
244.44580078125
245.361328125
244.44580078125
259.09423828125
266.41845703125
274.658203125
275.57373046875
273.74267578125
271.91162109375
282.89794921875
276.4892578125
285.64453125
290.22216796875
306.70166015625
303.03955078125
303.955078125
298.4619140625
316.7724609375
316.7724609375
315.85693359375
331.4208984375
340.576171875
335.0830078125
340.576171875
348.81591796875
345.15380859375
357.97119140625
368.95751953125
379.94384765625
403.74755859375
400.08544921875
401.91650390625
415.6494140625
415.6494140625
419.3115234375
429.38232421875
434.87548828125
437.6220703125
446.77734375
455.01708984375
458.67919921875
469.66552734375
472.412109375
481.5673828125
479.736328125
473.32763671875
471.49658203125
473.32763671875
489.80712890625
476.98974609375
472.412109375
475.15869140625
485.2294921875
484.31396484375
491.63818359375
490.72265625
481.5673828125
476.98974609375
464.17236328125
450.439453125
440.36865234375
420.22705078125
404.6630859375
388.18359375
377.197265625
360.7177734375
350.64697265625
343.32275390625
320.4345703125
292.96875
289.306640625
284.72900390625
270.08056640625
255.43212890625
249.0234375
238.95263671875
233.45947265625
226.13525390625
224.30419921875
218.81103515625
207.82470703125
190.4296875
190.4296875
187.68310546875
184.9365234375
174.86572265625
166.6259765625
164.794921875
158.38623046875
163.87939453125
162.9638671875
170.2880859375
189.51416015625
180.35888671875
162.9638671875
170.2880859375
179.443359375
178.52783203125
175.78125
169.37255859375
177.6123046875
175.78125
174.86572265625
167.54150390625
166.6259765625
175.78125
168.45703125
170.2880859375
166.6259765625
164.794921875
159.3017578125
171.20361328125
179.443359375
181.2744140625
172.119140625
165.71044921875
161.1328125
160.21728515625
160.21728515625
165.71044921875
159.3017578125
161.1328125
163.87939453125
148.3154296875
154.72412109375
166.6259765625
167.54150390625
165.71044921875
161.1328125
170.2880859375
170.2880859375
165.71044921875
162.9638671875
156.55517578125
154.72412109375
154.72412109375
153.80859375
165.71044921875
160.21728515625
156.55517578125
152.89306640625
157.470703125
142.822265625
148.3154296875
147.39990234375
152.89306640625
152.89306640625
141.90673828125
150.146484375
144.6533203125
143.73779296875
140.07568359375
144.6533203125
145.56884765625
145.56884765625
153.80859375
149.23095703125
147.39990234375
148.3154296875
148.3154296875
153.80859375
152.89306640625
139.16015625
127.25830078125
126.3427734375
130.92041015625
129.08935546875
140.07568359375
149.23095703125
151.06201171875
146.484375
151.06201171875
144.6533203125
140.07568359375
141.90673828125
133.6669921875
121.76513671875
137.3291015625
147.39990234375
147.39990234375
148.3154296875
144.6533203125
144.6533203125
140.07568359375
132.75146484375
122.6806640625
133.6669921875
137.3291015625
139.16015625
127.25830078125
122.6806640625
133.6669921875
128.173828125
133.6669921875
130.0048828125
127.25830078125
138.24462890625
131.8359375
129.08935546875
126.3427734375
122.6806640625
135.498046875
135.498046875
121.76513671875
120.849609375
116.27197265625
113.525390625
109.86328125
102.5390625
108.0322265625
120.849609375
129.08935546875
130.92041015625
135.498046875
138.24462890625
134.58251953125
130.0048828125
112.60986328125
107.11669921875
114.44091796875
119.93408203125
132.75146484375
140.07568359375
124.51171875
124.51171875
118.10302734375
113.525390625
127.25830078125
122.6806640625
132.75146484375
130.92041015625
128.173828125
117.1875
125.42724609375
124.51171875
116.27197265625
112.60986328125
130.0048828125
134.58251953125
139.16015625
138.24462890625
127.25830078125
126.3427734375
130.92041015625
122.6806640625
127.25830078125
120.849609375
127.25830078125
123.59619140625
124.51171875
133.6669921875
129.08935546875
126.3427734375
128.173828125
124.51171875
116.27197265625
108.0322265625
90.63720703125
92.46826171875
104.3701171875
108.0322265625
109.86328125
115.3564453125
103.45458984375
108.94775390625
119.0185546875
122.6806640625
116.27197265625
120.849609375
130.92041015625
137.3291015625
142.822265625
130.0048828125
130.92041015625
136.41357421875
121.76513671875
140.07568359375
155.6396484375
155.6396484375
162.9638671875
168.45703125
167.54150390625
165.71044921875
173.9501953125
171.20361328125
162.9638671875
175.78125
183.10546875
202.33154296875
204.16259765625
196.83837890625
202.33154296875
195.9228515625
196.83837890625
187.68310546875
195.00732421875
202.33154296875
193.17626953125
194.091796875
184.02099609375
182.18994140625
172.119140625
170.2880859375
167.54150390625
158.38623046875
148.3154296875
140.9912109375
138.24462890625
137.3291015625
142.822265625
134.58251953125
112.60986328125
99.79248046875
108.0322265625
105.28564453125
100.7080078125
99.79248046875
100.7080078125
99.79248046875
100.7080078125
109.86328125
105.28564453125
98.876953125
99.79248046875
97.96142578125
99.79248046875
110.77880859375
98.876953125
85.14404296875
94.29931640625
107.11669921875
106.201171875
102.5390625
105.28564453125
94.29931640625
93.3837890625
96.13037109375
105.28564453125
101.62353515625
108.94775390625
108.94775390625
92.46826171875
98.876953125
85.14404296875
82.3974609375
83.31298828125
74.15771484375
88.80615234375
100.7080078125
100.7080078125
91.552734375
84.228515625
93.3837890625
95.21484375
87.890625
93.3837890625
104.3701171875
92.46826171875
82.3974609375
79.65087890625
55.84716796875
35.70556640625
35.70556640625
43.02978515625
68.66455078125
101.62353515625
145.56884765625
202.33154296875
288.39111328125
406.494140625
514.5263671875
621.64306640625
716.85791015625
832.21435546875
959.47265625
1076.66015625
1192.0166015625
1285.400390625
1340.33203125
1354.98046875
1325.68359375
1208.49609375
1007.080078125
757.14111328125
581.35986328125
435.791015625
338.7451171875
263.671875
246.27685546875
235.29052734375
227.05078125
215.14892578125
202.33154296875
179.443359375
180.35888671875
160.21728515625
151.06201171875
145.56884765625
140.9912109375
134.58251953125
150.146484375
150.146484375
146.484375
140.9912109375
128.173828125
129.08935546875
140.9912109375
141.90673828125
128.173828125
132.75146484375
141.90673828125
139.16015625
137.3291015625
140.9912109375
145.56884765625
140.07568359375
147.39990234375
140.9912109375
147.39990234375
146.484375
139.16015625
140.07568359375
146.484375
158.38623046875
153.80859375
153.80859375
149.23095703125
153.80859375
147.39990234375
140.07568359375
138.24462890625
142.822265625
148.3154296875
145.56884765625
150.146484375
153.80859375
162.9638671875
162.04833984375
170.2880859375
170.2880859375
150.146484375
162.04833984375
170.2880859375
172.119140625
181.2744140625
181.2744140625
179.443359375
185.85205078125
179.443359375
176.69677734375
185.85205078125
189.51416015625
190.4296875
201.416015625
196.83837890625
190.4296875
195.00732421875
205.078125
197.75390625
199.5849609375
202.33154296875
211.48681640625
224.30419921875
235.29052734375
232.5439453125
234.375
237.12158203125
216.97998046875
196.83837890625
184.02099609375
197.75390625
223.388671875
257.26318359375
269.1650390625
283.8134765625
284.72900390625
289.306640625
297.54638671875
303.955078125
309.4482421875
310.36376953125
322.265625
318.603515625
325.927734375
344.23828125
360.7177734375
357.97119140625
357.0556640625
365.29541015625
375.3662109375
381.77490234375
389.09912109375
390.0146484375
391.845703125
408.3251953125
416.56494140625
422.05810546875
419.3115234375
417.48046875
413.818359375
433.04443359375
435.791015625
407.40966796875
416.56494140625
424.8046875
422.05810546875
432.12890625
445.86181640625
444.03076171875
429.38232421875
430.2978515625
432.12890625
437.6220703125
421.142578125
425.72021484375
423.88916015625
411.07177734375
392.76123046875
383.60595703125
376.28173828125
356.14013671875
349.7314453125
340.576171875
327.7587890625
313.1103515625
290.22216796875
291.1376953125
282.89794921875
249.93896484375
235.29052734375
221.5576171875
214.2333984375
201.416015625
203.2470703125
197.75390625
197.75390625
186.767578125
191.34521484375
183.10546875
173.9501953125
161.1328125
162.04833984375
150.146484375
128.173828125
132.75146484375
140.07568359375
140.07568359375
122.6806640625
146.484375
158.38623046875
158.38623046875
161.1328125
153.80859375
152.89306640625
155.6396484375
125.42724609375
122.6806640625
120.849609375
127.25830078125
134.58251953125
144.6533203125
144.6533203125
143.73779296875
132.75146484375
128.173828125
134.58251953125
139.16015625
139.16015625
127.25830078125
130.0048828125
139.16015625
136.41357421875
130.0048828125
141.90673828125
143.73779296875
143.73779296875
142.822265625
136.41357421875
134.58251953125
140.9912109375
140.9912109375
135.498046875
126.3427734375
122.6806640625
152.89306640625
150.146484375
146.484375
140.9912109375
128.173828125
126.3427734375
130.92041015625
134.58251953125
140.9912109375
143.73779296875
136.41357421875
133.6669921875
135.498046875
129.08935546875
127.25830078125
118.10302734375
119.0185546875
116.27197265625
126.3427734375
136.41357421875
140.07568359375
138.24462890625
132.75146484375
130.92041015625
128.173828125
130.92041015625
145.56884765625
140.07568359375
127.25830078125
130.92041015625
130.92041015625
130.0048828125
127.25830078125
127.25830078125
118.10302734375
117.1875
106.201171875
94.29931640625
91.552734375
89.7216796875
102.5390625
118.10302734375
116.27197265625
122.6806640625
119.93408203125
124.51171875
136.41357421875
129.08935546875
129.08935546875
114.44091796875
114.44091796875
110.77880859375
114.44091796875
117.1875
125.42724609375
119.93408203125
119.0185546875
118.10302734375
108.94775390625
101.62353515625
113.525390625
105.28564453125
98.876953125
110.77880859375
103.45458984375
104.3701171875
108.94775390625
118.10302734375
103.45458984375
108.94775390625
115.3564453125
110.77880859375
108.0322265625
115.3564453125
119.93408203125
120.849609375
119.0185546875
120.849609375
119.93408203125
119.93408203125
119.0185546875
106.201171875
105.28564453125
101.62353515625
119.0185546875
120.849609375
109.86328125
110.77880859375
117.1875
105.28564453125
105.28564453125
107.11669921875
117.1875
114.44091796875
107.11669921875
103.45458984375
119.93408203125
114.44091796875
116.27197265625
111.6943359375
110.77880859375
121.76513671875
117.1875
119.0185546875
123.59619140625
111.6943359375
116.27197265625
122.6806640625
115.3564453125
107.11669921875
112.60986328125
118.10302734375
126.3427734375
119.0185546875
119.93408203125
128.173828125
133.6669921875
138.24462890625
141.90673828125
147.39990234375
144.6533203125
140.07568359375
143.73779296875
125.42724609375
129.08935546875
145.56884765625
170.2880859375
189.51416015625
196.83837890625
192.2607421875
174.86572265625
176.69677734375
178.52783203125
190.4296875
204.16259765625
189.51416015625
178.52783203125
175.78125
153.80859375
138.24462890625
141.90673828125
137.3291015625
132.75146484375
117.1875
115.3564453125
104.3701171875
105.28564453125
92.46826171875
88.80615234375
95.21484375
92.46826171875
84.228515625
88.80615234375
82.3974609375
73.2421875
72.32666015625
84.228515625
76.904296875
73.2421875
73.2421875
74.15771484375
69.580078125
70.49560546875
78.7353515625
73.2421875
63.17138671875
74.15771484375
67.7490234375
72.32666015625
73.2421875
73.2421875
75.0732421875
78.7353515625
73.2421875
68.66455078125
65.00244140625
60.4248046875
66.83349609375
59.50927734375
58.59375
64.0869140625
67.7490234375
54.931640625
59.50927734375
54.931640625
39.36767578125
44.86083984375
50.35400390625
47.607421875
48.52294921875
53.1005859375
49.4384765625
60.4248046875
55.84716796875
67.7490234375
65.91796875
56.7626953125
52.18505859375
49.4384765625
36.62109375
16.4794921875
22.88818359375
41.19873046875
57.67822265625
94.29931640625
131.8359375
212.40234375
319.51904296875
437.6220703125
541.9921875
629.8828125
736.99951171875
866.0888671875
1007.080078125
1113.28125
1198.42529296875
1262.51220703125
1299.13330078125
1308.28857421875
1252.44140625
1099.54833984375
869.7509765625
642.7001953125
499.8779296875
363.46435546875
270.08056640625
231.62841796875
206.9091796875
200.50048828125
189.51416015625
183.10546875
162.9638671875
143.73779296875
139.16015625
132.75146484375
130.0048828125
119.0185546875
109.86328125
108.0322265625
102.5390625
89.7216796875
86.0595703125
93.3837890625
103.45458984375
110.77880859375
109.86328125
102.5390625
107.11669921875
113.525390625
104.3701171875
108.94775390625
105.28564453125
111.6943359375
120.849609375
113.525390625
108.0322265625
108.94775390625
112.60986328125
111.6943359375
100.7080078125
108.0322265625
122.6806640625
128.173828125
119.0185546875
113.525390625
103.45458984375
101.62353515625
109.86328125
125.42724609375
130.0048828125
129.08935546875
131.8359375
130.92041015625
138.24462890625
132.75146484375
132.75146484375
132.75146484375
136.41357421875
120.849609375
122.6806640625
129.08935546875
136.41357421875
138.24462890625
140.9912109375
150.146484375
146.484375
151.06201171875
154.72412109375
143.73779296875
141.90673828125
141.90673828125
151.06201171875
166.6259765625
159.3017578125
162.04833984375
160.21728515625
164.794921875
168.45703125
180.35888671875
173.03466796875
176.69677734375
178.52783203125
181.2744140625
180.35888671875
192.2607421875
197.75390625
205.99365234375
202.33154296875
209.65576171875
216.97998046875
213.31787109375
213.31787109375
218.81103515625
228.8818359375
237.12158203125
245.361328125
245.361328125
249.93896484375
251.77001953125
261.8408203125
267.333984375
265.5029296875
273.74267578125
273.74267578125
275.57373046875
281.982421875
309.4482421875
334.16748046875
341.49169921875
344.23828125
350.64697265625
341.49169921875
336.9140625
353.3935546875
368.0419921875
377.197265625
370.78857421875
377.197265625
386.3525390625
385.43701171875
391.845703125
384.521484375
387.26806640625
397.3388671875
402.83203125
392.76123046875
395.5078125
394.59228515625
387.26806640625
380.859375
381.77490234375
377.197265625
377.197265625
355.224609375
339.66064453125
335.99853515625
317.68798828125
301.20849609375
285.64453125
269.1650390625
243.5302734375
231.62841796875
220.64208984375
217.8955078125
210.5712890625
200.50048828125
187.68310546875
172.119140625
164.794921875
152.89306640625
151.9775390625
151.06201171875
148.3154296875
142.822265625
124.51171875
111.6943359375
108.94775390625
96.13037109375
97.0458984375
105.28564453125
100.7080078125
100.7080078125
100.7080078125
99.79248046875
108.94775390625
104.3701171875
101.62353515625
107.11669921875
112.60986328125
106.201171875
109.86328125
115.3564453125
118.10302734375
109.86328125
103.45458984375
103.45458984375
96.13037109375
105.28564453125
110.77880859375
111.6943359375
103.45458984375
99.79248046875
102.5390625
100.7080078125
89.7216796875
90.63720703125
106.201171875
119.0185546875
119.93408203125
118.10302734375
108.94775390625
115.3564453125
112.60986328125
110.77880859375
111.6943359375
97.96142578125
105.28564453125
114.44091796875
120.849609375
108.0322265625
95.21484375
92.46826171875
98.876953125
101.62353515625
114.44091796875
119.93408203125
113.525390625
113.525390625
112.60986328125
104.3701171875
108.0322265625
105.28564453125
108.0322265625
105.28564453125
119.0185546875
112.60986328125
110.77880859375
103.45458984375
100.7080078125
93.3837890625
84.228515625
81.48193359375
91.552734375
83.31298828125
85.14404296875
85.14404296875
78.7353515625
86.0595703125
96.13037109375
82.3974609375
76.904296875
85.14404296875
95.21484375
93.3837890625
85.14404296875
85.14404296875
86.97509765625
86.0595703125
93.3837890625
89.7216796875
80.56640625
72.32666015625
57.67822265625
68.66455078125
63.17138671875
70.49560546875
81.48193359375
88.80615234375
97.0458984375
92.46826171875
76.904296875
75.0732421875
77.81982421875
72.32666015625
68.66455078125
78.7353515625
79.65087890625
77.81982421875
78.7353515625
84.228515625
84.228515625
83.31298828125
76.904296875
85.14404296875
81.48193359375
80.56640625
79.65087890625
79.65087890625
82.3974609375
74.15771484375
72.32666015625
71.4111328125
78.7353515625
84.228515625
79.65087890625
66.83349609375
83.31298828125
75.0732421875
72.32666015625
75.98876953125
71.4111328125
61.34033203125
62.255859375
54.931640625
65.91796875
63.17138671875
50.35400390625
42.1142578125
39.36767578125
48.52294921875
66.83349609375
52.18505859375
59.50927734375
66.83349609375
59.50927734375
71.4111328125
75.0732421875
69.580078125
58.59375
54.931640625
57.67822265625
69.580078125
64.0869140625
51.26953125
50.35400390625
43.02978515625
47.607421875
45.7763671875
56.7626953125
66.83349609375
56.7626953125
55.84716796875
66.83349609375
61.34033203125
64.0869140625
60.4248046875
64.0869140625
74.15771484375
77.81982421875
71.4111328125
66.83349609375
77.81982421875
70.49560546875
88.80615234375
104.3701171875
104.3701171875
108.94775390625
105.28564453125
102.5390625
101.62353515625
106.201171875
100.7080078125
96.13037109375
100.7080078125
124.51171875
156.55517578125
157.470703125
159.3017578125
153.80859375
152.89306640625
143.73779296875
148.3154296875
151.06201171875
155.6396484375
151.9775390625
151.06201171875
138.24462890625
130.0048828125
130.0048828125
125.42724609375
119.0185546875
98.876953125
80.56640625
80.56640625
79.65087890625
70.49560546875
65.00244140625
57.67822265625
51.26953125
49.4384765625
43.02978515625
48.52294921875
60.4248046875
51.26953125
44.86083984375
50.35400390625
59.50927734375
59.50927734375
59.50927734375
57.67822265625
59.50927734375
60.4248046875
53.1005859375
51.26953125
41.19873046875
40.283203125
43.02978515625
23.8037109375
21.05712890625
18.310546875
22.88818359375
39.36767578125
27.4658203125
28.38134765625
36.62109375
41.19873046875
45.7763671875
66.83349609375
55.84716796875
53.1005859375
42.1142578125
53.1005859375
40.283203125
49.4384765625
34.7900390625
3.662109375
4.57763671875
12.8173828125
10.07080078125
12.8173828125
28.38134765625
18.310546875
14.6484375
21.97265625
21.97265625
19.22607421875
10.986328125
-24.71923828125
-39.36767578125
-33.87451171875
-32.958984375
-5.4931640625
43.02978515625
83.31298828125
144.6533203125
248.10791015625
370.78857421875
480.65185546875
585.9375
680.23681640625
800.1708984375
934.75341796875
1059.26513671875
1138.00048828125
1198.42529296875
1249.69482421875
1253.35693359375
1201.171875
1039.12353515625
806.57958984375
575.86669921875
421.142578125
299.37744140625
214.2333984375
172.119140625
160.21728515625
151.06201171875
151.06201171875
145.56884765625
121.76513671875
106.201171875
102.5390625
97.96142578125
88.80615234375
71.4111328125
67.7490234375
64.0869140625
55.84716796875
50.35400390625
41.19873046875
39.36767578125
40.283203125
61.34033203125
74.15771484375
58.59375
49.4384765625
59.50927734375
57.67822265625
55.84716796875
65.91796875
64.0869140625
49.4384765625
46.69189453125
54.01611328125
50.35400390625
49.4384765625
56.7626953125
71.4111328125
68.66455078125
65.91796875
76.904296875
74.15771484375
81.48193359375
76.904296875
80.56640625
73.2421875
70.49560546875
94.29931640625
81.48193359375
83.31298828125
90.63720703125
81.48193359375
75.0732421875
79.65087890625
76.904296875
74.15771484375
94.29931640625
89.7216796875
95.21484375
98.876953125
96.13037109375
95.21484375
101.62353515625
112.60986328125
112.60986328125
108.0322265625
108.94775390625
114.44091796875
111.6943359375
119.93408203125
116.27197265625
123.59619140625
125.42724609375
130.0048828125
124.51171875
129.08935546875
124.51171875
131.8359375
140.9912109375
148.3154296875
154.72412109375
147.39990234375
153.80859375
154.72412109375
162.9638671875
174.86572265625
177.6123046875
194.091796875
195.00732421875
201.416015625
208.740234375
216.97998046875
204.16259765625
193.17626953125
199.5849609375
201.416015625
227.96630859375
265.5029296875
272.8271484375
268.24951171875
274.658203125
286.56005859375
293.88427734375
292.96875
300.29296875
317.68798828125
315.85693359375
325.927734375
336.9140625
340.576171875
342.4072265625
333.251953125
344.23828125
357.97119140625
359.80224609375
359.80224609375
363.46435546875
368.95751953125
368.95751953125
380.859375
384.521484375
377.197265625
401.0009765625
396.42333984375
382.6904296875
379.94384765625
380.859375
390.93017578125
382.6904296875
367.12646484375
366.2109375
353.3935546875
350.64697265625
332.33642578125
318.603515625
308.53271484375
301.20849609375
278.3203125
260.009765625
259.09423828125
237.12158203125
214.2333984375
195.9228515625
192.2607421875
178.52783203125
173.03466796875
171.20361328125
164.794921875
151.9775390625
134.58251953125
117.1875
108.0322265625
107.11669921875
113.525390625
110.77880859375
107.11669921875
97.96142578125
92.46826171875
89.7216796875
86.0595703125
73.2421875
75.0732421875
80.56640625
76.904296875
75.98876953125
81.48193359375
74.15771484375
61.34033203125
67.7490234375
70.49560546875
58.59375
62.255859375
76.904296875
80.56640625
75.0732421875
80.56640625
75.0732421875
65.91796875
70.49560546875
71.4111328125
67.7490234375
64.0869140625
69.580078125
88.80615234375
83.31298828125
74.15771484375
74.15771484375
86.97509765625
87.890625
83.31298828125
84.228515625
82.3974609375
72.32666015625
77.81982421875
70.49560546875
74.15771484375
75.0732421875
76.904296875
72.32666015625
66.83349609375
74.15771484375
71.4111328125
70.49560546875
76.904296875
84.228515625
79.65087890625
75.98876953125
81.48193359375
75.98876953125
79.65087890625
75.0732421875
67.7490234375
75.98876953125
63.17138671875
65.00244140625
71.4111328125
60.4248046875
65.00244140625
80.56640625
78.7353515625
71.4111328125
72.32666015625
65.91796875
57.67822265625
53.1005859375
66.83349609375
68.66455078125
63.17138671875
65.00244140625
56.7626953125
41.19873046875
51.26953125
53.1005859375
54.931640625
47.607421875
54.931640625
60.4248046875
53.1005859375
53.1005859375
60.4248046875
55.84716796875
51.26953125
47.607421875
48.52294921875
48.52294921875
55.84716796875
50.35400390625
42.1142578125
41.19873046875
33.87451171875
40.283203125
49.4384765625
55.84716796875
47.607421875
51.26953125
38.4521484375
39.36767578125
50.35400390625
44.86083984375
46.69189453125
43.02978515625
42.1142578125
41.19873046875
42.1142578125
47.607421875
53.1005859375
40.283203125
40.283203125
43.9453125
47.607421875
44.86083984375
41.19873046875
39.36767578125
31.1279296875
30.21240234375
29.296875
32.958984375
30.21240234375
35.70556640625
43.02978515625
44.86083984375
46.69189453125
35.70556640625
38.4521484375
43.9453125
40.283203125
28.38134765625
31.1279296875
27.4658203125
24.71923828125
31.1279296875
39.36767578125
30.21240234375
24.71923828125
33.87451171875
37.53662109375
30.21240234375
27.4658203125
17.39501953125
17.39501953125
25.634765625
29.296875
32.04345703125
31.1279296875
23.8037109375
21.97265625
10.07080078125
11.90185546875
23.8037109375
15.56396484375
26.55029296875
45.7763671875
40.283203125
41.19873046875
37.53662109375
28.38134765625
28.38134765625
28.38134765625
30.21240234375
45.7763671875
47.607421875
50.35400390625
64.0869140625
72.32666015625
73.2421875
75.98876953125
70.49560546875
67.7490234375
61.34033203125
54.931640625
59.50927734375
60.4248046875
80.56640625
113.525390625
123.59619140625
119.93408203125
125.42724609375
122.6806640625
114.44091796875
129.08935546875
125.42724609375
124.51171875
117.1875
112.60986328125
114.44091796875
106.201171875
92.46826171875
87.890625
85.14404296875
80.56640625
68.66455078125
57.67822265625
51.26953125
39.36767578125
34.7900390625
29.296875
17.39501953125
16.4794921875
12.8173828125
11.90185546875
6.40869140625
-2.74658203125
-5.4931640625
-0.91552734375
1.8310546875
-6.40869140625
-14.6484375
-5.4931640625
-7.32421875
-11.90185546875
2.74658203125
3.662109375
6.40869140625
4.57763671875
-2.74658203125
-12.8173828125
-21.97265625
-23.8037109375
-20.1416015625
-25.634765625
-24.71923828125
-23.8037109375
-10.986328125
-0.91552734375
-1.8310546875
-1.8310546875
-3.662109375
-10.07080078125
-17.39501953125
-21.05712890625
-19.22607421875
-17.39501953125
-20.1416015625
-21.97265625
-24.71923828125
-28.38134765625
-17.39501953125
-14.6484375
-21.05712890625
-14.6484375
-20.1416015625
-25.634765625
-21.97265625
-11.90185546875
-28.38134765625
-34.7900390625
-42.1142578125
-62.255859375
-77.81982421875
-67.7490234375
-64.0869140625
-40.283203125
-2.74658203125
43.9453125
121.76513671875
242.61474609375
358.88671875
466.9189453125
560.302734375
682.06787109375
818.4814453125
947.57080078125
1054.6875
1142.578125
1198.42529296875
1224.06005859375
1210.3271484375
1124.267578125
929.26025390625
674.74365234375
474.2431640625
335.99853515625
232.5439453125
158.38623046875
144.6533203125
137.3291015625
108.94775390625
97.0458984375
77.81982421875
71.4111328125
61.34033203125
56.7626953125
37.53662109375
29.296875
29.296875
26.55029296875
29.296875
11.90185546875
-6.40869140625
-6.40869140625
-1.8310546875
7.32421875
6.40869140625
19.22607421875
9.1552734375
-0.91552734375
16.4794921875
10.07080078125
18.310546875
18.310546875
12.8173828125
3.662109375
6.40869140625
5.4931640625
9.1552734375
11.90185546875
9.1552734375
2.74658203125
6.40869140625
-2.74658203125
-1.8310546875
19.22607421875
21.05712890625
16.4794921875
15.56396484375
19.22607421875
24.71923828125
33.87451171875
34.7900390625
26.55029296875
27.4658203125
37.53662109375
42.1142578125
38.4521484375
32.958984375
26.55029296875
30.21240234375
27.4658203125
20.1416015625
36.62109375
47.607421875
41.19873046875
47.607421875
49.4384765625
48.52294921875
57.67822265625
54.01611328125
54.931640625
58.59375
52.18505859375
57.67822265625
55.84716796875
61.34033203125
71.4111328125
72.32666015625
75.98876953125
84.228515625
88.80615234375
82.3974609375
89.7216796875
94.29931640625
93.3837890625
93.3837890625
102.5390625
102.5390625
111.6943359375
122.6806640625
123.59619140625
126.3427734375
137.3291015625
143.73779296875
153.80859375
162.9638671875
163.87939453125
168.45703125
174.86572265625
173.9501953125
178.52783203125
194.091796875
205.078125
215.14892578125
216.97998046875
233.45947265625
235.29052734375
238.95263671875
249.0234375
259.09423828125
265.5029296875
277.40478515625
273.74267578125
272.8271484375
284.72900390625
270.99609375
277.40478515625
284.72900390625
309.4482421875
309.4482421875
303.03955078125
305.7861328125
303.955078125
314.94140625
311.279296875
328.67431640625
335.0830078125
333.251953125
338.7451171875
338.7451171875
317.68798828125
308.53271484375
295.71533203125
276.4892578125
268.24951171875
270.99609375
260.92529296875
248.10791015625
239.8681640625
226.13525390625
204.16259765625
192.2607421875
157.470703125
145.56884765625
151.9775390625
130.92041015625
101.62353515625
101.62353515625
97.96142578125
97.96142578125
79.65087890625
70.49560546875
56.7626953125
54.931640625
47.607421875
36.62109375
37.53662109375
41.19873046875
45.7763671875
35.70556640625
26.55029296875
21.97265625
20.1416015625
27.4658203125
21.05712890625
15.56396484375
21.05712890625
20.1416015625
20.1416015625
28.38134765625
27.4658203125
21.97265625
21.97265625
22.88818359375
21.97265625
21.05712890625
18.310546875
20.1416015625
16.4794921875
13.73291015625
2.74658203125
11.90185546875
2.74658203125
3.662109375
14.6484375
17.39501953125
17.39501953125
14.6484375
14.6484375
21.05712890625
14.6484375
21.97265625
11.90185546875
12.8173828125
16.4794921875
13.73291015625
14.6484375
17.39501953125
18.310546875
28.38134765625
31.1279296875
32.04345703125
20.1416015625
23.8037109375
19.22607421875
21.97265625
27.4658203125
36.62109375
31.1279296875
32.958984375
41.19873046875
36.62109375
32.958984375
31.1279296875
24.71923828125
20.1416015625
26.55029296875
19.22607421875
8.23974609375
15.56396484375
23.8037109375
14.6484375
20.1416015625
12.8173828125
6.40869140625
6.40869140625
7.32421875
-4.57763671875
2.74658203125
2.74658203125
3.662109375
9.1552734375
10.07080078125
2.74658203125
9.1552734375
8.23974609375
-0.91552734375
-4.57763671875
1.8310546875
5.4931640625
0
5.4931640625
6.40869140625
15.56396484375
17.39501953125
12.8173828125
7.32421875
0.91552734375
4.57763671875
12.8173828125
14.6484375
7.32421875
1.8310546875
0
-0.91552734375
-4.57763671875
11.90185546875
2.74658203125
2.74658203125
-7.32421875
-6.40869140625
2.74658203125
4.57763671875
1.8310546875
4.57763671875
-4.57763671875
-2.74658203125
-4.57763671875
-3.662109375
-3.662109375
0
1.8310546875
-3.662109375
-9.1552734375
-10.986328125
-14.6484375
-10.07080078125
-8.23974609375
-5.4931640625
-10.986328125
-12.8173828125
-12.8173828125
-8.23974609375
-1.8310546875
8.23974609375
4.57763671875
1.8310546875
-6.40869140625
-6.40869140625
-4.57763671875
-7.32421875
-13.73291015625
-10.07080078125
-2.74658203125
-16.4794921875
-20.1416015625
-11.90185546875
-0.91552734375
9.1552734375
10.07080078125
12.8173828125
4.57763671875
7.32421875
15.56396484375
31.1279296875
28.38134765625
21.05712890625
30.21240234375
45.7763671875
28.38134765625
34.7900390625
34.7900390625
30.21240234375
41.19873046875
72.32666015625
97.0458984375
92.46826171875
83.31298828125
75.98876953125
78.7353515625
82.3974609375
91.552734375
86.97509765625
76.904296875
84.228515625
79.65087890625
59.50927734375
52.18505859375
60.4248046875
48.52294921875
43.9453125
29.296875
19.22607421875
12.8173828125
9.1552734375
5.4931640625
-8.23974609375
-7.32421875
-7.32421875
-22.88818359375
-21.97265625
-30.21240234375
-32.04345703125
-22.88818359375
-24.71923828125
-16.4794921875
-10.986328125
-16.4794921875
-12.8173828125
-7.32421875
-16.4794921875
-8.23974609375
-15.56396484375
-17.39501953125
-19.22607421875
-30.21240234375
-22.88818359375
-22.88818359375
-32.04345703125
-32.04345703125
-31.1279296875
-32.04345703125
-39.36767578125
-34.7900390625
-32.958984375
-24.71923828125
-29.296875
-36.62109375
-29.296875
-30.21240234375
-36.62109375
-35.70556640625
-43.02978515625
-32.958984375
-27.4658203125
-28.38134765625
-29.296875
-20.1416015625
-19.22607421875
-32.958984375
-40.283203125
-32.04345703125
-40.283203125
-40.283203125
-31.1279296875
-32.04345703125
-38.4521484375
-53.1005859375
-71.4111328125
-70.49560546875
-62.255859375
-48.52294921875
-42.1142578125
-7.32421875
33.87451171875
95.21484375
198.66943359375
326.84326171875
433.04443359375
547.4853515625
639.0380859375
754.39453125
885.31494140625
994.2626953125
1093.1396484375
1168.212890625
1213.9892578125
1214.90478515625
1177.3681640625
1043.701171875
813.90380859375
582.275390625
435.791015625
292.05322265625
178.52783203125
123.59619140625
108.94775390625
104.3701171875
94.29931640625
93.3837890625
92.46826171875
70.49560546875
54.01611328125
46.69189453125
37.53662109375
29.296875
25.634765625
13.73291015625
11.90185546875
10.07080078125
12.8173828125
11.90185546875
11.90185546875
0
10.986328125
-1.8310546875
-3.662109375
4.57763671875
-4.57763671875
4.57763671875
8.23974609375
-1.8310546875
-6.40869140625
6.40869140625
13.73291015625
5.4931640625
2.74658203125
0.91552734375
0.91552734375
3.662109375
2.74658203125
7.32421875
20.1416015625
24.71923828125
28.38134765625
24.71923828125
29.296875
30.21240234375
32.04345703125
35.70556640625
32.04345703125
43.02978515625
35.70556640625
29.296875
33.87451171875
36.62109375
35.70556640625
43.02978515625
32.04345703125
38.4521484375
36.62109375
34.7900390625
37.53662109375
39.36767578125
39.36767578125
48.52294921875
55.84716796875
53.1005859375
49.4384765625
58.59375
65.91796875
65.91796875
67.7490234375
57.67822265625
59.50927734375
69.580078125
79.65087890625
75.98876953125
84.228515625
89.7216796875
79.65087890625
80.56640625
65.00244140625
61.34033203125
80.56640625
92.46826171875
104.3701171875
119.0185546875
130.92041015625
133.6669921875
133.6669921875
139.16015625
145.56884765625
148.3154296875
154.72412109375
165.71044921875
169.37255859375
171.20361328125
179.443359375
185.85205078125
193.17626953125
208.740234375
216.064453125
227.96630859375
232.5439453125
237.12158203125
245.361328125
240.78369140625
244.44580078125
246.27685546875
253.60107421875
267.333984375
272.8271484375
260.92529296875
255.43212890625
263.671875
279.23583984375
294.7998046875
303.03955078125
302.1240234375
296.630859375
298.4619140625
305.7861328125
304.87060546875
303.955078125
301.20849609375
296.630859375
285.64453125
281.06689453125
283.8134765625
278.3203125
274.658203125
265.5029296875
252.685546875
238.037109375
229.79736328125
216.064453125
196.83837890625
176.69677734375
164.794921875
162.9638671875
148.3154296875
130.0048828125
117.1875
103.45458984375
88.80615234375
82.3974609375
75.0732421875
69.580078125
73.2421875
61.34033203125
46.69189453125
34.7900390625
37.53662109375
22.88818359375
3.662109375
19.22607421875
26.55029296875
22.88818359375
23.8037109375
13.73291015625
13.73291015625
14.6484375
1.8310546875
4.57763671875
0.91552734375
-2.74658203125
-5.4931640625
12.8173828125
20.1416015625
8.23974609375
-8.23974609375
-12.8173828125
-8.23974609375
3.662109375
2.74658203125
14.6484375
19.22607421875
16.4794921875
10.07080078125
13.73291015625
22.88818359375
17.39501953125
10.07080078125
6.40869140625
10.986328125
21.97265625
31.1279296875
26.55029296875
28.38134765625
23.8037109375
21.05712890625
21.05712890625
27.4658203125
32.958984375
19.22607421875
20.1416015625
20.1416015625
17.39501953125
21.05712890625
12.8173828125
8.23974609375
3.662109375
4.57763671875
10.986328125
15.56396484375
27.4658203125
28.38134765625
29.296875
26.55029296875
22.88818359375
22.88818359375
33.87451171875
36.62109375
23.8037109375
25.634765625
27.4658203125
21.05712890625
14.6484375
17.39501953125
16.4794921875
13.73291015625
10.07080078125
8.23974609375
12.8173828125
16.4794921875
13.73291015625
11.90185546875
6.40869140625
-1.8310546875
-9.1552734375
-6.40869140625
5.4931640625
7.32421875
13.73291015625
14.6484375
14.6484375
12.8173828125
7.32421875
2.74658203125
-0.91552734375
-3.662109375
-7.32421875
-10.986328125
-21.97265625
-27.4658203125
-23.8037109375
-14.6484375
-11.90185546875
-23.8037109375
-24.71923828125
-17.39501953125
-12.8173828125
-19.22607421875
-21.05712890625
-19.22607421875
-11.90185546875
-3.662109375
1.8310546875
-11.90185546875
-12.8173828125
-15.56396484375
-17.39501953125
-34.7900390625
-43.9453125
-33.87451171875
-33.87451171875
-32.04345703125
-14.6484375
-1.8310546875
-7.32421875
-10.07080078125
-15.56396484375
-22.88818359375
-15.56396484375
-10.986328125
-21.97265625
-21.05712890625
-29.296875
-20.1416015625
-11.90185546875
-21.97265625
-21.97265625
-18.310546875
-21.05712890625
-26.55029296875
-20.1416015625
-11.90185546875
-18.310546875
-23.8037109375
-34.7900390625
-36.62109375
-33.87451171875
-36.62109375
-27.4658203125
-13.73291015625
-12.8173828125
-8.23974609375
-4.57763671875
-8.23974609375
-10.07080078125
-10.07080078125
-6.40869140625
0
13.73291015625
16.4794921875
21.05712890625
15.56396484375
11.90185546875
21.05712890625
17.39501953125
30.21240234375
29.296875
45.7763671875
73.2421875
73.2421875
76.904296875
71.4111328125
68.66455078125
66.83349609375
65.00244140625
67.7490234375
64.0869140625
52.18505859375
62.255859375
52.18505859375
41.19873046875
30.21240234375
33.87451171875
21.05712890625
0.91552734375
-12.8173828125
-6.40869140625
-8.23974609375
-11.90185546875
-27.4658203125
-33.87451171875
-31.1279296875
-36.62109375
-41.19873046875
-27.4658203125
-19.22607421875
-26.55029296875
-30.21240234375
-32.958984375
-42.1142578125
-36.62109375
-38.4521484375
-38.4521484375
-39.36767578125
-42.1142578125
-40.283203125
-46.69189453125
-49.4384765625
-52.18505859375
-67.7490234375
-60.4248046875
-60.4248046875
-56.7626953125
-47.607421875
-45.7763671875
-43.9453125
-52.18505859375
-48.52294921875
-55.84716796875
-54.01611328125
-57.67822265625
-47.607421875
-44.86083984375
-53.1005859375
-55.84716796875
-68.66455078125
-63.17138671875
-62.255859375
-62.255859375
-52.18505859375
-50.35400390625
-51.26953125
-38.4521484375
-39.36767578125
-41.19873046875
-43.9453125
-58.59375
-61.34033203125
-57.67822265625
-54.01611328125
-64.0869140625
-73.2421875
-79.65087890625
-86.97509765625
-91.552734375
-75.0732421875
-49.4384765625
-21.97265625
26.55029296875
128.173828125
240.78369140625
348.81591796875
464.17236328125
551.1474609375
671.08154296875
822.1435546875
947.57080078125
1045.5322265625
1127.01416015625
1190.185546875
1212.158203125
1196.59423828125
1091.30859375
895.3857421875
630.79833984375
436.70654296875
294.7998046875
182.18994140625
104.3701171875
92.46826171875
76.904296875
69.580078125
60.4248046875
35.70556640625
30.21240234375
33.87451171875
30.21240234375
23.8037109375
10.07080078125
7.32421875
11.90185546875
2.74658203125
-9.1552734375
-18.310546875
-17.39501953125
-14.6484375
-11.90185546875
-22.88818359375
-27.4658203125
-11.90185546875
-11.90185546875
-3.662109375
-0.91552734375
-0.91552734375
-5.4931640625
0.91552734375
-0.91552734375
-10.07080078125
-9.1552734375
-12.8173828125
-7.32421875
-3.662109375
-14.6484375
-15.56396484375
-7.32421875
-8.23974609375
-9.1552734375
-10.07080078125
-2.74658203125
2.74658203125
0
1.8310546875
-8.23974609375
-8.23974609375
3.662109375
10.07080078125
10.986328125
5.4931640625
7.32421875
3.662109375
0.91552734375
6.40869140625
-0.91552734375
7.32421875
15.56396484375
15.56396484375
16.4794921875
11.90185546875
10.986328125
14.6484375
22.88818359375
32.958984375
25.634765625
33.87451171875
33.87451171875
39.36767578125
48.52294921875
51.26953125
52.18505859375
53.1005859375
57.67822265625
62.255859375
54.01611328125
60.4248046875
67.7490234375
75.98876953125
79.65087890625
87.890625
88.80615234375
96.13037109375
105.28564453125
99.79248046875
104.3701171875
107.11669921875
113.525390625
115.3564453125
120.849609375
134.58251953125
130.92041015625
140.07568359375
140.9912109375
151.06201171875
163.87939453125
173.9501953125
185.85205078125
194.091796875
195.00732421875
190.4296875
203.2470703125
212.40234375
219.7265625
231.62841796875
243.5302734375
251.77001953125
249.0234375
249.93896484375
256.34765625
254.5166015625
251.77001953125
246.27685546875
248.10791015625
254.5166015625
255.43212890625
247.1923828125
258.1787109375
262.75634765625
260.009765625
264.58740234375
266.41845703125
267.333984375
262.75634765625
260.92529296875
253.60107421875
247.1923828125
238.95263671875
219.7265625
210.5712890625
208.740234375
185.85205078125
162.9638671875
154.72412109375
134.58251953125
121.76513671875
113.525390625
110.77880859375
100.7080078125
93.3837890625
76.904296875
63.17138671875
54.01611328125
36.62109375
41.19873046875
22.88818359375
17.39501953125
7.32421875
-1.8310546875
-4.57763671875
-22.88818359375
-26.55029296875
-27.4658203125
-27.4658203125
-16.4794921875
-11.90185546875
-16.4794921875
-16.4794921875
-24.71923828125
-29.296875
-38.4521484375
-34.7900390625
-32.04345703125
-39.36767578125
-29.296875
-25.634765625
-34.7900390625
-36.62109375
-39.36767578125
-29.296875
-25.634765625
-31.1279296875
-37.53662109375
-32.958984375
-28.38134765625
-29.296875
-32.04345703125
-15.56396484375
-17.39501953125
-22.88818359375
-36.62109375
-32.958984375
-19.22607421875
-18.310546875
-19.22607421875
-20.1416015625
-24.71923828125
-33.87451171875
-35.70556640625
-33.87451171875
-35.70556640625
-30.21240234375
-26.55029296875
-21.97265625
-19.22607421875
-17.39501953125
-3.662109375
-20.1416015625
-33.87451171875
-32.958984375
-25.634765625
-25.634765625
-20.1416015625
-12.8173828125
-12.8173828125
-21.97265625
-14.6484375
-20.1416015625
-32.04345703125
-15.56396484375
-16.4794921875
-12.8173828125
-16.4794921875
-18.310546875
-21.05712890625
-21.05712890625
-26.55029296875
-26.55029296875
-32.958984375
-22.88818359375
-19.22607421875
-32.958984375
-27.4658203125
-21.97265625
-26.55029296875
-32.958984375
-28.38134765625
-33.87451171875
-32.958984375
-30.21240234375
-31.1279296875
-32.958984375
-40.283203125
-36.62109375
-39.36767578125
-41.19873046875
-49.4384765625
-54.01611328125
-45.7763671875
-48.52294921875
-44.86083984375
-47.607421875
-45.7763671875
-42.1142578125
-48.52294921875
-40.283203125
-37.53662109375
-43.9453125
-53.1005859375
-57.67822265625
-64.0869140625
-54.01611328125
-50.35400390625
-52.18505859375
-45.7763671875
-38.4521484375
-33.87451171875
-27.4658203125
-36.62109375
-43.9453125
-52.18505859375
-47.607421875
-48.52294921875
-45.7763671875
-44.86083984375
-49.4384765625
-49.4384765625
-47.607421875
-50.35400390625
-47.607421875
-36.62109375
-43.02978515625
-35.70556640625
-38.4521484375
-52.18505859375
-54.931640625
-53.1005859375
-62.255859375
-58.59375
-49.4384765625
-50.35400390625
-43.9453125
-34.7900390625
-28.38134765625
-43.02978515625
-38.4521484375
-38.4521484375
-48.52294921875
-37.53662109375
-46.69189453125
-43.9453125
-44.86083984375
-48.52294921875
-52.18505859375
-58.59375
-66.83349609375
-62.255859375
-62.255859375
-45.7763671875
-43.02978515625
-54.01611328125
-55.84716796875
-67.7490234375
-51.26953125
-66.83349609375
-63.17138671875
-59.50927734375
-63.17138671875
-58.59375
-59.50927734375
-58.59375
-49.4384765625
-56.7626953125
-61.34033203125
-60.4248046875
-61.34033203125
-55.84716796875
-46.69189453125
-54.01611328125
-46.69189453125
-54.01611328125
-46.69189453125
-38.4521484375
-43.9453125
-43.9453125
-48.52294921875
-38.4521484375
-39.36767578125
-46.69189453125
-45.7763671875
-55.84716796875
-44.86083984375
-21.05712890625
-1.8310546875
-6.40869140625
-10.986328125
-20.1416015625
-26.55029296875
-20.1416015625
-15.56396484375
-17.39501953125
-11.90185546875
4.57763671875
21.97265625
20.1416015625
9.1552734375
25.634765625
23.8037109375
21.05712890625
17.39501953125
21.97265625
33.87451171875
25.634765625
18.310546875
10.07080078125
10.986328125
3.662109375
-8.23974609375
-9.1552734375
-21.05712890625
-31.1279296875
-38.4521484375
-47.607421875
-44.86083984375
-53.1005859375
-53.1005859375
-54.01611328125
-65.00244140625
-72.32666015625
-70.49560546875
-81.48193359375
-86.0595703125
-73.2421875
-64.0869140625
-67.7490234375
-73.2421875
-75.0732421875
-74.15771484375
-71.4111328125
-75.0732421875
-76.904296875
-67.7490234375
-64.0869140625
-70.49560546875
-68.66455078125
-65.91796875
-66.83349609375
-72.32666015625
-62.255859375
-69.580078125
-70.49560546875
-61.34033203125
-67.7490234375
-55.84716796875
-62.255859375
-58.59375
-63.17138671875
-59.50927734375
-65.00244140625
-70.49560546875
-63.17138671875
-60.4248046875
-61.34033203125
-69.580078125
-65.91796875
-64.0869140625
-69.580078125
-75.0732421875
-69.580078125
-70.49560546875
-78.7353515625
-72.32666015625
-65.00244140625
-65.91796875
-66.83349609375
-76.904296875
-86.0595703125
-103.45458984375
-130.92041015625
-118.10302734375
-114.44091796875
-78.7353515625
-55.84716796875
-33.87451171875
15.56396484375
115.3564453125
238.95263671875
346.98486328125
465.087890625
559.38720703125
663.75732421875
809.326171875
932.92236328125
1039.12353515625
1119.68994140625
1171.875
1189.27001953125
1148.0712890625
1025.390625
829.4677734375
567.626953125
392.76123046875
261.8408203125
168.45703125
108.94775390625
93.3837890625
82.3974609375
68.66455078125
54.01611328125
33.87451171875
31.1279296875
12.8173828125
2.74658203125
-1.8310546875
-2.74658203125
-5.4931640625
-11.90185546875
-24.71923828125
-27.4658203125
-22.88818359375
-22.88818359375
-26.55029296875
-29.296875
-21.97265625
-42.1142578125
-44.86083984375
-28.38134765625
-31.1279296875
-41.19873046875
-35.70556640625
-40.283203125
-35.70556640625
-25.634765625
-31.1279296875
-32.04345703125
-10.986328125
-7.32421875
-4.57763671875
-9.1552734375
-2.74658203125
-6.40869140625
-11.90185546875
-13.73291015625
-12.8173828125
-18.310546875
-17.39501953125
-13.73291015625
-20.1416015625
-14.6484375
-16.4794921875
-22.88818359375
-27.4658203125
-4.57763671875
10.986328125
0.91552734375
0.91552734375
-3.662109375
7.32421875
3.662109375
6.40869140625
-4.57763671875
2.74658203125
4.57763671875
15.56396484375
22.88818359375
19.22607421875
15.56396484375
22.88818359375
25.634765625
24.71923828125
30.21240234375
32.958984375
39.36767578125
42.1142578125
38.4521484375
53.1005859375
53.1005859375
52.18505859375
48.52294921875
55.84716796875
62.255859375
53.1005859375
48.52294921875
60.4248046875
75.98876953125
86.0595703125
97.0458984375
97.0458984375
103.45458984375
109.86328125
119.0185546875
112.60986328125
119.0185546875
126.3427734375
128.173828125
133.6669921875
148.3154296875
151.06201171875
153.80859375
160.21728515625
162.9638671875
182.18994140625
192.2607421875
191.34521484375
208.740234375
212.40234375
224.30419921875
242.61474609375
249.0234375
248.10791015625
252.685546875
255.43212890625
261.8408203125
266.41845703125
273.74267578125
276.4892578125
282.89794921875
289.306640625
292.96875
289.306640625
293.88427734375
300.29296875
298.4619140625
297.54638671875
299.37744140625
302.1240234375
300.29296875
291.1376953125
295.71533203125
283.8134765625
275.57373046875
269.1650390625
259.09423828125
235.29052734375
222.47314453125
215.14892578125
207.82470703125
195.00732421875
186.767578125
165.71044921875
151.06201171875
138.24462890625
126.3427734375
118.10302734375
107.11669921875
89.7216796875
67.7490234375
64.0869140625
60.4248046875
41.19873046875
33.87451171875
32.04345703125
37.53662109375
18.310546875
11.90185546875
11.90185546875
13.73291015625
2.74658203125
-1.8310546875
-6.40869140625
-6.40869140625
-15.56396484375
-19.22607421875
-16.4794921875
-15.56396484375
-10.986328125
-15.56396484375
-17.39501953125
-10.986328125
-4.57763671875
0
-10.07080078125
-21.05712890625
-10.07080078125
-10.986328125
-10.986328125
-8.23974609375
-14.6484375
-30.21240234375
-20.1416015625
-19.22607421875
-21.97265625
-17.39501953125
-12.8173828125
-19.22607421875
-21.05712890625
-10.07080078125
-15.56396484375
-11.90185546875
-6.40869140625
-2.74658203125
-0.91552734375
10.07080078125
0
3.662109375
6.40869140625
8.23974609375
-9.1552734375
-10.07080078125
-18.310546875
-23.8037109375
-31.1279296875
-7.32421875
-9.1552734375
-10.07080078125
-2.74658203125
-0.91552734375
-9.1552734375
-3.662109375
7.32421875
4.57763671875
-16.4794921875
-18.310546875
-15.56396484375
-12.8173828125
-10.986328125
-3.662109375
2.74658203125
-5.4931640625
-10.986328125
-22.88818359375
-30.21240234375
-18.310546875
-14.6484375
-18.310546875
-18.310546875
-24.71923828125
-28.38134765625
-26.55029296875
-27.4658203125
-30.21240234375
-31.1279296875
-39.36767578125
-33.87451171875
-25.634765625
-16.4794921875
-25.634765625
-25.634765625
-21.05712890625
-36.62109375
-43.02978515625
-40.283203125
-39.36767578125
-33.87451171875
-10.986328125
-14.6484375
-19.22607421875
-27.4658203125
-35.70556640625
-30.21240234375
-24.71923828125
-32.958984375
-37.53662109375
-32.958984375
-36.62109375
-34.7900390625
-23.8037109375
-31.1279296875
-33.87451171875
-36.62109375
-32.04345703125
-42.1142578125
-44.86083984375
-50.35400390625
-51.26953125
-57.67822265625
-59.50927734375
-59.50927734375
-60.4248046875
-54.931640625
-49.4384765625
-55.84716796875
-48.52294921875
-46.69189453125
-43.9453125
-43.9453125
-50.35400390625
-43.02978515625
-40.283203125
-48.52294921875
-64.0869140625
-63.17138671875
-52.18505859375
-36.62109375
-39.36767578125
-48.52294921875
-43.9453125
-32.958984375
-33.87451171875
-36.62109375
-43.9453125
-58.59375
-59.50927734375
-52.18505859375
-54.931640625
-52.18505859375
-61.34033203125
-56.7626953125
-51.26953125
-57.67822265625
-57.67822265625
-58.59375
-61.34033203125
-65.00244140625
-58.59375
-53.1005859375
-53.1005859375
-54.01611328125
-58.59375
-55.84716796875
-50.35400390625
-46.69189453125
-54.01611328125
-56.7626953125
-62.255859375
-48.52294921875
-46.69189453125
-48.52294921875
-54.931640625
-55.84716796875
-53.1005859375
-62.255859375
-57.67822265625
-61.34033203125
-53.1005859375
-55.84716796875
-58.59375
-58.59375
-65.91796875
-61.34033203125
-54.931640625
-55.84716796875
-53.1005859375
-57.67822265625
-54.01611328125
-65.00244140625
-62.255859375
-54.931640625
-58.59375
-53.1005859375
-53.1005859375
-62.255859375
-64.0869140625
-64.0869140625
-57.67822265625
-51.26953125
-58.59375
-52.18505859375
-46.69189453125
-55.84716796875
-64.0869140625
-73.2421875
-81.48193359375
-66.83349609375
-54.931640625
-30.21240234375
-7.32421875
-0.91552734375
-0.91552734375
10.986328125
9.1552734375
-9.1552734375
-8.23974609375
0
-10.07080078125
-7.32421875
-5.4931640625
-19.22607421875
-16.4794921875
-16.4794921875
-20.1416015625
-21.05712890625
-22.88818359375
-13.73291015625
-16.4794921875
-24.71923828125
-40.283203125
-44.86083984375
-44.86083984375
-54.931640625
-63.17138671875
-66.83349609375
-61.34033203125
-52.18505859375
-46.69189453125
-64.0869140625
-56.7626953125
-53.1005859375
-56.7626953125
-71.4111328125
-56.7626953125
-54.931640625
-57.67822265625
-54.01611328125
-51.26953125
-52.18505859375
-60.4248046875
-54.01611328125
-56.7626953125
-56.7626953125
-65.91796875
-70.49560546875
-68.66455078125
-75.98876953125
-77.81982421875
-74.15771484375
-68.66455078125
-65.00244140625
-70.49560546875
-64.0869140625
-70.49560546875
-75.0732421875
-75.98876953125
-72.32666015625
-68.66455078125
-72.32666015625
-72.32666015625
-64.0869140625
-62.255859375
-65.91796875
-70.49560546875
-63.17138671875
-57.67822265625
-65.00244140625
-59.50927734375
-60.4248046875
-62.255859375
-52.18505859375
-54.01611328125
-70.49560546875
-84.228515625
-98.876953125
-99.79248046875
-92.46826171875
-89.7216796875
-59.50927734375
-30.21240234375
16.4794921875
108.94775390625
217.8955078125
329.58984375
438.53759765625
529.1748046875
649.10888671875
780.94482421875
904.541015625
1012.5732421875
1093.1396484375
1146.240234375
1168.212890625
1154.47998046875
1055.60302734375
856.01806640625
610.65673828125
427.55126953125
274.658203125
160.21728515625
83.31298828125
83.31298828125
78.7353515625
66.83349609375
59.50927734375
42.1142578125
22.88818359375
15.56396484375
10.986328125
12.8173828125
10.07080078125
-3.662109375
-18.310546875
-28.38134765625
-27.4658203125
-27.4658203125
-32.04345703125
-30.21240234375
-32.04345703125
-39.36767578125
-51.26953125
-36.62109375
-34.7900390625
-37.53662109375
-39.36767578125
-31.1279296875
-26.55029296875
-31.1279296875
-43.9453125
-41.19873046875
-36.62109375
-28.38134765625
-25.634765625
-21.97265625
-16.4794921875
-20.1416015625
-21.97265625
-15.56396484375
-12.8173828125
-20.1416015625
-14.6484375
-6.40869140625
-11.90185546875
-10.07080078125
-15.56396484375
-30.21240234375
-25.634765625
-29.296875
-22.88818359375
-20.1416015625
-14.6484375
-9.1552734375
-10.07080078125
-10.07080078125
-3.662109375
4.57763671875
-0.91552734375
4.57763671875
7.32421875
6.40869140625
14.6484375
22.88818359375
20.1416015625
26.55029296875
24.71923828125
17.39501953125
23.8037109375
21.97265625
28.38134765625
32.04345703125
29.296875
43.02978515625
37.53662109375
39.36767578125
41.19873046875
37.53662109375
46.69189453125
59.50927734375
60.4248046875
69.580078125
65.91796875
63.17138671875
71.4111328125
76.904296875
78.7353515625
93.3837890625
104.3701171875
112.60986328125
123.59619140625
131.8359375
136.41357421875
130.92041015625
140.9912109375
147.39990234375
162.04833984375
158.38623046875
166.6259765625
189.51416015625
188.5986328125
194.091796875
188.5986328125
204.16259765625
213.31787109375
216.97998046875
226.13525390625
221.5576171875
227.96630859375
229.79736328125
234.375
238.95263671875
238.037109375
235.29052734375
258.1787109375
260.009765625
272.8271484375
284.72900390625
292.96875
295.71533203125
292.96875
287.4755859375
287.4755859375
285.64453125
293.88427734375
282.89794921875
283.8134765625
277.40478515625
268.24951171875
261.8408203125
248.10791015625
235.29052734375
230.712890625
216.97998046875
211.48681640625
198.66943359375
173.9501953125
155.6396484375
156.55517578125
129.08935546875
119.0185546875
108.0322265625
102.5390625
92.46826171875
66.83349609375
57.67822265625
45.7763671875
42.1142578125
40.283203125
11.90185546875
4.57763671875
2.74658203125
3.662109375
5.4931640625
7.32421875
-0.91552734375
1.8310546875
-11.90185546875
-13.73291015625
-15.56396484375
-13.73291015625
-13.73291015625
-17.39501953125
-20.1416015625
-27.4658203125
-31.1279296875
-28.38134765625
-23.8037109375
-27.4658203125
-36.62109375
-30.21240234375
-18.310546875
-27.4658203125
-23.8037109375
-28.38134765625
-34.7900390625
-32.04345703125
-28.38134765625
-29.296875
-26.55029296875
-20.1416015625
-12.8173828125
-10.07080078125
-11.90185546875
-9.1552734375
-9.1552734375
-19.22607421875
-8.23974609375
-16.4794921875
-15.56396484375
-16.4794921875
-12.8173828125
-14.6484375
-20.1416015625
-23.8037109375
-29.296875
-23.8037109375
-6.40869140625
-4.57763671875
-13.73291015625
-13.73291015625
-17.39501953125
-25.634765625
-19.22607421875
-17.39501953125
-13.73291015625
-10.07080078125
-10.986328125
-18.310546875
-28.38134765625
-19.22607421875
-12.8173828125
-16.4794921875
-22.88818359375
-15.56396484375
-22.88818359375
-27.4658203125
-35.70556640625
-32.958984375
-18.310546875
-13.73291015625
-12.8173828125
-15.56396484375
-21.05712890625
-22.88818359375
-29.296875
-20.1416015625
-22.88818359375
-21.97265625
-26.55029296875
-37.53662109375
-36.62109375
-36.62109375
-30.21240234375
-31.1279296875
-38.4521484375
-43.9453125
-50.35400390625
-36.62109375
-30.21240234375
-36.62109375
-43.9453125
-49.4384765625
-50.35400390625
-55.84716796875
-41.19873046875
-28.38134765625
-34.7900390625
-37.53662109375
-42.1142578125
-38.4521484375
-41.19873046875
-40.283203125
-39.36767578125
-49.4384765625
-58.59375
-54.01611328125
-55.84716796875
-60.4248046875
-48.52294921875
-42.1142578125
-48.52294921875
-54.931640625
-57.67822265625
-50.35400390625
-45.7763671875
-38.4521484375
-45.7763671875
-56.7626953125
-57.67822265625
-57.67822265625
-60.4248046875
-56.7626953125
-63.17138671875
-70.49560546875
-75.0732421875
-75.0732421875
-75.98876953125
-73.2421875
-81.48193359375
-65.91796875
-68.66455078125
-64.0869140625
-61.34033203125
-70.49560546875
-70.49560546875
-72.32666015625
-74.15771484375
-76.904296875
-80.56640625
-68.66455078125
-72.32666015625
-75.0732421875
-69.580078125
-78.7353515625
-72.32666015625
-69.580078125
-72.32666015625
-84.228515625
-83.31298828125
-77.81982421875
-85.14404296875
-83.31298828125
-79.65087890625
-65.00244140625
-65.00244140625
-74.15771484375
-71.4111328125
-75.98876953125
-72.32666015625
-71.4111328125
-68.66455078125
-55.84716796875
-56.7626953125
-55.84716796875
-63.17138671875
-60.4248046875
-67.7490234375
-70.49560546875
-80.56640625
-66.83349609375
-59.50927734375
-59.50927734375
-62.255859375
-65.91796875
-60.4248046875
-65.91796875
-57.67822265625
-56.7626953125
-61.34033203125
-64.0869140625
-62.255859375
-51.26953125
-53.1005859375
-60.4248046875
-55.84716796875
-56.7626953125
-58.59375
-75.0732421875
-70.49560546875
-73.2421875
-72.32666015625
-46.69189453125
-37.53662109375
-17.39501953125
-30.21240234375
-20.1416015625
-23.8037109375
-36.62109375
-43.9453125
-23.8037109375
-16.4794921875
-24.71923828125
0.91552734375
2.74658203125
-13.73291015625
-26.55029296875
-39.36767578125
-52.18505859375
-31.1279296875
-44.86083984375
-49.4384765625
-45.7763671875
-57.67822265625
-75.0732421875
-81.48193359375
-82.3974609375
-79.65087890625
-80.56640625
-74.15771484375
-85.14404296875
-94.29931640625
-95.21484375
-70.49560546875
-73.2421875
-92.46826171875
-87.890625
-86.97509765625
-81.48193359375
-91.552734375
-98.876953125
-96.13037109375
-79.65087890625
-83.31298828125
-96.13037109375
-90.63720703125
-94.29931640625
-100.7080078125
-94.29931640625
-90.63720703125
-83.31298828125
-86.97509765625
-78.7353515625
-81.48193359375
-88.80615234375
-93.3837890625
-75.0732421875
-87.890625
-100.7080078125
-89.7216796875
-87.890625
-90.63720703125
-85.14404296875
-84.228515625
-83.31298828125
-98.876953125
-107.11669921875
-96.13037109375
-88.80615234375
-90.63720703125
-101.62353515625
-102.5390625
-86.97509765625
-97.0458984375
-107.11669921875
-121.76513671875
-119.0185546875
-122.6806640625
-138.24462890625
-136.41357421875
-126.3427734375
-117.1875
-74.15771484375
-41.19873046875
29.296875
141.90673828125
251.77001953125
347.900390625
471.49658203125
572.20458984375
691.22314453125
823.05908203125
934.75341796875
1029.052734375
1102.294921875
1136.16943359375
1149.90234375
1103.21044921875
941.162109375
696.71630859375
470.5810546875
332.33642578125
198.66943359375
99.79248046875
58.59375
53.1005859375
26.55029296875
10.07080078125
5.4931640625
-21.05712890625
-29.296875
-25.634765625
-36.62109375
-31.1279296875
-46.69189453125
-44.86083984375
-59.50927734375
-57.67822265625
-55.84716796875
-64.0869140625
-60.4248046875
-75.0732421875
-81.48193359375
-78.7353515625
-90.63720703125
-96.13037109375
-98.876953125
-86.0595703125
-75.98876953125
-80.56640625
-93.3837890625
-60.4248046875
-69.580078125
-78.7353515625
-87.890625
-88.80615234375
-96.13037109375
-94.29931640625
-80.56640625
-81.48193359375
-82.3974609375
-91.552734375
-86.0595703125
-75.98876953125
-79.65087890625
-68.66455078125
-79.65087890625
-67.7490234375
-69.580078125
-62.255859375
-63.17138671875
-64.0869140625
-71.4111328125
-60.4248046875
-58.59375
-52.18505859375
-44.86083984375
-42.1142578125
-39.36767578125
-44.86083984375
-32.04345703125
-36.62109375
-54.01611328125
-36.62109375
-36.62109375
-38.4521484375
-37.53662109375
-22.88818359375
-25.634765625
-30.21240234375
-30.21240234375
-38.4521484375
-33.87451171875
-24.71923828125
1.8310546875
-5.4931640625
-15.56396484375
1.8310546875
-11.90185546875
-3.662109375
8.23974609375
21.97265625
22.88818359375
11.90185546875
18.310546875
23.8037109375
32.958984375
26.55029296875
48.52294921875
55.84716796875
54.931640625
49.4384765625
57.67822265625
65.91796875
67.7490234375
76.904296875
78.7353515625
75.0732421875
96.13037109375
108.94775390625
119.93408203125
110.77880859375
129.08935546875
132.75146484375
134.58251953125
140.07568359375
139.16015625
147.39990234375
168.45703125
184.02099609375
194.091796875
195.00732421875
205.078125
223.388671875
214.2333984375
206.9091796875
218.81103515625
220.64208984375
222.47314453125
238.95263671875
245.361328125
227.96630859375
231.62841796875
238.95263671875
238.037109375
238.95263671875
226.13525390625
221.5576171875
198.66943359375
204.16259765625
212.40234375
196.83837890625
190.4296875
174.86572265625
159.3017578125
152.89306640625
125.42724609375
123.59619140625
117.1875
86.97509765625
74.15771484375
75.0732421875
58.59375
29.296875
10.07080078125
10.07080078125
2.74658203125
-10.986328125
-13.73291015625
-21.97265625
-25.634765625
-34.7900390625
-43.02978515625
-42.1142578125
-50.35400390625
-61.34033203125
-65.00244140625
-78.7353515625
-77.81982421875
-75.0732421875
-73.2421875
-76.904296875
-95.21484375
-96.13037109375
-95.21484375
-83.31298828125
-83.31298828125
-89.7216796875
-81.48193359375
-69.580078125
-80.56640625
-80.56640625
-81.48193359375
-91.552734375
-88.80615234375
-87.890625
-69.580078125
-75.0732421875
-70.49560546875
-96.13037109375
-78.7353515625
-71.4111328125
-76.904296875
-81.48193359375
-92.46826171875
-82.3974609375
-92.46826171875
-85.14404296875
-69.580078125
-68.66455078125
-85.14404296875
-82.3974609375
-74.15771484375
-82.3974609375
-77.81982421875
-78.7353515625
-72.32666015625
-73.2421875
-75.0732421875
-72.32666015625
-58.59375
-65.00244140625
-65.00244140625
-65.91796875
-64.0869140625
-63.17138671875
-68.66455078125
-73.2421875
-85.14404296875
-73.2421875
-78.7353515625
-65.91796875
-68.66455078125
-78.7353515625
-78.7353515625
-81.48193359375
-80.56640625
-79.65087890625
-85.14404296875
-75.98876953125
-70.49560546875
-81.48193359375
-78.7353515625
-73.2421875
-75.0732421875
-75.98876953125
-87.890625
-80.56640625
-74.15771484375
-81.48193359375
-86.0595703125
-100.7080078125
-92.46826171875
-95.21484375
-87.890625
-82.3974609375
-78.7353515625
-82.3974609375
-85.14404296875
-91.552734375
-86.97509765625
-91.552734375
-92.46826171875
-93.3837890625
-87.890625
-83.31298828125
-92.46826171875
-101.62353515625
-97.0458984375
-88.80615234375
-103.45458984375
-130.92041015625
-132.75146484375
-112.60986328125
-86.0595703125
-97.0458984375
-102.5390625
-97.0458984375
-97.96142578125
-95.21484375
-97.96142578125
-112.60986328125
-116.27197265625
-98.876953125
-100.7080078125
-99.79248046875
-104.3701171875
-103.45458984375
-105.28564453125
-112.60986328125
-116.27197265625
-113.525390625
-113.525390625
-105.28564453125
-105.28564453125
-108.0322265625
-104.3701171875
-99.79248046875
-105.28564453125
-102.5390625
-111.6943359375
-111.6943359375
-108.94775390625
-115.3564453125
-108.0322265625
-105.28564453125
-95.21484375
-103.45458984375
-100.7080078125
-108.94775390625
-118.10302734375
-113.525390625
-120.849609375
-113.525390625
-109.86328125
-108.0322265625
-115.3564453125
-96.13037109375
-105.28564453125
-109.86328125
-108.0322265625
-101.62353515625
-105.28564453125
-100.7080078125
-94.29931640625
-97.0458984375
-99.79248046875
-98.876953125
-100.7080078125
-107.11669921875
-112.60986328125
-93.3837890625
-97.0458984375
-102.5390625
-98.876953125
-107.11669921875
-103.45458984375
-101.62353515625
-105.28564453125
-108.94775390625
-109.86328125
-111.6943359375
-99.79248046875
-108.94775390625
-108.94775390625
-108.94775390625
-109.86328125
-107.11669921875
-116.27197265625
-120.849609375
-115.3564453125
-119.93408203125
-112.60986328125
-114.44091796875
-106.201171875
-104.3701171875
-92.46826171875
-100.7080078125
-104.3701171875
-108.0322265625
-108.0322265625
-112.60986328125
-108.0322265625
-100.7080078125
-96.13037109375
-86.97509765625
-86.97509765625
-84.228515625
-93.3837890625
-104.3701171875
-105.28564453125
-111.6943359375
-113.525390625
-109.86328125
-107.11669921875
-111.6943359375
-101.62353515625
-119.0185546875
-115.3564453125
-119.0185546875
-105.28564453125
-80.56640625
-64.0869140625
-50.35400390625
-37.53662109375
-45.7763671875
-63.17138671875
-65.00244140625
-45.7763671875
-36.62109375
-45.7763671875
-39.36767578125
-39.36767578125
-47.607421875
-51.26953125
-61.34033203125
-67.7490234375
-63.17138671875
-66.83349609375
-73.2421875
-80.56640625
-84.228515625
-88.80615234375
-87.890625
-95.21484375
-103.45458984375
-106.201171875
-109.86328125
-108.94775390625
-110.77880859375
-112.60986328125
-104.3701171875
-105.28564453125
-102.5390625
-108.94775390625
-109.86328125
-118.10302734375
-122.6806640625
-116.27197265625
-109.86328125
-103.45458984375
-107.11669921875
-102.5390625
-103.45458984375
-114.44091796875
-153.80859375
-155.6396484375
-140.07568359375
-124.51171875
-125.42724609375
-127.25830078125
-117.1875
-116.27197265625
-126.3427734375
-129.08935546875
-125.42724609375
-126.3427734375
-119.0185546875
-125.42724609375
-129.08935546875
-127.25830078125
-112.60986328125
-120.849609375
-117.1875
-123.59619140625
-119.0185546875
-118.10302734375
-115.3564453125
-110.77880859375
-113.525390625
-127.25830078125
-126.3427734375
-139.16015625
-140.9912109375
-155.6396484375
-173.9501953125
-163.87939453125
-151.06201171875
-132.75146484375
-98.876953125
-62.255859375
4.57763671875
122.6806640625
249.93896484375
356.14013671875
450.439453125
554.8095703125
674.74365234375
796.5087890625
910.0341796875
1008.9111328125
1076.66015625
1118.7744140625
1116.02783203125
1052.8564453125
892.63916015625
662.841796875
433.04443359375
276.4892578125
169.37255859375
75.0732421875
47.607421875
42.1142578125
27.4658203125
11.90185546875
-9.1552734375
-23.8037109375
-28.38134765625
-32.958984375
-42.1142578125
-43.9453125
-52.18505859375
-62.255859375
-75.0732421875
-73.2421875
-72.32666015625
-77.81982421875
-69.580078125
-71.4111328125
-73.2421875
-66.83349609375
-58.59375
-65.91796875
-60.4248046875
-65.00244140625
-73.2421875
-75.0732421875
-64.0869140625
-76.904296875
-82.3974609375
-77.81982421875
-72.32666015625
-68.66455078125
-65.00244140625
-64.0869140625
-62.255859375
-59.50927734375
-56.7626953125
-61.34033203125
-59.50927734375
-56.7626953125
-58.59375
-65.00244140625
-67.7490234375
-56.7626953125
-58.59375
-64.0869140625
-60.4248046875
-53.1005859375
-58.59375
-54.01611328125
-48.52294921875
-40.283203125
-38.4521484375
-41.19873046875
-43.9453125
-44.86083984375
-35.70556640625
-33.87451171875
-32.958984375
-33.87451171875
-40.283203125
-50.35400390625
-48.52294921875
-46.69189453125
-43.9453125
-24.71923828125
-7.32421875
-5.4931640625
-0.91552734375
3.662109375
-4.57763671875
5.4931640625
4.57763671875
17.39501953125
11.90185546875
20.1416015625
21.05712890625
37.53662109375
29.296875
32.04345703125
43.02978515625
39.36767578125
49.4384765625
51.26953125
55.84716796875
63.17138671875
69.580078125
82.3974609375
83.31298828125
94.29931640625
99.79248046875
105.28564453125
116.27197265625
119.93408203125
129.08935546875
133.6669921875
136.41357421875
148.3154296875
156.55517578125
162.9638671875
156.55517578125
160.21728515625
165.71044921875
181.2744140625
197.75390625
197.75390625
202.33154296875
217.8955078125
229.79736328125
229.79736328125
231.62841796875
231.62841796875
214.2333984375
222.47314453125
228.8818359375
246.27685546875
245.361328125
259.09423828125
268.24951171875
296.630859375
302.1240234375
279.23583984375
274.658203125
281.06689453125
274.658203125
271.91162109375
267.333984375
252.685546875
238.95263671875
232.5439453125
220.64208984375
200.50048828125
183.10546875
166.6259765625
149.23095703125
136.41357421875
116.27197265625
104.3701171875
87.890625
73.2421875
61.34033203125
54.931640625
41.19873046875
31.1279296875
21.97265625
16.4794921875
3.662109375
-5.4931640625
-6.40869140625
-11.90185546875
-14.6484375
-24.71923828125
-26.55029296875
-32.958984375
-44.86083984375
-49.4384765625
-55.84716796875
-50.35400390625
-62.255859375
-75.0732421875
-78.7353515625
-75.0732421875
-79.65087890625
-76.904296875
-71.4111328125
-73.2421875
-77.81982421875
-76.904296875
-78.7353515625
-63.17138671875
-48.52294921875
-38.4521484375
-41.19873046875
-29.296875
-38.4521484375
-39.36767578125
-46.69189453125
-44.86083984375
-48.52294921875
-48.52294921875
-54.931640625
-52.18505859375
-56.7626953125
-55.84716796875
-58.59375
-63.17138671875
-45.7763671875
-49.4384765625
-48.52294921875
-51.26953125
-53.1005859375
-55.84716796875
-66.83349609375
-59.50927734375
-54.01611328125
-54.931640625
-51.26953125
-54.931640625
-52.18505859375
-53.1005859375
-52.18505859375
-59.50927734375
-55.84716796875
-64.0869140625
-57.67822265625
-49.4384765625
-42.1142578125
-49.4384765625
-51.26953125
-45.7763671875
-47.607421875
-59.50927734375
-56.7626953125
-50.35400390625
-43.9453125
-44.86083984375
-54.01611328125
-71.4111328125
-76.904296875
-74.15771484375
-65.91796875
-60.4248046875
-67.7490234375
-75.98876953125
-62.255859375
-53.1005859375
-53.1005859375
-53.1005859375
-54.931640625
-65.91796875
-54.931640625
-51.26953125
-54.01611328125
-56.7626953125
-65.91796875
-71.4111328125
-73.2421875
-70.49560546875
-65.00244140625
-64.0869140625
-68.66455078125
-72.32666015625
-75.98876953125
-83.31298828125
-81.48193359375
-73.2421875
-67.7490234375
-76.904296875
-71.4111328125
-75.98876953125
-72.32666015625
-69.580078125
-69.580078125
-73.2421875
-73.2421875
-71.4111328125
-76.904296875
-85.14404296875
-83.31298828125
-83.31298828125
-76.904296875
-76.904296875
-90.63720703125
-95.21484375
-86.97509765625
-84.228515625
-85.14404296875
-86.0595703125
-85.14404296875
-83.31298828125
-73.2421875
-83.31298828125
-87.890625
-97.0458984375
-86.97509765625
-72.32666015625
-75.98876953125
-73.2421875
-86.0595703125
-87.890625
-86.97509765625
-85.14404296875
-84.228515625
-87.890625
-83.31298828125
-78.7353515625
-76.904296875
-70.49560546875
-75.98876953125
-81.48193359375
-75.0732421875
-74.15771484375
-79.65087890625
-82.3974609375
-87.890625
-81.48193359375
-71.4111328125
-69.580078125
-71.4111328125
-77.81982421875
-90.63720703125
-90.63720703125
-90.63720703125
-86.97509765625
-90.63720703125
-91.552734375
-82.3974609375
-84.228515625
-81.48193359375
-84.228515625
-89.7216796875
-83.31298828125
-89.7216796875
-88.80615234375
-85.14404296875
-85.14404296875
-87.890625
-99.79248046875
-97.0458984375
-100.7080078125
-88.80615234375
-86.0595703125
-81.48193359375
-87.890625
-86.97509765625
-82.3974609375
-87.890625
-89.7216796875
-88.80615234375
-91.552734375
-86.0595703125
-85.14404296875
-91.552734375
-76.904296875
-85.14404296875
-93.3837890625
-86.0595703125
-80.56640625
-92.46826171875
-102.5390625
-103.45458984375
-105.28564453125
-97.0458984375
-88.80615234375
-94.29931640625
-81.48193359375
-81.48193359375
-77.81982421875
-78.7353515625
-80.56640625
-83.31298828125
-80.56640625
-90.63720703125
-90.63720703125
-88.80615234375
-96.13037109375
-97.0458984375
-105.28564453125
-93.3837890625
-99.79248046875
-99.79248046875
-83.31298828125
-80.56640625
-82.3974609375
-85.14404296875
-89.7216796875
-92.46826171875
-94.29931640625
-104.3701171875
-97.96142578125
-89.7216796875
-74.15771484375
-57.67822265625
-43.9453125
-32.04345703125
-36.62109375
-39.36767578125
-48.52294921875
-46.69189453125
-43.9453125
-41.19873046875
-35.70556640625
-52.18505859375
-32.958984375
-52.18505859375
-54.931640625
-47.607421875
-43.02978515625
-52.18505859375
-65.91796875
-70.49560546875
-83.31298828125
-82.3974609375
-102.5390625
-101.62353515625
-105.28564453125
-107.11669921875
-100.7080078125
-96.13037109375
-100.7080078125
-101.62353515625
-90.63720703125
-89.7216796875
-97.96142578125
-108.94775390625
-108.0322265625
-107.11669921875
-99.79248046875
-105.28564453125
-108.0322265625
-107.11669921875
-109.86328125
-102.5390625
-100.7080078125
-115.3564453125
-112.60986328125
-109.86328125
-107.11669921875
-102.5390625
-109.86328125
-116.27197265625
-117.1875
-101.62353515625
-106.201171875
-108.0322265625
-97.0458984375
-97.0458984375
-105.28564453125
-116.27197265625
-109.86328125
-118.10302734375
-111.6943359375
-115.3564453125
-114.44091796875
-113.525390625
-111.6943359375
-100.7080078125
-95.21484375
-85.14404296875
-105.28564453125
-116.27197265625
-109.86328125
-123.59619140625
-131.8359375
-134.58251953125
-141.90673828125
-140.9912109375
-126.3427734375
-123.59619140625
-95.21484375
-70.49560546875
-15.56396484375
81.48193359375
198.66943359375
302.1240234375
417.48046875
512.6953125
618.896484375
737.9150390625
867.00439453125
974.12109375
1070.25146484375
1121.52099609375
1140.7470703125
1118.7744140625
1014.404296875
817.56591796875
557.55615234375
387.26806640625
243.5302734375
138.24462890625
75.98876953125
57.67822265625
43.9453125
32.04345703125
21.97265625
7.32421875
-9.1552734375
-22.88818359375
-40.283203125
-53.1005859375
-59.50927734375
-59.50927734375
-62.255859375
-54.931640625
-54.01611328125
-59.50927734375
-60.4248046875
-67.7490234375
-65.00244140625
-58.59375
-67.7490234375
-71.4111328125
-76.904296875
-84.228515625
-83.31298828125
-93.3837890625
-72.32666015625
-57.67822265625
-49.4384765625
-56.7626953125
-65.00244140625
-69.580078125
-75.98876953125
-68.66455078125
-80.56640625
-78.7353515625
-67.7490234375
-66.83349609375
-69.580078125
-57.67822265625
-45.7763671875
-42.1142578125
-47.607421875
-55.84716796875
-62.255859375
-70.49560546875
-71.4111328125
-60.4248046875
-54.931640625
-56.7626953125
-53.1005859375
-58.59375
-48.52294921875
-37.53662109375
-32.958984375
-36.62109375
-40.283203125
-46.69189453125
-46.69189453125
-40.283203125
-40.283203125
-31.1279296875
-41.19873046875
-42.1142578125
-42.1142578125
-43.02978515625
-32.958984375
-22.88818359375
-20.1416015625
-15.56396484375
-7.32421875
-10.07080078125
-19.22607421875
0
0.91552734375
0
-6.40869140625
0
13.73291015625
21.05712890625
31.1279296875
16.4794921875
29.296875
21.97265625
21.05712890625
33.87451171875
49.4384765625
59.50927734375
75.0732421875
87.890625
91.552734375
82.3974609375
83.31298828125
96.13037109375
106.201171875
119.0185546875
127.25830078125
133.6669921875
133.6669921875
135.498046875
142.822265625
151.06201171875
155.6396484375
169.37255859375
179.443359375
184.02099609375
182.18994140625
185.85205078125
188.5986328125
195.9228515625
204.16259765625
219.7265625
224.30419921875
233.45947265625
227.05078125
227.96630859375
227.05078125
227.96630859375
230.712890625
247.1923828125
247.1923828125
246.27685546875
251.77001953125
247.1923828125
247.1923828125
227.96630859375
219.7265625
212.40234375
217.8955078125
204.16259765625
186.767578125
176.69677734375
168.45703125
150.146484375
133.6669921875
119.93408203125
103.45458984375
106.201171875
88.80615234375
66.83349609375
65.00244140625
49.4384765625
33.87451171875
21.05712890625
12.8173828125
7.32421875
-4.57763671875
-12.8173828125
-16.4794921875
-31.1279296875
-38.4521484375
-47.607421875
-46.69189453125
-53.1005859375
-50.35400390625
-52.18505859375
-61.34033203125
-56.7626953125
-58.59375
-55.84716796875
-75.98876953125
-82.3974609375
-83.31298828125
-92.46826171875
-92.46826171875
-82.3974609375
-89.7216796875
-89.7216796875
-93.3837890625
-99.79248046875
-97.0458984375
-92.46826171875
-98.876953125
-94.29931640625
-85.14404296875
-78.7353515625
-82.3974609375
-86.97509765625
-90.63720703125
-92.46826171875
-89.7216796875
-83.31298828125
-85.14404296875
-88.80615234375
-79.65087890625
-80.56640625
-84.228515625
-75.98876953125
-82.3974609375
-94.29931640625
-88.80615234375
-82.3974609375
-75.0732421875
-75.98876953125
-77.81982421875
-82.3974609375
-89.7216796875
-75.0732421875
-69.580078125
-81.48193359375
-92.46826171875
-81.48193359375
-72.32666015625
-81.48193359375
-82.3974609375
-77.81982421875
-86.0595703125
-93.3837890625
-86.97509765625
-86.97509765625
-85.14404296875
-85.14404296875
-81.48193359375
-74.15771484375
-83.31298828125
-83.31298828125
-94.29931640625
-86.0595703125
-88.80615234375
-92.46826171875
-90.63720703125
-112.60986328125
-120.849609375
-108.94775390625
-89.7216796875
-86.97509765625
-91.552734375
-89.7216796875
-86.97509765625
-75.98876953125
-79.65087890625
-92.46826171875
-102.5390625
-100.7080078125
-105.28564453125
-86.97509765625
-82.3974609375
-85.14404296875
-83.31298828125
-81.48193359375
-92.46826171875
-98.876953125
-99.79248046875
-103.45458984375
-97.96142578125
-100.7080078125
-111.6943359375
-101.62353515625
-93.3837890625
-100.7080078125
-93.3837890625
-96.13037109375
-96.13037109375
-100.7080078125
-104.3701171875
-106.201171875
-109.86328125
-113.525390625
-118.10302734375
-113.525390625
-107.11669921875
-97.96142578125
-107.11669921875
-98.876953125
-105.28564453125
-115.3564453125
-110.77880859375
-117.1875
-98.876953125
-93.3837890625
-103.45458984375
-99.79248046875
-94.29931640625
-87.890625
-93.3837890625
-101.62353515625
-98.876953125
-98.876953125
-107.11669921875
-111.6943359375
-115.3564453125
-113.525390625
-118.10302734375
-117.1875
-114.44091796875
-108.0322265625
-100.7080078125
-98.876953125
-109.86328125
-113.525390625
-103.45458984375
-103.45458984375
-101.62353515625
-108.0322265625
-101.62353515625
-106.201171875
-108.0322265625
-107.11669921875
-109.86328125
-116.27197265625
-119.0185546875
-106.201171875
-103.45458984375
-105.28564453125
-98.876953125
-106.201171875
-104.3701171875
-97.96142578125
-100.7080078125
-110.77880859375
-118.10302734375
-121.76513671875
-116.27197265625
-112.60986328125
-97.0458984375
-101.62353515625
-98.876953125
-93.3837890625
-97.0458984375
-96.13037109375
-92.46826171875
-96.13037109375
-100.7080078125
-106.201171875
-101.62353515625
-110.77880859375
-102.5390625
-102.5390625
-112.60986328125
-95.21484375
-84.228515625
-84.228515625
-97.96142578125
-100.7080078125
-92.46826171875
-105.28564453125
-102.5390625
-95.21484375
-97.96142578125
-103.45458984375
-106.201171875
-101.62353515625
-102.5390625
-99.79248046875
-102.5390625
-109.86328125
-108.94775390625
-107.11669921875
-117.1875
-115.3564453125
-121.76513671875
-117.1875
-96.13037109375
-83.31298828125
-65.91796875
-52.18505859375
-49.4384765625
-45.7763671875
-51.26953125
-45.7763671875
-48.52294921875
-49.4384765625
-50.35400390625
-43.9453125
-43.02978515625
-51.26953125
-51.26953125
-46.69189453125
-55.84716796875
-56.7626953125
-56.7626953125
-53.1005859375
-67.7490234375
-79.65087890625
-89.7216796875
-89.7216796875
-90.63720703125
-84.228515625
-81.48193359375
-79.65087890625
-75.98876953125
-71.4111328125
-86.97509765625
-78.7353515625
-91.552734375
-89.7216796875
-89.7216796875
-86.0595703125
-92.46826171875
-83.31298828125
-83.31298828125
-90.63720703125
-99.79248046875
-84.228515625
-87.890625
-98.876953125
-106.201171875
-105.28564453125
-108.0322265625
-108.0322265625
-103.45458984375
-97.0458984375
-99.79248046875
-98.876953125
-108.0322265625
-99.79248046875
-96.13037109375
-90.63720703125
-86.0595703125
-82.3974609375
-97.0458984375
-109.86328125
-104.3701171875
-97.96142578125
-85.14404296875
-90.63720703125
-88.80615234375
-88.80615234375
-93.3837890625
-88.80615234375
-98.876953125
-105.28564453125
-99.79248046875
-111.6943359375
-123.59619140625
-144.6533203125
-155.6396484375
-140.9912109375
-127.25830078125
-100.7080078125
-81.48193359375
-25.634765625
69.580078125
184.02099609375
279.23583984375
380.859375
482.48291015625
591.4306640625
728.759765625
867.919921875
971.37451171875
1062.01171875
1111.4501953125
1130.67626953125
1115.1123046875
1020.81298828125
844.1162109375
570.37353515625
390.0146484375
248.10791015625
140.9912109375
79.65087890625
47.607421875
32.958984375
30.21240234375
21.05712890625
12.8173828125
-2.74658203125
-14.6484375
-30.21240234375
-36.62109375
-55.84716796875
-56.7626953125
-58.59375
-68.66455078125
-71.4111328125
-74.15771484375
-67.7490234375
-72.32666015625
-69.580078125
-80.56640625
-85.14404296875
-80.56640625
-84.228515625
-87.890625
-83.31298828125
-79.65087890625
-96.13037109375
-83.31298828125
-71.4111328125
-80.56640625
-80.56640625
-78.7353515625
-78.7353515625
-76.904296875
-80.56640625
-74.15771484375
-59.50927734375
-65.00244140625
-73.2421875
-58.59375
-61.34033203125
-54.931640625
-50.35400390625
-63.17138671875
-77.81982421875
-69.580078125
-65.91796875
-47.607421875
-53.1005859375
-49.4384765625
-49.4384765625
-50.35400390625
-41.19873046875
-39.36767578125
-46.69189453125
-47.607421875
-53.1005859375
-53.1005859375
-45.7763671875
-48.52294921875
-50.35400390625
-46.69189453125
-43.9453125
-32.958984375
-38.4521484375
-32.04345703125
-35.70556640625
-39.36767578125
-32.958984375
-33.87451171875
-32.04345703125
-28.38134765625
-23.8037109375
-22.88818359375
-27.4658203125
-16.4794921875
-6.40869140625
-4.57763671875
0
-2.74658203125
8.23974609375
31.1279296875
25.634765625
28.38134765625
36.62109375
47.607421875
48.52294921875
53.1005859375
74.15771484375
67.7490234375
73.2421875
81.48193359375
71.4111328125
74.15771484375
84.228515625
104.3701171875
101.62353515625
116.27197265625
127.25830078125
131.8359375
123.59619140625
151.9775390625
163.87939453125
159.3017578125
169.37255859375
175.78125
184.9365234375
188.5986328125
194.091796875
202.33154296875
204.16259765625
204.16259765625
210.5712890625
219.7265625
218.81103515625
232.5439453125
235.29052734375
232.5439453125
229.79736328125
234.375
231.62841796875
233.45947265625
231.62841796875
233.45947265625
227.96630859375
218.81103515625
220.64208984375
211.48681640625
203.2470703125
188.5986328125
182.18994140625
165.71044921875
156.55517578125
140.07568359375
121.76513671875
116.27197265625
87.890625
75.0732421875
64.0869140625
75.0732421875
61.34033203125
40.283203125
31.1279296875
1.8310546875
-9.1552734375
-16.4794921875
-30.21240234375
-41.19873046875
-46.69189453125
-47.607421875
-45.7763671875
-57.67822265625
-63.17138671875
-64.0869140625
-65.91796875
-75.98876953125
-83.31298828125
-81.48193359375
-76.904296875
-69.580078125
-72.32666015625
-71.4111328125
-73.2421875
-74.15771484375
-79.65087890625
-97.0458984375
-109.86328125
-105.28564453125
-112.60986328125
-125.42724609375
-117.1875
-121.76513671875
-117.1875
-119.93408203125
-110.77880859375
-109.86328125
-116.27197265625
-115.3564453125
-123.59619140625
-114.44091796875
-114.44091796875
-111.6943359375
-117.1875
-111.6943359375
-119.93408203125
-119.0185546875
-118.10302734375
-111.6943359375
-117.1875
-111.6943359375
-110.77880859375
-97.96142578125
-98.876953125
-102.5390625
-100.7080078125
-96.13037109375
-101.62353515625
-108.0322265625
-115.3564453125
-106.201171875
-102.5390625
-102.5390625
-106.201171875
-102.5390625
-97.96142578125
-109.86328125
-100.7080078125
-102.5390625
-108.0322265625
-122.6806640625
-126.3427734375
-108.94775390625
-114.44091796875
-113.525390625
-104.3701171875
-97.0458984375
-109.86328125
-100.7080078125
-105.28564453125
-116.27197265625
-123.59619140625
-122.6806640625
-108.94775390625
-104.3701171875
-105.28564453125
-108.0322265625
-108.94775390625
-121.76513671875
-121.76513671875
-127.25830078125
-120.849609375
-116.27197265625
-120.849609375
-105.28564453125
-108.0322265625
-121.76513671875
-120.849609375
-125.42724609375
-122.6806640625
-124.51171875
-120.849609375
-130.92041015625
-118.10302734375
-108.0322265625
-118.10302734375
-124.51171875
-130.92041015625
-131.8359375
-131.8359375
-140.07568359375
-137.3291015625
-119.93408203125
-116.27197265625
-121.76513671875
-119.93408203125
-124.51171875
-131.8359375
-123.59619140625
-115.3564453125
-133.6669921875
-142.822265625
-144.6533203125
-150.146484375
-141.90673828125
-141.90673828125
-144.6533203125
-124.51171875
-118.10302734375
-117.1875
-122.6806640625
-125.42724609375
-130.92041015625
-129.08935546875
-123.59619140625
-133.6669921875
-129.08935546875
-124.51171875
-132.75146484375
-136.41357421875
-127.25830078125
-131.8359375
-130.0048828125
-127.25830078125
-129.08935546875
-125.42724609375
-124.51171875
-130.92041015625
-137.3291015625
-141.90673828125
-131.8359375
-142.822265625
-146.484375
-139.16015625
-141.90673828125
-139.16015625
-142.822265625
-144.6533203125
-143.73779296875
-145.56884765625
-142.822265625
-146.484375
-144.6533203125
-154.72412109375
-147.39990234375
-143.73779296875
-143.73779296875
-144.6533203125
-140.9912109375
-140.07568359375
-144.6533203125
-141.90673828125
-139.16015625
-135.498046875
-136.41357421875
-140.07568359375
-136.41357421875
-149.23095703125
-150.146484375
-147.39990234375
-134.58251953125
-149.23095703125
-148.3154296875
-144.6533203125
-143.73779296875
-144.6533203125
-129.08935546875
-136.41357421875
-123.59619140625
-132.75146484375
-135.498046875
-139.16015625
-136.41357421875
-135.498046875
-131.8359375
-129.08935546875
-132.75146484375
-136.41357421875
-135.498046875
-131.8359375
-140.9912109375
-157.470703125
-157.470703125
-132.75146484375
-143.73779296875
-145.56884765625
-144.6533203125
-143.73779296875
-134.58251953125
-144.6533203125
-143.73779296875
-135.498046875
-143.73779296875
-135.498046875
-130.92041015625
-140.9912109375
-142.822265625
-150.146484375
-142.822265625
-151.9775390625
-137.3291015625
-136.41357421875
-150.146484375
-160.21728515625
-158.38623046875
-153.80859375
-141.90673828125
-131.8359375
-118.10302734375
-107.11669921875
-96.13037109375
-96.13037109375
-100.7080078125
-108.0322265625
-93.3837890625
-79.65087890625
-80.56640625
-91.552734375
-75.98876953125
-75.0732421875
-85.14404296875
-93.3837890625
-101.62353515625
-110.77880859375
-111.6943359375
-112.60986328125
-119.0185546875
-122.6806640625
-130.0048828125
-137.3291015625
-144.6533203125
-142.822265625
-151.9775390625
-139.16015625
-146.484375
-149.23095703125
-151.06201171875
-157.470703125
-174.86572265625
-150.146484375
-151.06201171875
-146.484375
-143.73779296875
-135.498046875
-126.3427734375
-132.75146484375
-134.58251953125
-144.6533203125
-152.89306640625
-147.39990234375
-162.04833984375
-150.146484375
-153.80859375
-154.72412109375
-152.89306640625
-149.23095703125
-137.3291015625
-148.3154296875
-149.23095703125
-139.16015625
-147.39990234375
-148.3154296875
-148.3154296875
-157.470703125
-175.78125
-191.34521484375
-172.119140625
-149.23095703125
-140.9912109375
-137.3291015625
-140.07568359375
-132.75146484375
-140.9912109375
-139.16015625
-141.90673828125
-146.484375
-136.41357421875
-142.822265625
-158.38623046875
-175.78125
-185.85205078125
-179.443359375
-167.54150390625
-150.146484375
-117.1875
-83.31298828125
-7.32421875
101.62353515625
225.2197265625
327.7587890625
426.6357421875
536.4990234375
661.92626953125
789.1845703125
893.5546875
975.03662109375
1043.701171875
1076.66015625
1072.998046875
1011.65771484375
846.86279296875
613.4033203125
378.11279296875
236.2060546875
117.1875
38.4521484375
13.73291015625
5.4931640625
-10.07080078125
-33.87451171875
-60.4248046875
-59.50927734375
-49.4384765625
-54.01611328125
-83.31298828125
-80.56640625
-68.66455078125
-90.63720703125
-107.11669921875
-111.6943359375
-106.201171875
-109.86328125
-108.0322265625
-109.86328125
-111.6943359375
-106.201171875
-105.28564453125
-102.5390625
-107.11669921875
-109.86328125
-110.77880859375
-111.6943359375
-118.10302734375
-122.6806640625
-117.1875
-118.10302734375
-109.86328125
-116.27197265625
-126.3427734375
-125.42724609375
-119.0185546875
-114.44091796875
-115.3564453125
-111.6943359375
-106.201171875
-116.27197265625
-124.51171875
-114.44091796875
-115.3564453125
-115.3564453125
-110.77880859375
-109.86328125
-112.60986328125
-97.96142578125
-101.62353515625
-106.201171875
-98.876953125
-94.29931640625
-95.21484375
-105.28564453125
-98.876953125
-97.96142578125
-95.21484375
-94.29931640625
-100.7080078125
-98.876953125
-91.552734375
-76.904296875
-78.7353515625
-69.580078125
-78.7353515625
-77.81982421875
-61.34033203125
-65.91796875
-63.17138671875
-62.255859375
-63.17138671875
-57.67822265625
-56.7626953125
-53.1005859375
-39.36767578125
-38.4521484375
-32.04345703125
-33.87451171875
-28.38134765625
-24.71923828125
-21.97265625
-13.73291015625
-12.8173828125
-10.07080078125
-10.986328125
-0.91552734375
10.986328125
15.56396484375
19.22607421875
27.4658203125
32.04345703125
33.87451171875
47.607421875
57.67822265625
66.83349609375
70.49560546875
75.0732421875
89.7216796875
97.0458984375
110.77880859375
115.3564453125
108.94775390625
117.1875
126.3427734375
132.75146484375
143.73779296875
139.16015625
146.484375
162.04833984375
169.37255859375
173.03466796875
173.03466796875
187.68310546875
200.50048828125
206.9091796875
212.40234375
208.740234375
202.33154296875
201.416015625
205.99365234375
210.5712890625
205.078125
208.740234375
205.078125
198.66943359375
199.5849609375
195.9228515625
194.091796875
183.10546875
174.86572265625
170.2880859375
148.3154296875
140.9912109375
126.3427734375
104.3701171875
94.29931640625
75.98876953125
66.83349609375
48.52294921875
30.21240234375
14.6484375
4.57763671875
-14.6484375
-29.296875
-40.283203125
-52.18505859375
-50.35400390625
-54.931640625
-69.580078125
-81.48193359375
-81.48193359375
-85.14404296875
-89.7216796875
-97.0458984375
-106.201171875
-100.7080078125
-87.890625
-108.0322265625
-104.3701171875
-98.876953125
-101.62353515625
-106.201171875
-100.7080078125
-121.76513671875
-115.3564453125
-119.93408203125
-122.6806640625
-135.498046875
-130.0048828125
-117.1875
-108.94775390625
-122.6806640625
-108.94775390625
-108.94775390625
-100.7080078125
-101.62353515625
-100.7080078125
-101.62353515625
-96.13037109375
-96.13037109375
-108.94775390625
-107.11669921875
-106.201171875
-109.86328125
-114.44091796875
-114.44091796875
-108.94775390625
-99.79248046875
-97.96142578125
-87.890625
-94.29931640625
-101.62353515625
-89.7216796875
-95.21484375
-105.28564453125
-105.28564453125
-99.79248046875
-102.5390625
-105.28564453125
-98.876953125
-107.11669921875
-115.3564453125
-112.60986328125
-110.77880859375
-119.93408203125
-119.0185546875
-123.59619140625
-114.44091796875
-108.94775390625
-120.849609375
-120.849609375
-119.93408203125
-110.77880859375
-120.849609375
-130.0048828125
-130.92041015625
-118.10302734375
-116.27197265625
-119.93408203125
-118.10302734375
-117.1875
-119.0185546875
-119.93408203125
-122.6806640625
-129.08935546875
-126.3427734375
-124.51171875
-129.08935546875
-130.92041015625
-129.08935546875
-128.173828125
-121.76513671875
-115.3564453125
-120.849609375
-117.1875
-113.525390625
-116.27197265625
-113.525390625
-119.0185546875
-130.0048828125
-125.42724609375
-130.0048828125
-129.08935546875
-128.173828125
-139.16015625
-129.08935546875
-128.173828125
-138.24462890625
-132.75146484375
-124.51171875
-126.3427734375
-132.75146484375
-140.9912109375
-136.41357421875
-139.16015625
-120.849609375
-128.173828125
-131.8359375
-132.75146484375
-132.75146484375
-143.73779296875
-150.146484375
-141.90673828125
-130.0048828125
-125.42724609375
-119.0185546875
-123.59619140625
-128.173828125
-133.6669921875
-138.24462890625
-138.24462890625
-145.56884765625
-144.6533203125
-148.3154296875
-150.146484375
-144.6533203125
-145.56884765625
-146.484375
-137.3291015625
-138.24462890625
-144.6533203125
-142.822265625
-144.6533203125
-142.822265625
-151.9775390625
-146.484375
-140.9912109375
-145.56884765625
-149.23095703125
-159.3017578125
-151.9775390625
-156.55517578125
-153.80859375
-157.470703125
-167.54150390625
-162.9638671875
-153.80859375
-158.38623046875
-166.6259765625
-152.89306640625
-142.822265625
-144.6533203125
-152.89306640625
-145.56884765625
-154.72412109375
-156.55517578125
-149.23095703125
-158.38623046875
-151.9775390625
-163.87939453125
-162.04833984375
-162.9638671875
-151.9775390625
-134.58251953125
-137.3291015625
-137.3291015625
-134.58251953125
-140.07568359375
-143.73779296875
-152.89306640625
-151.9775390625
-149.23095703125
-142.822265625
-147.39990234375
-158.38623046875
-159.3017578125
-159.3017578125
-147.39990234375
-151.9775390625
-160.21728515625
-162.04833984375
-164.794921875
-154.72412109375
-151.06201171875
-151.9775390625
-161.1328125
-150.146484375
-147.39990234375
-161.1328125
-151.06201171875
-146.484375
-145.56884765625
-142.822265625
-152.89306640625
-151.06201171875
-145.56884765625
-150.146484375
-149.23095703125
-154.72412109375
-148.3154296875
-147.39990234375
-157.470703125
-156.55517578125
-170.2880859375
-173.9501953125
-176.69677734375
-175.78125
-171.20361328125
-173.9501953125
-155.6396484375
-137.3291015625
-119.0185546875
-102.5390625
-99.79248046875
-98.876953125
-111.6943359375
-99.79248046875
-96.13037109375
-99.79248046875
-97.96142578125
-97.96142578125
-100.7080078125
-107.11669921875
-107.11669921875
-119.93408203125
-127.25830078125
-134.58251953125
-133.6669921875
-132.75146484375
-144.6533203125
-140.07568359375
-130.92041015625
-133.6669921875
-143.73779296875
-150.146484375
-160.21728515625
-156.55517578125
-151.06201171875
-164.794921875
-167.54150390625
-164.794921875
-157.470703125
-169.37255859375
-175.78125
-164.794921875
-166.6259765625
-165.71044921875
-163.87939453125
-173.03466796875
-171.20361328125
-170.2880859375
-170.2880859375
-169.37255859375
-169.37255859375
-169.37255859375
-173.9501953125
-174.86572265625
-175.78125
-177.6123046875
-170.2880859375
-170.2880859375
-180.35888671875
-175.78125
-179.443359375
-162.9638671875
-167.54150390625
-170.2880859375
-171.20361328125
-177.6123046875
-178.52783203125
-184.02099609375
-173.9501953125
-173.9501953125
-180.35888671875
-170.2880859375
-156.55517578125
-160.21728515625
-159.3017578125
-169.37255859375
-174.86572265625
-175.78125
-175.78125
-197.75390625
-210.5712890625
-216.064453125
-204.16259765625
-196.83837890625
-172.119140625
-130.0048828125
-71.4111328125
42.1142578125
157.470703125
264.58740234375
365.29541015625
466.00341796875
582.275390625
723.2666015625
839.53857421875
941.162109375
1005.2490234375
1062.01171875
1072.998046875
1041.8701171875
914.61181640625
691.22314453125
441.2841796875
278.3203125
148.3154296875
50.35400390625
-13.73291015625
-25.634765625
-19.22607421875
-40.283203125
-49.4384765625
-71.4111328125
-77.81982421875
-86.97509765625
-100.7080078125
-119.0185546875
-116.27197265625
-110.77880859375
-114.44091796875
-117.1875
-118.10302734375
-128.173828125
-130.92041015625
-129.08935546875
-138.24462890625
-138.24462890625
-139.16015625
-139.16015625
-143.73779296875
-138.24462890625
-132.75146484375
-135.498046875
-134.58251953125
-143.73779296875
-142.822265625
-139.16015625
-130.92041015625
-130.92041015625
-133.6669921875
-138.24462890625
-139.16015625
-130.0048828125
-124.51171875
-126.3427734375
-116.27197265625
-120.849609375
-128.173828125
-122.6806640625
-124.51171875
-120.849609375
-114.44091796875
-114.44091796875
-120.849609375
-122.6806640625
-116.27197265625
-117.1875
-119.0185546875
-110.77880859375
-111.6943359375
-121.76513671875
-112.60986328125
-103.45458984375
-98.876953125
-103.45458984375
-104.3701171875
-106.201171875
-107.11669921875
-89.7216796875
-88.80615234375
-97.0458984375
-101.62353515625
-94.29931640625
-93.3837890625
-81.48193359375
-73.2421875
-81.48193359375
-76.904296875
-64.0869140625
-75.0732421875
-70.49560546875
-72.32666015625
-73.2421875
-66.83349609375
-55.84716796875
-62.255859375
-71.4111328125
-56.7626953125
-54.01611328125
-30.21240234375
-23.8037109375
-25.634765625
-19.22607421875
-24.71923828125
-10.986328125
-3.662109375
-16.4794921875
-15.56396484375
9.1552734375
5.4931640625
8.23974609375
31.1279296875
38.4521484375
53.1005859375
62.255859375
65.00244140625
61.34033203125
65.91796875
65.91796875
84.228515625
80.56640625
86.97509765625
113.525390625
121.76513671875
119.93408203125
127.25830078125
143.73779296875
138.24462890625
142.822265625
144.6533203125
147.39990234375
151.9775390625
157.470703125
157.470703125
152.89306640625
172.119140625
171.20361328125
170.2880859375
180.35888671875
166.6259765625
155.6396484375
148.3154296875
148.3154296875
144.6533203125
138.24462890625
127.25830078125
119.0185546875
103.45458984375
107.11669921875
85.14404296875
65.00244140625
53.1005859375
32.958984375
21.05712890625
12.8173828125
8.23974609375
-2.74658203125
-25.634765625
-45.7763671875
-54.931640625
-70.49560546875
-79.65087890625
-97.0458984375
-101.62353515625
-112.60986328125
-121.76513671875
-133.6669921875
-129.08935546875
-126.3427734375
-132.75146484375
-130.92041015625
-128.173828125
-124.51171875
-139.16015625
-143.73779296875
-147.39990234375
-145.56884765625
-145.56884765625
-144.6533203125
-157.470703125
-162.04833984375
-162.9638671875
-149.23095703125
-143.73779296875
-140.9912109375
-148.3154296875
-146.484375
-160.21728515625
-153.80859375
-145.56884765625
-140.07568359375
-142.822265625
-148.3154296875
-152.89306640625
-151.9775390625
-152.89306640625
-161.1328125
-143.73779296875
-138.24462890625
-144.6533203125
-149.23095703125
-144.6533203125
-158.38623046875
-160.21728515625
-161.1328125
-159.3017578125
-152.89306640625
-147.39990234375
-159.3017578125
-151.06201171875
-160.21728515625
-153.80859375
-151.06201171875
-153.80859375
-149.23095703125
-153.80859375
-155.6396484375
-149.23095703125
-153.80859375
-151.9775390625
-152.89306640625
-154.72412109375
-151.9775390625
-145.56884765625
-149.23095703125
-153.80859375
-155.6396484375
-151.06201171875
-145.56884765625
-142.822265625
-145.56884765625
-146.484375
-149.23095703125
-152.89306640625
-145.56884765625
-146.484375
-144.6533203125
-145.56884765625
-152.89306640625
-162.04833984375
-148.3154296875
-151.9775390625
-168.45703125
-159.3017578125
-142.822265625
-148.3154296875
-151.06201171875
-156.55517578125
-156.55517578125
-146.484375
-152.89306640625
-158.38623046875
-159.3017578125
-156.55517578125
-151.9775390625
-155.6396484375
-161.1328125
-162.04833984375
-160.21728515625
-168.45703125
-164.794921875
-167.54150390625
-167.54150390625
-152.89306640625
-157.470703125
-158.38623046875
-156.55517578125
-155.6396484375
-160.21728515625
-163.87939453125
-164.794921875
-162.9638671875
-162.04833984375
-163.87939453125
-159.3017578125
-164.794921875
-173.9501953125
-169.37255859375
-160.21728515625
-162.9638671875
-171.20361328125
-153.80859375
-160.21728515625
-166.6259765625
-168.45703125
-177.6123046875
-181.2744140625
-179.443359375
-184.9365234375
-181.2744140625
-172.119140625
-173.9501953125
-170.2880859375
-165.71044921875
-155.6396484375
-162.9638671875
-172.119140625
-171.20361328125
-157.470703125
-166.6259765625
-171.20361328125
-167.54150390625
-172.119140625
-175.78125
-180.35888671875
-164.794921875
-161.1328125
-167.54150390625
-167.54150390625
-168.45703125
-173.9501953125
-164.794921875
-171.20361328125
-168.45703125
-173.03466796875
-162.04833984375
-154.72412109375
-152.89306640625
-161.1328125
-165.71044921875
-168.45703125
-169.37255859375
-168.45703125
-164.794921875
-173.03466796875
-174.86572265625
-176.69677734375
-170.2880859375
-171.20361328125
-169.37255859375
-166.6259765625
-184.02099609375
-180.35888671875
-181.2744140625
-179.443359375
-164.794921875
-162.9638671875
-162.9638671875
-153.80859375
-143.73779296875
-155.6396484375
-167.54150390625
-183.10546875
-182.18994140625
-184.9365234375
-173.03466796875
-169.37255859375
-171.20361328125
-187.68310546875
-197.75390625
-203.2470703125
-173.9501953125
-154.72412109375
-136.41357421875
-130.0048828125
-119.93408203125
-112.60986328125
-113.525390625
-124.51171875
-135.498046875
-128.173828125
-122.6806640625
-112.60986328125
-122.6806640625
-134.58251953125
-127.25830078125
-121.76513671875
-130.0048828125
-132.75146484375
-134.58251953125
-137.3291015625
-147.39990234375
-146.484375
-141.90673828125
-151.06201171875
-152.89306640625
-158.38623046875
-163.87939453125
-166.6259765625
-173.03466796875
-181.2744140625
-186.767578125
-196.83837890625
-178.52783203125
-180.35888671875
-177.6123046875
-170.2880859375
-182.18994140625
-184.02099609375
-184.9365234375
-180.35888671875
-176.69677734375
-188.5986328125
-189.51416015625
-170.2880859375
-174.86572265625
-184.02099609375
-174.86572265625
-172.119140625
-168.45703125
-165.71044921875
-168.45703125
-172.119140625
-175.78125
-175.78125
-173.9501953125
-179.443359375
-184.02099609375
-175.78125
-171.20361328125
-185.85205078125
-178.52783203125
-178.52783203125
-181.2744140625
-180.35888671875
-172.119140625
-185.85205078125
-185.85205078125
-180.35888671875
-183.10546875
-165.71044921875
-173.9501953125
-174.86572265625
-178.52783203125
-189.51416015625
-195.9228515625
-215.14892578125
-218.81103515625
-224.30419921875
-216.97998046875
-187.68310546875
-158.38623046875
-127.25830078125
-62.255859375
49.4384765625
186.767578125
294.7998046875
384.521484375
478.82080078125
601.50146484375
726.9287109375
823.974609375
927.42919921875
991.51611328125
1057.43408203125
1073.91357421875
1022.64404296875
880.7373046875
658.26416015625
434.87548828125
294.7998046875
151.9775390625
43.02978515625
0.91552734375
-14.6484375
-31.1279296875
-41.19873046875
-57.67822265625
-66.83349609375
-78.7353515625
-90.63720703125
-98.876953125
-102.5390625
-107.11669921875
-104.3701171875
-117.1875
-127.25830078125
-130.0048828125
-139.16015625
-135.498046875
-132.75146484375
-142.822265625
-130.0048828125
-128.173828125
-132.75146484375
-135.498046875
-138.24462890625
-144.6533203125
-126.3427734375
-136.41357421875
-150.146484375
-151.9775390625
-144.6533203125
-136.41357421875
-130.0048828125
-125.42724609375
-127.25830078125
-127.25830078125
-127.25830078125
-125.42724609375
-128.173828125
-129.08935546875
-130.92041015625
-127.25830078125
-134.58251953125
-130.92041015625
-125.42724609375
-129.08935546875
-124.51171875
-130.92041015625
-121.76513671875
-119.0185546875
-127.25830078125
-131.8359375
-123.59619140625
-128.173828125
-124.51171875
-125.42724609375
-123.59619140625
-131.8359375
-123.59619140625
-122.6806640625
-119.0185546875
-111.6943359375
-119.0185546875
-109.86328125
-101.62353515625
-98.876953125
-93.3837890625
-91.552734375
-89.7216796875
-91.552734375
-94.29931640625
-92.46826171875
-93.3837890625
-88.80615234375
-79.65087890625
-75.98876953125
-70.49560546875
-70.49560546875
-62.255859375
-62.255859375
-59.50927734375
-53.1005859375
-40.283203125
-46.69189453125
-43.9453125
-39.36767578125
-45.7763671875
-42.1142578125
-37.53662109375
-29.296875
-17.39501953125
8.23974609375
14.6484375
10.986328125
11.90185546875
15.56396484375
37.53662109375
50.35400390625
46.69189453125
47.607421875
48.52294921875
64.0869140625
76.904296875
77.81982421875
82.3974609375
86.97509765625
105.28564453125
108.94775390625
119.0185546875
119.93408203125
130.0048828125
133.6669921875
126.3427734375
132.75146484375
142.822265625
150.146484375
149.23095703125
145.56884765625
151.06201171875
157.470703125
162.9638671875
165.71044921875
161.1328125
160.21728515625
156.55517578125
151.06201171875
146.484375
139.16015625
132.75146484375
122.6806640625
119.0185546875
105.28564453125
83.31298828125
66.83349609375
56.7626953125
34.7900390625
27.4658203125
9.1552734375
-12.8173828125
-26.55029296875
-28.38134765625
-36.62109375
-63.17138671875
-71.4111328125
-71.4111328125
-96.13037109375
-98.876953125
-106.201171875
-107.11669921875
-114.44091796875
-121.76513671875
-123.59619140625
-119.0185546875
-128.173828125
-140.9912109375
-140.07568359375
-140.9912109375
-135.498046875
-143.73779296875
-156.55517578125
-167.54150390625
-157.470703125
-151.06201171875
-155.6396484375
-146.484375
-140.9912109375
-150.146484375
-145.56884765625
-142.822265625
-155.6396484375
-154.72412109375
-153.80859375
-156.55517578125
-152.89306640625
-152.89306640625
-159.3017578125
-158.38623046875
-160.21728515625
-161.1328125
-157.470703125
-157.470703125
-157.470703125
-150.146484375
-146.484375
-142.822265625
-144.6533203125
-143.73779296875
-148.3154296875
-145.56884765625
-143.73779296875
-149.23095703125
-144.6533203125
-156.55517578125
-154.72412109375
-155.6396484375
-147.39990234375
-149.23095703125
-152.89306640625
-147.39990234375
-152.89306640625
-158.38623046875
-154.72412109375
-150.146484375
-138.24462890625
-131.8359375
-130.92041015625
-133.6669921875
-140.9912109375
-139.16015625
-128.173828125
-128.173828125
-126.3427734375
-129.08935546875
-125.42724609375
-132.75146484375
-131.8359375
-136.41357421875
-147.39990234375
-152.89306640625
-144.6533203125
-139.16015625
-138.24462890625
-141.90673828125
-135.498046875
-136.41357421875
-135.498046875
-138.24462890625
-152.89306640625
-150.146484375
-152.89306640625
-149.23095703125
-150.146484375
-147.39990234375
-148.3154296875
-153.80859375
-151.9775390625
-157.470703125
-155.6396484375
-155.6396484375
-160.21728515625
-171.20361328125
-159.3017578125
-163.87939453125
-160.21728515625
-159.3017578125
-150.146484375
-160.21728515625
-163.87939453125
-154.72412109375
-149.23095703125
-161.1328125
-162.9638671875
-166.6259765625
-171.20361328125
-162.9638671875
-165.71044921875
-172.119140625
-173.9501953125
-173.03466796875
-167.54150390625
-166.6259765625
-164.794921875
-162.04833984375
-174.86572265625
-178.52783203125
-170.2880859375
-173.03466796875
-173.9501953125
-162.9638671875
-162.04833984375
-162.9638671875
-156.55517578125
-160.21728515625
-160.21728515625
-156.55517578125
-160.21728515625
-168.45703125
-169.37255859375
-160.21728515625
-158.38623046875
-157.470703125
-173.03466796875
-172.119140625
-176.69677734375
-184.02099609375
-182.18994140625
-182.18994140625
-166.6259765625
-173.03466796875
-171.20361328125
-169.37255859375
-163.87939453125
-170.2880859375
-182.18994140625
-176.69677734375
-177.6123046875
-179.443359375
-173.03466796875
-176.69677734375
-182.18994140625
-173.9501953125
-173.9501953125
-172.119140625
-170.2880859375
-172.119140625
-174.86572265625
-178.52783203125
-176.69677734375
-168.45703125
-177.6123046875
-185.85205078125
-188.5986328125
-188.5986328125
-194.091796875
-187.68310546875
-175.78125
-164.794921875
-165.71044921875
-168.45703125
-170.2880859375
-176.69677734375
-190.4296875
-180.35888671875
-178.52783203125
-189.51416015625
-189.51416015625
-186.767578125
-174.86572265625
-173.03466796875
-175.78125
-171.20361328125
-151.9775390625
-139.16015625
-127.25830078125
-130.0048828125
-124.51171875
-129.08935546875
-129.08935546875
-121.76513671875
-119.0185546875
-133.6669921875
-135.498046875
-124.51171875
-123.59619140625
-123.59619140625
-130.0048828125
-123.59619140625
-114.44091796875
-127.25830078125
-137.3291015625
-142.822265625
-149.23095703125
-150.146484375
-156.55517578125
-159.3017578125
-166.6259765625
-170.2880859375
-175.78125
-176.69677734375
-184.02099609375
-192.2607421875
-195.9228515625
-181.2744140625
-173.03466796875
-173.9501953125
-187.68310546875
-187.68310546875
-184.9365234375
-186.767578125
-184.02099609375
-192.2607421875
-199.5849609375
-192.2607421875
-189.51416015625
-197.75390625
-205.078125
-210.5712890625
-195.00732421875
-188.5986328125
-190.4296875
-184.02099609375
-179.443359375
-177.6123046875
-185.85205078125
-192.2607421875
-185.85205078125
-197.75390625
-195.9228515625
-184.9365234375
-191.34521484375
-207.82470703125
-205.078125
-186.767578125
-179.443359375
-184.02099609375
-179.443359375
-170.2880859375
-178.52783203125
-184.02099609375
-171.20361328125
-179.443359375
-178.52783203125
-179.443359375
-179.443359375
-187.68310546875
-191.34521484375
-197.75390625
-215.14892578125
-230.712890625
-239.8681640625
-233.45947265625
-218.81103515625
-205.078125
-173.03466796875
-140.07568359375
-75.0732421875
32.04345703125
148.3154296875
251.77001953125
352.47802734375
455.9326171875
572.20458984375
708.6181640625
833.1298828125
932.92236328125
1019.8974609375
1070.25146484375
1074.8291015625
1054.6875
915.52734375
682.06787109375
427.55126953125
264.58740234375
131.8359375
30.21240234375
-20.1416015625
-29.296875
-43.02978515625
-57.67822265625
-74.15771484375
-76.904296875
-84.228515625
-96.13037109375
-107.11669921875
-118.10302734375
-119.93408203125
-128.173828125
-140.07568359375
-129.08935546875
-122.6806640625
-129.08935546875
-135.498046875
-144.6533203125
-141.90673828125
-136.41357421875
-137.3291015625
-137.3291015625
-138.24462890625
-153.80859375
-151.06201171875
-140.9912109375
-139.16015625
-133.6669921875
