ECG
-81.48193359375
-68.66455078125
-77.81982421875
-86.0595703125
-84.228515625
-88.80615234375
-78.7353515625
-73.2421875
-79.65087890625
-76.904296875
-78.7353515625
-80.56640625
-75.98876953125
-86.0595703125
-88.80615234375
-83.31298828125
-83.31298828125
-75.98876953125
-75.0732421875
-70.49560546875
-65.91796875
-70.49560546875
-75.98876953125
-69.580078125
-71.4111328125
-77.81982421875
-76.904296875
-69.580078125
-73.2421875
-69.580078125
-71.4111328125
-75.0732421875
-86.0595703125
-83.31298828125
-86.0595703125
-82.3974609375
-87.890625
-90.63720703125
-88.80615234375
-91.552734375
-97.0458984375
-97.96142578125
-91.552734375
-102.5390625
-120.849609375
-119.0185546875
-106.201171875
-97.0458984375
-65.91796875
-20.1416015625
25.634765625
123.59619140625
245.361328125
338.7451171875
433.04443359375
524.59716796875
635.3759765625
789.1845703125
907.28759765625
1018.06640625
1107.7880859375
1155.3955078125
1158.14208984375
1143.49365234375
1050.10986328125
845.03173828125
594.17724609375
413.818359375
285.64453125
186.767578125
108.0322265625
87.890625
70.49560546875
51.26953125
34.7900390625
24.71923828125
16.4794921875
6.40869140625
-4.57763671875
-1.8310546875
-4.57763671875
-18.310546875
-17.39501953125
-21.05712890625
-40.283203125
-40.283203125
-38.4521484375
-43.02978515625
-51.26953125
-47.607421875
-31.1279296875
-38.4521484375
-28.38134765625
-25.634765625
-28.38134765625
-34.7900390625
-33.87451171875
-32.04345703125
-34.7900390625
-22.88818359375
-31.1279296875
-19.22607421875
-20.1416015625
-24.71923828125
-26.55029296875
-31.1279296875
-27.4658203125
-19.22607421875
-23.8037109375
-30.21240234375
-40.283203125
-40.283203125
-27.4658203125
-26.55029296875
-34.7900390625
-21.97265625
-15.56396484375
-16.4794921875
-2.74658203125
-14.6484375
-10.986328125
-16.4794921875
-8.23974609375
-7.32421875
-21.97265625
-16.4794921875
-6.40869140625
2.74658203125
0.91552734375
-5.4931640625
4.57763671875
10.07080078125
10.07080078125
15.56396484375
12.8173828125
-8.23974609375
-3.662109375
26.55029296875
8.23974609375
10.07080078125
21.97265625
29.296875
25.634765625
32.958984375
35.70556640625
37.53662109375
25.634765625
31.1279296875
22.88818359375
33.87451171875
60.4248046875
61.34033203125
66.83349609375
82.3974609375
78.7353515625
95.21484375
107.11669921875
108.0322265625
110.77880859375
122.6806640625
127.25830078125
124.51171875
121.76513671875
135.498046875
139.16015625
143.73779296875
157.470703125
162.04833984375
159.3017578125
169.37255859375
180.35888671875
179.443359375
183.10546875
194.091796875
203.2470703125
199.5849609375
208.740234375
205.99365234375
212.40234375
226.13525390625
227.96630859375
232.5439453125
237.12158203125
227.96630859375
238.037109375
243.5302734375
244.44580078125
248.10791015625
254.5166015625
256.34765625
257.26318359375
261.8408203125
253.60107421875
250.8544921875
263.671875
259.09423828125
261.8408203125
256.34765625
242.61474609375
228.8818359375
216.97998046875
203.2470703125
189.51416015625
173.03466796875
152.89306640625
136.41357421875
126.3427734375
120.849609375
116.27197265625
98.876953125
82.3974609375
70.49560546875
64.0869140625
50.35400390625
35.70556640625
25.634765625
10.986328125
-4.57763671875
-0.91552734375
10.07080078125
11.90185546875
1.8310546875
-10.986328125
-2.74658203125
-15.56396484375
-21.97265625
-28.38134765625
-32.04345703125
-32.04345703125
-32.958984375
-32.04345703125
-25.634765625
-19.22607421875
-21.05712890625
-35.70556640625
-37.53662109375
-36.62109375
-44.86083984375
-42.1142578125
-33.87451171875
-23.8037109375
-18.310546875
-17.39501953125
-31.1279296875
-35.70556640625
-43.9453125
-41.19873046875
-32.958984375
-21.97265625
-18.310546875
-8.23974609375
-14.6484375
-21.05712890625
-10.07080078125
-5.4931640625
-12.8173828125
-12.8173828125
-15.56396484375
-12.8173828125
-10.07080078125
-7.32421875
-8.23974609375
-14.6484375
-16.4794921875
-24.71923828125
-21.05712890625
-14.6484375
-18.310546875
-10.986328125
-9.1552734375
-21.97265625
-19.22607421875
-21.05712890625
-27.4658203125
-36.62109375
-40.283203125
-23.8037109375
-17.39501953125
-21.97265625
-21.97265625
-21.05712890625
-25.634765625
-23.8037109375
-17.39501953125
-33.87451171875
-35.70556640625
-22.88818359375
-20.1416015625
-25.634765625
-16.4794921875
-19.22607421875
-32.04345703125
-34.7900390625
-32.04345703125
-44.86083984375
-54.01611328125
-48.52294921875
-30.21240234375
-27.4658203125
-32.04345703125
-22.88818359375
-14.6484375
-21.97265625
-18.310546875
-32.04345703125
-38.4521484375
-32.04345703125
-37.53662109375
-33.87451171875
-36.62109375
-45.7763671875
-36.62109375
-37.53662109375
-50.35400390625
-51.26953125
-47.607421875
-44.86083984375
-39.36767578125
-35.70556640625
-32.958984375
-32.04345703125
-27.4658203125
-36.62109375
-32.04345703125
-38.4521484375
-47.607421875
-43.9453125
-43.02978515625
-40.283203125
-41.19873046875
-40.283203125
-37.53662109375
-44.86083984375
-47.607421875
-38.4521484375
-43.9453125
-49.4384765625
-46.69189453125
-43.9453125
-47.607421875
-51.26953125
-50.35400390625
-54.931640625
-35.70556640625
-40.283203125
-45.7763671875
-41.19873046875
-53.1005859375
-53.1005859375
-49.4384765625
-44.86083984375
-54.931640625
-53.1005859375
-53.1005859375
-72.32666015625
-68.66455078125
-66.83349609375
-60.4248046875
-56.7626953125
-48.52294921875
-35.70556640625
-30.21240234375
-38.4521484375
-45.7763671875
-51.26953125
-58.59375
-54.01611328125
-44.86083984375
-53.1005859375
-48.52294921875
-59.50927734375
-51.26953125
-45.7763671875
-55.84716796875
-52.18505859375
-40.283203125
-43.02978515625
-33.87451171875
-38.4521484375
-44.86083984375
-45.7763671875
-47.607421875
-40.283203125
-32.958984375
-37.53662109375
-59.50927734375
-50.35400390625
-42.1142578125
-51.26953125
-44.86083984375
-56.7626953125
-66.83349609375
-60.4248046875
-46.69189453125
-45.7763671875
-43.9453125
-53.1005859375
-52.18505859375
-59.50927734375
-44.86083984375
-42.1142578125
-47.607421875
-46.69189453125
-35.70556640625
-29.296875
-37.53662109375
-40.283203125
-24.71923828125
-32.958984375
-32.958984375
-21.05712890625
-10.986328125
-11.90185546875
-12.8173828125
-23.8037109375
-16.4794921875
-11.90185546875
-16.4794921875
-11.90185546875
-5.4931640625
15.56396484375
44.86083984375
59.50927734375
51.26953125
47.607421875
43.02978515625
40.283203125
37.53662109375
41.19873046875
40.283203125
36.62109375
33.87451171875
30.21240234375
0
-11.90185546875
-14.6484375
-8.23974609375
-13.73291015625
-22.88818359375
-23.8037109375
-20.1416015625
-26.55029296875
-29.296875
-34.7900390625
-43.02978515625
-53.1005859375
-50.35400390625
-50.35400390625
-56.7626953125
-68.66455078125
-70.49560546875
-64.0869140625
-73.2421875
-69.580078125
-70.49560546875
-78.7353515625
-73.2421875
-55.84716796875
-65.00244140625
-70.49560546875
-78.7353515625
-70.49560546875
-70.49560546875
-65.91796875
-65.91796875
-74.15771484375
-78.7353515625
-79.65087890625
-77.81982421875
-75.98876953125
-63.17138671875
-59.50927734375
-71.4111328125
-75.0732421875
-68.66455078125
-64.0869140625
-66.83349609375
-72.32666015625
-70.49560546875
-66.83349609375
-61.34033203125
-54.01611328125
-72.32666015625
-74.15771484375
-69.580078125
-75.0732421875
-83.31298828125
-85.14404296875
-81.48193359375
-65.00244140625
-58.59375
-56.7626953125
-62.255859375
-75.0732421875
-82.3974609375
-97.96142578125
-113.525390625
-122.6806640625
-116.27197265625
-97.96142578125
-64.0869140625
-34.7900390625
10.986328125
97.96142578125
202.33154296875
311.279296875
414.73388671875
525.5126953125
631.7138671875
775.45166015625
909.11865234375
1015.31982421875
1096.8017578125
1157.2265625
1170.95947265625
1149.90234375
1080.322265625
915.52734375
682.06787109375
466.9189453125
327.7587890625
221.5576171875
126.3427734375
93.3837890625
80.56640625
73.2421875
60.4248046875
54.01611328125
45.7763671875
31.1279296875
24.71923828125
10.07080078125
8.23974609375
3.662109375
-7.32421875
-19.22607421875
-19.22607421875
-10.986328125
-20.1416015625
-17.39501953125
-26.55029296875
-37.53662109375
-31.1279296875
-29.296875
-38.4521484375
-40.283203125
-36.62109375
-45.7763671875
-46.69189453125
-44.86083984375
-32.958984375
-28.38134765625
-25.634765625
-22.88818359375
-16.4794921875
-30.21240234375
-32.958984375
-22.88818359375
-16.4794921875
-0.91552734375
-3.662109375
-11.90185546875
-15.56396484375
-9.1552734375
-13.73291015625
-11.90185546875
-14.6484375
-7.32421875
-9.1552734375
-11.90185546875
0
-2.74658203125
2.74658203125
6.40869140625
-0.91552734375
3.662109375
7.32421875
7.32421875
-1.8310546875
9.1552734375
10.07080078125
3.662109375
10.986328125
19.22607421875
11.90185546875
3.662109375
16.4794921875
15.56396484375
21.05712890625
27.4658203125
29.296875
31.1279296875
37.53662109375
32.958984375
40.283203125
46.69189453125
49.4384765625
54.01611328125
54.931640625
51.26953125
60.4248046875
63.17138671875
73.2421875
84.228515625
84.228515625
82.3974609375
85.14404296875
90.63720703125
84.228515625
97.0458984375
111.6943359375
111.6943359375
119.0185546875
134.58251953125
137.3291015625
139.16015625
144.6533203125
142.822265625
144.6533203125
161.1328125
170.2880859375
177.6123046875
183.10546875
183.10546875
183.10546875
181.2744140625
195.00732421875
207.82470703125
222.47314453125
224.30419921875
230.712890625
242.61474609375
249.0234375
250.8544921875
238.037109375
237.12158203125
252.685546875
257.26318359375
260.92529296875
264.58740234375
264.58740234375
277.40478515625
268.24951171875
264.58740234375
270.08056640625
265.5029296875
265.5029296875
262.75634765625
256.34765625
246.27685546875
242.61474609375
234.375
219.7265625
213.31787109375
195.00732421875
177.6123046875
155.6396484375
137.3291015625
134.58251953125
131.8359375
121.76513671875
111.6943359375
108.94775390625
77.81982421875
67.7490234375
53.1005859375
43.02978515625
45.7763671875
42.1142578125
30.21240234375
33.87451171875
16.4794921875
18.310546875
11.90185546875
-3.662109375
-0.91552734375
-6.40869140625
-5.4931640625
-6.40869140625
-17.39501953125
-22.88818359375
-23.8037109375
-34.7900390625
-36.62109375
-37.53662109375
-30.21240234375
-17.39501953125
-12.8173828125
-6.40869140625
-4.57763671875
-23.8037109375
-31.1279296875
-23.8037109375
-14.6484375
-20.1416015625
-27.4658203125
-28.38134765625
-33.87451171875
-33.87451171875
-35.70556640625
-23.8037109375
-21.97265625
-25.634765625
-25.634765625
-27.4658203125
-25.634765625
-14.6484375
-20.1416015625
-32.958984375
-31.1279296875
-20.1416015625
-10.986328125
-15.56396484375
-6.40869140625
-16.4794921875
-11.90185546875
-14.6484375
-7.32421875
-4.57763671875
-4.57763671875
-11.90185546875
-21.05712890625
-14.6484375
-10.07080078125
-18.310546875
-22.88818359375
-28.38134765625
-31.1279296875
-26.55029296875
-14.6484375
-13.73291015625
-14.6484375
-19.22607421875
-9.1552734375
-31.1279296875
-41.19873046875
-26.55029296875
-21.97265625
-22.88818359375
-23.8037109375
-20.1416015625
-10.986328125
-3.662109375
-3.662109375
-21.05712890625
-28.38134765625
-25.634765625
-16.4794921875
-12.8173828125
-26.55029296875
-20.1416015625
-28.38134765625
-25.634765625
-21.05712890625
-19.22607421875
-21.97265625
-12.8173828125
-20.1416015625
-19.22607421875
-19.22607421875
-27.4658203125
-27.4658203125
-23.8037109375
-20.1416015625
-22.88818359375
-30.21240234375
-28.38134765625
-22.88818359375
-32.958984375
-29.296875
-34.7900390625
-35.70556640625
-41.19873046875
-35.70556640625
-46.69189453125
-35.70556640625
-40.283203125
-34.7900390625
-27.4658203125
-35.70556640625
-30.21240234375
-32.04345703125
-44.86083984375
-40.283203125
-38.4521484375
-39.36767578125
-38.4521484375
-28.38134765625
-22.88818359375
-28.38134765625
-39.36767578125
-38.4521484375
-28.38134765625
-27.4658203125
-49.4384765625
-45.7763671875
-36.62109375
-32.04345703125
-34.7900390625
-29.296875
-34.7900390625
-47.607421875
-45.7763671875
-34.7900390625
-42.1142578125
-42.1142578125
-21.97265625
-22.88818359375
-35.70556640625
-29.296875
-37.53662109375
-30.21240234375
-22.88818359375
-31.1279296875
-47.607421875
-39.36767578125
-40.283203125
-37.53662109375
-42.1142578125
-43.9453125
-35.70556640625
-32.958984375
-32.958984375
-33.87451171875
-41.19873046875
-42.1142578125
-36.62109375
-28.38134765625
-41.19873046875
-42.1142578125
-41.19873046875
-35.70556640625
-35.70556640625
-32.04345703125
-32.958984375
-32.958984375
-31.1279296875
-37.53662109375
-38.4521484375
-21.05712890625
1.8310546875
10.986328125
-3.662109375
-1.8310546875
1.8310546875
0
2.74658203125
-1.8310546875
4.57763671875
23.8037109375
50.35400390625
64.0869140625
70.49560546875
72.32666015625
59.50927734375
46.69189453125
39.36767578125
34.7900390625
42.1142578125
48.52294921875
51.26953125
32.958984375
16.4794921875
21.97265625
24.71923828125
21.05712890625
7.32421875
-15.56396484375
-20.1416015625
-19.22607421875
-23.8037109375
-43.9453125
-53.1005859375
-55.84716796875
-53.1005859375
-61.34033203125
-51.26953125
-43.02978515625
-45.7763671875
-38.4521484375
-45.7763671875
-48.52294921875
-50.35400390625
-47.607421875
-54.01611328125
-53.1005859375
-67.7490234375
-60.4248046875
-75.98876953125
-66.83349609375
-58.59375
-66.83349609375
-66.83349609375
-60.4248046875
-67.7490234375
-65.00244140625
-62.255859375
-54.931640625
-46.69189453125
-45.7763671875
-54.931640625
-47.607421875
-51.26953125
-50.35400390625
-47.607421875
-53.1005859375
-56.7626953125
-59.50927734375
-58.59375
-60.4248046875
-59.50927734375
-63.17138671875
-66.83349609375
-57.67822265625
-61.34033203125
-62.255859375
-52.18505859375
-40.283203125
-42.1142578125
-46.69189453125
-54.01611328125
-53.1005859375
-51.26953125
-73.2421875
-85.14404296875
-97.96142578125
-99.79248046875
-98.876953125
-83.31298828125
-51.26953125
-17.39501953125
11.90185546875
77.81982421875
172.119140625
300.29296875
407.40966796875
505.37109375
600.5859375
719.6044921875
851.4404296875
945.73974609375
1016.2353515625
1087.646484375
1127.9296875
1148.98681640625
1127.9296875
1006.16455078125
807.4951171875
581.35986328125
425.72021484375
292.05322265625
178.52783203125
110.77880859375
93.3837890625
71.4111328125
65.91796875
60.4248046875
48.52294921875
38.4521484375
23.8037109375
16.4794921875
9.1552734375
-6.40869140625
2.74658203125
-4.57763671875
-21.97265625
-21.97265625
-16.4794921875
-20.1416015625
-12.8173828125
-13.73291015625
-27.4658203125
-28.38134765625
-13.73291015625
-30.21240234375
-32.04345703125
-19.22607421875
-19.22607421875
-16.4794921875
-13.73291015625
-29.296875
-21.97265625
-25.634765625
-25.634765625
-29.296875
-21.05712890625
-18.310546875
-20.1416015625
-16.4794921875
-7.32421875
-9.1552734375
-0.91552734375
0
2.74658203125
0
6.40869140625
0.91552734375
0
3.662109375
5.4931640625
-6.40869140625
-12.8173828125
-5.4931640625
3.662109375
2.74658203125
11.90185546875
10.07080078125
1.8310546875
-3.662109375
2.74658203125
12.8173828125
19.22607421875
22.88818359375
28.38134765625
32.04345703125
28.38134765625
24.71923828125
26.55029296875
31.1279296875
37.53662109375
26.55029296875
31.1279296875
39.36767578125
44.86083984375
40.283203125
43.9453125
51.26953125
52.18505859375
49.4384765625
54.931640625
72.32666015625
65.00244140625
75.0732421875
97.96142578125
93.3837890625
96.13037109375
104.3701171875
97.0458984375
97.0458984375
96.13037109375
107.11669921875
110.77880859375
112.60986328125
129.08935546875
137.3291015625
128.173828125
143.73779296875
159.3017578125
150.146484375
155.6396484375
156.55517578125
152.89306640625
159.3017578125
184.02099609375
184.9365234375
202.33154296875
212.40234375
219.7265625
221.5576171875
227.96630859375
220.64208984375
221.5576171875
223.388671875
225.2197265625
228.8818359375
232.5439453125
237.12158203125
235.29052734375
242.61474609375
258.1787109375
264.58740234375
265.5029296875
271.91162109375
275.57373046875
261.8408203125
261.8408203125
257.26318359375
260.009765625
251.77001953125
228.8818359375
220.64208984375
201.416015625
202.33154296875
186.767578125
175.78125
164.794921875
140.07568359375
130.0048828125
120.849609375
99.79248046875
90.63720703125
78.7353515625
72.32666015625
74.15771484375
55.84716796875
37.53662109375
28.38134765625
32.04345703125
27.4658203125
24.71923828125
21.05712890625
2.74658203125
5.4931640625
-0.91552734375
-12.8173828125
-2.74658203125
-10.07080078125
-19.22607421875
-18.310546875
-9.1552734375
-9.1552734375
-19.22607421875
-20.1416015625
-21.97265625
-27.4658203125
-23.8037109375
-27.4658203125
-23.8037109375
-28.38134765625
-19.22607421875
-16.4794921875
-21.97265625
-19.22607421875
-27.4658203125
-35.70556640625
-43.9453125
-42.1142578125
-38.4521484375
-32.958984375
-21.05712890625
-21.97265625
-23.8037109375
-17.39501953125
-13.73291015625
-12.8173828125
-11.90185546875
-3.662109375
-2.74658203125
-5.4931640625
-7.32421875
-14.6484375
-19.22607421875
-29.296875
-24.71923828125
-28.38134765625
-25.634765625
-21.97265625
-18.310546875
-5.4931640625
12.8173828125
8.23974609375
-6.40869140625
-4.57763671875
-1.8310546875
-7.32421875
-10.986328125
-19.22607421875
-21.97265625
-17.39501953125
0
2.74658203125
0
6.40869140625
-9.1552734375
-21.05712890625
-17.39501953125
-16.4794921875
-16.4794921875
-21.97265625
-25.634765625
-10.07080078125
-17.39501953125
-24.71923828125
-28.38134765625
-24.71923828125
-31.1279296875
-26.55029296875
-20.1416015625
-18.310546875
-7.32421875
-6.40869140625
-19.22607421875
-23.8037109375
-20.1416015625
-13.73291015625
-19.22607421875
-22.88818359375
-21.97265625
-22.88818359375
-37.53662109375
-33.87451171875
-28.38134765625
-38.4521484375
-45.7763671875
-51.26953125
-43.9453125
-24.71923828125
-28.38134765625
-32.958984375
-27.4658203125
-32.04345703125
-33.87451171875
-33.87451171875
-28.38134765625
-43.02978515625
-36.62109375
-42.1142578125
-34.7900390625
-43.02978515625
-44.86083984375
-37.53662109375
-41.19873046875
-51.26953125
-51.26953125
-48.52294921875
-43.02978515625
-43.02978515625
-47.607421875
-38.4521484375
-32.958984375
-35.70556640625
-35.70556640625
-23.8037109375
-30.21240234375
-43.02978515625
-41.19873046875
-35.70556640625
-24.71923828125
-24.71923828125
-31.1279296875
-19.22607421875
-22.88818359375
-11.90185546875
6.40869140625
6.40869140625
-6.40869140625
1.8310546875
-5.4931640625
-22.88818359375
-19.22607421875
-10.986328125
-10.07080078125
17.39501953125
52.18505859375
62.255859375
65.91796875
79.65087890625
75.0732421875
77.81982421875
81.48193359375
72.32666015625
66.83349609375
59.50927734375
46.69189453125
35.70556640625
32.958984375
29.296875
26.55029296875
23.8037109375
-5.4931640625
-11.90185546875
-29.296875
-40.283203125
-34.7900390625
-44.86083984375
-57.67822265625
-55.84716796875
-51.26953125
-49.4384765625
-51.26953125
-51.26953125
-52.18505859375
-59.50927734375
-62.255859375
-64.0869140625
-75.0732421875
-82.3974609375
-83.31298828125
-79.65087890625
-75.0732421875
-70.49560546875
-65.00244140625
-63.17138671875
-68.66455078125
-76.904296875
-70.49560546875
-76.904296875
-75.98876953125
-86.0595703125
-86.0595703125
-91.552734375
-83.31298828125
-80.56640625
-68.66455078125
-75.98876953125
-84.228515625
-83.31298828125
-80.56640625
-75.98876953125
-67.7490234375
-75.0732421875
-69.580078125
-63.17138671875
-57.67822265625
-64.0869140625
-61.34033203125
-59.50927734375
-80.56640625
-83.31298828125
-77.81982421875
-80.56640625
-85.14404296875
-71.4111328125
-60.4248046875
-67.7490234375
-69.580078125
-74.15771484375
-80.56640625
-94.29931640625
-99.79248046875
-101.62353515625
-108.0322265625
-103.45458984375
-76.904296875
-64.0869140625
-36.62109375
34.7900390625
138.24462890625
256.34765625
367.12646484375
458.67919921875
545.654296875
671.9970703125
802.001953125
897.216796875
997.9248046875
1080.322265625
1136.16943359375
1151.7333984375
1142.578125
1019.8974609375
816.650390625
583.19091796875
416.56494140625
270.99609375
157.470703125
87.890625
76.904296875
72.32666015625
65.91796875
43.9453125
37.53662109375
33.87451171875
11.90185546875
-10.986328125
-17.39501953125
-21.05712890625
-32.04345703125
-34.7900390625
-34.7900390625
-35.70556640625
-32.04345703125
-33.87451171875
-43.02978515625
-43.9453125
-37.53662109375
-36.62109375
-33.87451171875
-34.7900390625
-32.04345703125
-31.1279296875
-50.35400390625
-38.4521484375
-32.04345703125
-49.4384765625
-47.607421875
-42.1142578125
-40.283203125
-41.19873046875
-34.7900390625
-32.958984375
-31.1279296875
-26.55029296875
-23.8037109375
-32.958984375
-48.52294921875
-34.7900390625
-27.4658203125
-31.1279296875
-27.4658203125
-29.296875
-25.634765625
-13.73291015625
-14.6484375
-28.38134765625
-22.88818359375
-12.8173828125
-21.05712890625
-13.73291015625
4.57763671875
0
7.32421875
9.1552734375
5.4931640625
0
8.23974609375
13.73291015625
6.40869140625
11.90185546875
19.22607421875
18.310546875
15.56396484375
26.55029296875
28.38134765625
15.56396484375
20.1416015625
28.38134765625
39.36767578125
43.02978515625
41.19873046875
32.958984375
38.4521484375
48.52294921875
43.9453125
39.36767578125
42.1142578125
55.84716796875
59.50927734375
56.7626953125
70.49560546875
61.34033203125
75.0732421875
84.228515625
86.97509765625
88.80615234375
101.62353515625
118.10302734375
115.3564453125
123.59619140625
133.6669921875
130.92041015625
137.3291015625
130.92041015625
141.90673828125
147.39990234375
161.1328125
172.119140625
191.34521484375
209.65576171875
217.8955078125
197.75390625
201.416015625
215.14892578125
221.5576171875
220.64208984375
218.81103515625
227.05078125
239.8681640625
242.61474609375
248.10791015625
245.361328125
248.10791015625
252.685546875
244.44580078125
240.78369140625
243.5302734375
241.69921875
245.361328125
237.12158203125
237.12158203125
222.47314453125
216.97998046875
205.078125
202.33154296875
188.5986328125
176.69677734375
173.9501953125
167.54150390625
150.146484375
136.41357421875
121.76513671875
101.62353515625
81.48193359375
85.14404296875
69.580078125
57.67822265625
51.26953125
50.35400390625
46.69189453125
37.53662109375
22.88818359375
13.73291015625
12.8173828125
10.07080078125
-17.39501953125
-23.8037109375
-26.55029296875
-22.88818359375
-19.22607421875
-19.22607421875
-25.634765625
-26.55029296875
-30.21240234375
-25.634765625
-44.86083984375
-38.4521484375
-26.55029296875
-31.1279296875
-37.53662109375
-31.1279296875
-31.1279296875
-17.39501953125
-14.6484375
-23.8037109375
-28.38134765625
-31.1279296875
-28.38134765625
-21.97265625
-30.21240234375
-35.70556640625
-22.88818359375
-19.22607421875
-31.1279296875
-31.1279296875
-27.4658203125
-29.296875
-22.88818359375
-25.634765625
-30.21240234375
-20.1416015625
-32.04345703125
-30.21240234375
-21.05712890625
-29.296875
-36.62109375
-26.55029296875
-19.22607421875
-23.8037109375
-22.88818359375
-17.39501953125
-18.310546875
-21.05712890625
-18.310546875
-18.310546875
-21.05712890625
-18.310546875
-17.39501953125
-19.22607421875
-21.05712890625
-18.310546875
-23.8037109375
-23.8037109375
-22.88818359375
-22.88818359375
-32.958984375
-29.296875
-30.21240234375
-23.8037109375
-32.04345703125
-21.05712890625
-13.73291015625
-10.07080078125
-2.74658203125
-23.8037109375
-23.8037109375
-13.73291015625
-24.71923828125
-22.88818359375
-13.73291015625
-21.05712890625
-25.634765625
-26.55029296875
-19.22607421875
-30.21240234375
-39.36767578125
-35.70556640625
-29.296875
-26.55029296875
-36.62109375
-36.62109375
-33.87451171875
-35.70556640625
-35.70556640625
-27.4658203125
-36.62109375
-35.70556640625
-37.53662109375
-36.62109375
-42.1142578125
-35.70556640625
-40.283203125
-39.36767578125
-45.7763671875
-53.1005859375
-53.1005859375
-52.18505859375
-63.17138671875
-57.67822265625
-59.50927734375
-48.52294921875
-43.9453125
-44.86083984375
-43.9453125
-40.283203125
-52.18505859375
-54.01611328125
-51.26953125
-55.84716796875
-47.607421875
-42.1142578125
-38.4521484375
-33.87451171875
-32.958984375
-52.18505859375
-56.7626953125
-55.84716796875
-54.01611328125
-50.35400390625
-46.69189453125
-43.9453125
-43.9453125
-47.607421875
-47.607421875
-50.35400390625
-62.255859375
-50.35400390625
-46.69189453125
-54.01611328125
-63.17138671875
-49.4384765625
-47.607421875
-56.7626953125
-54.931640625
-45.7763671875
-55.84716796875
-56.7626953125
-45.7763671875
-43.9453125
-42.1142578125
-35.70556640625
-31.1279296875
-31.1279296875
-25.634765625
-33.87451171875
-46.69189453125
-46.69189453125
-42.1142578125
-30.21240234375
-8.23974609375
-3.662109375
-10.986328125
-22.88818359375
-19.22607421875
-23.8037109375
-22.88818359375
-6.40869140625
-4.57763671875
16.4794921875
48.52294921875
67.7490234375
60.4248046875
51.26953125
56.7626953125
59.50927734375
58.59375
61.34033203125
65.00244140625
57.67822265625
43.02978515625
28.38134765625
28.38134765625
15.56396484375
10.07080078125
5.4931640625
-9.1552734375
-15.56396484375
-33.87451171875
-41.19873046875
-52.18505859375
-59.50927734375
-65.00244140625
-67.7490234375
-54.01611328125
-43.9453125
-65.00244140625
-60.4248046875
-58.59375
-55.84716796875
-69.580078125
-79.65087890625
-74.15771484375
-67.7490234375
-67.7490234375
-75.98876953125
-85.14404296875
-91.552734375
-80.56640625
-60.4248046875
-60.4248046875
-67.7490234375
-71.4111328125
-72.32666015625
-68.66455078125
-76.904296875
-86.0595703125
-79.65087890625
-75.98876953125
-90.63720703125
-86.0595703125
-87.890625
-80.56640625
-86.97509765625
-89.7216796875
-97.0458984375
-97.96142578125
-83.31298828125
-77.81982421875
-76.904296875
-62.255859375
-64.0869140625
-65.91796875
-71.4111328125
-74.15771484375
-76.904296875
-86.0595703125
-87.890625
-78.7353515625
-83.31298828125
-83.31298828125
-79.65087890625
-80.56640625
-70.49560546875
-69.580078125
-73.2421875
-88.80615234375
-100.7080078125
-110.77880859375
-117.1875
-108.94775390625
-86.0595703125
-62.255859375
-32.04345703125
31.1279296875
126.3427734375
241.69921875
354.30908203125
450.439453125
552.06298828125
669.25048828125
817.56591796875
942.07763671875
1035.46142578125
1127.9296875
1180.11474609375
1176.45263671875
1156.31103515625
1033.63037109375
823.05908203125
575.86669921875
404.6630859375
282.89794921875
170.2880859375
102.5390625
76.904296875
65.00244140625
57.67822265625
49.4384765625
16.4794921875
6.40869140625
12.8173828125
3.662109375
-5.4931640625
-10.986328125
-12.8173828125
-20.1416015625
-20.1416015625
-20.1416015625
-29.296875
-26.55029296875
-28.38134765625
-32.958984375
-30.21240234375
-24.71923828125
-31.1279296875
-33.87451171875
-34.7900390625
-32.04345703125
-36.62109375
-33.87451171875
-28.38134765625
-32.958984375
-39.36767578125
-42.1142578125
-49.4384765625
-47.607421875
-39.36767578125
-40.283203125
-30.21240234375
-27.4658203125
-23.8037109375
-19.22607421875
-25.634765625
-26.55029296875
-19.22607421875
-21.97265625
-21.97265625
-21.05712890625
-14.6484375
-2.74658203125
3.662109375
-17.39501953125
-12.8173828125
0.91552734375
-7.32421875
-5.4931640625
-8.23974609375
-13.73291015625
-15.56396484375
-7.32421875
-2.74658203125
9.1552734375
6.40869140625
3.662109375
1.8310546875
11.90185546875
16.4794921875
16.4794921875
13.73291015625
21.05712890625
24.71923828125
24.71923828125
24.71923828125
36.62109375
35.70556640625
33.87451171875
36.62109375
30.21240234375
33.87451171875
37.53662109375
38.4521484375
43.02978515625
55.84716796875
63.17138671875
59.50927734375
58.59375
71.4111328125
75.0732421875
85.14404296875
108.94775390625
111.6943359375
106.201171875
113.525390625
126.3427734375
136.41357421875
137.3291015625
138.24462890625
144.6533203125
152.89306640625
154.72412109375
151.06201171875
157.470703125
168.45703125
171.20361328125
174.86572265625
182.18994140625
187.68310546875
194.091796875
198.66943359375
202.33154296875
210.5712890625
216.97998046875
232.5439453125
236.2060546875
246.27685546875
239.8681640625
243.5302734375
248.10791015625
248.10791015625
246.27685546875
258.1787109375
257.26318359375
254.5166015625
262.75634765625
269.1650390625
253.60107421875
249.0234375
252.685546875
246.27685546875
244.44580078125
228.8818359375
224.30419921875
210.5712890625
208.740234375
195.00732421875
168.45703125
159.3017578125
153.80859375
135.498046875
115.3564453125
102.5390625
96.13037109375
80.56640625
75.98876953125
65.91796875
37.53662109375
34.7900390625
30.21240234375
24.71923828125
12.8173828125
0.91552734375
-8.23974609375
-2.74658203125
-2.74658203125
0
-10.07080078125
-16.4794921875
-16.4794921875
-21.97265625
-26.55029296875
-30.21240234375
-20.1416015625
-23.8037109375
-38.4521484375
-38.4521484375
-32.04345703125
-30.21240234375
-23.8037109375
-24.71923828125
-28.38134765625
-22.88818359375
-27.4658203125
-23.8037109375
-28.38134765625
-43.02978515625
-38.4521484375
-33.87451171875
-29.296875
-19.22607421875
-29.296875
-23.8037109375
-13.73291015625
-11.90185546875
-15.56396484375
-20.1416015625
-23.8037109375
-18.310546875
-13.73291015625
-9.1552734375
-10.986328125
-7.32421875
-18.310546875
-20.1416015625
-7.32421875
-3.662109375
-15.56396484375
-16.4794921875
-12.8173828125
-9.1552734375
-18.310546875
-14.6484375
-15.56396484375
-12.8173828125
-16.4794921875
-15.56396484375
-28.38134765625
-24.71923828125
-10.07080078125
-15.56396484375
-13.73291015625
-10.986328125
-17.39501953125
-35.70556640625
-32.04345703125
-39.36767578125
-45.7763671875
-18.310546875
-5.4931640625
-11.90185546875
-10.986328125
-16.4794921875
-16.4794921875
-12.8173828125
-11.90185546875
-11.90185546875
-24.71923828125
-26.55029296875
-14.6484375
-21.05712890625
-28.38134765625
-19.22607421875
-23.8037109375
-26.55029296875
-20.1416015625
-31.1279296875
-40.283203125
-43.02978515625
-36.62109375
-36.62109375
-28.38134765625
-36.62109375
-49.4384765625
-43.02978515625
-34.7900390625
-31.1279296875
-30.21240234375
-26.55029296875
-22.88818359375
-36.62109375
-33.87451171875
-30.21240234375
-26.55029296875
-25.634765625
-35.70556640625
-42.1142578125
-46.69189453125
-46.69189453125
-36.62109375
-54.931640625
-50.35400390625
-30.21240234375
-31.1279296875
-33.87451171875
-34.7900390625
-37.53662109375
-37.53662109375
-40.283203125
-44.86083984375
-42.1142578125
-52.18505859375
-39.36767578125
-34.7900390625
-43.02978515625
-39.36767578125
-45.7763671875
-53.1005859375
-55.84716796875
-51.26953125
-48.52294921875
-48.52294921875
-44.86083984375
-43.02978515625
-56.7626953125
-54.931640625
-52.18505859375
-67.7490234375
-56.7626953125
-52.18505859375
-50.35400390625
-58.59375
-56.7626953125
-48.52294921875
-43.02978515625
-44.86083984375
-43.9453125
-56.7626953125
-53.1005859375
-49.4384765625
-50.35400390625
-51.26953125
-58.59375
-59.50927734375
-52.18505859375
-61.34033203125
-56.7626953125
-58.59375
-62.255859375
-54.01611328125
-55.84716796875
-59.50927734375
-53.1005859375
-54.931640625
-54.931640625
-43.02978515625
-35.70556640625
-26.55029296875
-21.05712890625
-27.4658203125
-22.88818359375
-10.986328125
3.662109375
3.662109375
0.91552734375
6.40869140625
0
-17.39501953125
-17.39501953125
-14.6484375
-7.32421875
10.986328125
39.36767578125
50.35400390625
44.86083984375
52.18505859375
53.1005859375
43.9453125
34.7900390625
33.87451171875
21.97265625
33.87451171875
40.283203125
26.55029296875
8.23974609375
5.4931640625
3.662109375
-12.8173828125
-23.8037109375
-20.1416015625
-20.1416015625
-32.04345703125
-36.62109375
-39.36767578125
-43.02978515625
-54.01611328125
-58.59375
-61.34033203125
-73.2421875
-53.1005859375
-64.0869140625
-65.91796875
-61.34033203125
-59.50927734375
-59.50927734375
-64.0869140625
-67.7490234375
-64.0869140625
-73.2421875
-65.00244140625
-75.0732421875
-81.48193359375
-76.904296875
-63.17138671875
-68.66455078125
-69.580078125
-71.4111328125
-70.49560546875
-71.4111328125
-69.580078125
-68.66455078125
-81.48193359375
-71.4111328125
-81.48193359375
-79.65087890625
-80.56640625
-86.0595703125
-82.3974609375
-76.904296875
-64.0869140625
-65.00244140625
-67.7490234375
-64.0869140625
-78.7353515625
-71.4111328125
-65.00244140625
-65.91796875
-82.3974609375
-96.13037109375
-78.7353515625
-73.2421875
-75.98876953125
-68.66455078125
-67.7490234375
-75.98876953125
-70.49560546875
-69.580078125
-86.0595703125
-85.14404296875
-99.79248046875
-111.6943359375
-110.77880859375
-101.62353515625
-92.46826171875
-65.00244140625
-28.38134765625
0.91552734375
93.3837890625
212.40234375
318.603515625
412.90283203125
519.10400390625
634.46044921875
769.04296875
910.94970703125
1011.65771484375
1104.1259765625
1153.564453125
1173.7060546875
1170.95947265625
1086.73095703125
907.28759765625
664.6728515625
447.69287109375
303.955078125
208.740234375
127.25830078125
89.7216796875
76.904296875
54.01611328125
46.69189453125
36.62109375
25.634765625
20.1416015625
10.07080078125
0
-13.73291015625
-21.97265625
-27.4658203125
-30.21240234375
-33.87451171875
-39.36767578125
-33.87451171875
-38.4521484375
-37.53662109375
-28.38134765625
-31.1279296875
-21.97265625
-21.05712890625
-38.4521484375
-35.70556640625
-30.21240234375
-17.39501953125
-28.38134765625
-29.296875
-26.55029296875
-31.1279296875
-34.7900390625
-37.53662109375
-27.4658203125
-30.21240234375
-30.21240234375
-21.05712890625
-31.1279296875
-35.70556640625
-35.70556640625
-32.958984375
-30.21240234375
-32.958984375
-18.310546875
-14.6484375
-22.88818359375
-9.1552734375
-4.57763671875
-4.57763671875
-11.90185546875
-10.07080078125
-10.07080078125
-6.40869140625
-4.57763671875
-5.4931640625
-7.32421875
-1.8310546875
-3.662109375
-3.662109375
0.91552734375
8.23974609375
6.40869140625
10.07080078125
20.1416015625
14.6484375
10.07080078125
10.07080078125
22.88818359375
25.634765625
32.04345703125
20.1416015625
15.56396484375
4.57763671875
20.1416015625
32.958984375
32.04345703125
38.4521484375
38.4521484375
43.9453125
50.35400390625
49.4384765625
47.607421875
54.01611328125
54.01611328125
65.91796875
72.32666015625
75.98876953125
86.0595703125
93.3837890625
112.60986328125
108.94775390625
113.525390625
122.6806640625
130.92041015625
135.498046875
134.58251953125
140.07568359375
135.498046875
151.9775390625
144.6533203125
150.146484375
163.87939453125
182.18994140625
189.51416015625
198.66943359375
200.50048828125
205.99365234375
212.40234375
215.14892578125
223.388671875
218.81103515625
216.97998046875
231.62841796875
235.29052734375
240.78369140625
241.69921875
243.5302734375
243.5302734375
250.8544921875
255.43212890625
256.34765625
251.77001953125
261.8408203125
254.5166015625
246.27685546875
241.69921875
236.2060546875
234.375
226.13525390625
207.82470703125
197.75390625
166.6259765625
158.38623046875
152.89306640625
142.822265625
129.08935546875
125.42724609375
108.94775390625
92.46826171875
88.80615234375
73.2421875
67.7490234375
54.931640625
43.02978515625
41.19873046875
34.7900390625
29.296875
10.986328125
7.32421875
10.986328125
0.91552734375
-7.32421875
-21.97265625
-24.71923828125
-25.634765625
-21.97265625
-17.39501953125
-22.88818359375
-34.7900390625
-28.38134765625
-30.21240234375
-40.283203125
-34.7900390625
-29.296875
-30.21240234375
-21.05712890625
-19.22607421875
-27.4658203125
-24.71923828125
-18.310546875
-27.4658203125
-24.71923828125
-35.70556640625
-38.4521484375
-28.38134765625
-22.88818359375
-23.8037109375
-42.1142578125
-43.02978515625
-34.7900390625
-48.52294921875
-46.69189453125
-26.55029296875
-21.05712890625
-16.4794921875
-9.1552734375
-13.73291015625
-14.6484375
-5.4931640625
-12.8173828125
-23.8037109375
-27.4658203125
-21.97265625
-12.8173828125
-13.73291015625
-23.8037109375
-15.56396484375
-19.22607421875
-23.8037109375
-6.40869140625
-22.88818359375
-32.958984375
-20.1416015625
-20.1416015625
-20.1416015625
-20.1416015625
-14.6484375
-10.986328125
-4.57763671875
-10.986328125
-18.310546875
-32.04345703125
-20.1416015625
-10.07080078125
-21.05712890625
-21.05712890625
-8.23974609375
-21.05712890625
-34.7900390625
-21.97265625
-28.38134765625
-29.296875
-26.55029296875
-24.71923828125
-21.97265625
-26.55029296875
-21.05712890625
-21.05712890625
-16.4794921875
-22.88818359375
-28.38134765625
-30.21240234375
-38.4521484375
-30.21240234375
-38.4521484375
-39.36767578125
-43.9453125
-42.1142578125
-39.36767578125
-31.1279296875
-26.55029296875
-36.62109375
-49.4384765625
-44.86083984375
-42.1142578125
-54.931640625
-51.26953125
-49.4384765625
-45.7763671875
-42.1142578125
-45.7763671875
-45.7763671875
-40.283203125
-32.04345703125
-35.70556640625
-49.4384765625
-45.7763671875
-46.69189453125
-52.18505859375
-52.18505859375
-55.84716796875
-49.4384765625
-55.84716796875
-49.4384765625
-43.9453125
-37.53662109375
-37.53662109375
-35.70556640625
-38.4521484375
-31.1279296875
-38.4521484375
-53.1005859375
-51.26953125
-59.50927734375
-57.67822265625
-43.9453125
-41.19873046875
-56.7626953125
-60.4248046875
-47.607421875
-49.4384765625
-47.607421875
-49.4384765625
-56.7626953125
-60.4248046875
-46.69189453125
-41.19873046875
-48.52294921875
-43.02978515625
-43.9453125
-49.4384765625
-55.84716796875
-64.0869140625
-56.7626953125
-47.607421875
-45.7763671875
-41.19873046875
-37.53662109375
-43.02978515625
-58.59375
-68.66455078125
-71.4111328125
-61.34033203125
-57.67822265625
-66.83349609375
-64.0869140625
-55.84716796875
-51.26953125
-49.4384765625
-54.01611328125
-60.4248046875
-60.4248046875
-59.50927734375
-52.18505859375
-49.4384765625
-45.7763671875
-40.283203125
-45.7763671875
-46.69189453125
-44.86083984375
-56.7626953125
-56.7626953125
-63.17138671875
-61.34033203125
-60.4248046875
-61.34033203125
-55.84716796875
-62.255859375
-76.904296875
-59.50927734375
-55.84716796875
-62.255859375
-59.50927734375
-51.26953125
-45.7763671875
-39.36767578125
-43.9453125
-47.607421875
-48.52294921875
-46.69189453125
-59.50927734375
-62.255859375
-61.34033203125
-54.01611328125
-58.59375
-49.4384765625
-42.1142578125
-42.1142578125
-31.1279296875
-26.55029296875
-35.70556640625
-44.86083984375
-47.607421875
-39.36767578125
-18.310546875
6.40869140625
20.1416015625
31.1279296875
34.7900390625
41.19873046875
26.55029296875
0.91552734375
-2.74658203125
10.07080078125
5.4931640625
12.8173828125
11.90185546875
17.39501953125
18.310546875
14.6484375
3.662109375
-0.91552734375
-10.07080078125
-12.8173828125
-22.88818359375
-31.1279296875
-36.62109375
-36.62109375
-39.36767578125
-51.26953125
-66.83349609375
-68.66455078125
-58.59375
-59.50927734375
-65.00244140625
-61.34033203125
-65.00244140625
-63.17138671875
-58.59375
-65.91796875
-64.0869140625
-73.2421875
-77.81982421875
-60.4248046875
-65.91796875
-62.255859375
-69.580078125
-85.14404296875
-89.7216796875
-79.65087890625
-77.81982421875
-86.0595703125
-89.7216796875
-86.0595703125
-77.81982421875
-82.3974609375
-84.228515625
-74.15771484375
-73.2421875
-65.91796875
-75.0732421875
-78.7353515625
-83.31298828125
-92.46826171875
-87.890625
-88.80615234375
-77.81982421875
-71.4111328125
-75.0732421875
-66.83349609375
-63.17138671875
-69.580078125
-75.0732421875
-78.7353515625
-69.580078125
-72.32666015625
-76.904296875
-73.2421875
-74.15771484375
-75.98876953125
-86.97509765625
-108.0322265625
-120.849609375
-119.93408203125
-113.525390625
-94.29931640625
-67.7490234375
-40.283203125
15.56396484375
112.60986328125
224.30419921875
338.7451171875
451.35498046875
557.55615234375
667.41943359375
795.59326171875
937.5
1037.29248046875
1108.70361328125
1166.3818359375
1163.63525390625
1124.267578125
1022.64404296875
824.89013671875
566.71142578125
396.42333984375
268.24951171875
170.2880859375
116.27197265625
95.21484375
69.580078125
54.931640625
41.19873046875
29.296875
9.1552734375
1.8310546875
-1.8310546875
2.74658203125
-4.57763671875
-23.8037109375
-22.88818359375
-26.55029296875
-27.4658203125
-25.634765625
-34.7900390625
-32.958984375
-31.1279296875
-37.53662109375
-43.9453125
-38.4521484375
-37.53662109375
-40.283203125
-49.4384765625
-48.52294921875
-32.04345703125
-38.4521484375
-46.69189453125
-34.7900390625
-41.19873046875
-39.36767578125
-36.62109375
-43.9453125
-33.87451171875
-35.70556640625
-34.7900390625
-14.6484375
-12.8173828125
-22.88818359375
-21.97265625
-21.05712890625
-24.71923828125
-32.958984375
-33.87451171875
-37.53662109375
-39.36767578125
-29.296875
-26.55029296875
-18.310546875
-13.73291015625
-18.310546875
-28.38134765625
-30.21240234375
-30.21240234375
-17.39501953125
0
-2.74658203125
5.4931640625
-0.91552734375
4.57763671875
6.40869140625
5.4931640625
2.74658203125
14.6484375
21.05712890625
15.56396484375
22.88818359375
29.296875
24.71923828125
22.88818359375
36.62109375
34.7900390625
23.8037109375
39.36767578125
40.283203125
40.283203125
45.7763671875
56.7626953125
54.931640625
58.59375
68.66455078125
67.7490234375
64.0869140625
65.91796875
79.65087890625
78.7353515625
86.97509765625
94.29931640625
100.7080078125
100.7080078125
108.94775390625
105.28564453125
126.3427734375
131.8359375
130.0048828125
133.6669921875
140.07568359375
151.9775390625
159.3017578125
167.54150390625
177.6123046875
178.52783203125
173.9501953125
167.54150390625
175.78125
190.4296875
212.40234375
214.2333984375
211.48681640625
222.47314453125
227.96630859375
224.30419921875
225.2197265625
246.27685546875
238.95263671875
237.12158203125
242.61474609375
246.27685546875
260.92529296875
260.92529296875
260.92529296875
253.60107421875
262.75634765625
258.1787109375
247.1923828125
240.78369140625
229.79736328125
230.712890625
222.47314453125
215.14892578125
192.2607421875
179.443359375
168.45703125
159.3017578125
151.06201171875
132.75146484375
117.1875
99.79248046875
82.3974609375
69.580078125
61.34033203125
55.84716796875
34.7900390625
31.1279296875
35.70556640625
21.97265625
10.986328125
13.73291015625
7.32421875
-10.07080078125
-14.6484375
-23.8037109375
-22.88818359375
-21.97265625
-19.22607421875
-28.38134765625
-37.53662109375
-30.21240234375
-32.958984375
-35.70556640625
-38.4521484375
-39.36767578125
-38.4521484375
-37.53662109375
-39.36767578125
-35.70556640625
-32.958984375
-26.55029296875
-37.53662109375
-44.86083984375
-34.7900390625
-32.04345703125
-34.7900390625
-35.70556640625
-44.86083984375
-47.607421875
-43.02978515625
-35.70556640625
-22.88818359375
-32.958984375
-34.7900390625
-26.55029296875
-24.71923828125
-10.986328125
-20.1416015625
-41.19873046875
-32.04345703125
-26.55029296875
-37.53662109375
-32.958984375
-25.634765625
-27.4658203125
-21.05712890625
-31.1279296875
-32.04345703125
-18.310546875
-12.8173828125
-24.71923828125
-25.634765625
-29.296875
-29.296875
-25.634765625
-36.62109375
-34.7900390625
-36.62109375
-27.4658203125
-17.39501953125
-14.6484375
-19.22607421875
-21.05712890625
-18.310546875
-15.56396484375
-21.05712890625
-27.4658203125
-24.71923828125
-30.21240234375
-16.4794921875
-7.32421875
-19.22607421875
-32.04345703125
-31.1279296875
-34.7900390625
-30.21240234375
-35.70556640625
-28.38134765625
-39.36767578125
-36.62109375
-26.55029296875
-27.4658203125
-32.04345703125
-35.70556640625
-35.70556640625
-40.283203125
-37.53662109375
-34.7900390625
-34.7900390625
-38.4521484375
-41.19873046875
-43.9453125
-38.4521484375
-40.283203125
-53.1005859375
-70.49560546875
-73.2421875
-62.255859375
-48.52294921875
-31.1279296875
-32.958984375
-31.1279296875
-20.1416015625
-21.05712890625
-35.70556640625
-41.19873046875
-37.53662109375
-37.53662109375
-36.62109375
-38.4521484375
-37.53662109375
-37.53662109375
-39.36767578125
-47.607421875
-54.01611328125
-49.4384765625
-51.26953125
-55.84716796875
-46.69189453125
-52.18505859375
-42.1142578125
-47.607421875
-61.34033203125
-58.59375
-62.255859375
-65.91796875
-61.34033203125
-61.34033203125
-59.50927734375
-62.255859375
-59.50927734375
-40.283203125
-43.9453125
-45.7763671875
-52.18505859375
-54.931640625
-47.607421875
-54.01611328125
-63.17138671875
-65.00244140625
-52.18505859375
-53.1005859375
-61.34033203125
-54.931640625
-58.59375
-58.59375
-54.931640625
-48.52294921875
-46.69189453125
-58.59375
-54.01611328125
-54.931640625
-54.01611328125
-44.86083984375
-46.69189453125
-49.4384765625
-44.86083984375
-54.01611328125
-54.01611328125
-46.69189453125
-44.86083984375
-53.1005859375
-36.62109375
-44.86083984375
-64.0869140625
-55.84716796875
-44.86083984375
-61.34033203125
-61.34033203125
-35.70556640625
-38.4521484375
-32.958984375
-17.39501953125
-2.74658203125
-13.73291015625
-29.296875
-16.4794921875
-21.05712890625
-15.56396484375
-6.40869140625
-4.57763671875
0.91552734375
25.634765625
59.50927734375
51.26953125
38.4521484375
39.36767578125
37.53662109375
40.283203125
34.7900390625
34.7900390625
40.283203125
40.283203125
37.53662109375
11.90185546875
9.1552734375
12.8173828125
3.662109375
-9.1552734375
-16.4794921875
-21.97265625
-37.53662109375
-53.1005859375
-40.283203125
-33.87451171875
-48.52294921875
-49.4384765625
-62.255859375
-60.4248046875
-52.18505859375
-53.1005859375
-63.17138671875
-73.2421875
-68.66455078125
-75.0732421875
-74.15771484375
-93.3837890625
-94.29931640625
-90.63720703125
-87.890625
-68.66455078125
-74.15771484375
-81.48193359375
-79.65087890625
-78.7353515625
-75.0732421875
-71.4111328125
-70.49560546875
-81.48193359375
-70.49560546875
-56.7626953125
-64.0869140625
-64.0869140625
-73.2421875
-75.98876953125
-69.580078125
-61.34033203125
-66.83349609375
-66.83349609375
-70.49560546875
-65.91796875
-67.7490234375
-74.15771484375
-74.15771484375
-81.48193359375
-92.46826171875
-85.14404296875
-80.56640625
-71.4111328125
-70.49560546875
-68.66455078125
-75.0732421875
-72.32666015625
-65.91796875
-65.91796875
-81.48193359375
-87.890625
-84.228515625
-93.3837890625
-113.525390625
-111.6943359375
-111.6943359375
-97.0458984375
-63.17138671875
-41.19873046875
3.662109375
76.904296875
187.68310546875
322.265625
436.70654296875
531.92138671875
623.47412109375
749.81689453125
873.4130859375
968.6279296875
1064.75830078125
1124.267578125
1158.14208984375
1159.97314453125
1092.22412109375
930.17578125
676.57470703125
495.30029296875
360.7177734375
216.064453125
121.76513671875
93.3837890625
81.48193359375
65.91796875
49.4384765625
24.71923828125
-7.32421875
-10.986328125
-14.6484375
-19.22607421875
-21.97265625
-16.4794921875
-16.4794921875
-16.4794921875
-14.6484375
-11.90185546875
-14.6484375
-25.634765625
-32.958984375
-49.4384765625
-50.35400390625
-34.7900390625
-49.4384765625
-48.52294921875
-45.7763671875
-42.1142578125
-38.4521484375
-26.55029296875
-20.1416015625
-22.88818359375
-34.7900390625
-23.8037109375
-27.4658203125
-22.88818359375
-18.310546875
-32.04345703125
-37.53662109375
-35.70556640625
-33.87451171875
-34.7900390625
-24.71923828125
-28.38134765625
-32.04345703125
-28.38134765625
-26.55029296875
-13.73291015625
-8.23974609375
-18.310546875
-16.4794921875
-11.90185546875
-21.05712890625
-26.55029296875
-21.05712890625
-15.56396484375
-7.32421875
-8.23974609375
-6.40869140625
-6.40869140625
0
-2.74658203125
-12.8173828125
-10.07080078125
-6.40869140625
-6.40869140625
5.4931640625
4.57763671875
-4.57763671875
2.74658203125
14.6484375
0
8.23974609375
16.4794921875
27.4658203125
49.4384765625
52.18505859375
45.7763671875
42.1142578125
53.1005859375
63.17138671875
68.66455078125
73.2421875
80.56640625
73.2421875
75.98876953125
90.63720703125
95.21484375
86.97509765625
93.3837890625
102.5390625
103.45458984375
97.0458984375
106.201171875
117.1875
121.76513671875
122.6806640625
131.8359375
139.16015625
147.39990234375
149.23095703125
156.55517578125
160.21728515625
161.1328125
162.04833984375
160.21728515625
165.71044921875
180.35888671875
196.83837890625
203.2470703125
216.064453125
210.5712890625
226.13525390625
228.8818359375
222.47314453125
232.5439453125
236.2060546875
250.8544921875
249.93896484375
238.037109375
241.69921875
240.78369140625
239.8681640625
239.8681640625
249.93896484375
236.2060546875
236.2060546875
236.2060546875
224.30419921875
208.740234375
215.14892578125
204.16259765625
185.85205078125
170.2880859375
170.2880859375
150.146484375
150.146484375
137.3291015625
115.3564453125
106.201171875
105.28564453125
85.14404296875
65.91796875
64.0869140625
43.02978515625
28.38134765625
26.55029296875
21.05712890625
3.662109375
-5.4931640625
2.74658203125
10.986328125
-1.8310546875
-15.56396484375
-14.6484375
-20.1416015625
-29.296875
-29.296875
-21.05712890625
-34.7900390625
-25.634765625
-32.04345703125
-37.53662109375
-32.04345703125
-28.38134765625
-28.38134765625
-28.38134765625
-24.71923828125
-43.02978515625
-32.958984375
-30.21240234375
-38.4521484375
-34.7900390625
-36.62109375
-25.634765625
-28.38134765625
-27.4658203125
-31.1279296875
-41.19873046875
-36.62109375
-27.4658203125
-32.958984375
-33.87451171875
-33.87451171875
-43.9453125
-34.7900390625
-33.87451171875
-28.38134765625
-28.38134765625
-24.71923828125
-30.21240234375
-34.7900390625
-32.04345703125
-29.296875
-28.38134765625
-29.296875
-32.04345703125
-30.21240234375
-36.62109375
-27.4658203125
-22.88818359375
-14.6484375
-13.73291015625
-20.1416015625
-15.56396484375
-22.88818359375
-7.32421875
0
-5.4931640625
2.74658203125
2.74658203125
-8.23974609375
-20.1416015625
-19.22607421875
-21.97265625
-19.22607421875
-15.56396484375
-16.4794921875
-10.07080078125
-17.39501953125
-32.958984375
-43.02978515625
-32.04345703125
-31.1279296875
-28.38134765625
-29.296875
-18.310546875
-17.39501953125
-21.05712890625
-19.22607421875
-15.56396484375
-31.1279296875
-33.87451171875
-30.21240234375
-32.958984375
-21.97265625
-34.7900390625
-50.35400390625
-43.9453125
-54.01611328125
-38.4521484375
-30.21240234375
-36.62109375
-43.9453125
-40.283203125
-40.283203125
-44.86083984375
-43.02978515625
-33.87451171875
-40.283203125
-43.9453125
-44.86083984375
-42.1142578125
-46.69189453125
-45.7763671875
-45.7763671875
-45.7763671875
-47.607421875
-44.86083984375
-43.9453125
-43.02978515625
-48.52294921875
-52.18505859375
-48.52294921875
-37.53662109375
-43.02978515625
-41.19873046875
-29.296875
-31.1279296875
-42.1142578125
-47.607421875
-56.7626953125
-53.1005859375
-58.59375
-59.50927734375
-58.59375
-56.7626953125
-51.26953125
-52.18505859375
-55.84716796875
-49.4384765625
-45.7763671875
-46.69189453125
-39.36767578125
-43.9453125
-61.34033203125
-47.607421875
-44.86083984375
-42.1142578125
-47.607421875
-40.283203125
-54.931640625
-63.17138671875
-50.35400390625
-49.4384765625
-55.84716796875
-55.84716796875
-56.7626953125
-57.67822265625
-56.7626953125
-64.0869140625
-71.4111328125
-71.4111328125
-57.67822265625
-42.1142578125
-48.52294921875
-42.1142578125
-36.62109375
-41.19873046875
-43.02978515625
-32.04345703125
-49.4384765625
-44.86083984375
-33.87451171875
-19.22607421875
-4.57763671875
2.74658203125
3.662109375
-2.74658203125
-10.986328125
-12.8173828125
-8.23974609375
-8.23974609375
7.32421875
30.21240234375
55.84716796875
65.00244140625
64.0869140625
58.59375
50.35400390625
53.1005859375
37.53662109375
34.7900390625
31.1279296875
36.62109375
32.958984375
21.97265625
12.8173828125
6.40869140625
0.91552734375
-8.23974609375
-36.62109375
-45.7763671875
-57.67822265625
-58.59375
-65.00244140625
-60.4248046875
-43.9453125
-57.67822265625
-59.50927734375
-57.67822265625
-65.91796875
-80.56640625
-85.14404296875
-85.14404296875
-90.63720703125
-75.98876953125
-69.580078125
-73.2421875
-77.81982421875
-68.66455078125
-65.00244140625
-75.98876953125
-83.31298828125
-82.3974609375
-84.228515625
-88.80615234375
-86.0595703125
-83.31298828125
-69.580078125
-66.83349609375
-75.0732421875
-87.890625
-88.80615234375
-88.80615234375
-84.228515625
-87.890625
-81.48193359375
-75.98876953125
-96.13037109375
-96.13037109375
-93.3837890625
-111.6943359375
-103.45458984375
-101.62353515625
-94.29931640625
-84.228515625
-83.31298828125
-86.0595703125
-86.0595703125
-84.228515625
-94.29931640625
-102.5390625
-98.876953125
-87.890625
-87.890625
-87.890625
-84.228515625
-96.13037109375
-101.62353515625
-100.7080078125
-133.6669921875
-144.6533203125
-138.24462890625
-138.24462890625
-119.0185546875
-77.81982421875
-23.8037109375
37.53662109375
138.24462890625
257.26318359375
361.63330078125
470.5810546875
565.7958984375
686.6455078125
829.4677734375
940.24658203125
1034.5458984375
1099.54833984375
1129.7607421875
1134.33837890625
1097.71728515625
959.47265625
748.9013671875
527.34375
375.3662109375
254.5166015625
158.38623046875
97.0458984375
74.15771484375
59.50927734375
34.7900390625
25.634765625
26.55029296875
10.07080078125
3.662109375
-4.57763671875
-11.90185546875
-28.38134765625
-39.36767578125
-36.62109375
-43.02978515625
-43.9453125
-47.607421875
-49.4384765625
-44.86083984375
-48.52294921875
-53.1005859375
-58.59375
-57.67822265625
-56.7626953125
-66.83349609375
-54.931640625
-63.17138671875
-67.7490234375
-73.2421875
-70.49560546875
-75.98876953125
-58.59375
-47.607421875
-42.1142578125
-42.1142578125
-45.7763671875
-43.02978515625
-44.86083984375
-36.62109375
-30.21240234375
-34.7900390625
-50.35400390625
-47.607421875
-46.69189453125
-50.35400390625
-48.52294921875
-42.1142578125
-32.958984375
-30.21240234375
-31.1279296875
-24.71923828125
-30.21240234375
-19.22607421875
-16.4794921875
-21.97265625
-23.8037109375
-27.4658203125
-12.8173828125
-10.986328125
-8.23974609375
0.91552734375
-14.6484375
-13.73291015625
-7.32421875
0.91552734375
0.91552734375
-14.6484375
-14.6484375
-8.23974609375
0.91552734375
8.23974609375
10.986328125
4.57763671875
12.8173828125
13.73291015625
16.4794921875
21.05712890625
22.88818359375
19.22607421875
28.38134765625
37.53662109375
22.88818359375
41.19873046875
47.607421875
46.69189453125
62.255859375
63.17138671875
60.4248046875
64.0869140625
65.91796875
87.890625
87.890625
87.890625
97.0458984375
105.28564453125
110.77880859375
121.76513671875
134.58251953125
144.6533203125
151.9775390625
157.470703125
151.06201171875
162.04833984375
172.119140625
174.86572265625
182.18994140625
187.68310546875
192.2607421875
200.50048828125
204.16259765625
200.50048828125
206.9091796875
207.82470703125
208.740234375
206.9091796875
206.9091796875
216.064453125
218.81103515625
224.30419921875
228.8818359375
223.388671875
224.30419921875
234.375
231.62841796875
223.388671875
216.97998046875
206.9091796875
199.5849609375
191.34521484375
189.51416015625
182.18994140625
174.86572265625
157.470703125
143.73779296875
119.93408203125
106.201171875
81.48193359375
76.904296875
64.0869140625
57.67822265625
60.4248046875
42.1142578125
24.71923828125
11.90185546875
0
-2.74658203125
-4.57763671875
-11.90185546875
-16.4794921875
-19.22607421875
-24.71923828125
-37.53662109375
-44.86083984375
-52.18505859375
-60.4248046875
-72.32666015625
-73.2421875
-70.49560546875
-67.7490234375
-64.0869140625
-62.255859375
-64.0869140625
-73.2421875
-66.83349609375
-69.580078125
-79.65087890625
-85.14404296875
-75.98876953125
-69.580078125
-72.32666015625
-74.15771484375
-80.56640625
-80.56640625
-72.32666015625
-79.65087890625
-83.31298828125
-88.80615234375
-77.81982421875
-83.31298828125
-73.2421875
-66.83349609375
-65.91796875
-67.7490234375
-53.1005859375
-57.67822265625
-61.34033203125
-57.67822265625
-65.91796875
-55.84716796875
-52.18505859375
-54.01611328125
-51.26953125
-50.35400390625
-46.69189453125
-52.18505859375
-61.34033203125
-67.7490234375
-73.2421875
-60.4248046875
-58.59375
-65.91796875
-66.83349609375
-65.00244140625
-80.56640625
-84.228515625
-77.81982421875
-69.580078125
-69.580078125
-61.34033203125
-55.84716796875
-58.59375
-59.50927734375
-62.255859375
-61.34033203125
-69.580078125
-69.580078125
-75.0732421875
-59.50927734375
-58.59375
-61.34033203125
-57.67822265625
-59.50927734375
-65.00244140625
-56.7626953125
-64.0869140625
-67.7490234375
-63.17138671875
-58.59375
-59.50927734375
-60.4248046875
-55.84716796875
-63.17138671875
-73.2421875
-72.32666015625
-73.2421875
-71.4111328125
-76.904296875
-80.56640625
-74.15771484375
-72.32666015625
-79.65087890625
-71.4111328125
-83.31298828125
-86.0595703125
-82.3974609375
-93.3837890625
-86.97509765625
-81.48193359375
-84.228515625
-82.3974609375
-83.31298828125
-80.56640625
-82.3974609375
-84.228515625
-77.81982421875
-81.48193359375
-76.904296875
-62.255859375
-67.7490234375
-69.580078125
-70.49560546875
-77.81982421875
-81.48193359375
-77.81982421875
-88.80615234375
-86.0595703125
-86.97509765625
-81.48193359375
-81.48193359375
-73.2421875
-69.580078125
-77.81982421875
-81.48193359375
-82.3974609375
-87.890625
-91.552734375
-97.0458984375
-87.890625
-85.14404296875
-76.904296875
-78.7353515625
-75.0732421875
-88.80615234375
-86.97509765625
-83.31298828125
-85.14404296875
-88.80615234375
-95.21484375
-94.29931640625
-95.21484375
-111.6943359375
-111.6943359375
-94.29931640625
-78.7353515625
-78.7353515625
-88.80615234375
-80.56640625
-74.15771484375
-68.66455078125
-79.65087890625
-78.7353515625
-82.3974609375
-79.65087890625
-75.0732421875
-84.228515625
-97.96142578125
-96.13037109375
-86.97509765625
-85.14404296875
-82.3974609375
-77.81982421875
-79.65087890625
-69.580078125
-65.91796875
-75.0732421875
-79.65087890625
-84.228515625
-73.2421875
-82.3974609375
-72.32666015625
-76.904296875
-85.14404296875
-88.80615234375
-85.14404296875
-102.5390625
-97.96142578125
-92.46826171875
-84.228515625
-87.890625
-82.3974609375
-71.4111328125
-65.91796875
-60.4248046875
-70.49560546875
-75.0732421875
-55.84716796875
-33.87451171875
-34.7900390625
-48.52294921875
-48.52294921875
-44.86083984375
-56.7626953125
-57.67822265625
-48.52294921875
-42.1142578125
-32.04345703125
0
19.22607421875
4.57763671875
7.32421875
5.4931640625
12.8173828125
11.90185546875
4.57763671875
11.90185546875
9.1552734375
1.8310546875
0
-17.39501953125
-22.88818359375
-9.1552734375
-13.73291015625
-32.04345703125
-43.9453125
-50.35400390625
-66.83349609375
-66.83349609375
-73.2421875
-87.890625
-89.7216796875
-79.65087890625
-86.0595703125
-80.56640625
-87.890625
-104.3701171875
-97.96142578125
-91.552734375
-104.3701171875
-100.7080078125
-98.876953125
-102.5390625
-111.6943359375
-111.6943359375
-117.1875
-113.525390625
-125.42724609375
-116.27197265625
-105.28564453125
-110.77880859375
-110.77880859375
-97.0458984375
-112.60986328125
-112.60986328125
-114.44091796875
-118.10302734375
-127.25830078125
-111.6943359375
-96.13037109375
-106.201171875
-100.7080078125
-95.21484375
-93.3837890625
-92.46826171875
-99.79248046875
-108.0322265625
-102.5390625
-98.876953125
-103.45458984375
-95.21484375
-97.0458984375
-98.876953125
-86.97509765625
-84.228515625
-88.80615234375
-93.3837890625
-94.29931640625
-92.46826171875
-101.62353515625
-100.7080078125
-102.5390625
-111.6943359375
-141.90673828125
-152.89306640625
-148.3154296875
-146.484375
-140.07568359375
-92.46826171875
-72.32666015625
-36.62109375
54.931640625
171.20361328125
290.22216796875
394.59228515625
493.46923828125
585.02197265625
726.01318359375
856.93359375
964.05029296875
1035.46142578125
1090.39306640625
1125.18310546875
1106.87255859375
1031.79931640625
867.919921875
636.29150390625
415.6494140625
277.40478515625
178.52783203125
89.7216796875
65.00244140625
51.26953125
28.38134765625
6.40869140625
-10.07080078125
-8.23974609375
-11.90185546875
-27.4658203125
-37.53662109375
-34.7900390625
-28.38134765625
-39.36767578125
-40.283203125
-43.02978515625
-53.1005859375
-63.17138671875
-58.59375
-51.26953125
-60.4248046875
-55.84716796875
-57.67822265625
-57.67822265625
-57.67822265625
-71.4111328125
-60.4248046875
-59.50927734375
-66.83349609375
-58.59375
-64.0869140625
-72.32666015625
-65.91796875
-65.91796875
-54.01611328125
-59.50927734375
-74.15771484375
-59.50927734375
-55.84716796875
-50.35400390625
-65.91796875
-54.931640625
-54.01611328125
-38.4521484375
-37.53662109375
-51.26953125
-41.19873046875
-44.86083984375
-46.69189453125
-42.1142578125
-43.02978515625
-39.36767578125
-34.7900390625
-22.88818359375
-39.36767578125
-40.283203125
-31.1279296875
-40.283203125
-40.283203125
-31.1279296875
-23.8037109375
-27.4658203125
-23.8037109375
-21.05712890625
-24.71923828125
-40.283203125
-24.71923828125
-25.634765625
-13.73291015625
-13.73291015625
-7.32421875
-2.74658203125
0.91552734375
5.4931640625
12.8173828125
15.56396484375
16.4794921875
11.90185546875
10.07080078125
16.4794921875
41.19873046875
48.52294921875
45.7763671875
41.19873046875
41.19873046875
48.52294921875
52.18505859375
56.7626953125
72.32666015625
74.15771484375
76.904296875
77.81982421875
97.0458984375
101.62353515625
100.7080078125
107.11669921875
117.1875
123.59619140625
124.51171875
141.90673828125
137.3291015625
151.9775390625
160.21728515625
151.06201171875
147.39990234375
156.55517578125
136.41357421875
151.9775390625
162.04833984375
186.767578125
206.9091796875
214.2333984375
215.14892578125
214.2333984375
227.05078125
233.45947265625
238.037109375
227.96630859375
224.30419921875
221.5576171875
231.62841796875
232.5439453125
234.375
239.8681640625
239.8681640625
249.0234375
235.29052734375
219.7265625
205.99365234375
201.416015625
189.51416015625
178.52783203125
166.6259765625
163.87939453125
161.1328125
148.3154296875
140.9912109375
116.27197265625
101.62353515625
85.14404296875
86.97509765625
60.4248046875
35.70556640625
39.36767578125
29.296875
1.8310546875
0
-7.32421875
-9.1552734375
-21.97265625
-19.22607421875
-31.1279296875
-33.87451171875
-43.02978515625
-52.18505859375
-68.66455078125
-64.0869140625
-58.59375
-62.255859375
-55.84716796875
-61.34033203125
-68.66455078125
-73.2421875
-66.83349609375
-67.7490234375
-58.59375
-53.1005859375
-54.931640625
-54.01611328125
-53.1005859375
-49.4384765625
-45.7763671875
-43.9453125
-56.7626953125
-58.59375
-68.66455078125
-65.00244140625
-64.0869140625
-62.255859375
-63.17138671875
-54.01611328125
-55.84716796875
-71.4111328125
-56.7626953125
-58.59375
-49.4384765625
-57.67822265625
-64.0869140625
-56.7626953125
-51.26953125
-49.4384765625
-55.84716796875
-62.255859375
-57.67822265625
-67.7490234375
-67.7490234375
-58.59375
-71.4111328125
-56.7626953125
-46.69189453125
-44.86083984375
-41.19873046875
-51.26953125
-54.931640625
-57.67822265625
-46.69189453125
-47.607421875
-65.00244140625
-53.1005859375
-57.67822265625
-58.59375
-59.50927734375
-50.35400390625
-54.931640625
-56.7626953125
-57.67822265625
-55.84716796875
-60.4248046875
-64.0869140625
-65.00244140625
-66.83349609375
-72.32666015625
-69.580078125
-61.34033203125
-75.98876953125
-73.2421875
-73.2421875
-68.66455078125
-80.56640625
-80.56640625
-73.2421875
-71.4111328125
-70.49560546875
-56.7626953125
-55.84716796875
-56.7626953125
-54.01611328125
-72.32666015625
-82.3974609375
-89.7216796875
-69.580078125
-71.4111328125
-70.49560546875
-73.2421875
-70.49560546875
-65.00244140625
-59.50927734375
-68.66455078125
-80.56640625
-91.552734375
-81.48193359375
-79.65087890625
-82.3974609375
-72.32666015625
-66.83349609375
-70.49560546875
-65.91796875
-77.81982421875
-75.0732421875
-71.4111328125
-70.49560546875
-66.83349609375
-74.15771484375
-76.904296875
-86.97509765625
-78.7353515625
-79.65087890625
-84.228515625
-86.97509765625
-91.552734375
-88.80615234375
-90.63720703125
-90.63720703125
-91.552734375
-104.3701171875
-95.21484375
-91.552734375
-91.552734375
-97.0458984375
-82.3974609375
-74.15771484375
-85.14404296875
-95.21484375
-86.97509765625
-75.98876953125
-91.552734375
-79.65087890625
-78.7353515625
-75.98876953125
-75.98876953125
-85.14404296875
-92.46826171875
-75.0732421875
-68.66455078125
-81.48193359375
-92.46826171875
-85.14404296875
-86.0595703125
-87.890625
-80.56640625
-85.14404296875
-86.97509765625
-86.97509765625
-89.7216796875
-86.97509765625
-81.48193359375
-96.13037109375
-97.96142578125
-97.0458984375
-88.80615234375
-89.7216796875
-106.201171875
-102.5390625
-98.876953125
-90.63720703125
-81.48193359375
-79.65087890625
-87.890625
-90.63720703125
-93.3837890625
-81.48193359375
-80.56640625
-82.3974609375
-83.31298828125
-97.0458984375
-106.201171875
-97.96142578125
-103.45458984375
-94.29931640625
-89.7216796875
-84.228515625
-79.65087890625
-73.2421875
-75.0732421875
-86.97509765625
-92.46826171875
-81.48193359375
-78.7353515625
-92.46826171875
-86.0595703125
-79.65087890625
-67.7490234375
-69.580078125
-77.81982421875
-79.65087890625
-76.904296875
-70.49560546875
-76.904296875
-72.32666015625
-58.59375
-55.84716796875
-57.67822265625
-47.607421875
-57.67822265625
-54.931640625
-42.1142578125
-28.38134765625
-36.62109375
-45.7763671875
-21.05712890625
25.634765625
24.71923828125
14.6484375
1.8310546875
0
8.23974609375
5.4931640625
-1.8310546875
4.57763671875
2.74658203125
-6.40869140625
-23.8037109375
-34.7900390625
-32.04345703125
-30.21240234375
-52.18505859375
-74.15771484375
-85.14404296875
-93.3837890625
-81.48193359375
-75.98876953125
-93.3837890625
-85.14404296875
-97.96142578125
-102.5390625
-98.876953125
-100.7080078125
-93.3837890625
-94.29931640625
-97.96142578125
-110.77880859375
-115.3564453125
-112.60986328125
-123.59619140625
-119.0185546875
-117.1875
-104.3701171875
-103.45458984375
-107.11669921875
-108.0322265625
-104.3701171875
-101.62353515625
-113.525390625
-115.3564453125
-119.0185546875
-109.86328125
-109.86328125
-117.1875
-132.75146484375
-130.92041015625
-115.3564453125
-102.5390625
-97.96142578125
-104.3701171875
-103.45458984375
-101.62353515625
-93.3837890625
-99.79248046875
-110.77880859375
-119.0185546875
-112.60986328125
-110.77880859375
-115.3564453125
-122.6806640625
-132.75146484375
-130.92041015625
-112.60986328125
-104.3701171875
-112.60986328125
-108.94775390625
-104.3701171875
-106.201171875
-111.6943359375
-126.3427734375
-144.6533203125
-151.9775390625
-153.80859375
-151.06201171875
-143.73779296875
-108.94775390625
-68.66455078125
-18.310546875
73.2421875
188.5986328125
293.88427734375
396.42333984375
490.72265625
602.4169921875
748.9013671875
880.7373046875
986.9384765625
1051.025390625
1097.71728515625
1119.68994140625
1096.8017578125
995.17822265625
808.41064453125
564.88037109375
375.3662109375
251.77001953125
151.9775390625
73.2421875
54.01611328125
37.53662109375
20.1416015625
12.8173828125
3.662109375
-24.71923828125
-39.36767578125
-37.53662109375
-39.36767578125
-43.02978515625
-51.26953125
-40.283203125
-45.7763671875
-52.18505859375
-49.4384765625
-55.84716796875
-61.34033203125
-55.84716796875
-59.50927734375
-71.4111328125
-69.580078125
-82.3974609375
-83.31298828125
-84.228515625
-84.228515625
-76.904296875
-73.2421875
-75.98876953125
-77.81982421875
-67.7490234375
-56.7626953125
-52.18505859375
-59.50927734375
-64.0869140625
-60.4248046875
-65.00244140625
-65.00244140625
-57.67822265625
-54.931640625
-54.01611328125
-53.1005859375
-45.7763671875
-51.26953125
-48.52294921875
-49.4384765625
-58.59375
-48.52294921875
-41.19873046875
-37.53662109375
-34.7900390625
-32.958984375
-25.634765625
-26.55029296875
-39.36767578125
-42.1142578125
-38.4521484375
-50.35400390625
-43.02978515625
-34.7900390625
-23.8037109375
-0.91552734375
-7.32421875
-9.1552734375
-5.4931640625
-8.23974609375
8.23974609375
10.986328125
16.4794921875
13.73291015625
14.6484375
13.73291015625
20.1416015625
29.296875
31.1279296875
29.296875
31.1279296875
22.88818359375
26.55029296875
43.02978515625
35.70556640625
36.62109375
34.7900390625
51.26953125
58.59375
60.4248046875
64.0869140625
74.15771484375
94.29931640625
86.97509765625
92.46826171875
112.60986328125
113.525390625
104.3701171875
109.86328125
144.6533203125
147.39990234375
144.6533203125
154.72412109375
160.21728515625
156.55517578125
173.9501953125
175.78125
171.20361328125
184.9365234375
195.9228515625
197.75390625
203.2470703125
217.8955078125
233.45947265625
238.95263671875
225.2197265625
224.30419921875
238.95263671875
236.2060546875
227.96630859375
233.45947265625
240.78369140625
252.685546875
253.60107421875
256.34765625
259.09423828125
262.75634765625
260.92529296875
255.43212890625
245.361328125
244.44580078125
241.69921875
230.712890625
218.81103515625
216.064453125
205.078125
196.83837890625
186.767578125
173.9501953125
143.73779296875
120.849609375
97.0458984375
97.96142578125
108.0322265625
92.46826171875
61.34033203125
48.52294921875
43.02978515625
35.70556640625
28.38134765625
10.986328125
6.40869140625
7.32421875
8.23974609375
-4.57763671875
2.74658203125
11.90185546875
-4.57763671875
-47.607421875
-40.283203125
-21.05712890625
-24.71923828125
-26.55029296875
-28.38134765625
-19.22607421875
-24.71923828125
-23.8037109375
-32.958984375
-32.958984375
-32.958984375
-39.36767578125
-42.1142578125
-35.70556640625
-32.958984375
-43.9453125
-40.283203125
-37.53662109375
-31.1279296875
-31.1279296875
-37.53662109375
-47.607421875
-45.7763671875
-49.4384765625
-46.69189453125
-43.02978515625
-34.7900390625
-39.36767578125
-33.87451171875
-29.296875
-28.38134765625
-23.8037109375
-17.39501953125
-11.90185546875
0
-19.22607421875
-34.7900390625
-22.88818359375
-34.7900390625
-20.1416015625
-23.8037109375
-20.1416015625
-9.1552734375
-15.56396484375
-17.39501953125
-21.05712890625
-20.1416015625
-19.22607421875
-26.55029296875
-25.634765625
-21.97265625
-31.1279296875
-34.7900390625
-32.04345703125
-34.7900390625
-38.4521484375
-35.70556640625
-23.8037109375
-29.296875
-11.90185546875
-21.05712890625
-23.8037109375
-27.4658203125
-40.283203125
-52.18505859375
-36.62109375
-39.36767578125
-47.607421875
-47.607421875
-43.02978515625
-24.71923828125
-33.87451171875
-40.283203125
-39.36767578125
-34.7900390625
-32.958984375
-27.4658203125
-31.1279296875
-43.02978515625
-43.9453125
-46.69189453125
-51.26953125
-50.35400390625
-50.35400390625
-52.18505859375
-47.607421875
-41.19873046875
-45.7763671875
-40.283203125
-37.53662109375
-44.86083984375
-45.7763671875
-40.283203125
-39.36767578125
-41.19873046875
-50.35400390625
-62.255859375
-66.83349609375
-47.607421875
-25.634765625
-32.958984375
-36.62109375
-47.607421875
-45.7763671875
-53.1005859375
-62.255859375
-66.83349609375
-62.255859375
-62.255859375
-60.4248046875
-67.7490234375
-71.4111328125
-50.35400390625
-44.86083984375
-37.53662109375
-42.1142578125
-37.53662109375
-46.69189453125
-46.69189453125
-44.86083984375
-47.607421875
-56.7626953125
-56.7626953125
-52.18505859375
-44.86083984375
-44.86083984375
-55.84716796875
-55.84716796875
-59.50927734375
-48.52294921875
-39.36767578125
-38.4521484375
-51.26953125
-55.84716796875
-61.34033203125
-53.1005859375
-52.18505859375
-59.50927734375
-55.84716796875
-54.931640625
-49.4384765625
-50.35400390625
-53.1005859375
-60.4248046875
-56.7626953125
-54.931640625
-46.69189453125
-53.1005859375
-50.35400390625
-56.7626953125
-58.59375
-58.59375
-63.17138671875
-57.67822265625
-50.35400390625
-47.607421875
-54.01611328125
-47.607421875
-51.26953125
-48.52294921875
-44.86083984375
-36.62109375
-33.87451171875
-33.87451171875
-21.05712890625
-8.23974609375
-10.07080078125
-17.39501953125
-21.05712890625
-28.38134765625
-36.62109375
-33.87451171875
-26.55029296875
0
22.88818359375
51.26953125
56.7626953125
72.32666015625
62.255859375
55.84716796875
59.50927734375
54.01611328125
54.01611328125
35.70556640625
22.88818359375
8.23974609375
10.07080078125
-10.986328125
-10.07080078125
-1.8310546875
-15.56396484375
-10.07080078125
-12.8173828125
-23.8037109375
-22.88818359375
-30.21240234375
-28.38134765625
-32.958984375
-54.01611328125
-64.0869140625
-51.26953125
-54.01611328125
-80.56640625
-88.80615234375
-71.4111328125
-64.0869140625
-59.50927734375
-44.86083984375
-48.52294921875
-51.26953125
-62.255859375
-70.49560546875
-77.81982421875
-98.876953125
-98.876953125
-84.228515625
-62.255859375
-42.1142578125
-62.255859375
-67.7490234375
-69.580078125
-64.0869140625
-61.34033203125
-59.50927734375
-55.84716796875
-57.67822265625
-72.32666015625
-58.59375
-68.66455078125
-71.4111328125
-56.7626953125
-57.67822265625
-60.4248046875
-60.4248046875
-68.66455078125
-65.91796875
-67.7490234375
-74.15771484375
-75.0732421875
-70.49560546875
-59.50927734375
-57.67822265625
-65.91796875
-71.4111328125
-69.580078125
-68.66455078125
-62.255859375
-78.7353515625
-95.21484375
-111.6943359375
-116.27197265625
-115.3564453125
-111.6943359375
-83.31298828125
-37.53662109375
4.57763671875
61.34033203125
158.38623046875
288.39111328125
389.09912109375
476.98974609375
570.37353515625
694.88525390625
823.05908203125
926.513671875
1023.5595703125
1101.37939453125
1132.50732421875
1146.240234375
1114.19677734375
987.85400390625
791.015625
565.7958984375
420.22705078125
268.24951171875
160.21728515625
108.94775390625
80.56640625
70.49560546875
58.59375
53.1005859375
41.19873046875
30.21240234375
29.296875
7.32421875
0.91552734375
-4.57763671875
-1.8310546875
-16.4794921875
-43.02978515625
-45.7763671875
-42.1142578125
-46.69189453125
-38.4521484375
-39.36767578125
-38.4521484375
-37.53662109375
-20.1416015625
-21.05712890625
-25.634765625
-23.8037109375
-32.04345703125
-41.19873046875
-32.958984375
-31.1279296875
-27.4658203125
-27.4658203125
-28.38134765625
-29.296875
-35.70556640625
-31.1279296875
-37.53662109375
-46.69189453125
-34.7900390625
-32.958984375
-43.02978515625
-29.296875
-14.6484375
-17.39501953125
-17.39501953125
-16.4794921875
-18.310546875
-12.8173828125
-3.662109375
6.40869140625
2.74658203125
-7.32421875
10.986328125
10.986328125
-4.57763671875
-10.986328125
-5.4931640625
-10.07080078125
-4.57763671875
5.4931640625
8.23974609375
14.6484375
24.71923828125
22.88818359375
8.23974609375
13.73291015625
6.40869140625
14.6484375
21.97265625
15.56396484375
24.71923828125
30.21240234375
24.71923828125
32.04345703125
35.70556640625
53.1005859375
49.4384765625
44.86083984375
51.26953125
56.7626953125
54.01611328125
54.01611328125
54.931640625
72.32666015625
78.7353515625
81.48193359375
86.0595703125
81.48193359375
91.552734375
101.62353515625
83.31298828125
104.3701171875
110.77880859375
111.6943359375
118.10302734375
125.42724609375
135.498046875
139.16015625
146.484375
157.470703125
169.37255859375
178.52783203125
178.52783203125
175.78125
183.10546875
190.4296875
188.5986328125
191.34521484375
206.9091796875
215.14892578125
210.5712890625
214.2333984375
227.05078125
237.12158203125
244.44580078125
249.0234375
239.8681640625
227.05078125
231.62841796875
242.61474609375
239.8681640625
243.5302734375
245.361328125
244.44580078125
248.10791015625
239.8681640625
231.62841796875
220.64208984375
214.2333984375
205.078125
195.9228515625
183.10546875
178.52783203125
158.38623046875
150.146484375
140.9912109375
127.25830078125
104.3701171875
96.13037109375
81.48193359375
66.83349609375
59.50927734375
53.1005859375
52.18505859375
51.26953125
43.02978515625
25.634765625
15.56396484375
14.6484375
13.73291015625
4.57763671875
-2.74658203125
1.8310546875
-7.32421875
-11.90185546875
-17.39501953125
-15.56396484375
-34.7900390625
-42.1142578125
-41.19873046875
-37.53662109375
-41.19873046875
-43.02978515625
-40.283203125
-39.36767578125
-30.21240234375
-29.296875
-33.87451171875
-20.1416015625
-35.70556640625
-41.19873046875
-39.36767578125
-29.296875
-31.1279296875
-24.71923828125
-32.958984375
-47.607421875
-55.84716796875
-42.1142578125
-42.1142578125
-33.87451171875
-27.4658203125
-28.38134765625
-19.22607421875
-19.22607421875
-14.6484375
-24.71923828125
-22.88818359375
-24.71923828125
-27.4658203125
-28.38134765625
-32.04345703125
-30.21240234375
-21.05712890625
-19.22607421875
-20.1416015625
-21.05712890625
-34.7900390625
-29.296875
-32.04345703125
-25.634765625
-20.1416015625
-17.39501953125
-22.88818359375
-26.55029296875
-23.8037109375
-18.310546875
-27.4658203125
-17.39501953125
-25.634765625
-33.87451171875
-37.53662109375
-38.4521484375
-43.9453125
-47.607421875
-39.36767578125
-27.4658203125
-28.38134765625
-22.88818359375
-33.87451171875
-42.1142578125
-42.1142578125
-49.4384765625
-45.7763671875
-35.70556640625
-30.21240234375
-21.97265625
-31.1279296875
-32.958984375
-27.4658203125
-29.296875
-32.958984375
-36.62109375
-42.1142578125
-43.9453125
-47.607421875
-46.69189453125
-45.7763671875
-52.18505859375
-50.35400390625
-65.00244140625
-65.00244140625
-41.19873046875
-38.4521484375
-54.931640625
-49.4384765625
-40.283203125
-42.1142578125
-42.1142578125
-43.02978515625
-33.87451171875
-34.7900390625
-39.36767578125
-39.36767578125
-42.1142578125
-48.52294921875
-47.607421875
-46.69189453125
-45.7763671875
-55.84716796875
-54.01611328125
-52.18505859375
-63.17138671875
-54.01611328125
-39.36767578125
-35.70556640625
-47.607421875
-68.66455078125
-68.66455078125
-75.0732421875
-80.56640625
-61.34033203125
-54.931640625
-43.02978515625
-41.19873046875
-29.296875
-32.958984375
-39.36767578125
-36.62109375
-40.283203125
-44.86083984375
-54.01611328125
-51.26953125
-54.01611328125
-61.34033203125
-65.91796875
-69.580078125
-63.17138671875
-66.83349609375
-72.32666015625
-72.32666015625
-45.7763671875
-45.7763671875
-51.26953125
-38.4521484375
-43.02978515625
-51.26953125
-55.84716796875
-61.34033203125
-54.01611328125
-48.52294921875
-55.84716796875
-59.50927734375
-57.67822265625
-55.84716796875
-59.50927734375
-64.0869140625
-65.00244140625
-56.7626953125
-48.52294921875
-54.01611328125
-48.52294921875
-36.62109375
-31.1279296875
-16.4794921875
-14.6484375
-19.22607421875
-21.97265625
-13.73291015625
-19.22607421875
-23.8037109375
-10.07080078125
10.986328125
27.4658203125
43.02978515625
57.67822265625
67.7490234375
63.17138671875
56.7626953125
56.7626953125
49.4384765625
39.36767578125
33.87451171875
31.1279296875
32.958984375
31.1279296875
21.97265625
3.662109375
0.91552734375
-0.91552734375
-3.662109375
-22.88818359375
-43.9453125
-43.02978515625
-43.9453125
-48.52294921875
-63.17138671875
-67.7490234375
-72.32666015625
-58.59375
-57.67822265625
-54.931640625
-65.00244140625
-68.66455078125
-65.00244140625
-63.17138671875
-62.255859375
-75.0732421875
-80.56640625
-75.98876953125
-85.14404296875
-89.7216796875
-79.65087890625
-79.65087890625
-76.904296875
-80.56640625
-78.7353515625
-89.7216796875
-91.552734375
-94.29931640625
-89.7216796875
-91.552734375
-77.81982421875
-86.0595703125
-100.7080078125
-98.876953125
-94.29931640625
-103.45458984375
-99.79248046875
-93.3837890625
-86.0595703125
-79.65087890625
-76.904296875
-94.29931640625
-91.552734375
-90.63720703125
-90.63720703125
-100.7080078125
-109.86328125
-89.7216796875
-75.98876953125
-76.904296875
-80.56640625
-89.7216796875
-96.13037109375
-94.29931640625
-105.28564453125
-130.0048828125
-122.6806640625
-130.92041015625
-136.41357421875
-122.6806640625
-114.44091796875
-80.56640625
-43.02978515625
28.38134765625
119.0185546875
237.12158203125
357.0556640625
459.5947265625
549.31640625
667.41943359375
803.8330078125
924.6826171875
1007.99560546875
1067.5048828125
1110.53466796875
1109.619140625
1083.984375
959.47265625
767.2119140625
520.93505859375
356.14013671875
236.2060546875
149.23095703125
89.7216796875
75.0732421875
52.18505859375
33.87451171875
10.986328125
3.662109375
-10.986328125
-21.97265625
-27.4658203125
-28.38134765625
-32.958984375
-29.296875
-35.70556640625
-45.7763671875
-50.35400390625
-61.34033203125
-65.00244140625
-66.83349609375
-71.4111328125
-70.49560546875
-54.01611328125
-54.931640625
-64.0869140625
-66.83349609375
-65.00244140625
-63.17138671875
-48.52294921875
-46.69189453125
-58.59375
-56.7626953125
-47.607421875
-57.67822265625
-65.91796875
-62.255859375
-61.34033203125
-65.00244140625
-58.59375
-65.91796875
-64.0869140625
-53.1005859375
-54.01611328125
-58.59375
-38.4521484375
-32.04345703125
-32.04345703125
-38.4521484375
-31.1279296875
-18.310546875
-31.1279296875
-31.1279296875
-27.4658203125
-32.958984375
-30.21240234375
-21.05712890625
-30.21240234375
-34.7900390625
-41.19873046875
-38.4521484375
-30.21240234375
-28.38134765625
-23.8037109375
-32.958984375
-26.55029296875
-22.88818359375
-16.4794921875
-5.4931640625
-6.40869140625
-13.73291015625
-10.07080078125
-10.986328125
-7.32421875
-0.91552734375
7.32421875
1.8310546875
3.662109375
21.97265625
22.88818359375
22.88818359375
19.22607421875
31.1279296875
42.1142578125
41.19873046875
36.62109375
45.7763671875
42.1142578125
53.1005859375
57.67822265625
70.49560546875
78.7353515625
84.228515625
86.97509765625
84.228515625
95.21484375
113.525390625
119.93408203125
125.42724609375
122.6806640625
131.8359375
129.08935546875
141.90673828125
147.39990234375
150.146484375
153.80859375
168.45703125
175.78125
179.443359375
181.2744140625
195.00732421875
196.83837890625
203.2470703125
205.99365234375
195.00732421875
199.5849609375
212.40234375
212.40234375
217.8955078125
228.8818359375
221.5576171875
221.5576171875
228.8818359375
227.05078125
227.05078125
213.31787109375
212.40234375
211.48681640625
219.7265625
220.64208984375
203.2470703125
196.83837890625
190.4296875
160.21728515625
155.6396484375
147.39990234375
137.3291015625
130.0048828125
108.0322265625
98.876953125
96.13037109375
82.3974609375
70.49560546875
65.91796875
44.86083984375
26.55029296875
9.1552734375
0.91552734375
-27.4658203125
-33.87451171875
-36.62109375
-43.02978515625
-54.931640625
-50.35400390625
-38.4521484375
-29.296875
-28.38134765625
-35.70556640625
-51.26953125
-45.7763671875
-41.19873046875
-54.931640625
-65.91796875
-58.59375
-66.83349609375
-80.56640625
-86.0595703125
-72.32666015625
-65.00244140625
-64.0869140625
-58.59375
-62.255859375
-68.66455078125
-55.84716796875
-53.1005859375
-64.0869140625
-74.15771484375
-65.00244140625
-61.34033203125
-68.66455078125
-64.0869140625
-60.4248046875
-58.59375
-61.34033203125
-65.91796875
-61.34033203125
-57.67822265625
-52.18505859375
-51.26953125
-43.9453125
-52.18505859375
-63.17138671875
-70.49560546875
-72.32666015625
-46.69189453125
-56.7626953125
-65.00244140625
-48.52294921875
-45.7763671875
-50.35400390625
-43.9453125
-52.18505859375
-63.17138671875
-47.607421875
-56.7626953125
-68.66455078125
-79.65087890625
-75.98876953125
-67.7490234375
-75.98876953125
-70.49560546875
-65.00244140625
-48.52294921875
-43.02978515625
-48.52294921875
-53.1005859375
-58.59375
-68.66455078125
-74.15771484375
-67.7490234375
-71.4111328125
-81.48193359375
-81.48193359375
-69.580078125
-67.7490234375
-49.4384765625
-51.26953125
-62.255859375
-63.17138671875
-66.83349609375
-75.98876953125
-74.15771484375
-65.91796875
-54.01611328125
-65.91796875
-85.14404296875
-80.56640625
-72.32666015625
-70.49560546875
-69.580078125
-70.49560546875
-68.66455078125
-67.7490234375
-75.98876953125
-72.32666015625
-81.48193359375
-82.3974609375
-78.7353515625
-79.65087890625
-66.83349609375
-80.56640625
-96.13037109375
-94.29931640625
-93.3837890625
-94.29931640625
-104.3701171875
-100.7080078125
-102.5390625
-91.552734375
-82.3974609375
-54.931640625
-55.84716796875
-78.7353515625
-77.81982421875
-80.56640625
-76.904296875
-91.552734375
-91.552734375
-92.46826171875
-110.77880859375
-100.7080078125
-97.96142578125
-89.7216796875
-82.3974609375
-72.32666015625
-65.91796875
-74.15771484375
-76.904296875
-80.56640625
-86.0595703125
-89.7216796875
-97.96142578125
-95.21484375
-78.7353515625
-95.21484375
-84.228515625
-81.48193359375
-90.63720703125
-99.79248046875
-95.21484375
-84.228515625
-82.3974609375
-86.0595703125
-87.890625
-98.876953125
-92.46826171875
-98.876953125
-96.13037109375
-86.97509765625
-77.81982421875
-78.7353515625
-76.904296875
-78.7353515625
-74.15771484375
-76.904296875
-80.56640625
-81.48193359375
-77.81982421875
-73.2421875
-65.91796875
-58.59375
-74.15771484375
-58.59375
-53.1005859375
-51.26953125
-45.7763671875
-47.607421875
-55.84716796875
-53.1005859375
-43.9453125
-42.1142578125
-44.86083984375
-40.283203125
-26.55029296875
10.986328125
22.88818359375
19.22607421875
26.55029296875
22.88818359375
32.04345703125
21.97265625
15.56396484375
0.91552734375
-2.74658203125
-33.87451171875
-27.4658203125
-25.634765625
-30.21240234375
-31.1279296875
-32.958984375
-46.69189453125
-69.580078125
-69.580078125
-66.83349609375
-72.32666015625
-86.0595703125
-95.21484375
-115.3564453125
-119.0185546875
-106.201171875
-126.3427734375
-120.849609375
-103.45458984375
-101.62353515625
-112.60986328125
-109.86328125
-116.27197265625
-105.28564453125
-103.45458984375
-99.79248046875
-96.13037109375
-103.45458984375
-108.94775390625
-99.79248046875
-109.86328125
-108.94775390625
-108.94775390625
-111.6943359375
-109.86328125
-108.0322265625
-115.3564453125
-112.60986328125
-118.10302734375
-111.6943359375
-138.24462890625
-136.41357421875
-120.849609375
-109.86328125
-120.849609375
-115.3564453125
-121.76513671875
-124.51171875
-114.44091796875
-107.11669921875
-113.525390625
-111.6943359375
-106.201171875
-117.1875
-118.10302734375
-114.44091796875
-115.3564453125
-109.86328125
-121.76513671875
-118.10302734375
-119.93408203125
-130.0048828125
-139.16015625
-138.24462890625
-130.0048828125
-142.822265625
-151.9775390625
-158.38623046875
-151.06201171875
-133.6669921875
-93.3837890625
-59.50927734375
0.91552734375
105.28564453125
227.05078125
324.0966796875
426.6357421875
533.75244140625
656.43310546875
792.8466796875
916.44287109375
1007.080078125
1084.89990234375
1105.95703125
1098.6328125
1065.673828125
918.27392578125
708.6181640625
467.83447265625
311.279296875
189.51416015625
106.201171875
64.0869140625
55.84716796875
32.04345703125
21.97265625
10.07080078125
-11.90185546875
-33.87451171875
-47.607421875
-55.84716796875
-64.0869140625
-60.4248046875
-65.00244140625
-65.91796875
-69.580078125
-65.91796875
-72.32666015625
-76.904296875
-63.17138671875
-75.0732421875
-84.228515625
-86.0595703125
-90.63720703125
-113.525390625
-114.44091796875
-101.62353515625
-103.45458984375
-93.3837890625
-80.56640625
-88.80615234375
-76.904296875
-59.50927734375
-58.59375
-59.50927734375
-67.7490234375
-73.2421875
-73.2421875
-72.32666015625
-63.17138671875
-52.18505859375
-66.83349609375
-64.0869140625
-61.34033203125
-60.4248046875
-72.32666015625
-61.34033203125
-64.0869140625
-63.17138671875
-65.91796875
-66.83349609375
-75.0732421875
-73.2421875
-61.34033203125
-63.17138671875
-58.59375
-54.01611328125
-51.26953125
-45.7763671875
-46.69189453125
-42.1142578125
-28.38134765625
-21.05712890625
-12.8173828125
-19.22607421875
-23.8037109375
-21.97265625
-11.90185546875
-9.1552734375
-15.56396484375
-34.7900390625
-23.8037109375
-17.39501953125
-10.986328125
-11.90185546875
-3.662109375
0
-5.4931640625
-8.23974609375
4.57763671875
5.4931640625
15.56396484375
-3.662109375
0
18.310546875
20.1416015625
30.21240234375
36.62109375
39.36767578125
63.17138671875
68.66455078125
58.59375
76.904296875
91.552734375
84.228515625
89.7216796875
98.876953125
99.79248046875
108.0322265625
116.27197265625
116.27197265625
124.51171875
137.3291015625
140.9912109375
149.23095703125
167.54150390625
166.6259765625
177.6123046875
163.87939453125
176.69677734375
175.78125
175.78125
191.34521484375
195.00732421875
189.51416015625
195.00732421875
215.14892578125
224.30419921875
217.8955078125
214.2333984375
223.388671875
221.5576171875
227.96630859375
227.05078125
222.47314453125
224.30419921875
215.14892578125
209.65576171875
199.5849609375
192.2607421875
180.35888671875
169.37255859375
155.6396484375
146.484375
129.08935546875
112.60986328125
109.86328125
88.80615234375
71.4111328125
64.0869140625
48.52294921875
43.9453125
22.88818359375
16.4794921875
7.32421875
7.32421875
10.986328125
3.662109375
6.40869140625
-9.1552734375
-19.22607421875
-29.296875
-26.55029296875
-40.283203125
-47.607421875
-56.7626953125
-58.59375
-62.255859375
-61.34033203125
-52.18505859375
-52.18505859375
-60.4248046875
-52.18505859375
-53.1005859375
-63.17138671875
-66.83349609375
-74.15771484375
-75.98876953125
-67.7490234375
-75.98876953125
-75.0732421875
-68.66455078125
-67.7490234375
-69.580078125
-66.83349609375
-73.2421875
-68.66455078125
-60.4248046875
-72.32666015625
-69.580078125
-66.83349609375
-64.0869140625
-56.7626953125
-61.34033203125
-63.17138671875
-51.26953125
-51.26953125
-54.931640625
-41.19873046875
-54.931640625
-66.83349609375
-74.15771484375
-60.4248046875
-73.2421875
-67.7490234375
-57.67822265625
-61.34033203125
-65.91796875
-74.15771484375
-62.255859375
-69.580078125
-75.98876953125
-59.50927734375
-49.4384765625
-61.34033203125
-61.34033203125
-54.931640625
-58.59375
-61.34033203125
-55.84716796875
-61.34033203125
-58.59375
-54.931640625
-52.18505859375
-64.0869140625
-72.32666015625
-66.83349609375
-66.83349609375
-66.83349609375
-59.50927734375
-69.580078125
-71.4111328125
-78.7353515625
-65.91796875
-66.83349609375
-62.255859375
-53.1005859375
-68.66455078125
-70.49560546875
-75.98876953125
-68.66455078125
-72.32666015625
-63.17138671875
-65.91796875
-65.00244140625
-69.580078125
-67.7490234375
-69.580078125
-70.49560546875
-63.17138671875
-75.0732421875
-78.7353515625
-80.56640625
-81.48193359375
-82.3974609375
-73.2421875
-69.580078125
-87.890625
-84.228515625
-79.65087890625
-90.63720703125
-90.63720703125
-81.48193359375
-83.31298828125
-84.228515625
-79.65087890625
-82.3974609375
-89.7216796875
-83.31298828125
-73.2421875
-84.228515625
-84.228515625
-74.15771484375
-76.904296875
-83.31298828125
-88.80615234375
-85.14404296875
-82.3974609375
-87.890625
-84.228515625
-94.29931640625
-95.21484375
-82.3974609375
-81.48193359375
-91.552734375
-91.552734375
-76.904296875
-85.14404296875
-85.14404296875
-77.81982421875
-81.48193359375
-84.228515625
-79.65087890625
-81.48193359375
-76.904296875
-79.65087890625
-80.56640625
-85.14404296875
-86.97509765625
-87.890625
-90.63720703125
-107.11669921875
-112.60986328125
-99.79248046875
-76.904296875
-78.7353515625
-61.34033203125
-59.50927734375
-70.49560546875
-75.98876953125
-82.3974609375
-82.3974609375
-77.81982421875
-65.00244140625
-52.18505859375
-42.1142578125
-43.9453125
-46.69189453125
-44.86083984375
-42.1142578125
-39.36767578125
-43.02978515625
-44.86083984375
-39.36767578125
-23.8037109375
6.40869140625
1.8310546875
7.32421875
8.23974609375
6.40869140625
-1.8310546875
0
13.73291015625
8.23974609375
4.57763671875
4.57763671875
-5.4931640625
-32.958984375
-32.04345703125
-34.7900390625
-62.255859375
-77.81982421875
-81.48193359375
-86.0595703125
-78.7353515625
-69.580078125
-74.15771484375
-74.15771484375
-63.17138671875
-65.91796875
-84.228515625
-104.3701171875
-101.62353515625
-101.62353515625
-106.201171875
-107.11669921875
-115.3564453125
-109.86328125
-105.28564453125
-86.97509765625
-89.7216796875
-112.60986328125
-109.86328125
-97.0458984375
-84.228515625
-93.3837890625
-112.60986328125
-112.60986328125
-117.1875
-121.76513671875
-104.3701171875
-112.60986328125
-119.0185546875
-111.6943359375
-101.62353515625
-106.201171875
-109.86328125
-111.6943359375
-118.10302734375
-103.45458984375
-103.45458984375
-105.28564453125
-125.42724609375
-128.173828125
-116.27197265625
-106.201171875
-99.79248046875
-101.62353515625
-101.62353515625
-99.79248046875
-112.60986328125
-115.3564453125
-130.0048828125
-132.75146484375
-117.1875
-113.525390625
-111.6943359375
-109.86328125
-105.28564453125
-126.3427734375
-142.822265625
-151.06201171875
-141.90673828125
-120.849609375
-76.904296875
-46.69189453125
5.4931640625
86.97509765625
206.9091796875
315.85693359375
425.72021484375
504.45556640625
628.96728515625
764.46533203125
884.3994140625
992.431640625
1067.5048828125
1118.7744140625
1127.9296875
1106.87255859375
1003.41796875
800.1708984375
538.330078125
386.3525390625
238.95263671875
123.59619140625
67.7490234375
53.1005859375
35.70556640625
28.38134765625
23.8037109375
10.07080078125
4.57763671875
-7.32421875
-23.8037109375
-24.71923828125
-28.38134765625
-36.62109375
-52.18505859375
-48.52294921875
-58.59375
-66.83349609375
-64.0869140625
-60.4248046875
-65.00244140625
-65.91796875
-75.0732421875
-66.83349609375
-77.81982421875
-75.0732421875
-62.255859375
-59.50927734375
-71.4111328125
-56.7626953125
-64.0869140625
-65.91796875
-64.0869140625
-65.91796875
-59.50927734375
-55.84716796875
-61.34033203125
-54.931640625
-61.34033203125
-50.35400390625
-37.53662109375
-45.7763671875
-54.01611328125
-57.67822265625
-49.4384765625
-51.26953125
-54.931640625
-56.7626953125
-57.67822265625
-51.26953125
-44.86083984375
-55.84716796875
-44.86083984375
-42.1142578125
-35.70556640625
-28.38134765625
-31.1279296875
-32.04345703125
-26.55029296875
-24.71923828125
-30.21240234375
-32.04345703125
-16.4794921875
-21.97265625
-32.04345703125
-23.8037109375
-17.39501953125
-9.1552734375
-9.1552734375
-10.07080078125
-14.6484375
-9.1552734375
0.91552734375
6.40869140625
15.56396484375
11.90185546875
10.07080078125
15.56396484375
12.8173828125
4.57763671875
30.21240234375
27.4658203125
37.53662109375
40.283203125
36.62109375
34.7900390625
63.17138671875
66.83349609375
71.4111328125
72.32666015625
75.98876953125
81.48193359375
82.3974609375
89.7216796875
92.46826171875
102.5390625
104.3701171875
109.86328125
117.1875
127.25830078125
135.498046875
141.90673828125
148.3154296875
150.146484375
135.498046875
136.41357421875
135.498046875
144.6533203125
155.6396484375
170.2880859375
167.54150390625
179.443359375
192.2607421875
191.34521484375
173.03466796875
184.9365234375
188.5986328125
194.091796875
196.83837890625
201.416015625
205.99365234375
199.5849609375
205.078125
203.2470703125
200.50048828125
194.091796875
195.9228515625
199.5849609375
178.52783203125
173.03466796875
171.20361328125
170.2880859375
162.04833984375
145.56884765625
132.75146484375
122.6806640625
95.21484375
81.48193359375
68.66455078125
48.52294921875
34.7900390625
27.4658203125
32.04345703125
25.634765625
12.8173828125
0.91552734375
-11.90185546875
-6.40869140625
-16.4794921875
-22.88818359375
-32.04345703125
-33.87451171875
-32.04345703125
-33.87451171875
-49.4384765625
-55.84716796875
-60.4248046875
-74.15771484375
-65.91796875
-68.66455078125
-66.83349609375
-58.59375
-62.255859375
-59.50927734375
-61.34033203125
-54.01611328125
-61.34033203125
-54.931640625
-44.86083984375
-64.0869140625
-57.67822265625
-51.26953125
-58.59375
-62.255859375
-68.66455078125
-71.4111328125
-81.48193359375
-96.13037109375
-77.81982421875
-66.83349609375
-64.0869140625
-52.18505859375
-45.7763671875
-49.4384765625
-46.69189453125
-43.9453125
-54.01611328125
-47.607421875
-38.4521484375
-43.02978515625
-43.9453125
-43.02978515625
-44.86083984375
-40.283203125
-38.4521484375
-36.62109375
-45.7763671875
-49.4384765625
-45.7763671875
-50.35400390625
-50.35400390625
-45.7763671875
-41.19873046875
-51.26953125
-53.1005859375
-46.69189453125
-53.1005859375
-52.18505859375
-38.4521484375
-44.86083984375
-46.69189453125
-38.4521484375
-42.1142578125
-48.52294921875
-48.52294921875
-46.69189453125
-53.1005859375
-61.34033203125
-63.17138671875
-46.69189453125
-44.86083984375
-43.9453125
-42.1142578125
-47.607421875
-55.84716796875
-54.931640625
-54.931640625
-54.931640625
-53.1005859375
-52.18505859375
-49.4384765625
-56.7626953125
-47.607421875
-61.34033203125
-70.49560546875
-68.66455078125
-63.17138671875
-65.00244140625
-55.84716796875
-61.34033203125
-53.1005859375
-51.26953125
-54.01611328125
-57.67822265625
-59.50927734375
-67.7490234375
-68.66455078125
-68.66455078125
-64.0869140625
-70.49560546875
-62.255859375
-70.49560546875
-77.81982421875
-70.49560546875
-53.1005859375
-51.26953125
-51.26953125
-63.17138671875
-69.580078125
-66.83349609375
-64.0869140625
-72.32666015625
-65.91796875
-59.50927734375
-65.00244140625
-65.91796875
-62.255859375
-72.32666015625
-65.00244140625
-60.4248046875
-66.83349609375
-49.4384765625
-41.19873046875
-54.01611328125
-63.17138671875
-45.7763671875
-34.7900390625
-26.55029296875
-24.71923828125
-23.8037109375
-20.1416015625
-33.87451171875
-39.36767578125
-45.7763671875
-50.35400390625
-43.02978515625
-38.4521484375
-3.662109375
24.71923828125
40.283203125
46.69189453125
54.01611328125
67.7490234375
60.4248046875
40.283203125
48.52294921875
38.4521484375
18.310546875
24.71923828125
25.634765625
10.07080078125
1.8310546875
-7.32421875
-10.986328125
-23.8037109375
-42.1142578125
-56.7626953125
-57.67822265625
-68.66455078125
-81.48193359375
-86.97509765625
-86.97509765625
-80.56640625
-85.14404296875
-84.228515625
-82.3974609375
-95.21484375
-96.13037109375
-92.46826171875
-91.552734375
-103.45458984375
-107.11669921875
-102.5390625
-105.28564453125
-103.45458984375
-91.552734375
-86.0595703125
-84.228515625
-90.63720703125
-94.29931640625
-86.97509765625
-86.0595703125
-89.7216796875
-98.876953125
-97.0458984375
-97.0458984375
-95.21484375
-102.5390625
-111.6943359375
-110.77880859375
-112.60986328125
-107.11669921875
-99.79248046875
-111.6943359375
-111.6943359375
-97.0458984375
-95.21484375
-100.7080078125
-106.201171875
-114.44091796875
-117.1875
-101.62353515625
-103.45458984375
-118.10302734375
-104.3701171875
-97.96142578125
-97.0458984375
-103.45458984375
-100.7080078125
-98.876953125
-102.5390625
-107.11669921875
-117.1875
-131.8359375
-151.06201171875
-157.470703125
-151.06201171875
-131.8359375
-114.44091796875
-74.15771484375
-34.7900390625
25.634765625
102.5390625
222.47314453125
330.50537109375
433.04443359375
522.76611328125
638.12255859375
768.12744140625
880.7373046875
965.88134765625
1047.36328125
1097.71728515625
1119.68994140625
1105.04150390625
1016.2353515625
832.21435546875
590.51513671875
412.90283203125
279.23583984375
171.20361328125
101.62353515625
71.4111328125
51.26953125
22.88818359375
21.05712890625
7.32421875
-17.39501953125
-41.19873046875
-34.7900390625
-46.69189453125
-48.52294921875
-54.931640625
-56.7626953125
-54.931640625
-58.59375
-61.34033203125
-68.66455078125
-68.66455078125
-62.255859375
-69.580078125
-71.4111328125
-74.15771484375
-74.15771484375
-71.4111328125
-78.7353515625
-87.890625
-89.7216796875
-76.904296875
-87.890625
-96.13037109375
-100.7080078125
-96.13037109375
-86.97509765625
-75.98876953125
-45.7763671875
-43.9453125
-54.01611328125
-65.91796875
-65.00244140625
-69.580078125
-63.17138671875
-42.1142578125
-43.02978515625
-51.26953125
-55.84716796875
-58.59375
-57.67822265625
-66.83349609375
-62.255859375
-53.1005859375
-47.607421875
-32.04345703125
-27.4658203125
-39.36767578125
-43.02978515625
-40.283203125
-37.53662109375
-41.19873046875
-45.7763671875
-33.87451171875
-39.36767578125
-35.70556640625
-40.283203125
-49.4384765625
-52.18505859375
-59.50927734375
-53.1005859375
-51.26953125
-47.607421875
-33.87451171875
-31.1279296875
-20.1416015625
-7.32421875
2.74658203125
12.8173828125
18.310546875
11.90185546875
19.22607421875
23.8037109375
21.05712890625
18.310546875
21.05712890625
27.4658203125
31.1279296875
39.36767578125
39.36767578125
30.21240234375
42.1142578125
47.607421875
57.67822265625
65.00244140625
76.904296875
70.49560546875
75.0732421875
89.7216796875
103.45458984375
100.7080078125
98.876953125
114.44091796875
116.27197265625
116.27197265625
120.849609375
125.42724609375
138.24462890625
151.06201171875
148.3154296875
146.484375
140.9912109375
171.20361328125
179.443359375
177.6123046875
183.10546875
183.10546875
190.4296875
189.51416015625
193.17626953125
197.75390625
185.85205078125
184.9365234375
195.00732421875
199.5849609375
198.66943359375
189.51416015625
191.34521484375
199.5849609375
192.2607421875
173.9501953125
163.87939453125
152.89306640625
146.484375
135.498046875
129.08935546875
119.0185546875
103.45458984375
91.552734375
75.0732421875
61.34033203125
52.18505859375
36.62109375
25.634765625
24.71923828125
10.07080078125
6.40869140625
-0.91552734375
-10.986328125
-24.71923828125
-38.4521484375
-65.00244140625
-64.0869140625
-62.255859375
-73.2421875
-67.7490234375
-69.580078125
-81.48193359375
-85.14404296875
-89.7216796875
-86.97509765625
-69.580078125
-70.49560546875
-75.0732421875
-67.7490234375
-65.91796875
-71.4111328125
-69.580078125
-74.15771484375
-75.0732421875
-72.32666015625
-58.59375
-68.66455078125
-83.31298828125
-73.2421875
-68.66455078125
-78.7353515625
-82.3974609375
-76.904296875
-74.15771484375
-72.32666015625
-58.59375
-66.83349609375
-53.1005859375
-50.35400390625
-55.84716796875
-51.26953125
-56.7626953125
-56.7626953125
-65.00244140625
-64.0869140625
-58.59375
-65.00244140625
-73.2421875
-66.83349609375
-67.7490234375
-67.7490234375
-61.34033203125
-58.59375
-65.91796875
-63.17138671875
-65.00244140625
-72.32666015625
-64.0869140625
-64.0869140625
-64.0869140625
-63.17138671875
-67.7490234375
-76.904296875
-64.0869140625
-75.98876953125
-73.2421875
-62.255859375
-68.66455078125
-78.7353515625
-65.91796875
-57.67822265625
-68.66455078125
-67.7490234375
-70.49560546875
-66.83349609375
-66.83349609375
-65.91796875
-65.91796875
-61.34033203125
-67.7490234375
-80.56640625
-80.56640625
-65.91796875
-62.255859375
-83.31298828125
-93.3837890625
-91.552734375
-86.97509765625
-90.63720703125
-85.14404296875
-89.7216796875
-96.13037109375
-85.14404296875
-83.31298828125
-90.63720703125
-79.65087890625
-79.65087890625
-83.31298828125
-83.31298828125
-79.65087890625
-84.228515625
-88.80615234375
-95.21484375
-102.5390625
-100.7080078125
-106.201171875
-93.3837890625
-88.80615234375
-99.79248046875
-99.79248046875
-103.45458984375
-86.0595703125
-82.3974609375
-80.56640625
-87.890625
-89.7216796875
-77.81982421875
-86.0595703125
-90.63720703125
-95.21484375
-97.0458984375
-106.201171875
-105.28564453125
-104.3701171875
-92.46826171875
-97.0458984375
-93.3837890625
-95.21484375
-100.7080078125
-82.3974609375
-72.32666015625
-69.580078125
-75.0732421875
-75.98876953125
-78.7353515625
-77.81982421875
-85.14404296875
-78.7353515625
-81.48193359375
-79.65087890625
-82.3974609375
-82.3974609375
-75.98876953125
-78.7353515625
-84.228515625
-87.890625
-79.65087890625
-62.255859375
-61.34033203125
-53.1005859375
-52.18505859375
-43.9453125
-57.67822265625
-75.0732421875
-75.0732421875
-60.4248046875
-37.53662109375
-19.22607421875
10.986328125
19.22607421875
28.38134765625
30.21240234375
27.4658203125
38.4521484375
33.87451171875
20.1416015625
11.90185546875
4.57763671875
-4.57763671875
-3.662109375
-22.88818359375
-39.36767578125
-43.02978515625
-39.36767578125
-42.1142578125
-60.4248046875
-70.49560546875
-74.15771484375
-82.3974609375
-88.80615234375
-100.7080078125
-108.0322265625
-115.3564453125
-101.62353515625
-113.525390625
-101.62353515625
-108.94775390625
-115.3564453125
-112.60986328125
-108.0322265625
-116.27197265625
-115.3564453125
-115.3564453125
-124.51171875
-130.92041015625
-127.25830078125
-125.42724609375
-126.3427734375
-124.51171875
-124.51171875
-121.76513671875
-135.498046875
-130.92041015625
-125.42724609375
-141.90673828125
-132.75146484375
-138.24462890625
-138.24462890625
-130.0048828125
-124.51171875
-132.75146484375
-119.93408203125
-113.525390625
-109.86328125
-103.45458984375
-110.77880859375
-115.3564453125
-111.6943359375
-116.27197265625
-116.27197265625
-121.76513671875
-126.3427734375
-131.8359375
-128.173828125
-129.08935546875
-128.173828125
-128.173828125
-117.1875
-124.51171875
-130.92041015625
-127.25830078125
-134.58251953125
-134.58251953125
-144.6533203125
-154.72412109375
-160.21728515625
-147.39990234375
-148.3154296875
-134.58251953125
-104.3701171875
-66.83349609375
-0.91552734375
101.62353515625
225.2197265625
313.1103515625
413.818359375
515.44189453125
639.0380859375
769.04296875
889.892578125
997.00927734375
1062.92724609375
1112.36572265625
1107.7880859375
1072.08251953125
929.26025390625
712.2802734375
475.15869140625
320.4345703125
212.40234375
117.1875
64.0869140625
44.86083984375
25.634765625
3.662109375
-12.8173828125
-28.38134765625
-30.21240234375
-39.36767578125
-47.607421875
-46.69189453125
-52.18505859375
-65.00244140625
-70.49560546875
-82.3974609375
-81.48193359375
-80.56640625
-89.7216796875
-88.80615234375
-71.4111328125
-82.3974609375
-83.31298828125
-81.48193359375
-95.21484375
-92.46826171875
-96.13037109375
-86.97509765625
-92.46826171875
-90.63720703125
-81.48193359375
-85.14404296875
-88.80615234375
-86.97509765625
-93.3837890625
-96.13037109375
-94.29931640625
-102.5390625
-108.0322265625
-75.98876953125
-66.83349609375
-76.904296875
-76.904296875
-71.4111328125
-69.580078125
-77.81982421875
-75.98876953125
-68.66455078125
-68.66455078125
-70.49560546875
-65.91796875
-62.255859375
-50.35400390625
-43.02978515625
-37.53662109375
-37.53662109375
-45.7763671875
-40.283203125
-48.52294921875
-49.4384765625
-44.86083984375
-43.02978515625
-37.53662109375
-33.87451171875
-34.7900390625
-34.7900390625
-29.296875
-33.87451171875
-37.53662109375
-32.958984375
-21.05712890625
-10.986328125
-26.55029296875
-20.1416015625
-26.55029296875
-31.1279296875
-24.71923828125
-8.23974609375
-2.74658203125
-10.986328125
-3.662109375
10.07080078125
9.1552734375
10.07080078125
19.22607421875
20.1416015625
25.634765625
26.55029296875
36.62109375
42.1142578125
48.52294921875
54.01611328125
66.83349609375
65.91796875
71.4111328125
78.7353515625
97.0458984375
114.44091796875
109.86328125
117.1875
130.0048828125
130.0048828125
131.8359375
146.484375
153.80859375
150.146484375
147.39990234375
151.06201171875
160.21728515625
167.54150390625
162.04833984375
163.87939453125
165.71044921875
175.78125
178.52783203125
172.119140625
176.69677734375
177.6123046875
188.5986328125
190.4296875
192.2607421875
195.9228515625
191.34521484375
186.767578125
185.85205078125
181.2744140625
174.86572265625
180.35888671875
179.443359375
161.1328125
160.21728515625
145.56884765625
143.73779296875
128.173828125
104.3701171875
91.552734375
87.890625
78.7353515625
71.4111328125
64.0869140625
53.1005859375
47.607421875
26.55029296875
9.1552734375
-2.74658203125
-18.310546875
-23.8037109375
-23.8037109375
-24.71923828125
-46.69189453125
-48.52294921875
-57.67822265625
-55.84716796875
-51.26953125
-68.66455078125
-74.15771484375
-71.4111328125
-71.4111328125
-86.97509765625
-89.7216796875
-89.7216796875
-81.48193359375
-76.904296875
-67.7490234375
-69.580078125
-75.98876953125
-77.81982421875
-87.890625
-81.48193359375
-97.96142578125
-93.3837890625
-89.7216796875
-82.3974609375
-86.0595703125
-85.14404296875
-92.46826171875
-79.65087890625
-79.65087890625
-83.31298828125
-77.81982421875
-74.15771484375
-71.4111328125
-65.00244140625
-64.0869140625
-65.91796875
-73.2421875
-75.0732421875
-71.4111328125
-72.32666015625
-72.32666015625
-69.580078125
-80.56640625
-85.14404296875
-81.48193359375
-69.580078125
-73.2421875
-73.2421875
-75.98876953125
-75.98876953125
-75.0732421875
-82.3974609375
-89.7216796875
-84.228515625
-81.48193359375
-88.80615234375
-97.96142578125
-87.890625
-80.56640625
-86.0595703125
-92.46826171875
-97.96142578125
-89.7216796875
-84.228515625
-71.4111328125
-73.2421875
-64.0869140625
-70.49560546875
-75.0732421875
-83.31298828125
-82.3974609375
-78.7353515625
-76.904296875
-78.7353515625
-81.48193359375
-75.0732421875
-79.65087890625
-85.14404296875
-93.3837890625
-96.13037109375
-86.97509765625
-86.97509765625
-95.21484375
-95.21484375
-97.0458984375
-100.7080078125
-109.86328125
-107.11669921875
-108.0322265625
-109.86328125
-108.94775390625
-96.13037109375
-86.97509765625
-93.3837890625
-96.13037109375
-85.14404296875
-92.46826171875
-97.0458984375
-95.21484375
-96.13037109375
-86.97509765625
-84.228515625
-87.890625
-95.21484375
-94.29931640625
-95.21484375
-96.13037109375
-95.21484375
-91.552734375
-87.890625
-97.0458984375
-97.0458984375
-100.7080078125
-98.876953125
-99.79248046875
-95.21484375
-95.21484375
-97.96142578125
-92.46826171875
-90.63720703125
-87.890625
-89.7216796875
-87.890625
-95.21484375
-99.79248046875
-104.3701171875
-114.44091796875
-105.28564453125
-106.201171875
-102.5390625
-102.5390625
-103.45458984375
-104.3701171875
-102.5390625
-105.28564453125
-108.0322265625
-117.1875
-118.10302734375
-114.44091796875
-108.0322265625
-104.3701171875
-93.3837890625
-97.96142578125
-101.62353515625
-99.79248046875
-105.28564453125
-95.21484375
-87.890625
-75.98876953125
-58.59375
-52.18505859375
-57.67822265625
-57.67822265625
-72.32666015625
-75.98876953125
-63.17138671875
-59.50927734375
-43.02978515625
-8.23974609375
-4.57763671875
-10.986328125
-11.90185546875
0
-14.6484375
-18.310546875
-10.986328125
-10.986328125
-15.56396484375
-22.88818359375
-26.55029296875
-29.296875
-36.62109375
-32.958984375
-32.958984375
-59.50927734375
-72.32666015625
-90.63720703125
-101.62353515625
-107.11669921875
-104.3701171875
-107.11669921875
-98.876953125
-101.62353515625
-117.1875
-116.27197265625
-111.6943359375
-132.75146484375
-135.498046875
-129.08935546875
-142.822265625
-143.73779296875
-123.59619140625
-120.849609375
-123.59619140625
-118.10302734375
-108.94775390625
-125.42724609375
-122.6806640625
-116.27197265625
-129.08935546875
-129.08935546875
-119.93408203125
-132.75146484375
-140.9912109375
-141.90673828125
-138.24462890625
-133.6669921875
-144.6533203125
-148.3154296875
-140.07568359375
-142.822265625
-135.498046875
-130.92041015625
-151.06201171875
-150.146484375
-130.92041015625
-140.9912109375
-136.41357421875
-126.3427734375
-128.173828125
-131.8359375
-127.25830078125
-121.76513671875
-124.51171875
-130.0048828125
-130.0048828125
-130.0048828125
-134.58251953125
-134.58251953125
-134.58251953125
-140.07568359375
-145.56884765625
-158.38623046875
-162.9638671875
-166.6259765625
-164.794921875
-163.87939453125
-149.23095703125
-106.201171875
-65.00244140625
-4.57763671875
86.97509765625
206.9091796875
311.279296875
405.57861328125
504.45556640625
621.64306640625
758.056640625
881.65283203125
975.03662109375
1048.27880859375
1089.4775390625
1099.54833984375
1059.26513671875
935.6689453125
731.50634765625
475.15869140625
315.85693359375
197.75390625
89.7216796875
44.86083984375
39.36767578125
34.7900390625
-4.57763671875
-19.22607421875
-18.310546875
-37.53662109375
-53.1005859375
-65.91796875
-65.00244140625
-75.98876953125
-92.46826171875
-95.21484375
-95.21484375
-90.63720703125
-97.96142578125
-96.13037109375
-81.48193359375
-75.0732421875
-86.97509765625
-82.3974609375
-84.228515625
-86.97509765625
-94.29931640625
-96.13037109375
-100.7080078125
-99.79248046875
-86.97509765625
-97.0458984375
-89.7216796875
-93.3837890625
-79.65087890625
-84.228515625
-88.80615234375
-86.97509765625
-78.7353515625
-76.904296875
-85.14404296875
-93.3837890625
-78.7353515625
-75.98876953125
-83.31298828125
-88.80615234375
-81.48193359375
-74.15771484375
-75.0732421875
-73.2421875
-77.81982421875
-71.4111328125
-65.91796875
-69.580078125
-69.580078125
-64.0869140625
-61.34033203125
-61.34033203125
-61.34033203125
-63.17138671875
-65.00244140625
-54.931640625
-62.255859375
-56.7626953125
-51.26953125
-50.35400390625
-45.7763671875
-43.02978515625
-43.9453125
-48.52294921875
-45.7763671875
-37.53662109375
-37.53662109375
-30.21240234375
-27.4658203125
-25.634765625
-21.97265625
-29.296875
-20.1416015625
-14.6484375
-11.90185546875
-5.4931640625
5.4931640625
21.05712890625
27.4658203125
25.634765625
32.04345703125
36.62109375
38.4521484375
47.607421875
46.69189453125
47.607421875
45.7763671875
55.84716796875
56.7626953125
60.4248046875
68.66455078125
78.7353515625
89.7216796875
105.28564453125
105.28564453125
108.94775390625
116.27197265625
130.92041015625
131.8359375
130.92041015625
133.6669921875
132.75146484375
139.16015625
134.58251953125
139.16015625
146.484375
154.72412109375
165.71044921875
180.35888671875
173.03466796875
183.10546875
192.2607421875
184.02099609375
185.85205078125
192.2607421875
199.5849609375
198.66943359375
187.68310546875
190.4296875
193.17626953125
195.00732421875
191.34521484375
184.9365234375
161.1328125
156.55517578125
148.3154296875
150.146484375
133.6669921875
129.08935546875
107.11669921875
84.228515625
79.65087890625
68.66455078125
44.86083984375
29.296875
22.88818359375
14.6484375
0.91552734375
-1.8310546875
-8.23974609375
-12.8173828125
-16.4794921875
-15.56396484375
-32.958984375
-50.35400390625
-45.7763671875
-53.1005859375
-73.2421875
-55.84716796875
-54.931640625
-50.35400390625
-62.255859375
-74.15771484375
-83.31298828125
-78.7353515625
-76.904296875
-78.7353515625
-88.80615234375
-80.56640625
-72.32666015625
-64.0869140625
-78.7353515625
-75.98876953125
-73.2421875
-86.0595703125
-79.65087890625
-67.7490234375
-87.890625
-82.3974609375
-75.98876953125
-75.0732421875
-76.904296875
-66.83349609375
-74.15771484375
-75.98876953125
-72.32666015625
-58.59375
-67.7490234375
-65.91796875
-67.7490234375
-65.00244140625
-55.84716796875
-56.7626953125
-63.17138671875
-64.0869140625
-58.59375
-54.931640625
-59.50927734375
-58.59375
-66.83349609375
-73.2421875
-60.4248046875
-60.4248046875
-73.2421875
-76.904296875
-70.49560546875
-67.7490234375
-54.931640625
-59.50927734375
-56.7626953125
-67.7490234375
-76.904296875
-73.2421875
-78.7353515625
-92.46826171875
-81.48193359375
-76.904296875
-72.32666015625
-70.49560546875
-72.32666015625
-67.7490234375
-64.0869140625
-68.66455078125
-76.904296875
-65.00244140625
-67.7490234375
-67.7490234375
-63.17138671875
-55.84716796875
-66.83349609375
-68.66455078125
-61.34033203125
-62.255859375
-58.59375
-65.00244140625
-68.66455078125
-58.59375
-58.59375
-60.4248046875
-54.931640625
-59.50927734375
-72.32666015625
-67.7490234375
-75.98876953125
-77.81982421875
-76.904296875
-74.15771484375
-87.890625
-83.31298828125
-75.98876953125
-77.81982421875
-80.56640625
-82.3974609375
-92.46826171875
-99.79248046875
-107.11669921875
-95.21484375
-98.876953125
-104.3701171875
-104.3701171875
-98.876953125
-92.46826171875
-95.21484375
-100.7080078125
-98.876953125
-97.96142578125
-94.29931640625
-89.7216796875
-80.56640625
-81.48193359375
-77.81982421875
-71.4111328125
-71.4111328125
-75.98876953125
-65.00244140625
-78.7353515625
-86.97509765625
-83.31298828125
-80.56640625
-75.98876953125
-68.66455078125
-76.904296875
-69.580078125
-48.52294921875
-31.1279296875
-33.87451171875
-30.21240234375
-39.36767578125
-46.69189453125
-47.607421875
-55.84716796875
-43.02978515625
-35.70556640625
-21.05712890625
0
18.310546875
14.6484375
10.07080078125
14.6484375
7.32421875
19.22607421875
15.56396484375
0.91552734375
-12.8173828125
-3.662109375
-7.32421875
-11.90185546875
-32.958984375
-42.1142578125
-46.69189453125
-52.18505859375
-57.67822265625
-63.17138671875
-75.98876953125
-84.228515625
-88.80615234375
-105.28564453125
-121.76513671875
-116.27197265625
-111.6943359375
-113.525390625
-111.6943359375
-111.6943359375
-115.3564453125
-121.76513671875
-118.10302734375
-108.0322265625
-98.876953125
-93.3837890625
-94.29931640625
-98.876953125
-98.876953125
-101.62353515625
-110.77880859375
-108.94775390625
-110.77880859375
-109.86328125
-116.27197265625
-112.60986328125
-114.44091796875
-119.0185546875
-108.0322265625
-106.201171875
-114.44091796875
-118.10302734375
-121.76513671875
-117.1875
-108.94775390625
-112.60986328125
-117.1875
-117.1875
-108.94775390625
-114.44091796875
-121.76513671875
-122.6806640625
-119.93408203125
-114.44091796875
-123.59619140625
-126.3427734375
-121.76513671875
-122.6806640625
-113.525390625
-112.60986328125
-117.1875
-110.77880859375
-110.77880859375
-117.1875
-124.51171875
-122.6806640625
-132.75146484375
-143.73779296875
-152.89306640625
-166.6259765625
-164.794921875
-145.56884765625
-115.3564453125
-82.3974609375
-32.958984375
44.86083984375
140.07568359375
260.009765625
364.3798828125
459.5947265625
559.38720703125
674.74365234375
802.001953125
915.52734375
998.84033203125
1055.60302734375
1096.8017578125
1096.8017578125
1047.36328125
905.45654296875
673.828125
453.18603515625
312.19482421875
184.02099609375
81.48193359375
43.02978515625
32.04345703125
8.23974609375
-7.32421875
-0.91552734375
-29.296875
-32.958984375
-29.296875
-52.18505859375
-63.17138671875
-74.15771484375
-77.81982421875
-78.7353515625
-74.15771484375
-86.0595703125
-100.7080078125
-106.201171875
-88.80615234375
-90.63720703125
-85.14404296875
-80.56640625
-75.0732421875
-85.14404296875
-87.890625
-87.890625
-89.7216796875
-99.79248046875
-104.3701171875
-97.0458984375
-84.228515625
-94.29931640625
-85.14404296875
-86.0595703125
-88.80615234375
-83.31298828125
-78.7353515625
-80.56640625
-79.65087890625
-75.98876953125
-73.2421875
-81.48193359375
-81.48193359375
-76.904296875
-73.2421875
-75.98876953125
-71.4111328125
-61.34033203125
-72.32666015625
-74.15771484375
-70.49560546875
-67.7490234375
-65.00244140625
-76.904296875
-69.580078125
-57.67822265625
-70.49560546875
-64.0869140625
-41.19873046875
-43.9453125
-50.35400390625
-52.18505859375
-51.26953125
-58.59375
-59.50927734375
-42.1142578125
-51.26953125
-42.1142578125
-35.70556640625
-27.4658203125
-30.21240234375
-21.97265625
-12.8173828125
-5.4931640625
-7.32421875
-6.40869140625
-8.23974609375
-8.23974609375
-7.32421875
-6.40869140625
0.91552734375
-4.57763671875
3.662109375
5.4931640625
9.1552734375
26.55029296875
32.958984375
36.62109375
50.35400390625
64.0869140625
77.81982421875
84.228515625
86.97509765625
83.31298828125
86.0595703125
91.552734375
101.62353515625
96.13037109375
100.7080078125
111.6943359375
111.6943359375
119.0185546875
125.42724609375
114.44091796875
123.59619140625
138.24462890625
140.07568359375
135.498046875
151.9775390625
148.3154296875
151.9775390625
164.794921875
178.52783203125
183.10546875
190.4296875
196.83837890625
194.091796875
196.83837890625
202.33154296875
199.5849609375
199.5849609375
205.078125
188.5986328125
177.6123046875
184.02099609375
190.4296875
163.87939453125
148.3154296875
132.75146484375
135.498046875
132.75146484375
121.76513671875
104.3701171875
89.7216796875
75.98876953125
63.17138671875
50.35400390625
37.53662109375
21.97265625
8.23974609375
10.986328125
-3.662109375
-14.6484375
-21.97265625
-22.88818359375
-24.71923828125
-41.19873046875
-37.53662109375
-44.86083984375
-65.00244140625
-72.32666015625
-62.255859375
-62.255859375
-66.83349609375
-60.4248046875
-55.84716796875
-60.4248046875
-74.15771484375
-77.81982421875
-72.32666015625
-73.2421875
-73.2421875
-69.580078125
-68.66455078125
-70.49560546875
-69.580078125
-70.49560546875
-74.15771484375
-78.7353515625
-72.32666015625
-70.49560546875
-75.0732421875
-73.2421875
-67.7490234375
-65.91796875
-71.4111328125
-71.4111328125
-68.66455078125
-65.00244140625
-66.83349609375
-72.32666015625
-76.904296875
-66.83349609375
-65.91796875
-58.59375
-49.4384765625
-59.50927734375
-64.0869140625
-63.17138671875
-60.4248046875
-63.17138671875
-49.4384765625
-57.67822265625
-55.84716796875
-59.50927734375
-62.255859375
-71.4111328125
-65.91796875
-64.0869140625
-49.4384765625
-59.50927734375
-71.4111328125
-72.32666015625
-73.2421875
-61.34033203125
-55.84716796875
-61.34033203125
-55.84716796875
-62.255859375
-70.49560546875
-69.580078125
-66.83349609375
-56.7626953125
-57.67822265625
-66.83349609375
-75.98876953125
-75.0732421875
-72.32666015625
-67.7490234375
-56.7626953125
-68.66455078125
-73.2421875
-68.66455078125
-68.66455078125
-73.2421875
-74.15771484375
-55.84716796875
-56.7626953125
-58.59375
-65.91796875
-66.83349609375
-64.0869140625
-61.34033203125
-59.50927734375
-68.66455078125
-74.15771484375
-82.3974609375
-80.56640625
-75.98876953125
-74.15771484375
-89.7216796875
-79.65087890625
-72.32666015625
-72.32666015625
-82.3974609375
-78.7353515625
-87.890625
-88.80615234375
-88.80615234375
-91.552734375
-80.56640625
-97.0458984375
-108.0322265625
-96.13037109375
-86.0595703125
-82.3974609375
-89.7216796875
-87.890625
-69.580078125
-69.580078125
-75.0732421875
-74.15771484375
-75.0732421875
-88.80615234375
-103.45458984375
-88.80615234375
-88.80615234375
-82.3974609375
-76.904296875
-67.7490234375
-75.98876953125
-75.98876953125
-75.0732421875
-68.66455078125
-75.0732421875
-79.65087890625
-76.904296875
-81.48193359375
-86.0595703125
-81.48193359375
-75.98876953125
-83.31298828125
-76.904296875
-50.35400390625
-23.8037109375
-27.4658203125
-38.4521484375
-49.4384765625
-56.7626953125
-54.01611328125
-54.931640625
-42.1142578125
-35.70556640625
-24.71923828125
-1.8310546875
10.986328125
18.310546875
17.39501953125
13.73291015625
21.05712890625
18.310546875
31.1279296875
25.634765625
12.8173828125
9.1552734375
8.23974609375
1.8310546875
-9.1552734375
-27.4658203125
-52.18505859375
-57.67822265625
-62.255859375
-70.49560546875
-86.0595703125
-84.228515625
-78.7353515625
-77.81982421875
-96.13037109375
-86.97509765625
-97.0458984375
-95.21484375
-97.0458984375
-101.62353515625
-107.11669921875
-111.6943359375
-99.79248046875
-103.45458984375
-109.86328125
-107.11669921875
-106.201171875
-108.0322265625
-109.86328125
-113.525390625
-107.11669921875
-103.45458984375
-103.45458984375
-108.0322265625
-110.77880859375
-121.76513671875
-111.6943359375
-115.3564453125
-110.77880859375
-115.3564453125
-114.44091796875
-109.86328125
-109.86328125
-119.0185546875
-115.3564453125
-111.6943359375
-119.0185546875
-119.0185546875
-123.59619140625
-136.41357421875
-131.8359375
-129.08935546875
-117.1875
-113.525390625
-119.0185546875
-108.0322265625
-97.96142578125
-95.21484375
-101.62353515625
-108.0322265625
-110.77880859375
-115.3564453125
-116.27197265625
-108.0322265625
-108.94775390625
-110.77880859375
-130.0048828125
-130.0048828125
-143.73779296875
-156.55517578125
-146.484375
-121.76513671875
-86.97509765625
-61.34033203125
-21.05712890625
71.4111328125
188.5986328125
