ECG
3.662109375
0.91552734375
0
1.8310546875
-3.662109375
-10.07080078125
-18.310546875
-22.88818359375
-21.97265625
-28.38134765625
-33.87451171875
-35.70556640625
-36.62109375
-39.36767578125
-43.9453125
-49.4384765625
-55.84716796875
-54.01611328125
-53.1005859375
-65.91796875
-66.83349609375
-64.0869140625
-64.0869140625
-54.931640625
-60.4248046875
-70.49560546875
-63.17138671875
-64.0869140625
-55.84716796875
-59.50927734375
-59.50927734375
-62.255859375
-66.83349609375
-75.98876953125
-78.7353515625
-77.81982421875
-77.81982421875
-75.0732421875
-73.2421875
-70.49560546875
-51.26953125
-56.7626953125
-73.2421875
-73.2421875
-66.83349609375
-63.17138671875
-65.00244140625
-54.01611328125
-65.91796875
-65.00244140625
-60.4248046875
-55.84716796875
-55.84716796875
-56.7626953125
-60.4248046875
-54.01611328125
-51.26953125
-54.01611328125
-55.84716796875
-48.52294921875
-55.84716796875
-62.255859375
-67.7490234375
-79.65087890625
-94.29931640625
-109.86328125
-125.42724609375
-109.86328125
-96.13037109375
-58.59375
-19.22607421875
15.56396484375
86.0595703125
185.85205078125
308.53271484375
421.142578125
523.681640625
617.98095703125
742.49267578125
877.99072265625
985.107421875
1090.39306640625
1163.63525390625
1182.861328125
1180.11474609375
1110.53466796875
958.55712890625
719.6044921875
505.37109375
356.14013671875
227.05078125
132.75146484375
93.3837890625
95.21484375
79.65087890625
67.7490234375
62.255859375
53.1005859375
24.71923828125
21.97265625
21.05712890625
2.74658203125
-1.8310546875
-2.74658203125
-17.39501953125
-20.1416015625
-20.1416015625
-12.8173828125
0.91552734375
-9.1552734375
-24.71923828125
-14.6484375
-14.6484375
-17.39501953125
-7.32421875
-12.8173828125
-10.986328125
-13.73291015625
-16.4794921875
-26.55029296875
-20.1416015625
-13.73291015625
-10.07080078125
-26.55029296875
-22.88818359375
-15.56396484375
-12.8173828125
-9.1552734375
-8.23974609375
-24.71923828125
-25.634765625
-6.40869140625
-0.91552734375
-10.986328125
-20.1416015625
-13.73291015625
-2.74658203125
-5.4931640625
-18.310546875
-4.57763671875
-6.40869140625
6.40869140625
4.57763671875
0
5.4931640625
0.91552734375
1.8310546875
13.73291015625
15.56396484375
1.8310546875
10.07080078125
20.1416015625
22.88818359375
14.6484375
20.1416015625
19.22607421875
16.4794921875
29.296875
39.36767578125
36.62109375
39.36767578125
46.69189453125
47.607421875
47.607421875
45.7763671875
47.607421875
60.4248046875
59.50927734375
70.49560546875
70.49560546875
82.3974609375
87.890625
76.904296875
81.48193359375
88.80615234375
97.0458984375
97.96142578125
106.201171875
119.0185546875
108.0322265625
114.44091796875
131.8359375
140.9912109375
140.9912109375
153.80859375
158.38623046875
152.89306640625
168.45703125
173.9501953125
182.18994140625
175.78125
176.69677734375
187.68310546875
196.83837890625
199.5849609375
211.48681640625
227.05078125
222.47314453125
229.79736328125
234.375
242.61474609375
260.009765625
251.77001953125
261.8408203125
263.671875
273.74267578125
264.58740234375
257.26318359375
261.8408203125
270.99609375
281.06689453125
270.99609375
260.92529296875
262.75634765625
261.8408203125
259.09423828125
249.93896484375
234.375
222.47314453125
216.064453125
205.99365234375
198.66943359375
185.85205078125
157.470703125
154.72412109375
141.90673828125
130.0048828125
125.42724609375
117.1875
93.3837890625
82.3974609375
70.49560546875
66.83349609375
60.4248046875
38.4521484375
40.283203125
21.05712890625
2.74658203125
-1.8310546875
-6.40869140625
-5.4931640625
-10.986328125
-9.1552734375
-10.07080078125
-18.310546875
-20.1416015625
-19.22607421875
-26.55029296875
-11.90185546875
-12.8173828125
-21.97265625
-17.39501953125
-16.4794921875
-14.6484375
-27.4658203125
-34.7900390625
-36.62109375
-31.1279296875
-41.19873046875
-36.62109375
-30.21240234375
-28.38134765625
-28.38134765625
-29.296875
-25.634765625
-26.55029296875
-32.04345703125
-37.53662109375
-33.87451171875
-24.71923828125
-24.71923828125
-19.22607421875
-26.55029296875
-35.70556640625
-31.1279296875
-14.6484375
-20.1416015625
-21.97265625
-30.21240234375
-30.21240234375
-32.958984375
-41.19873046875
-38.4521484375
-32.04345703125
-10.986328125
-7.32421875
-2.74658203125
-1.8310546875
-2.74658203125
-7.32421875
-7.32421875
-12.8173828125
-13.73291015625
-16.4794921875
-11.90185546875
-8.23974609375
-11.90185546875
2.74658203125
0
-11.90185546875
-12.8173828125
-11.90185546875
-20.1416015625
-21.97265625
-23.8037109375
-21.97265625
-25.634765625
-27.4658203125
-15.56396484375
-11.90185546875
-18.310546875
-16.4794921875
-7.32421875
-15.56396484375
-16.4794921875
-10.07080078125
-3.662109375
-5.4931640625
-5.4931640625
-6.40869140625
-15.56396484375
-15.56396484375
-20.1416015625
-28.38134765625
-37.53662109375
-44.86083984375
-39.36767578125
-39.36767578125
-35.70556640625
-29.296875
-21.97265625
-30.21240234375
-30.21240234375
-32.04345703125
-32.958984375
-33.87451171875
-35.70556640625
-39.36767578125
-23.8037109375
-20.1416015625
-10.07080078125
-15.56396484375
-18.310546875
-26.55029296875
-19.22607421875
-14.6484375
-22.88818359375
-28.38134765625
-21.05712890625
-32.04345703125
-42.1142578125
-32.958984375
-27.4658203125
-22.88818359375
-33.87451171875
-36.62109375
-27.4658203125
-23.8037109375
-21.05712890625
-37.53662109375
-27.4658203125
-34.7900390625
-46.69189453125
-47.607421875
-38.4521484375
-34.7900390625
-34.7900390625
-32.958984375
-39.36767578125
-34.7900390625
-31.1279296875
-26.55029296875
-32.958984375
-36.62109375
-42.1142578125
-40.283203125
-35.70556640625
-32.04345703125
-30.21240234375
-48.52294921875
-41.19873046875
-25.634765625
-37.53662109375
-46.69189453125
-41.19873046875
-31.1279296875
-24.71923828125
-32.958984375
-31.1279296875
-30.21240234375
-33.87451171875
-50.35400390625
-55.84716796875
-48.52294921875
-40.283203125
-28.38134765625
-32.04345703125
-31.1279296875
-24.71923828125
-21.05712890625
-23.8037109375
-17.39501953125
10.07080078125
22.88818359375
23.8037109375
21.05712890625
22.88818359375
18.310546875
14.6484375
-0.91552734375
-9.1552734375
-4.57763671875
20.1416015625
51.26953125
65.00244140625
48.52294921875
44.86083984375
43.9453125
42.1142578125
36.62109375
45.7763671875
48.52294921875
38.4521484375
24.71923828125
32.04345703125
31.1279296875
17.39501953125
7.32421875
3.662109375
-9.1552734375
-15.56396484375
-25.634765625
-31.1279296875
-31.1279296875
-40.283203125
-39.36767578125
-52.18505859375
-54.931640625
-38.4521484375
-34.7900390625
-36.62109375
-38.4521484375
-41.19873046875
-40.283203125
-43.9453125
-48.52294921875
-53.1005859375
-59.50927734375
-53.1005859375
-42.1142578125
-42.1142578125
-37.53662109375
-47.607421875
-57.67822265625
-55.84716796875
-61.34033203125
-54.931640625
-61.34033203125
-63.17138671875
-54.01611328125
-40.283203125
-30.21240234375
-38.4521484375
-49.4384765625
-45.7763671875
-54.01611328125
-41.19873046875
-42.1142578125
-50.35400390625
-52.18505859375
-57.67822265625
-54.931640625
-54.931640625
-53.1005859375
-56.7626953125
-42.1142578125
-54.931640625
-54.01611328125
-59.50927734375
-49.4384765625
-48.52294921875
-46.69189453125
-52.18505859375
-57.67822265625
-58.59375
-52.18505859375
-50.35400390625
-65.00244140625
-88.80615234375
-103.45458984375
-95.21484375
-79.65087890625
-70.49560546875
-44.86083984375
-11.90185546875
54.01611328125
153.80859375
281.982421875
400.08544921875
502.62451171875
602.4169921875
734.2529296875
877.99072265625
987.85400390625
1077.57568359375
1153.564453125
1196.59423828125
1205.74951171875
1171.875
1040.95458984375
815.73486328125
561.21826171875
390.93017578125
243.5302734375
156.55517578125
102.5390625
100.7080078125
91.552734375
87.890625
85.14404296875
66.83349609375
59.50927734375
40.283203125
40.283203125
25.634765625
27.4658203125
12.8173828125
10.07080078125
4.57763671875
-2.74658203125
-0.91552734375
-6.40869140625
-18.310546875
-13.73291015625
-6.40869140625
3.662109375
-9.1552734375
-5.4931640625
-2.74658203125
0.91552734375
-8.23974609375
-9.1552734375
-10.986328125
-7.32421875
-5.4931640625
-1.8310546875
-6.40869140625
-9.1552734375
1.8310546875
-0.91552734375
-5.4931640625
2.74658203125
-6.40869140625
6.40869140625
3.662109375
-4.57763671875
-5.4931640625
-4.57763671875
13.73291015625
9.1552734375
5.4931640625
18.310546875
19.22607421875
16.4794921875
21.97265625
26.55029296875
30.21240234375
30.21240234375
31.1279296875
21.05712890625
19.22607421875
21.05712890625
28.38134765625
21.05712890625
27.4658203125
39.36767578125
32.04345703125
39.36767578125
57.67822265625
56.7626953125
54.01611328125
54.01611328125
55.84716796875
51.26953125
56.7626953125
57.67822265625
67.7490234375
69.580078125
77.81982421875
75.0732421875
69.580078125
81.48193359375
96.13037109375
86.97509765625
91.552734375
98.876953125
97.96142578125
104.3701171875
119.0185546875
121.76513671875
110.77880859375
125.42724609375
134.58251953125
145.56884765625
154.72412109375
163.87939453125
167.54150390625
180.35888671875
190.4296875
193.17626953125
197.75390625
205.078125
210.5712890625
217.8955078125
223.388671875
224.30419921875
227.05078125
238.95263671875
244.44580078125
246.27685546875
248.10791015625
254.5166015625
267.333984375
277.40478515625
282.89794921875
290.22216796875
297.54638671875
296.630859375
296.630859375
297.54638671875
300.29296875
300.29296875
297.54638671875
292.05322265625
284.72900390625
280.1513671875
271.91162109375
282.89794921875
299.37744140625
295.71533203125
280.1513671875
270.08056640625
251.77001953125
244.44580078125
231.62841796875
227.05078125
216.97998046875
202.33154296875
181.2744140625
164.794921875
144.6533203125
130.92041015625
116.27197265625
108.94775390625
95.21484375
91.552734375
78.7353515625
77.81982421875
64.0869140625
51.26953125
43.9453125
42.1142578125
24.71923828125
13.73291015625
18.310546875
17.39501953125
5.4931640625
4.57763671875
-3.662109375
-0.91552734375
2.74658203125
-4.57763671875
-5.4931640625
-0.91552734375
-5.4931640625
0
0.91552734375
-0.91552734375
-4.57763671875
-5.4931640625
-8.23974609375
-3.662109375
0
-7.32421875
-7.32421875
-5.4931640625
5.4931640625
10.986328125
-0.91552734375
-10.986328125
0
0
-14.6484375
-13.73291015625
-11.90185546875
-15.56396484375
-8.23974609375
0.91552734375
10.07080078125
-0.91552734375
0
13.73291015625
10.986328125
-2.74658203125
-6.40869140625
7.32421875
7.32421875
0.91552734375
3.662109375
-0.91552734375
1.8310546875
4.57763671875
1.8310546875
9.1552734375
10.986328125
10.986328125
12.8173828125
12.8173828125
11.90185546875
15.56396484375
14.6484375
10.07080078125
10.986328125
0.91552734375
10.986328125
1.8310546875
1.8310546875
0
-5.4931640625
4.57763671875
2.74658203125
-0.91552734375
0
-0.91552734375
-2.74658203125
-2.74658203125
-7.32421875
-6.40869140625
-3.662109375
-8.23974609375
-7.32421875
-5.4931640625
-20.1416015625
-15.56396484375
-9.1552734375
0.91552734375
-2.74658203125
-1.8310546875
-4.57763671875
-8.23974609375
-10.07080078125
-9.1552734375
-16.4794921875
-16.4794921875
-9.1552734375
-3.662109375
0.91552734375
0
0
-1.8310546875
-5.4931640625
-1.8310546875
-6.40869140625
-17.39501953125
-5.4931640625
-14.6484375
-8.23974609375
-6.40869140625
-18.310546875
-24.71923828125
-6.40869140625
-10.07080078125
-13.73291015625
-21.97265625
-10.07080078125
-9.1552734375
-10.986328125
-9.1552734375
-6.40869140625
-17.39501953125
-10.986328125
-8.23974609375
-6.40869140625
-10.07080078125
-14.6484375
-11.90185546875
-19.22607421875
-15.56396484375
-11.90185546875
-13.73291015625
-11.90185546875
-17.39501953125
-23.8037109375
-28.38134765625
-27.4658203125
-29.296875
-29.296875
-30.21240234375
-30.21240234375
-22.88818359375
-29.296875
-35.70556640625
-34.7900390625
-30.21240234375
-28.38134765625
-26.55029296875
-22.88818359375
-20.1416015625
-20.1416015625
-20.1416015625
-25.634765625
-21.97265625
-26.55029296875
-32.04345703125
-25.634765625
-31.1279296875
-34.7900390625
-27.4658203125
-21.05712890625
-16.4794921875
-14.6484375
-25.634765625
-25.634765625
-27.4658203125
-28.38134765625
-20.1416015625
-11.90185546875
-8.23974609375
-1.8310546875
-5.4931640625
-10.986328125
2.74658203125
2.74658203125
-2.74658203125
2.74658203125
-4.57763671875
-5.4931640625
-12.8173828125
-10.986328125
0
4.57763671875
26.55029296875
25.634765625
18.310546875
3.662109375
2.74658203125
7.32421875
16.4794921875
18.310546875
21.05712890625
28.38134765625
27.4658203125
36.62109375
24.71923828125
26.55029296875
21.97265625
20.1416015625
21.97265625
23.8037109375
13.73291015625
11.90185546875
10.07080078125
0.91552734375
-9.1552734375
4.57763671875
8.23974609375
-0.91552734375
-10.07080078125
-14.6484375
-24.71923828125
-25.634765625
-18.310546875
-28.38134765625
-31.1279296875
-27.4658203125
-34.7900390625
-39.36767578125
-37.53662109375
-43.9453125
-40.283203125
-37.53662109375
-36.62109375
-43.9453125
-45.7763671875
-41.19873046875
-43.9453125
-42.1142578125
-42.1142578125
-32.958984375
-32.958984375
-42.1142578125
-44.86083984375
-42.1142578125
-43.02978515625
-40.283203125
-38.4521484375
-46.69189453125
-51.26953125
-46.69189453125
-39.36767578125
-48.52294921875
-41.19873046875
-43.9453125
-48.52294921875
-48.52294921875
-52.18505859375
-52.18505859375
-57.67822265625
-46.69189453125
-37.53662109375
-43.02978515625
-45.7763671875
-54.931640625
-52.18505859375
-47.607421875
-32.958984375
-43.02978515625
-47.607421875
-32.958984375
-23.8037109375
-32.04345703125
-34.7900390625
-38.4521484375
-45.7763671875
-58.59375
-62.255859375
-77.81982421875
-77.81982421875
-57.67822265625
-55.84716796875
-19.22607421875
11.90185546875
63.17138671875
147.39990234375
272.8271484375
387.26806640625
491.63818359375
596.923828125
702.20947265625
844.1162109375
967.71240234375
1066.58935546875
1153.564453125
1202.08740234375
1213.07373046875
1185.60791015625
1067.5048828125
867.00439453125
601.50146484375
411.9873046875
281.982421875
185.85205078125
119.93408203125
111.6943359375
104.3701171875
90.63720703125
81.48193359375
64.0869140625
52.18505859375
38.4521484375
32.04345703125
27.4658203125
28.38134765625
24.71923828125
20.1416015625
17.39501953125
10.986328125
10.986328125
9.1552734375
7.32421875
4.57763671875
-5.4931640625
-0.91552734375
11.90185546875
6.40869140625
11.90185546875
10.07080078125
9.1552734375
8.23974609375
13.73291015625
10.07080078125
9.1552734375
11.90185546875
12.8173828125
1.8310546875
9.1552734375
13.73291015625
18.310546875
12.8173828125
6.40869140625
13.73291015625
14.6484375
0.91552734375
10.07080078125
19.22607421875
19.22607421875
19.22607421875
14.6484375
20.1416015625
30.21240234375
27.4658203125
24.71923828125
23.8037109375
27.4658203125
29.296875
27.4658203125
23.8037109375
32.04345703125
40.283203125
35.70556640625
41.19873046875
50.35400390625
48.52294921875
51.26953125
60.4248046875
55.84716796875
52.18505859375
51.26953125
60.4248046875
63.17138671875
45.7763671875
54.931640625
62.255859375
65.91796875
63.17138671875
78.7353515625
85.14404296875
93.3837890625
104.3701171875
100.7080078125
108.94775390625
113.525390625
108.94775390625
119.93408203125
121.76513671875
122.6806640625
120.849609375
140.9912109375
150.146484375
148.3154296875
150.146484375
156.55517578125
162.04833984375
162.04833984375
172.119140625
185.85205078125
193.17626953125
207.82470703125
209.65576171875
208.740234375
218.81103515625
229.79736328125
234.375
222.47314453125
236.2060546875
252.685546875
266.41845703125
283.8134765625
293.88427734375
295.71533203125
289.306640625
294.7998046875
303.03955078125
305.7861328125
295.71533203125
295.71533203125
300.29296875
311.279296875
323.18115234375
325.927734375
327.7587890625
332.33642578125
335.0830078125
326.84326171875
319.51904296875
314.94140625
303.03955078125
292.05322265625
288.39111328125
281.982421875
268.24951171875
255.43212890625
242.61474609375
224.30419921875
217.8955078125
199.5849609375
182.18994140625
172.119140625
155.6396484375
148.3154296875
134.58251953125
108.0322265625
100.7080078125
95.21484375
81.48193359375
75.0732421875
66.83349609375
67.7490234375
64.0869140625
64.0869140625
51.26953125
43.9453125
42.1142578125
46.69189453125
37.53662109375
29.296875
20.1416015625
15.56396484375
26.55029296875
17.39501953125
16.4794921875
20.1416015625
10.986328125
5.4931640625
5.4931640625
0.91552734375
6.40869140625
9.1552734375
7.32421875
2.74658203125
-6.40869140625
0
11.90185546875
10.986328125
0.91552734375
2.74658203125
1.8310546875
11.90185546875
20.1416015625
18.310546875
17.39501953125
17.39501953125
21.97265625
12.8173828125
12.8173828125
12.8173828125
12.8173828125
27.4658203125
20.1416015625
28.38134765625
23.8037109375
23.8037109375
34.7900390625
21.05712890625
26.55029296875
30.21240234375
21.97265625
13.73291015625
17.39501953125
17.39501953125
18.310546875
19.22607421875
12.8173828125
19.22607421875
17.39501953125
22.88818359375
25.634765625
26.55029296875
13.73291015625
19.22607421875
8.23974609375
14.6484375
9.1552734375
9.1552734375
15.56396484375
17.39501953125
10.986328125
13.73291015625
21.97265625
24.71923828125
21.97265625
19.22607421875
12.8173828125
11.90185546875
11.90185546875
3.662109375
1.8310546875
7.32421875
17.39501953125
15.56396484375
4.57763671875
-1.8310546875
6.40869140625
14.6484375
15.56396484375
9.1552734375
20.1416015625
21.97265625
20.1416015625
12.8173828125
3.662109375
12.8173828125
19.22607421875
12.8173828125
0
-5.4931640625
-5.4931640625
-9.1552734375
-7.32421875
-5.4931640625
0
4.57763671875
10.07080078125
8.23974609375
9.1552734375
0
0
-2.74658203125
-1.8310546875
1.8310546875
-2.74658203125
-7.32421875
-10.07080078125
-6.40869140625
-21.97265625
-12.8173828125
0.91552734375
0
-1.8310546875
7.32421875
6.40869140625
0.91552734375
-0.91552734375
8.23974609375
3.662109375
9.1552734375
7.32421875
7.32421875
9.1552734375
-2.74658203125
0
4.57763671875
0
-10.07080078125
-16.4794921875
-17.39501953125
-10.07080078125
-16.4794921875
-19.22607421875
-9.1552734375
15.56396484375
11.90185546875
9.1552734375
4.57763671875
0
-3.662109375
3.662109375
-3.662109375
-9.1552734375
1.8310546875
-3.662109375
-6.40869140625
0
0
2.74658203125
10.986328125
10.986328125
6.40869140625
4.57763671875
6.40869140625
1.8310546875
-3.662109375
1.8310546875
3.662109375
2.74658203125
0.91552734375
-0.91552734375
4.57763671875
3.662109375
7.32421875
1.8310546875
-6.40869140625
-5.4931640625
-4.57763671875
0
-8.23974609375
-6.40869140625
-4.57763671875
-3.662109375
-10.07080078125
-14.6484375
-2.74658203125
-3.662109375
-10.07080078125
-4.57763671875
-7.32421875
-4.57763671875
-0.91552734375
4.57763671875
39.36767578125
55.84716796875
52.18505859375
48.52294921875
56.7626953125
55.84716796875
55.84716796875
53.1005859375
51.26953125
64.0869140625
75.0732421875
64.0869140625
64.0869140625
56.7626953125
50.35400390625
41.19873046875
31.1279296875
37.53662109375
31.1279296875
32.04345703125
28.38134765625
8.23974609375
8.23974609375
0
-5.4931640625
-4.57763671875
-7.32421875
-10.986328125
-0.91552734375
-12.8173828125
-19.22607421875
-21.97265625
-22.88818359375
-12.8173828125
-20.1416015625
-29.296875
-29.296875
-25.634765625
-25.634765625
-17.39501953125
-4.57763671875
-20.1416015625
-17.39501953125
-13.73291015625
-1.8310546875
-5.4931640625
0
-3.662109375
3.662109375
-7.32421875
-10.986328125
-12.8173828125
-22.88818359375
-2.74658203125
-13.73291015625
-10.07080078125
-12.8173828125
-11.90185546875
-21.05712890625
-16.4794921875
-10.986328125
-10.07080078125
-6.40869140625
-9.1552734375
-13.73291015625
-15.56396484375
-5.4931640625
-5.4931640625
-10.07080078125
-7.32421875
-9.1552734375
-10.07080078125
-10.986328125
-18.310546875
-21.97265625
-29.296875
-27.4658203125
-39.36767578125
-53.1005859375
-43.9453125
-40.283203125
-32.958984375
0.91552734375
40.283203125
115.3564453125
228.8818359375
357.0556640625
465.087890625
557.55615234375
666.50390625
787.353515625
916.44287109375
1043.701171875
1148.98681640625
1198.42529296875
1239.6240234375
1231.38427734375
1172.79052734375
1004.33349609375
767.2119140625
524.59716796875
371.7041015625
256.34765625
174.86572265625
147.39990234375
138.24462890625
130.92041015625
126.3427734375
112.60986328125
103.45458984375
85.14404296875
66.83349609375
69.580078125
61.34033203125
49.4384765625
36.62109375
41.19873046875
30.21240234375
16.4794921875
26.55029296875
32.958984375
33.87451171875
26.55029296875
27.4658203125
31.1279296875
21.97265625
20.1416015625
23.8037109375
32.958984375
25.634765625
31.1279296875
19.22607421875
3.662109375
22.88818359375
28.38134765625
32.04345703125
28.38134765625
34.7900390625
43.02978515625
33.87451171875
33.87451171875
32.04345703125
23.8037109375
30.21240234375
30.21240234375
39.36767578125
36.62109375
30.21240234375
39.36767578125
45.7763671875
54.01611328125
34.7900390625
28.38134765625
33.87451171875
32.04345703125
29.296875
30.21240234375
32.04345703125
40.283203125
51.26953125
71.4111328125
69.580078125
56.7626953125
64.0869140625
63.17138671875
56.7626953125
71.4111328125
79.65087890625
70.49560546875
75.0732421875
86.97509765625
88.80615234375
89.7216796875
84.228515625
86.97509765625
91.552734375
98.876953125
100.7080078125
108.94775390625
108.0322265625
120.849609375
115.3564453125
124.51171875
119.93408203125
130.0048828125
130.92041015625
141.90673828125
136.41357421875
133.6669921875
151.9775390625
151.9775390625
152.89306640625
157.470703125
168.45703125
173.9501953125
182.18994140625
183.10546875
195.9228515625
204.16259765625
214.2333984375
225.2197265625
227.05078125
227.96630859375
231.62841796875
233.45947265625
238.037109375
248.10791015625
252.685546875
267.333984375
284.72900390625
280.1513671875
291.1376953125
305.7861328125
320.4345703125
318.603515625
305.7861328125
305.7861328125
305.7861328125
314.94140625
325.01220703125
331.4208984375
336.9140625
341.49169921875
338.7451171875
333.251953125
311.279296875
310.36376953125
317.68798828125
308.53271484375
320.4345703125
295.71533203125
280.1513671875
276.4892578125
260.009765625
250.8544921875
221.5576171875
216.97998046875
195.00732421875
181.2744140625
170.2880859375
153.80859375
140.07568359375
134.58251953125
117.1875
103.45458984375
97.0458984375
80.56640625
64.0869140625
52.18505859375
43.9453125
44.86083984375
47.607421875
39.36767578125
41.19873046875
49.4384765625
48.52294921875
30.21240234375
24.71923828125
20.1416015625
10.07080078125
-0.91552734375
0
3.662109375
10.986328125
11.90185546875
7.32421875
10.986328125
25.634765625
21.05712890625
5.4931640625
16.4794921875
16.4794921875
21.97265625
21.97265625
12.8173828125
13.73291015625
14.6484375
0.91552734375
23.8037109375
21.97265625
16.4794921875
21.05712890625
24.71923828125
32.958984375
24.71923828125
16.4794921875
21.97265625
20.1416015625
17.39501953125
21.05712890625
19.22607421875
27.4658203125
23.8037109375
35.70556640625
32.04345703125
30.21240234375
41.19873046875
24.71923828125
20.1416015625
27.4658203125
33.87451171875
22.88818359375
21.05712890625
30.21240234375
24.71923828125
36.62109375
31.1279296875
34.7900390625
33.87451171875
30.21240234375
27.4658203125
20.1416015625
33.87451171875
33.87451171875
30.21240234375
19.22607421875
14.6484375
17.39501953125
25.634765625
34.7900390625
19.22607421875
23.8037109375
31.1279296875
24.71923828125
33.87451171875
35.70556640625
30.21240234375
34.7900390625
20.1416015625
22.88818359375
19.22607421875
10.986328125
17.39501953125
21.05712890625
13.73291015625
11.90185546875
12.8173828125
10.986328125
13.73291015625
15.56396484375
14.6484375
11.90185546875
12.8173828125
6.40869140625
-0.91552734375
-5.4931640625
1.8310546875
-3.662109375
2.74658203125
16.4794921875
10.986328125
11.90185546875
10.07080078125
2.74658203125
-4.57763671875
-8.23974609375
-10.07080078125
-8.23974609375
0
-10.07080078125
-9.1552734375
-17.39501953125
-19.22607421875
-12.8173828125
-13.73291015625
-14.6484375
-10.07080078125
-10.986328125
4.57763671875
1.8310546875
-10.07080078125
-12.8173828125
1.8310546875
-3.662109375
0
11.90185546875
-3.662109375
-10.07080078125
-10.986328125
-12.8173828125
-6.40869140625
-3.662109375
-1.8310546875
-3.662109375
-1.8310546875
-8.23974609375
-14.6484375
-18.310546875
-27.4658203125
-21.97265625
-15.56396484375
-12.8173828125
-6.40869140625
-5.4931640625
0
-4.57763671875
-8.23974609375
1.8310546875
-3.662109375
-5.4931640625
-4.57763671875
-2.74658203125
-4.57763671875
0.91552734375
-9.1552734375
-16.4794921875
-12.8173828125
-8.23974609375
-12.8173828125
-7.32421875
0.91552734375
-16.4794921875
-25.634765625
-13.73291015625
-24.71923828125
-10.986328125
-3.662109375
-17.39501953125
-28.38134765625
-21.05712890625
-14.6484375
-18.310546875
-6.40869140625
-0.91552734375
-14.6484375
-20.1416015625
-4.57763671875
13.73291015625
22.88818359375
27.4658203125
35.70556640625
47.607421875
56.7626953125
48.52294921875
47.607421875
44.86083984375
49.4384765625
49.4384765625
54.01611328125
56.7626953125
42.1142578125
40.283203125
32.958984375
22.88818359375
8.23974609375
10.07080078125
14.6484375
15.56396484375
9.1552734375
10.07080078125
16.4794921875
15.56396484375
9.1552734375
7.32421875
-11.90185546875
-16.4794921875
-26.55029296875
-27.4658203125
-21.97265625
-13.73291015625
-30.21240234375
-21.05712890625
-21.05712890625
-19.22607421875
-23.8037109375
-15.56396484375
-12.8173828125
-13.73291015625
-8.23974609375
-11.90185546875
-21.97265625
-22.88818359375
-22.88818359375
-31.1279296875
-34.7900390625
-30.21240234375
-33.87451171875
-32.958984375
-15.56396484375
-10.986328125
-35.70556640625
-42.1142578125
-32.04345703125
-31.1279296875
-32.04345703125
-24.71923828125
-27.4658203125
-16.4794921875
-17.39501953125
-24.71923828125
-23.8037109375
-27.4658203125
-27.4658203125
-20.1416015625
-21.05712890625
-32.958984375
-21.97265625
-11.90185546875
-14.6484375
-11.90185546875
-12.8173828125
-14.6484375
-23.8037109375
-28.38134765625
-43.9453125
-65.91796875
-82.3974609375
-60.4248046875
-41.19873046875
-16.4794921875
23.8037109375
72.32666015625
162.9638671875
274.658203125
382.6904296875
483.3984375
598.7548828125
712.2802734375
834.04541015625
961.3037109375
1056.5185546875
1136.16943359375
1195.6787109375
1226.806640625
1201.171875
1110.53466796875
941.162109375
689.39208984375
523.681640625
366.2109375
228.8818359375
150.146484375
124.51171875
117.1875
106.201171875
108.94775390625
101.62353515625
77.81982421875
65.91796875
61.34033203125
60.4248046875
54.931640625
51.26953125
40.283203125
21.97265625
25.634765625
43.02978515625
44.86083984375
34.7900390625
15.56396484375
9.1552734375
14.6484375
10.986328125
12.8173828125
16.4794921875
10.986328125
15.56396484375
21.97265625
22.88818359375
18.310546875
21.97265625
15.56396484375
24.71923828125
19.22607421875
24.71923828125
20.1416015625
16.4794921875
15.56396484375
18.310546875
40.283203125
32.04345703125
30.21240234375
38.4521484375
42.1142578125
33.87451171875
25.634765625
29.296875
28.38134765625
26.55029296875
37.53662109375
43.02978515625
41.19873046875
43.02978515625
44.86083984375
38.4521484375
30.21240234375
32.04345703125
31.1279296875
31.1279296875
44.86083984375
51.26953125
51.26953125
55.84716796875
63.17138671875
60.4248046875
59.50927734375
65.91796875
75.0732421875
70.49560546875
59.50927734375
66.83349609375
66.83349609375
74.15771484375
75.98876953125
77.81982421875
86.0595703125
91.552734375
97.96142578125
100.7080078125
120.849609375
116.27197265625
110.77880859375
113.525390625
116.27197265625
119.0185546875
130.0048828125
132.75146484375
148.3154296875
151.06201171875
149.23095703125
162.9638671875
157.470703125
158.38623046875
164.794921875
173.03466796875
177.6123046875
186.767578125
184.9365234375
193.17626953125
214.2333984375
232.5439453125
233.45947265625
238.95263671875
244.44580078125
253.60107421875
261.8408203125
264.58740234375
253.60107421875
270.99609375
283.8134765625
270.99609375
275.57373046875
281.982421875
281.982421875
292.05322265625
292.96875
298.4619140625
303.03955078125
306.70166015625
304.87060546875
301.20849609375
303.03955078125
302.1240234375
301.20849609375
291.1376953125
290.22216796875
289.306640625
273.74267578125
260.009765625
251.77001953125
234.375
210.5712890625
208.740234375
195.9228515625
179.443359375
167.54150390625
153.80859375
148.3154296875
138.24462890625
115.3564453125
97.96142578125
88.80615234375
87.890625
91.552734375
78.7353515625
59.50927734375
53.1005859375
42.1142578125
30.21240234375
29.296875
18.310546875
11.90185546875
10.07080078125
12.8173828125
14.6484375
20.1416015625
26.55029296875
18.310546875
11.90185546875
3.662109375
-4.57763671875
-1.8310546875
11.90185546875
8.23974609375
2.74658203125
13.73291015625
9.1552734375
9.1552734375
9.1552734375
15.56396484375
-2.74658203125
-0.91552734375
5.4931640625
-3.662109375
-2.74658203125
-2.74658203125
-1.8310546875
-5.4931640625
4.57763671875
13.73291015625
3.662109375
-0.91552734375
13.73291015625
14.6484375
10.986328125
5.4931640625
8.23974609375
16.4794921875
9.1552734375
7.32421875
-1.8310546875
-10.07080078125
0
4.57763671875
6.40869140625
11.90185546875
10.07080078125
11.90185546875
12.8173828125
12.8173828125
18.310546875
22.88818359375
20.1416015625
15.56396484375
17.39501953125
20.1416015625
21.05712890625
20.1416015625
15.56396484375
6.40869140625
16.4794921875
17.39501953125
10.986328125
26.55029296875
17.39501953125
7.32421875
18.310546875
25.634765625
10.986328125
10.986328125
20.1416015625
18.310546875
16.4794921875
17.39501953125
15.56396484375
10.986328125
12.8173828125
13.73291015625
10.07080078125
7.32421875
0.91552734375
-1.8310546875
2.74658203125
10.07080078125
6.40869140625
-3.662109375
2.74658203125
5.4931640625
4.57763671875
-1.8310546875
-10.07080078125
-11.90185546875
-7.32421875
-7.32421875
-0.91552734375
-1.8310546875
-4.57763671875
-7.32421875
-19.22607421875
-18.310546875
-16.4794921875
-10.986328125
-12.8173828125
-5.4931640625
-10.986328125
-28.38134765625
-26.55029296875
-24.71923828125
-37.53662109375
-22.88818359375
-3.662109375
1.8310546875
-1.8310546875
-8.23974609375
-10.986328125
-13.73291015625
-23.8037109375
-22.88818359375
-17.39501953125
-24.71923828125
-14.6484375
-37.53662109375
-42.1142578125
-32.04345703125
-29.296875
-25.634765625
-22.88818359375
-31.1279296875
-34.7900390625
-30.21240234375
-32.958984375
-31.1279296875
-26.55029296875
-29.296875
-32.04345703125
-38.4521484375
-40.283203125
-45.7763671875
-42.1142578125
-33.87451171875
-22.88818359375
-18.310546875
-21.97265625
-26.55029296875
-29.296875
-32.04345703125
-25.634765625
-27.4658203125
-27.4658203125
-22.88818359375
-24.71923828125
-27.4658203125
-26.55029296875
-39.36767578125
-39.36767578125
-30.21240234375
-23.8037109375
-22.88818359375
-10.07080078125
16.4794921875
19.22607421875
7.32421875
15.56396484375
9.1552734375
2.74658203125
-2.74658203125
-12.8173828125
-8.23974609375
21.05712890625
56.7626953125
66.83349609375
54.01611328125
45.7763671875
43.9453125
42.1142578125
42.1142578125
55.84716796875
50.35400390625
38.4521484375
27.4658203125
20.1416015625
17.39501953125
21.05712890625
15.56396484375
2.74658203125
-8.23974609375
-10.07080078125
-11.90185546875
-11.90185546875
-9.1552734375
-15.56396484375
-21.97265625
-23.8037109375
-35.70556640625
-36.62109375
-29.296875
-39.36767578125
-37.53662109375
-43.9453125
-45.7763671875
-41.19873046875
-47.607421875
-51.26953125
-62.255859375
-53.1005859375
-57.67822265625
-55.84716796875
-60.4248046875
-60.4248046875
-54.931640625
-45.7763671875
-41.19873046875
-37.53662109375
-50.35400390625
-55.84716796875
-54.01611328125
-48.52294921875
-44.86083984375
-48.52294921875
-45.7763671875
-40.283203125
-43.9453125
-46.69189453125
-40.283203125
-51.26953125
-50.35400390625
-58.59375
-49.4384765625
-50.35400390625
-57.67822265625
-59.50927734375
-46.69189453125
-42.1142578125
-42.1142578125
-50.35400390625
-53.1005859375
-45.7763671875
-37.53662109375
-38.4521484375
-50.35400390625
-43.9453125
-48.52294921875
-58.59375
-67.7490234375
-78.7353515625
-97.0458984375
-86.97509765625
-84.228515625
-75.98876953125
-43.02978515625
-1.8310546875
66.83349609375
166.6259765625
277.40478515625
391.845703125
503.5400390625
602.4169921875
732.421875
867.00439453125
979.6142578125
1077.57568359375
1158.14208984375
1205.74951171875
1220.39794921875
1181.94580078125
1047.36328125
835.87646484375
592.34619140625
419.3115234375
281.982421875
183.10546875
121.76513671875
97.96142578125
87.890625
82.3974609375
70.49560546875
56.7626953125
49.4384765625
39.36767578125
32.04345703125
23.8037109375
20.1416015625
10.07080078125
2.74658203125
-8.23974609375
-12.8173828125
-10.07080078125
-10.07080078125
-15.56396484375
-17.39501953125
-13.73291015625
-4.57763671875
-12.8173828125
-8.23974609375
-4.57763671875
-9.1552734375
-8.23974609375
-3.662109375
-8.23974609375
-7.32421875
-12.8173828125
-5.4931640625
-7.32421875
-18.310546875
-10.986328125
-10.07080078125
-7.32421875
0
-8.23974609375
-2.74658203125
1.8310546875
17.39501953125
20.1416015625
14.6484375
15.56396484375
15.56396484375
4.57763671875
0
5.4931640625
18.310546875
18.310546875
8.23974609375
6.40869140625
25.634765625
26.55029296875
10.986328125
21.05712890625
33.87451171875
35.70556640625
32.958984375
44.86083984375
46.69189453125
42.1142578125
40.283203125
38.4521484375
37.53662109375
36.62109375
43.9453125
46.69189453125
46.69189453125
48.52294921875
56.7626953125
63.17138671875
73.2421875
67.7490234375
73.2421875
85.14404296875
91.552734375
85.14404296875
86.97509765625
90.63720703125
100.7080078125
94.29931640625
99.79248046875
98.876953125
102.5390625
112.60986328125
125.42724609375
130.92041015625
137.3291015625
145.56884765625
153.80859375
163.87939453125
167.54150390625
176.69677734375
183.10546875
192.2607421875
203.2470703125
201.416015625
203.2470703125
209.65576171875
212.40234375
216.064453125
227.96630859375
249.0234375
252.685546875
257.26318359375
261.8408203125
269.1650390625
267.333984375
265.5029296875
266.41845703125
270.99609375
282.89794921875
302.1240234375
297.54638671875
298.4619140625
298.4619140625
302.1240234375
301.20849609375
298.4619140625
298.4619140625
291.1376953125
284.72900390625
276.4892578125
267.333984375
258.1787109375
246.27685546875
235.29052734375
216.97998046875
207.82470703125
203.2470703125
200.50048828125
198.66943359375
184.9365234375
162.9638671875
139.16015625
124.51171875
115.3564453125
93.3837890625
85.14404296875
82.3974609375
67.7490234375
68.66455078125
64.0869140625
51.26953125
32.04345703125
31.1279296875
29.296875
16.4794921875
14.6484375
15.56396484375
10.07080078125
1.8310546875
2.74658203125
-3.662109375
-6.40869140625
-2.74658203125
-14.6484375
-14.6484375
-14.6484375
-14.6484375
-16.4794921875
-14.6484375
-19.22607421875
-16.4794921875
-9.1552734375
-6.40869140625
-1.8310546875
-4.57763671875
-1.8310546875
-4.57763671875
0.91552734375
1.8310546875
-4.57763671875
2.74658203125
6.40869140625
6.40869140625
4.57763671875
-1.8310546875
-0.91552734375
9.1552734375
10.986328125
2.74658203125
11.90185546875
-0.91552734375
0.91552734375
8.23974609375
4.57763671875
6.40869140625
7.32421875
11.90185546875
12.8173828125
3.662109375
10.986328125
1.8310546875
-5.4931640625
9.1552734375
8.23974609375
-11.90185546875
4.57763671875
-10.986328125
-7.32421875
-0.91552734375
10.07080078125
10.07080078125
11.90185546875
17.39501953125
11.90185546875
9.1552734375
11.90185546875
15.56396484375
17.39501953125
20.1416015625
25.634765625
10.986328125
3.662109375
7.32421875
12.8173828125
10.07080078125
3.662109375
-6.40869140625
-8.23974609375
0
-3.662109375
-4.57763671875
-2.74658203125
-7.32421875
2.74658203125
-1.8310546875
-3.662109375
-5.4931640625
-9.1552734375
-16.4794921875
-10.07080078125
1.8310546875
-0.91552734375
-5.4931640625
-9.1552734375
-15.56396484375
-10.07080078125
-4.57763671875
-12.8173828125
2.74658203125
6.40869140625
-5.4931640625
-10.07080078125
-7.32421875
-8.23974609375
-10.07080078125
-1.8310546875
-5.4931640625
-14.6484375
-12.8173828125
-20.1416015625
-21.97265625
-16.4794921875
-15.56396484375
-10.986328125
-12.8173828125
-5.4931640625
-12.8173828125
-7.32421875
-10.07080078125
-9.1552734375
-21.97265625
-25.634765625
-26.55029296875
-33.87451171875
-22.88818359375
-18.310546875
-27.4658203125
-27.4658203125
-26.55029296875
-13.73291015625
-18.310546875
-26.55029296875
-29.296875
-31.1279296875
-25.634765625
-25.634765625
-33.87451171875
-37.53662109375
-24.71923828125
-21.97265625
-28.38134765625
-35.70556640625
-41.19873046875
-41.19873046875
-26.55029296875
-8.23974609375
-5.4931640625
-11.90185546875
-15.56396484375
-12.8173828125
-16.4794921875
-23.8037109375
-25.634765625
-24.71923828125
-19.22607421875
-19.22607421875
-17.39501953125
-19.22607421875
-29.296875
-29.296875
-29.296875
-24.71923828125
-11.90185546875
-15.56396484375
-20.1416015625
-17.39501953125
-15.56396484375
-22.88818359375
-21.97265625
-21.97265625
-25.634765625
-28.38134765625
-25.634765625
-24.71923828125
-23.8037109375
-13.73291015625
-10.07080078125
-31.1279296875
-32.958984375
-31.1279296875
-27.4658203125
-28.38134765625
-20.1416015625
-15.56396484375
-15.56396484375
-9.1552734375
-16.4794921875
-29.296875
-26.55029296875
-15.56396484375
-30.21240234375
-28.38134765625
-14.6484375
4.57763671875
7.32421875
17.39501953125
16.4794921875
26.55029296875
31.1279296875
29.296875
38.4521484375
29.296875
29.296875
41.19873046875
42.1142578125
42.1142578125
30.21240234375
38.4521484375
34.7900390625
21.97265625
13.73291015625
5.4931640625
9.1552734375
13.73291015625
1.8310546875
5.4931640625
-4.57763671875
-7.32421875
-4.57763671875
-7.32421875
-19.22607421875
-28.38134765625
-22.88818359375
-25.634765625
-32.958984375
-23.8037109375
-21.05712890625
-29.296875
-23.8037109375
-18.310546875
-27.4658203125
-26.55029296875
-25.634765625
-24.71923828125
-23.8037109375
-29.296875
-31.1279296875
-28.38134765625
-26.55029296875
-35.70556640625
-34.7900390625
-33.87451171875
-39.36767578125
-42.1142578125
-44.86083984375
-32.958984375
-34.7900390625
-39.36767578125
-43.02978515625
-39.36767578125
-39.36767578125
-33.87451171875
-28.38134765625
-32.04345703125
-24.71923828125
-32.958984375
-44.86083984375
-49.4384765625
-40.283203125
-39.36767578125
-37.53662109375
-30.21240234375
-19.22607421875
-21.97265625
-20.1416015625
-11.90185546875
-11.90185546875
-29.296875
-28.38134765625
-33.87451171875
-35.70556640625
-33.87451171875
-44.86083984375
-66.83349609375
-77.81982421875
-65.00244140625
-52.18505859375
-27.4658203125
18.310546875
54.01611328125
131.8359375
262.75634765625
385.43701171875
483.3984375
583.19091796875
695.80078125
818.4814453125
945.73974609375
1052.8564453125
1134.33837890625
1189.27001953125
1206.6650390625
1203.91845703125
1127.9296875
932.92236328125
675.6591796875
474.2431640625
341.49169921875
240.78369140625
159.3017578125
130.92041015625
117.1875
103.45458984375
86.97509765625
90.63720703125
82.3974609375
57.67822265625
57.67822265625
38.4521484375
28.38134765625
25.634765625
21.05712890625
13.73291015625
17.39501953125
24.71923828125
21.05712890625
21.97265625
15.56396484375
13.73291015625
18.310546875
14.6484375
10.986328125
17.39501953125
12.8173828125
2.74658203125
8.23974609375
4.57763671875
9.1552734375
21.97265625
28.38134765625
15.56396484375
18.310546875
24.71923828125
32.958984375
36.62109375
28.38134765625
26.55029296875
27.4658203125
30.21240234375
29.296875
15.56396484375
21.97265625
24.71923828125
23.8037109375
25.634765625
34.7900390625
23.8037109375
25.634765625
31.1279296875
32.958984375
29.296875
38.4521484375
44.86083984375
39.36767578125
43.9453125
50.35400390625
53.1005859375
54.01611328125
47.607421875
48.52294921875
55.84716796875
58.59375
60.4248046875
59.50927734375
56.7626953125
61.34033203125
70.49560546875
75.0732421875
86.0595703125
83.31298828125
78.7353515625
80.56640625
85.14404296875
95.21484375
99.79248046875
101.62353515625
105.28564453125
113.525390625
113.525390625
121.76513671875
110.77880859375
113.525390625
121.76513671875
126.3427734375
128.173828125
138.24462890625
152.89306640625
162.04833984375
177.6123046875
180.35888671875
178.52783203125
175.78125
191.34521484375
205.078125
208.740234375
211.48681640625
218.81103515625
226.13525390625
236.2060546875
243.5302734375
234.375
252.685546875
264.58740234375
264.58740234375
270.08056640625
280.1513671875
286.56005859375
294.7998046875
292.05322265625
289.306640625
292.96875
296.630859375
298.4619140625
314.02587890625
328.67431640625
326.84326171875
321.35009765625
322.265625
328.67431640625
325.01220703125
325.01220703125
332.33642578125
331.4208984375
325.927734375
314.02587890625
312.19482421875
302.1240234375
288.39111328125
277.40478515625
256.34765625
235.29052734375
218.81103515625
209.65576171875
197.75390625
177.6123046875
174.86572265625
156.55517578125
132.75146484375
121.76513671875
118.10302734375
108.0322265625
94.29931640625
82.3974609375
80.56640625
71.4111328125
62.255859375
61.34033203125
45.7763671875
34.7900390625
35.70556640625
42.1142578125
33.87451171875
31.1279296875
18.310546875
24.71923828125
13.73291015625
17.39501953125
19.22607421875
25.634765625
26.55029296875
26.55029296875
10.986328125
2.74658203125
1.8310546875
18.310546875
17.39501953125
23.8037109375
32.958984375
29.296875
15.56396484375
8.23974609375
18.310546875
17.39501953125
7.32421875
11.90185546875
10.986328125
14.6484375
18.310546875
13.73291015625
21.05712890625
12.8173828125
15.56396484375
17.39501953125
14.6484375
21.05712890625
31.1279296875
27.4658203125
30.21240234375
28.38134765625
21.05712890625
15.56396484375
21.05712890625
19.22607421875
25.634765625
25.634765625
24.71923828125
17.39501953125
26.55029296875
24.71923828125
23.8037109375
25.634765625
28.38134765625
20.1416015625
25.634765625
31.1279296875
39.36767578125
32.958984375
32.04345703125
27.4658203125
25.634765625
25.634765625
17.39501953125
22.88818359375
21.05712890625
6.40869140625
13.73291015625
21.97265625
32.958984375
25.634765625
25.634765625
21.97265625
23.8037109375
24.71923828125
19.22607421875
18.310546875
12.8173828125
21.05712890625
17.39501953125
22.88818359375
23.8037109375
20.1416015625
25.634765625
24.71923828125
15.56396484375
13.73291015625
18.310546875
18.310546875
15.56396484375
10.07080078125
15.56396484375
-6.40869140625
10.07080078125
1.8310546875
0
2.74658203125
9.1552734375
10.07080078125
16.4794921875
16.4794921875
15.56396484375
14.6484375
11.90185546875
10.986328125
-7.32421875
6.40869140625
5.4931640625
4.57763671875
10.07080078125
16.4794921875
6.40869140625
-3.662109375
-0.91552734375
11.90185546875
10.07080078125
-1.8310546875
-0.91552734375
-10.986328125
-9.1552734375
-17.39501953125
-10.07080078125
-10.986328125
-5.4931640625
0
0
-9.1552734375
3.662109375
0.91552734375
-3.662109375
10.07080078125
6.40869140625
9.1552734375
-2.74658203125
-1.8310546875
-7.32421875
-16.4794921875
-11.90185546875
-15.56396484375
-18.310546875
-17.39501953125
-4.57763671875
7.32421875
12.8173828125
10.07080078125
2.74658203125
-0.91552734375
-12.8173828125
-16.4794921875
-18.310546875
-21.97265625
-13.73291015625
-17.39501953125
-17.39501953125
-20.1416015625
-21.05712890625
-11.90185546875
0
-6.40869140625
-12.8173828125
0.91552734375
-7.32421875
-19.22607421875
-4.57763671875
-14.6484375
-14.6484375
-5.4931640625
-19.22607421875
-20.1416015625
-21.05712890625
-10.07080078125
-4.57763671875
-11.90185546875
-10.07080078125
-5.4931640625
-8.23974609375
-12.8173828125
-10.07080078125
-9.1552734375
-9.1552734375
-7.32421875
-6.40869140625
-9.1552734375
-7.32421875
-11.90185546875
-13.73291015625
-21.05712890625
-18.310546875
-17.39501953125
-19.22607421875
-11.90185546875
-8.23974609375
-6.40869140625
-4.57763671875
0
-6.40869140625
-11.90185546875
-9.1552734375
-14.6484375
-19.22607421875
-18.310546875
-17.39501953125
-21.97265625
-33.87451171875
-26.55029296875
-4.57763671875
12.8173828125
37.53662109375
39.36767578125
51.26953125
51.26953125
49.4384765625
41.19873046875
44.86083984375
58.59375
61.34033203125
61.34033203125
55.84716796875
56.7626953125
46.69189453125
40.283203125
33.87451171875
25.634765625
26.55029296875
23.8037109375
19.22607421875
19.22607421875
18.310546875
11.90185546875
-1.8310546875
-8.23974609375
-13.73291015625
-18.310546875
-18.310546875
-12.8173828125
-12.8173828125
-16.4794921875
-24.71923828125
-13.73291015625
-10.07080078125
-8.23974609375
-15.56396484375
-19.22607421875
-21.97265625
-21.05712890625
-15.56396484375
-20.1416015625
-17.39501953125
-17.39501953125
-10.986328125
-2.74658203125
-3.662109375
-3.662109375
-11.90185546875
-16.4794921875
-15.56396484375
-17.39501953125
-15.56396484375
-11.90185546875
-8.23974609375
-11.90185546875
-10.07080078125
-12.8173828125
-15.56396484375
-11.90185546875
-28.38134765625
-22.88818359375
-8.23974609375
-11.90185546875
-12.8173828125
-7.32421875
-7.32421875
-12.8173828125
-8.23974609375
-3.662109375
-0.91552734375
-5.4931640625
9.1552734375
7.32421875
-6.40869140625
-13.73291015625
-11.90185546875
-24.71923828125
-28.38134765625
-43.9453125
-57.67822265625
-45.7763671875
-41.19873046875
-16.4794921875
12.8173828125
55.84716796875
127.25830078125
236.2060546875
350.64697265625
462.34130859375
568.54248046875
671.9970703125
808.41064453125
946.6552734375
1047.36328125
1138.00048828125
1193.84765625
1214.90478515625
1205.74951171875
1152.64892578125
990.6005859375
742.49267578125
509.94873046875
356.14013671875
254.5166015625
187.68310546875
163.87939453125
141.90673828125
129.08935546875
114.44091796875
108.0322265625
100.7080078125
86.0595703125
60.4248046875
59.50927734375
64.0869140625
56.7626953125
51.26953125
43.02978515625
45.7763671875
38.4521484375
25.634765625
21.05712890625
29.296875
32.958984375
27.4658203125
31.1279296875
21.97265625
18.310546875
22.88818359375
21.05712890625
24.71923828125
23.8037109375
21.05712890625
32.04345703125
32.958984375
30.21240234375
25.634765625
32.958984375
44.86083984375
41.19873046875
30.21240234375
31.1279296875
36.62109375
36.62109375
35.70556640625
37.53662109375
35.70556640625
37.53662109375
39.36767578125
44.86083984375
44.86083984375
47.607421875
58.59375
47.607421875
51.26953125
44.86083984375
43.02978515625
45.7763671875
38.4521484375
47.607421875
49.4384765625
64.0869140625
67.7490234375
62.255859375
60.4248046875
69.580078125
74.15771484375
70.49560546875
76.904296875
78.7353515625
75.0732421875
71.4111328125
70.49560546875
69.580078125
76.904296875
86.0595703125
95.21484375
92.46826171875
98.876953125
99.79248046875
105.28564453125
102.5390625
107.11669921875
116.27197265625
126.3427734375
124.51171875
122.6806640625
130.92041015625
137.3291015625
140.07568359375
145.56884765625
143.73779296875
155.6396484375
172.119140625
174.86572265625
175.78125
179.443359375
182.18994140625
193.17626953125
199.5849609375
214.2333984375
216.97998046875
215.14892578125
228.8818359375
243.5302734375
253.60107421875
255.43212890625
253.60107421875
259.09423828125
266.41845703125
277.40478515625
281.982421875
291.1376953125
283.8134765625
288.39111328125
294.7998046875
304.87060546875
311.279296875
311.279296875
315.85693359375
316.7724609375
324.0966796875
319.51904296875
316.7724609375
323.18115234375
335.0830078125
336.9140625
326.84326171875
325.927734375
316.7724609375
302.1240234375
300.29296875
292.96875
281.06689453125
263.671875
255.43212890625
233.45947265625
216.97998046875
201.416015625
192.2607421875
183.10546875
172.119140625
151.9775390625
129.08935546875
132.75146484375
120.849609375
108.0322265625
86.0595703125
85.14404296875
78.7353515625
69.580078125
64.0869140625
50.35400390625
41.19873046875
42.1142578125
37.53662109375
25.634765625
13.73291015625
7.32421875
21.05712890625
21.05712890625
17.39501953125
16.4794921875
13.73291015625
22.88818359375
32.04345703125
21.97265625
33.87451171875
26.55029296875
11.90185546875
10.986328125
12.8173828125
10.986328125
6.40869140625
11.90185546875
21.97265625
22.88818359375
16.4794921875
10.07080078125
4.57763671875
0.91552734375
0.91552734375
13.73291015625
16.4794921875
20.1416015625
24.71923828125
17.39501953125
20.1416015625
21.97265625
22.88818359375
30.21240234375
16.4794921875
15.56396484375
18.310546875
30.21240234375
19.22607421875
4.57763671875
15.56396484375
19.22607421875
16.4794921875
22.88818359375
27.4658203125
32.04345703125
30.21240234375
20.1416015625
17.39501953125
8.23974609375
8.23974609375
10.07080078125
11.90185546875
17.39501953125
20.1416015625
13.73291015625
21.97265625
22.88818359375
22.88818359375
32.04345703125
34.7900390625
29.296875
31.1279296875
30.21240234375
21.05712890625
22.88818359375
21.05712890625
18.310546875
17.39501953125
13.73291015625
13.73291015625
12.8173828125
25.634765625
20.1416015625
21.97265625
24.71923828125
19.22607421875
10.986328125
15.56396484375
9.1552734375
3.662109375
5.4931640625
2.74658203125
1.8310546875
9.1552734375
16.4794921875
22.88818359375
11.90185546875
0
0.91552734375
-3.662109375
-1.8310546875
0.91552734375
2.74658203125
-4.57763671875
-8.23974609375
-10.986328125
3.662109375
12.8173828125
6.40869140625
-8.23974609375
-0.91552734375
12.8173828125
2.74658203125
0.91552734375
0.91552734375
-1.8310546875
9.1552734375
-0.91552734375
-13.73291015625
-13.73291015625
-10.986328125
-4.57763671875
-9.1552734375
-8.23974609375
-2.74658203125
-4.57763671875
5.4931640625
4.57763671875
-1.8310546875
-16.4794921875
-8.23974609375
-8.23974609375
-11.90185546875
-10.986328125
-4.57763671875
-3.662109375
-10.07080078125
-14.6484375
-10.986328125
-18.310546875
-12.8173828125
-10.986328125
-2.74658203125
-9.1552734375
-6.40869140625
-11.90185546875
-8.23974609375
-2.74658203125
-10.07080078125
-20.1416015625
-12.8173828125
-12.8173828125
-11.90185546875
-6.40869140625
-3.662109375
-3.662109375
-4.57763671875
1.8310546875
-4.57763671875
1.8310546875
-4.57763671875
-4.57763671875
-7.32421875
-15.56396484375
-3.662109375
-16.4794921875
-25.634765625
-14.6484375
-13.73291015625
-7.32421875
-1.8310546875
-1.8310546875
-8.23974609375
-4.57763671875
0.91552734375
-16.4794921875
-20.1416015625
-10.986328125
-17.39501953125
-25.634765625
-12.8173828125
-17.39501953125
-15.56396484375
-9.1552734375
-8.23974609375
-10.07080078125
-5.4931640625
-9.1552734375
-6.40869140625
-8.23974609375
-13.73291015625
-14.6484375
-8.23974609375
-4.57763671875
-6.40869140625
-15.56396484375
-27.4658203125
-21.05712890625
-12.8173828125
-8.23974609375
-7.32421875
-19.22607421875
-22.88818359375
-11.90185546875
4.57763671875
7.32421875
17.39501953125
41.19873046875
45.7763671875
43.9453125
41.19873046875
39.36767578125
59.50927734375
56.7626953125
57.67822265625
45.7763671875
46.69189453125
44.86083984375
39.36767578125
29.296875
22.88818359375
24.71923828125
23.8037109375
18.310546875
18.310546875
9.1552734375
15.56396484375
6.40869140625
1.8310546875
-9.1552734375
2.74658203125
-21.05712890625
-19.22607421875
-20.1416015625
-3.662109375
-5.4931640625
-2.74658203125
0.91552734375
-0.91552734375
-10.986328125
-15.56396484375
-12.8173828125
-12.8173828125
-25.634765625
-15.56396484375
-10.07080078125
-0.91552734375
-8.23974609375
-18.310546875
-23.8037109375
-24.71923828125
-21.97265625
-20.1416015625
-13.73291015625
-9.1552734375
-19.22607421875
-9.1552734375
-10.986328125
-12.8173828125
-16.4794921875
-17.39501953125
-8.23974609375
-6.40869140625
-9.1552734375
-9.1552734375
-10.986328125
-10.07080078125
-4.57763671875
-5.4931640625
-9.1552734375
-15.56396484375
-10.986328125
-10.986328125
-6.40869140625
-4.57763671875
-7.32421875
-7.32421875
-12.8173828125
-27.4658203125
-43.02978515625
-58.59375
-61.34033203125
-52.18505859375
-37.53662109375
-8.23974609375
30.21240234375
81.48193359375
164.794921875
282.89794921875
393.6767578125
496.2158203125
585.9375
692.138671875
834.04541015625
957.6416015625
1057.43408203125
1139.83154296875
1195.6787109375
1216.73583984375
1199.3408203125
1099.54833984375
905.45654296875
650.93994140625
487.060546875
336.9140625
210.5712890625
154.72412109375
129.08935546875
114.44091796875
97.96142578125
83.31298828125
83.31298828125
74.15771484375
64.0869140625
42.1142578125
39.36767578125
44.86083984375
38.4521484375
28.38134765625
28.38134765625
20.1416015625
15.56396484375
10.986328125
13.73291015625
10.07080078125
5.4931640625
-4.57763671875
10.07080078125
15.56396484375
22.88818359375
21.05712890625
16.4794921875
19.22607421875
20.1416015625
25.634765625
25.634765625
21.97265625
25.634765625
24.71923828125
21.05712890625
21.97265625
19.22607421875
18.310546875
26.55029296875
12.8173828125
14.6484375
16.4794921875
18.310546875
6.40869140625
4.57763671875
13.73291015625
36.62109375
41.19873046875
37.53662109375
43.9453125
37.53662109375
37.53662109375
32.958984375
30.21240234375
31.1279296875
26.55029296875
13.73291015625
35.70556640625
57.67822265625
56.7626953125
50.35400390625
58.59375
65.91796875
64.0869140625
53.1005859375
63.17138671875
66.83349609375
59.50927734375
64.0869140625
74.15771484375
78.7353515625
69.580078125
74.15771484375
70.49560546875
76.904296875
99.79248046875
102.5390625
95.21484375
103.45458984375
111.6943359375
106.201171875
116.27197265625
124.51171875
126.3427734375
128.173828125
135.498046875
145.56884765625
147.39990234375
138.24462890625
146.484375
153.80859375
171.20361328125
186.767578125
184.9365234375
188.5986328125
186.767578125
196.83837890625
209.65576171875
213.31787109375
227.05078125
234.375
236.2060546875
242.61474609375
244.44580078125
241.69921875
243.5302734375
248.10791015625
265.5029296875
275.57373046875
278.3203125
282.89794921875
282.89794921875
299.37744140625
303.955078125
304.87060546875
304.87060546875
314.02587890625
321.35009765625
321.35009765625
314.94140625
320.4345703125
327.7587890625
328.67431640625
311.279296875
324.0966796875
330.50537109375
315.85693359375
286.56005859375
289.306640625
282.89794921875
270.99609375
249.0234375
233.45947265625
225.2197265625
203.2470703125
193.17626953125
174.86572265625
161.1328125
148.3154296875
135.498046875
112.60986328125
108.94775390625
106.201171875
95.21484375
89.7216796875
78.7353515625
75.98876953125
64.0869140625
57.67822265625
64.0869140625
54.01611328125
43.9453125
37.53662109375
33.87451171875
34.7900390625
22.88818359375
17.39501953125
17.39501953125
21.97265625
21.97265625
18.310546875
13.73291015625
22.88818359375
15.56396484375
3.662109375
6.40869140625
11.90185546875
32.04345703125
22.88818359375
10.986328125
15.56396484375
23.8037109375
17.39501953125
11.90185546875
0.91552734375
13.73291015625
15.56396484375
22.88818359375
21.97265625
14.6484375
21.97265625
28.38134765625
21.05712890625
15.56396484375
11.90185546875
24.71923828125
25.634765625
25.634765625
26.55029296875
29.296875
28.38134765625
24.71923828125
36.62109375
27.4658203125
19.22607421875
29.296875
18.310546875
25.634765625
32.958984375
24.71923828125
29.296875
24.71923828125
25.634765625
34.7900390625
32.958984375
31.1279296875
33.87451171875
33.87451171875
28.38134765625
14.6484375
11.90185546875
21.05712890625
21.05712890625
26.55029296875
19.22607421875
10.986328125
16.4794921875
13.73291015625
21.97265625
29.296875
24.71923828125
24.71923828125
17.39501953125
11.90185546875
13.73291015625
15.56396484375
21.97265625
22.88818359375
26.55029296875
24.71923828125
24.71923828125
16.4794921875
15.56396484375
15.56396484375
24.71923828125
19.22607421875
18.310546875
12.8173828125
23.8037109375
16.4794921875
11.90185546875
12.8173828125
10.07080078125
9.1552734375
0
-0.91552734375
0.91552734375
9.1552734375
12.8173828125
4.57763671875
-6.40869140625
-0.91552734375
0.91552734375
-2.74658203125
0.91552734375
-2.74658203125
3.662109375
-0.91552734375
1.8310546875
0.91552734375
-0.91552734375
-3.662109375
3.662109375
3.662109375
-1.8310546875
-1.8310546875
-2.74658203125
-1.8310546875
-2.74658203125
0.91552734375
5.4931640625
0
-5.4931640625
-4.57763671875
-0.91552734375
-2.74658203125
-6.40869140625
-10.07080078125
-1.8310546875
0
0
0
-3.662109375
-8.23974609375
-16.4794921875
-20.1416015625
-17.39501953125
-11.90185546875
-4.57763671875
-0.91552734375
0
7.32421875
21.05712890625
2.74658203125
-1.8310546875
-6.40869140625
-3.662109375
-2.74658203125
-7.32421875
-2.74658203125
7.32421875
6.40869140625
7.32421875
17.39501953125
11.90185546875
11.90185546875
-5.4931640625
-11.90185546875
-5.4931640625
-2.74658203125
-3.662109375
0
4.57763671875
-7.32421875
-11.90185546875
5.4931640625
37.53662109375
47.607421875
44.86083984375
50.35400390625
59.50927734375
54.931640625
54.01611328125
57.67822265625
54.931640625
55.84716796875
65.00244140625
64.0869140625
56.7626953125
54.01611328125
42.1142578125
36.62109375
26.55029296875
31.1279296875
24.71923828125
19.22607421875
24.71923828125
25.634765625
17.39501953125
12.8173828125
11.90185546875
4.57763671875
-9.1552734375
-14.6484375
-12.8173828125
-19.22607421875
-2.74658203125
-1.8310546875
-1.8310546875
-3.662109375
-4.57763671875
-14.6484375
-12.8173828125
-11.90185546875
-15.56396484375
-32.04345703125
-26.55029296875
-16.4794921875
-14.6484375
-16.4794921875
-28.38134765625
-21.05712890625
-10.07080078125
-11.90185546875
-15.56396484375
-24.71923828125
-23.8037109375
-15.56396484375
-19.22607421875
-14.6484375
-21.97265625
-21.05712890625
-12.8173828125
-1.8310546875
-20.1416015625
-23.8037109375
-11.90185546875
-16.4794921875
-24.71923828125
-18.310546875
-10.07080078125
-12.8173828125
-7.32421875
-4.57763671875
-19.22607421875
-21.97265625
-21.97265625
-23.8037109375
-29.296875
-36.62109375
-48.52294921875
-69.580078125
-64.0869140625
-54.01611328125
-48.52294921875
-19.22607421875
4.57763671875
32.04345703125
106.201171875
227.96630859375
342.4072265625
443.115234375
546.56982421875
654.60205078125
782.77587890625
921.0205078125
1031.79931640625
1126.0986328125
1187.43896484375
1221.3134765625
1212.158203125
1155.3955078125
994.2626953125
763.5498046875
546.56982421875
398.25439453125
271.91162109375
180.35888671875
151.9775390625
142.822265625
123.59619140625
101.62353515625
92.46826171875
86.0595703125
77.81982421875
62.255859375
55.84716796875
51.26953125
40.283203125
38.4521484375
26.55029296875
18.310546875
22.88818359375
13.73291015625
5.4931640625
11.90185546875
23.8037109375
13.73291015625
17.39501953125
23.8037109375
22.88818359375
11.90185546875
17.39501953125
15.56396484375
0
12.8173828125
13.73291015625
15.56396484375
13.73291015625
16.4794921875
15.56396484375
18.310546875
18.310546875
23.8037109375
17.39501953125
23.8037109375
22.88818359375
19.22607421875
17.39501953125
29.296875
33.87451171875
34.7900390625
25.634765625
32.04345703125
26.55029296875
10.986328125
15.56396484375
32.958984375
33.87451171875
36.62109375
45.7763671875
42.1142578125
43.02978515625
50.35400390625
50.35400390625
49.4384765625
54.931640625
56.7626953125
58.59375
66.83349609375
65.91796875
56.7626953125
54.931640625
61.34033203125
63.17138671875
65.00244140625
69.580078125
64.0869140625
70.49560546875
79.65087890625
80.56640625
83.31298828125
87.890625
91.552734375
93.3837890625
107.11669921875
103.45458984375
102.5390625
112.60986328125
124.51171875
125.42724609375
129.08935546875
136.41357421875
137.3291015625
144.6533203125
150.146484375
154.72412109375
154.72412109375
153.80859375
169.37255859375
172.119140625
174.86572265625
176.69677734375
180.35888671875
196.83837890625
206.9091796875
218.81103515625
220.64208984375
244.44580078125
257.26318359375
259.09423828125
265.5029296875
260.92529296875
271.91162109375
270.08056640625
266.41845703125
284.72900390625
289.306640625
296.630859375
303.03955078125
306.70166015625
302.1240234375
312.19482421875
313.1103515625
306.70166015625
311.279296875
314.02587890625
308.53271484375
312.19482421875
309.4482421875
313.1103515625
305.7861328125
285.64453125
274.658203125
268.24951171875
266.41845703125
247.1923828125
229.79736328125
219.7265625
200.50048828125
184.02099609375
171.20361328125
164.794921875
145.56884765625
126.3427734375
119.93408203125
114.44091796875
111.6943359375
102.5390625
79.65087890625
69.580078125
60.4248046875
50.35400390625
42.1142578125
32.958984375
15.56396484375
15.56396484375
24.71923828125
24.71923828125
24.71923828125
24.71923828125
18.310546875
14.6484375
11.90185546875
6.40869140625
-2.74658203125
0
-9.1552734375
-13.73291015625
-15.56396484375
-14.6484375
-12.8173828125
-10.07080078125
4.57763671875
2.74658203125
1.8310546875
3.662109375
-0.91552734375
-4.57763671875
-3.662109375
-1.8310546875
-7.32421875
-12.8173828125
-8.23974609375
-11.90185546875
-8.23974609375
-6.40869140625
-7.32421875
7.32421875
0.91552734375
0
3.662109375
4.57763671875
0.91552734375
-4.57763671875
-3.662109375
-1.8310546875
-4.57763671875
-10.07080078125
-3.662109375
1.8310546875
0.91552734375
1.8310546875
13.73291015625
10.986328125
13.73291015625
12.8173828125
5.4931640625
4.57763671875
13.73291015625
12.8173828125
9.1552734375
5.4931640625
8.23974609375
4.57763671875
1.8310546875
-7.32421875
0
9.1552734375
6.40869140625
7.32421875
4.57763671875
1.8310546875
-0.91552734375
-5.4931640625
-10.07080078125
0.91552734375
-4.57763671875
-2.74658203125
3.662109375
4.57763671875
-0.91552734375
-5.4931640625
-4.57763671875
-15.56396484375
-13.73291015625
-9.1552734375
-9.1552734375
-13.73291015625
-1.8310546875
-3.662109375
-2.74658203125
-5.4931640625
-10.986328125
-10.07080078125
0.91552734375
-3.662109375
-10.986328125
-6.40869140625
-9.1552734375
-8.23974609375
-12.8173828125
-10.07080078125
-19.22607421875
-25.634765625
-21.97265625
-19.22607421875
-19.22607421875
-20.1416015625
-11.90185546875
-16.4794921875
-27.4658203125
-30.21240234375
-20.1416015625
-17.39501953125
-10.986328125
-7.32421875
-20.1416015625
-26.55029296875
-18.310546875
-20.1416015625
-20.1416015625
-17.39501953125
-4.57763671875
-9.1552734375
-20.1416015625
-21.97265625
-21.05712890625
-30.21240234375
-29.296875
-24.71923828125
-32.04345703125
-37.53662109375
-36.62109375
-46.69189453125
-35.70556640625
-30.21240234375
-24.71923828125
-27.4658203125
-21.05712890625
-10.986328125
-23.8037109375
-31.1279296875
-23.8037109375
-11.90185546875
-25.634765625
-29.296875
-23.8037109375
-29.296875
-30.21240234375
-26.55029296875
-21.05712890625
-21.97265625
-17.39501953125
-21.05712890625
-26.55029296875
-29.296875
-27.4658203125
-19.22607421875
-17.39501953125
-15.56396484375
-26.55029296875
-23.8037109375
-15.56396484375
-20.1416015625
-27.4658203125
-40.283203125
-30.21240234375
-32.04345703125
-29.296875
-18.310546875
-14.6484375
-15.56396484375
-10.986328125
-24.71923828125
-18.310546875
-2.74658203125
11.90185546875
23.8037109375
23.8037109375
23.8037109375
23.8037109375
20.1416015625
3.662109375
-6.40869140625
-3.662109375
15.56396484375
29.296875
55.84716796875
56.7626953125
53.1005859375
54.931640625
52.18505859375
55.84716796875
56.7626953125
47.607421875
42.1142578125
35.70556640625
29.296875
21.05712890625
13.73291015625
9.1552734375
24.71923828125
17.39501953125
9.1552734375
-0.91552734375
-8.23974609375
-17.39501953125
-14.6484375
-25.634765625
-32.958984375
-43.9453125
-39.36767578125
-34.7900390625
-32.04345703125
-25.634765625
-20.1416015625
-16.4794921875
-23.8037109375
-25.634765625
-24.71923828125
-32.04345703125
-36.62109375
-39.36767578125
-43.02978515625
-42.1142578125
-43.9453125
-46.69189453125
-39.36767578125
-38.4521484375
-45.7763671875
-40.283203125
-45.7763671875
-47.607421875
-43.02978515625
-43.02978515625
-39.36767578125
-34.7900390625
-39.36767578125
-43.9453125
-45.7763671875
-49.4384765625
-49.4384765625
-33.87451171875
-28.38134765625
-35.70556640625
-45.7763671875
-36.62109375
-35.70556640625
-32.958984375
-31.1279296875
-30.21240234375
-34.7900390625
-31.1279296875
-32.958984375
-43.9453125
-40.283203125
-34.7900390625
-46.69189453125
-50.35400390625
-51.26953125
-62.255859375
-76.904296875
-84.228515625
-84.228515625
-71.4111328125
-33.87451171875
-0.91552734375
54.931640625
161.1328125
299.37744140625
402.83203125
509.033203125
607.91015625
723.2666015625
852.35595703125
974.12109375
1070.25146484375
1144.4091796875
1186.5234375
1192.93212890625
1166.3818359375
1041.8701171875
832.21435546875
573.1201171875
402.83203125
281.982421875
181.2744140625
135.498046875
128.173828125
108.0322265625
92.46826171875
89.7216796875
73.2421875
55.84716796875
46.69189453125
36.62109375
24.71923828125
17.39501953125
20.1416015625
13.73291015625
10.07080078125
-3.662109375
4.57763671875
9.1552734375
11.90185546875
13.73291015625
14.6484375
16.4794921875
22.88818359375
10.986328125
15.56396484375
10.986328125
1.8310546875
0.91552734375
3.662109375
0
0.91552734375
9.1552734375
2.74658203125
-2.74658203125
2.74658203125
9.1552734375
10.986328125
16.4794921875
17.39501953125
20.1416015625
21.97265625
23.8037109375
26.55029296875
17.39501953125
21.97265625
15.56396484375
21.05712890625
16.4794921875
15.56396484375
22.88818359375
23.8037109375
22.88818359375
7.32421875
18.310546875
20.1416015625
6.40869140625
21.05712890625
30.21240234375
18.310546875
36.62109375
40.283203125
43.9453125
47.607421875
43.9453125
38.4521484375
51.26953125
54.01611328125
53.1005859375
47.607421875
54.01611328125
59.50927734375
73.2421875
76.904296875
74.15771484375
74.15771484375
80.56640625
88.80615234375
84.228515625
87.890625
95.21484375
97.0458984375
107.11669921875
121.76513671875
112.60986328125
113.525390625
116.27197265625
127.25830078125
133.6669921875
132.75146484375
140.07568359375
155.6396484375
165.71044921875
162.9638671875
162.9638671875
173.03466796875
186.767578125
187.68310546875
196.83837890625
201.416015625
207.82470703125
218.81103515625
229.79736328125
231.62841796875
235.29052734375
247.1923828125
240.78369140625
264.58740234375
264.58740234375
260.92529296875
268.24951171875
283.8134765625
282.89794921875
292.05322265625
284.72900390625
270.08056640625
288.39111328125
303.03955078125
307.6171875
313.1103515625
311.279296875
310.36376953125
318.603515625
322.265625
315.85693359375
303.03955078125
300.29296875
296.630859375
288.39111328125
269.1650390625
257.26318359375
243.5302734375
216.064453125
208.740234375
198.66943359375
184.02099609375
182.18994140625
174.86572265625
151.9775390625
138.24462890625
130.0048828125
122.6806640625
105.28564453125
94.29931640625
73.2421875
62.255859375
49.4384765625
46.69189453125
48.52294921875
27.4658203125
21.05712890625
23.8037109375
17.39501953125
10.986328125
11.90185546875
9.1552734375
9.1552734375
9.1552734375
4.57763671875
7.32421875
20.1416015625
16.4794921875
13.73291015625
13.73291015625
13.73291015625
7.32421875
11.90185546875
12.8173828125
-0.91552734375
-4.57763671875
0
1.8310546875
3.662109375
9.1552734375
20.1416015625
12.8173828125
17.39501953125
15.56396484375
4.57763671875
-4.57763671875
-3.662109375
7.32421875
6.40869140625
12.8173828125
13.73291015625
14.6484375
8.23974609375
2.74658203125
6.40869140625
1.8310546875
-9.1552734375
-2.74658203125
-0.91552734375
-5.4931640625
11.90185546875
15.56396484375
8.23974609375
6.40869140625
19.22607421875
15.56396484375
17.39501953125
8.23974609375
7.32421875
18.310546875
15.56396484375
14.6484375
21.05712890625
19.22607421875
13.73291015625
13.73291015625
1.8310546875
6.40869140625
14.6484375
19.22607421875
11.90185546875
5.4931640625
6.40869140625
11.90185546875
6.40869140625
-2.74658203125
-7.32421875
-2.74658203125
-7.32421875
9.1552734375
0.91552734375
10.07080078125
5.4931640625
11.90185546875
10.986328125
6.40869140625
-3.662109375
2.74658203125
1.8310546875
2.74658203125
1.8310546875
1.8310546875
0
0.91552734375
0
0.91552734375
2.74658203125
3.662109375
11.90185546875
10.986328125
10.07080078125
0.91552734375
-5.4931640625
3.662109375
-14.6484375
-17.39501953125
-18.310546875
-24.71923828125
-37.53662109375
-23.8037109375
-17.39501953125
-15.56396484375
-8.23974609375
0
0.91552734375
0
1.8310546875
2.74658203125
-5.4931640625
-0.91552734375
-4.57763671875
3.662109375
3.662109375
1.8310546875
-4.57763671875
-4.57763671875
-15.56396484375
-10.986328125
-10.07080078125
-5.4931640625
-27.4658203125
-21.05712890625
-15.56396484375
-24.71923828125
-12.8173828125
-18.310546875
-21.97265625
-14.6484375
-26.55029296875
-24.71923828125
-32.958984375
-24.71923828125
-16.4794921875
-10.986328125
-3.662109375
-2.74658203125
-0.91552734375
-14.6484375
-13.73291015625
-11.90185546875
-17.39501953125
-11.90185546875
-17.39501953125
-32.04345703125
-27.4658203125
-21.05712890625
-19.22607421875
-12.8173828125
-9.1552734375
-11.90185546875
-13.73291015625
-9.1552734375
-9.1552734375
-12.8173828125
-16.4794921875
-22.88818359375
-21.97265625
-25.634765625
-14.6484375
-16.4794921875
-21.97265625
-15.56396484375
-16.4794921875
-11.90185546875
-18.310546875
-22.88818359375
-16.4794921875
-21.05712890625
-24.71923828125
-26.55029296875
-31.1279296875
-31.1279296875
-26.55029296875
-33.87451171875
-20.1416015625
-12.8173828125
29.296875
37.53662109375
29.296875
5.4931640625
0
21.05712890625
19.22607421875
21.05712890625
19.22607421875
28.38134765625
40.283203125
44.86083984375
40.283203125
36.62109375
49.4384765625
46.69189453125
43.02978515625
27.4658203125
32.958984375
35.70556640625
26.55029296875
20.1416015625
6.40869140625
9.1552734375
6.40869140625
0
8.23974609375
-11.90185546875
-29.296875
-39.36767578125
-34.7900390625
-39.36767578125
-42.1142578125
-27.4658203125
-31.1279296875
-23.8037109375
-19.22607421875
-20.1416015625
-25.634765625
-36.62109375
-37.53662109375
-43.9453125
-45.7763671875
-37.53662109375
-32.958984375
-58.59375
-53.1005859375
-54.931640625
-54.01611328125
-49.4384765625
-53.1005859375
-48.52294921875
-32.04345703125
-32.04345703125
-35.70556640625
-49.4384765625
-36.62109375
-40.283203125
-52.18505859375
-32.958984375
-33.87451171875
-36.62109375
-46.69189453125
-52.18505859375
-52.18505859375
-45.7763671875
-33.87451171875
-49.4384765625
-55.84716796875
-58.59375
-58.59375
-52.18505859375
-51.26953125
-51.26953125
-43.9453125
-46.69189453125
-47.607421875
-43.9453125
-53.1005859375
-54.931640625
-58.59375
-65.00244140625
-86.97509765625
-102.5390625
-90.63720703125
-83.31298828125
-61.34033203125
-37.53662109375
-7.32421875
52.18505859375
141.90673828125
265.5029296875
378.11279296875
495.30029296875
591.4306640625
710.44921875
853.271484375
962.21923828125
1060.1806640625
1134.33837890625
1174.62158203125
1185.60791015625
1163.63525390625
1037.29248046875
828.55224609375
571.2890625
398.25439453125
281.982421875
181.2744140625
117.1875
99.79248046875
93.3837890625
83.31298828125
74.15771484375
68.66455078125
55.84716796875
47.607421875
28.38134765625
16.4794921875
18.310546875
6.40869140625
-10.07080078125
-12.8173828125
-7.32421875
1.8310546875
-5.4931640625
-15.56396484375
-16.4794921875
-21.05712890625
-17.39501953125
-20.1416015625
-10.986328125
-1.8310546875
5.4931640625
-0.91552734375
5.4931640625
10.986328125
-6.40869140625
-10.986328125
-14.6484375
-18.310546875
-10.986328125
-9.1552734375
-4.57763671875
-4.57763671875
-3.662109375
13.73291015625
25.634765625
11.90185546875
4.57763671875
4.57763671875
3.662109375
7.32421875
15.56396484375
16.4794921875
4.57763671875
2.74658203125
6.40869140625
16.4794921875
0.91552734375
14.6484375
13.73291015625
7.32421875
-13.73291015625
1.8310546875
15.56396484375
5.4931640625
19.22607421875
26.55029296875
26.55029296875
27.4658203125
32.958984375
28.38134765625
34.7900390625
41.19873046875
34.7900390625
28.38134765625
37.53662109375
39.36767578125
49.4384765625
56.7626953125
52.18505859375
57.67822265625
65.91796875
71.4111328125
76.904296875
86.97509765625
74.15771484375
75.0732421875
89.7216796875
97.0458984375
93.3837890625
90.63720703125
106.201171875
108.94775390625
110.77880859375
115.3564453125
134.58251953125
142.822265625
144.6533203125
145.56884765625
152.89306640625
163.87939453125
182.18994140625
178.52783203125
187.68310546875
188.5986328125
204.16259765625
204.16259765625
212.40234375
219.7265625
218.81103515625
230.712890625
223.388671875
231.62841796875
228.8818359375
234.375
246.27685546875
264.58740234375
265.5029296875
258.1787109375
273.74267578125
288.39111328125
289.306640625
287.4755859375
291.1376953125
286.56005859375
294.7998046875
297.54638671875
284.72900390625
292.05322265625
296.630859375
301.20849609375
307.6171875
284.72900390625
274.658203125
260.92529296875
249.93896484375
233.45947265625
200.50048828125
175.78125
173.03466796875
168.45703125
163.87939453125
154.72412109375
137.3291015625
122.6806640625
115.3564453125
95.21484375
75.98876953125
68.66455078125
58.59375
46.69189453125
43.02978515625
32.958984375
19.22607421875
18.310546875
16.4794921875
9.1552734375
4.57763671875
2.74658203125
-2.74658203125
-12.8173828125
-14.6484375
-14.6484375
-14.6484375
-21.97265625
-17.39501953125
-19.22607421875
-27.4658203125
-13.73291015625
-19.22607421875
-26.55029296875
-31.1279296875
-36.62109375
-30.21240234375
-30.21240234375
-24.71923828125
-32.04345703125
-36.62109375
-40.283203125
-19.22607421875
-18.310546875
-32.958984375
-20.1416015625
-9.1552734375
-14.6484375
-17.39501953125
-20.1416015625
-22.88818359375
-23.8037109375
-25.634765625
-25.634765625
-26.55029296875
-15.56396484375
-19.22607421875
-21.97265625
-20.1416015625
-16.4794921875
-18.310546875
-14.6484375
-12.8173828125
-26.55029296875
-20.1416015625
-21.05712890625
-26.55029296875
-16.4794921875
-21.05712890625
-18.310546875
-17.39501953125
-21.97265625
-14.6484375
-17.39501953125
-10.986328125
-13.73291015625
-22.88818359375
-21.97265625
-16.4794921875
-20.1416015625
-20.1416015625
-25.634765625
-19.22607421875
-25.634765625
-39.36767578125
-33.87451171875
-32.958984375
-33.87451171875
-32.958984375
-26.55029296875
-22.88818359375
-32.958984375
-30.21240234375
-26.55029296875
-34.7900390625
-25.634765625
-26.55029296875
-16.4794921875
-17.39501953125
-30.21240234375
-39.36767578125
-50.35400390625
-39.36767578125
-44.86083984375
-41.19873046875
-39.36767578125
-36.62109375
-39.36767578125
-31.1279296875
-27.4658203125
-30.21240234375
-31.1279296875
-29.296875
-43.9453125
-41.19873046875
-36.62109375
-35.70556640625
-32.958984375
-42.1142578125
-43.02978515625
-49.4384765625
-46.69189453125
-41.19873046875
-43.9453125
-44.86083984375
-52.18505859375
-51.26953125
-54.931640625
-53.1005859375
-62.255859375
-62.255859375
-55.84716796875
-46.69189453125
-42.1142578125
-59.50927734375
-64.0869140625
-42.1142578125
-46.69189453125
-53.1005859375
-45.7763671875
-47.607421875
-43.02978515625
-48.52294921875
-49.4384765625
-47.607421875
-45.7763671875
-47.607421875
-49.4384765625
-44.86083984375
-54.01611328125
-61.34033203125
-55.84716796875
-67.7490234375
-66.83349609375
-70.49560546875
-65.00244140625
-59.50927734375
-59.50927734375
-43.02978515625
-40.283203125
-49.4384765625
-39.36767578125
-36.62109375
-43.9453125
-49.4384765625
-62.255859375
-65.00244140625
-62.255859375
-59.50927734375
-56.7626953125
-62.255859375
-69.580078125
-53.1005859375
-51.26953125
-48.52294921875
-46.69189453125
-61.34033203125
-65.00244140625
-56.7626953125
-56.7626953125
-66.83349609375
-65.91796875
-65.91796875
-70.49560546875
-55.84716796875
-58.59375
-59.50927734375
-56.7626953125
-52.18505859375
-59.50927734375
-65.91796875
-64.0869140625
-47.607421875
-52.18505859375
-57.67822265625
-54.01611328125
-35.70556640625
-19.22607421875
-25.634765625
-32.958984375
-42.1142578125
-37.53662109375
-22.88818359375
1.8310546875
-2.74658203125
-7.32421875
1.8310546875
10.07080078125
4.57763671875
3.662109375
5.4931640625
5.4931640625
9.1552734375
-4.57763671875
-3.662109375
9.1552734375
-11.90185546875
-28.38134765625
-33.87451171875
-17.39501953125
-28.38134765625
-38.4521484375
-54.931640625
-47.607421875
-54.01611328125
-54.01611328125
-63.17138671875
-77.81982421875
-80.56640625
-73.2421875
-82.3974609375
-72.32666015625
-75.0732421875
-84.228515625
-78.7353515625
-80.56640625
-73.2421875
-67.7490234375
-54.931640625
-77.81982421875
-82.3974609375
-75.98876953125
-68.66455078125
-59.50927734375
-54.931640625
-63.17138671875
-70.49560546875
-82.3974609375
-77.81982421875
-81.48193359375
-87.890625
-87.890625
-86.0595703125
-76.904296875
-77.81982421875
-75.98876953125
-79.65087890625
-70.49560546875
-75.0732421875
-77.81982421875
-78.7353515625
-69.580078125
-74.15771484375
-76.904296875
-73.2421875
-63.17138671875
-65.00244140625
-74.15771484375
-61.34033203125
-63.17138671875
-75.98876953125
-86.97509765625
-86.97509765625
-73.2421875
-80.56640625
-72.32666015625
-74.15771484375
-84.228515625
-107.11669921875
-130.92041015625
-121.76513671875
-103.45458984375
-79.65087890625
-53.1005859375
-10.07080078125
44.86083984375
145.56884765625
271.91162109375
379.94384765625
484.31396484375
581.35986328125
698.54736328125
828.55224609375
952.1484375
1040.95458984375
1120.60546875
1170.0439453125
1173.7060546875
1128.84521484375
981.4453125
743.408203125
516.357421875
369.873046875
224.30419921875
131.8359375
90.63720703125
79.65087890625
69.580078125
68.66455078125
54.01611328125
43.9453125
19.22607421875
-8.23974609375
-17.39501953125
-9.1552734375
-14.6484375
-28.38134765625
-19.22607421875
-21.05712890625
-30.21240234375
-36.62109375
-40.283203125
-38.4521484375
-47.607421875
-33.87451171875
-25.634765625
-31.1279296875
-35.70556640625
-27.4658203125
-47.607421875
-40.283203125
-31.1279296875
-52.18505859375
-38.4521484375
-31.1279296875
-37.53662109375
-42.1142578125
-47.607421875
-45.7763671875
-39.36767578125
-38.4521484375
-29.296875
-32.04345703125
-33.87451171875
-21.97265625
-22.88818359375
-26.55029296875
-25.634765625
-21.05712890625
-25.634765625
-25.634765625
-27.4658203125
-24.71923828125
-30.21240234375
-25.634765625
-24.71923828125
-14.6484375
-14.6484375
-8.23974609375
-4.57763671875
4.57763671875
-10.986328125
-5.4931640625
-3.662109375
-13.73291015625
-4.57763671875
-8.23974609375
-6.40869140625
2.74658203125
15.56396484375
7.32421875
9.1552734375
22.88818359375
21.05712890625
21.97265625
28.38134765625
22.88818359375
25.634765625
32.04345703125
26.55029296875
33.87451171875
48.52294921875
54.931640625
54.01611328125
57.67822265625
61.34033203125
62.255859375
74.15771484375
82.3974609375
87.890625
90.63720703125
84.228515625
81.48193359375
91.552734375
106.201171875
117.1875
121.76513671875
125.42724609375
140.07568359375
151.06201171875
155.6396484375
150.146484375
162.9638671875
173.9501953125
183.10546875
191.34521484375
203.2470703125
205.078125
205.078125
202.33154296875
203.2470703125
215.14892578125
224.30419921875
229.79736328125
244.44580078125
250.8544921875
243.5302734375
248.10791015625
238.95263671875
236.2060546875
240.78369140625
248.10791015625
255.43212890625
255.43212890625
253.60107421875
258.1787109375
260.009765625
259.09423828125
252.685546875
241.69921875
230.712890625
205.99365234375
188.5986328125
183.10546875
194.091796875
182.18994140625
165.71044921875
149.23095703125
137.3291015625
130.0048828125
113.525390625
97.96142578125
89.7216796875
73.2421875
49.4384765625
49.4384765625
34.7900390625
28.38134765625
18.310546875
10.07080078125
2.74658203125
-6.40869140625
-20.1416015625
-30.21240234375
-36.62109375
-37.53662109375
-38.4521484375
-32.958984375
-42.1142578125
-44.86083984375
-44.86083984375
-45.7763671875
-50.35400390625
-52.18505859375
-45.7763671875
-36.62109375
-40.283203125
-40.283203125
-44.86083984375
-38.4521484375
-42.1142578125
-45.7763671875
-42.1142578125
-49.4384765625
-49.4384765625
-45.7763671875
-59.50927734375
-53.1005859375
-45.7763671875
-42.1142578125
-58.59375
-70.49560546875
-54.931640625
-53.1005859375
-48.52294921875
-46.69189453125
-34.7900390625
-36.62109375
-43.9453125
-29.296875
-30.21240234375
-37.53662109375
-47.607421875
-43.02978515625
-47.607421875
-47.607421875
-54.01611328125
-51.26953125
-45.7763671875
-32.958984375
-35.70556640625
-27.4658203125
-26.55029296875
-45.7763671875
-50.35400390625
-34.7900390625
-32.04345703125
-38.4521484375
-41.19873046875
-48.52294921875
-38.4521484375
-32.04345703125
-38.4521484375
-37.53662109375
-30.21240234375
-25.634765625
-29.296875
-26.55029296875
-32.04345703125
-40.283203125
-40.283203125
-33.87451171875
-40.283203125
-34.7900390625
-22.88818359375
-24.71923828125
-21.05712890625
-31.1279296875
-36.62109375
-40.283203125
-42.1142578125
-35.70556640625
-37.53662109375
-42.1142578125
-42.1142578125
-32.958984375
-33.87451171875
-50.35400390625
-43.9453125
-56.7626953125
-51.26953125
-49.4384765625
-56.7626953125
-54.931640625
-50.35400390625
-54.931640625
-54.01611328125
-48.52294921875
-61.34033203125
-57.67822265625
-55.84716796875
-59.50927734375
-49.4384765625
-57.67822265625
-46.69189453125
-43.02978515625
-43.9453125
-66.83349609375
-57.67822265625
-44.86083984375
-50.35400390625
-52.18505859375
-54.01611328125
-53.1005859375
-47.607421875
-46.69189453125
-52.18505859375
-54.01611328125
-56.7626953125
-62.255859375
-65.00244140625
-58.59375
-56.7626953125
-58.59375
-51.26953125
-50.35400390625
-56.7626953125
-48.52294921875
-55.84716796875
-53.1005859375
-64.0869140625
-60.4248046875
-55.84716796875
-54.01611328125
-58.59375
-62.255859375
-58.59375
-62.255859375
-60.4248046875
-59.50927734375
-65.00244140625
-72.32666015625
-66.83349609375
-59.50927734375
-64.0869140625
-64.0869140625
-65.00244140625
-54.01611328125
-46.69189453125
-45.7763671875
-36.62109375
-17.39501953125
-19.22607421875
-17.39501953125
-15.56396484375
-21.97265625
-31.1279296875
-41.19873046875
-29.296875
-1.8310546875
15.56396484375
29.296875
37.53662109375
20.1416015625
8.23974609375
7.32421875
4.57763671875
8.23974609375
4.57763671875
-12.8173828125
6.40869140625
11.90185546875
-4.57763671875
-13.73291015625
-16.4794921875
-7.32421875
-23.8037109375
-36.62109375
-37.53662109375
-51.26953125
-65.00244140625
-65.00244140625
-64.0869140625
-67.7490234375
-75.98876953125
-62.255859375
-71.4111328125
-75.0732421875
-76.904296875
-69.580078125
-65.91796875
-71.4111328125
-78.7353515625
-78.7353515625
-84.228515625
-90.63720703125
-90.63720703125
-91.552734375
-98.876953125
-90.63720703125
-85.14404296875
-88.80615234375
-90.63720703125
-74.15771484375
-73.2421875
-84.228515625
-85.14404296875
-86.97509765625
-81.48193359375
-79.65087890625
-91.552734375
-86.97509765625
-90.63720703125
-87.890625
-90.63720703125
-96.13037109375
-92.46826171875
-85.14404296875
-81.48193359375
-84.228515625
-94.29931640625
-89.7216796875
-86.97509765625
-81.48193359375
-71.4111328125
-80.56640625
-82.3974609375
-84.228515625
-96.13037109375
-87.890625
-86.97509765625
-81.48193359375
-89.7216796875
-93.3837890625
-108.94775390625
-113.525390625
-116.27197265625
-130.92041015625
-120.849609375
-117.1875
-92.46826171875
-58.59375
-18.310546875
50.35400390625
159.3017578125
282.89794921875
396.42333984375
492.5537109375
599.67041015625
737.9150390625
860.595703125
971.37451171875
1065.673828125
1129.7607421875
1169.12841796875
1166.3818359375
1116.02783203125
952.1484375
706.787109375
485.2294921875
325.01220703125
202.33154296875
117.1875
84.228515625
71.4111328125
65.00244140625
45.7763671875
40.283203125
25.634765625
7.32421875
-10.07080078125
-19.22607421875
-20.1416015625
-29.296875
-34.7900390625
-33.87451171875
-30.21240234375
-32.04345703125
-33.87451171875
-34.7900390625
-45.7763671875
-52.18505859375
-47.607421875
-52.18505859375
-40.283203125
-38.4521484375
-43.02978515625
-46.69189453125
-42.1142578125
-39.36767578125
-53.1005859375
-51.26953125
-43.02978515625
-48.52294921875
-48.52294921875
-43.9453125
-38.4521484375
-39.36767578125
-38.4521484375
-33.87451171875
-36.62109375
-37.53662109375
-40.283203125
-37.53662109375
-40.283203125
-33.87451171875
-32.04345703125
-31.1279296875
-25.634765625
-24.71923828125
-31.1279296875
-32.958984375
-30.21240234375
-32.04345703125
-28.38134765625
-23.8037109375
-24.71923828125
-22.88818359375
-28.38134765625
-20.1416015625
-11.90185546875
-10.986328125
-10.07080078125
-5.4931640625
-6.40869140625
-3.662109375
-4.57763671875
-5.4931640625
-4.57763671875
-1.8310546875
3.662109375
11.90185546875
8.23974609375
5.4931640625
-1.8310546875
11.90185546875
12.8173828125
11.90185546875
27.4658203125
35.70556640625
37.53662109375
44.86083984375
48.52294921875
49.4384765625
45.7763671875
63.17138671875
73.2421875
83.31298828125
93.3837890625
86.97509765625
81.48193359375
103.45458984375
115.3564453125
120.849609375
119.0185546875
127.25830078125
142.822265625
148.3154296875
155.6396484375
160.21728515625
168.45703125
165.71044921875
180.35888671875
184.02099609375
189.51416015625
205.078125
199.5849609375
204.16259765625
205.078125
215.14892578125
212.40234375
207.82470703125
231.62841796875
236.2060546875
240.78369140625
254.5166015625
250.8544921875
244.44580078125
249.93896484375
251.77001953125
240.78369140625
258.1787109375
244.44580078125
244.44580078125
232.5439453125
224.30419921875
216.97998046875
216.97998046875
209.65576171875
201.416015625
187.68310546875
171.20361328125
171.20361328125
162.9638671875
162.04833984375
162.04833984375
137.3291015625
118.10302734375
95.21484375
82.3974609375
75.0732421875
54.931640625
43.02978515625
32.958984375
27.4658203125
19.22607421875
13.73291015625
2.74658203125
-10.07080078125
-21.97265625
-23.8037109375
-22.88818359375
-26.55029296875
-23.8037109375
-29.296875
-28.38134765625
-28.38134765625
-46.69189453125
-52.18505859375
-45.7763671875
-48.52294921875
-45.7763671875
-52.18505859375
-58.59375
-61.34033203125
-65.00244140625
-60.4248046875
-63.17138671875
-65.00244140625
-63.17138671875
-69.580078125
-68.66455078125
-68.66455078125
-51.26953125
-45.7763671875
-56.7626953125
-54.931640625
-50.35400390625
-51.26953125
-46.69189453125
-50.35400390625
-50.35400390625
-50.35400390625
-43.9453125
-48.52294921875
-37.53662109375
-43.02978515625
-43.9453125
-32.958984375
-33.87451171875
-32.958984375
-43.9453125
-39.36767578125
-42.1142578125
-37.53662109375
-30.21240234375
-36.62109375
-39.36767578125
-32.04345703125
-28.38134765625
-34.7900390625
-32.04345703125
-36.62109375
-36.62109375
-42.1142578125
-39.36767578125
-38.4521484375
-37.53662109375
-36.62109375
-40.283203125
-42.1142578125
-43.02978515625
-49.4384765625
-43.9453125
-47.607421875
-58.59375
-62.255859375
-57.67822265625
-57.67822265625
-53.1005859375
-47.607421875
-38.4521484375
-30.21240234375
-32.958984375
-35.70556640625
-29.296875
-34.7900390625
-48.52294921875
-51.26953125
-58.59375
-55.84716796875
-52.18505859375
-46.69189453125
-44.86083984375
-44.86083984375
-38.4521484375
-40.283203125
-45.7763671875
-54.01611328125
-57.67822265625
-61.34033203125
-44.86083984375
-34.7900390625
-32.04345703125
-38.4521484375
-38.4521484375
-44.86083984375
-43.9453125
-43.9453125
-43.02978515625
-52.18505859375
-41.19873046875
-43.9453125
-42.1142578125
-52.18505859375
-52.18505859375
-49.4384765625
-47.607421875
-47.607421875
-47.607421875
-51.26953125
-51.26953125
-50.35400390625
-48.52294921875
-65.91796875
-68.66455078125
-62.255859375
-58.59375
-65.91796875
-58.59375
-57.67822265625
-52.18505859375
-48.52294921875
-52.18505859375
-55.84716796875
-64.0869140625
-66.83349609375
-66.83349609375
-60.4248046875
-63.17138671875
-67.7490234375
-65.00244140625
-43.9453125
-35.70556640625
-32.04345703125
-32.958984375
-41.19873046875
-42.1142578125
-41.19873046875
-36.62109375
-44.86083984375
-43.02978515625
-37.53662109375
-48.52294921875
-45.7763671875
-43.02978515625
-44.86083984375
-48.52294921875
-43.02978515625
-41.19873046875
-40.283203125
-33.87451171875
-36.62109375
-21.97265625
-9.1552734375
-12.8173828125
-6.40869140625
-1.8310546875
-7.32421875
-16.4794921875
-10.986328125
-10.07080078125
-10.986328125
5.4931640625
35.70556640625
49.4384765625
39.36767578125
32.04345703125
26.55029296875
21.05712890625
19.22607421875
16.4794921875
18.310546875
14.6484375
8.23974609375
7.32421875
6.40869140625
-1.8310546875
-4.57763671875
-3.662109375
-10.07080078125
-24.71923828125
-37.53662109375
-37.53662109375
-32.04345703125
-31.1279296875
-42.1142578125
-53.1005859375
-62.255859375
-63.17138671875
-54.01611328125
-49.4384765625
-43.02978515625
-48.52294921875
-48.52294921875
-50.35400390625
-50.35400390625
-47.607421875
-43.9453125
-51.26953125
-56.7626953125
-67.7490234375
-65.91796875
-68.66455078125
-61.34033203125
-62.255859375
-70.49560546875
-63.17138671875
-59.50927734375
-67.7490234375
-71.4111328125
-68.66455078125
-64.0869140625
-69.580078125
-70.49560546875
-75.98876953125
-75.98876953125
-86.97509765625
-87.890625
-79.65087890625
-78.7353515625
-78.7353515625
-75.98876953125
-81.48193359375
-82.3974609375
-67.7490234375
-58.59375
-74.15771484375
-79.65087890625
-73.2421875
-81.48193359375
-75.98876953125
-72.32666015625
-65.91796875
-62.255859375
-48.52294921875
-54.931640625
-65.91796875
-74.15771484375
-90.63720703125
-108.94775390625
-102.5390625
-91.552734375
-78.7353515625
-53.1005859375
-13.73291015625
42.1142578125
149.23095703125
273.74267578125
398.25439453125
514.5263671875
611.572265625
724.18212890625
857.84912109375
974.12109375
1072.08251953125
1126.0986328125
1170.0439453125
1178.28369140625
1149.90234375
1007.99560546875
788.26904296875
536.4990234375
360.7177734375
241.69921875
149.23095703125
102.5390625
83.31298828125
66.83349609375
61.34033203125
54.01611328125
43.02978515625
30.21240234375
17.39501953125
13.73291015625
9.1552734375
1.8310546875
-2.74658203125
-10.07080078125
-2.74658203125
-12.8173828125
-16.4794921875
-0.91552734375
-14.6484375
-13.73291015625
-16.4794921875
-20.1416015625
-19.22607421875
-12.8173828125
-19.22607421875
-20.1416015625
-21.97265625
-13.73291015625
-16.4794921875
-11.90185546875
-21.97265625
-22.88818359375
-21.97265625
-18.310546875
-8.23974609375
-11.90185546875
-16.4794921875
-18.310546875
-15.56396484375
-17.39501953125
-24.71923828125
-11.90185546875
-5.4931640625
-5.4931640625
0.91552734375
-6.40869140625
-10.07080078125
0
18.310546875
13.73291015625
5.4931640625
4.57763671875
4.57763671875
9.1552734375
6.40869140625
12.8173828125
22.88818359375
17.39501953125
19.22607421875
15.56396484375
18.310546875
15.56396484375
18.310546875
25.634765625
25.634765625
22.88818359375
22.88818359375
29.296875
41.19873046875
48.52294921875
45.7763671875
43.02978515625
52.18505859375
49.4384765625
56.7626953125
56.7626953125
63.17138671875
70.49560546875
65.91796875
63.17138671875
74.15771484375
87.890625
105.28564453125
112.60986328125
119.0185546875
124.51171875
119.0185546875
122.6806640625
133.6669921875
130.92041015625
140.9912109375
162.9638671875
164.794921875
146.484375
152.89306640625
164.794921875
171.20361328125
183.10546875
197.75390625
205.078125
211.48681640625
223.388671875
224.30419921875
224.30419921875
235.29052734375
249.93896484375
245.361328125
244.44580078125
254.5166015625
257.26318359375
270.08056640625
268.24951171875
268.24951171875
283.8134765625
291.1376953125
284.72900390625
292.05322265625
294.7998046875
302.1240234375
312.19482421875
302.1240234375
312.19482421875
314.02587890625
300.29296875
298.4619140625
290.22216796875
281.06689453125
279.23583984375
267.333984375
251.77001953125
231.62841796875
218.81103515625
218.81103515625
204.16259765625
185.85205078125
160.21728515625
149.23095703125
140.9912109375
125.42724609375
98.876953125
86.0595703125
63.17138671875
50.35400390625
35.70556640625
33.87451171875
28.38134765625
21.97265625
18.310546875
16.4794921875
10.07080078125
19.22607421875
19.22607421875
15.56396484375
13.73291015625
6.40869140625
8.23974609375
-12.8173828125
-23.8037109375
-11.90185546875
-13.73291015625
-20.1416015625
-14.6484375
-9.1552734375
-9.1552734375
-8.23974609375
-6.40869140625
-5.4931640625
-1.8310546875
4.57763671875
-10.07080078125
-7.32421875
0
-4.57763671875
-7.32421875
-10.07080078125
-20.1416015625
-17.39501953125
-14.6484375
-6.40869140625
-10.986328125
-9.1552734375
-10.07080078125
3.662109375
-2.74658203125
-6.40869140625
-12.8173828125
-0.91552734375
-8.23974609375
-17.39501953125
-18.310546875
-31.1279296875
-28.38134765625
-16.4794921875
-14.6484375
-5.4931640625
-1.8310546875
0
6.40869140625
4.57763671875
12.8173828125
17.39501953125
16.4794921875
10.986328125
7.32421875
7.32421875
3.662109375
-0.91552734375
0
-2.74658203125
-4.57763671875
-0.91552734375
0.91552734375
9.1552734375
10.986328125
7.32421875
8.23974609375
0
-3.662109375
-10.986328125
-8.23974609375
-4.57763671875
-4.57763671875
-13.73291015625
-15.56396484375
-9.1552734375
-7.32421875
-17.39501953125
-12.8173828125
-17.39501953125
-26.55029296875
-16.4794921875
-19.22607421875
-9.1552734375
-2.74658203125
-8.23974609375
-12.8173828125
-17.39501953125
-10.07080078125
-20.1416015625
-12.8173828125
-12.8173828125
-18.310546875
-19.22607421875
-15.56396484375
-12.8173828125
-15.56396484375
-16.4794921875
-10.07080078125
-6.40869140625
-21.05712890625
-21.97265625
-22.88818359375
-22.88818359375
-23.8037109375
-22.88818359375
-22.88818359375
-27.4658203125
-26.55029296875
-25.634765625
-22.88818359375
-24.71923828125
-20.1416015625
-11.90185546875
-28.38134765625
-27.4658203125
-23.8037109375
-24.71923828125
-28.38134765625
-31.1279296875
-37.53662109375
-48.52294921875
-43.02978515625
-44.86083984375
-32.958984375
-11.90185546875
-11.90185546875
-21.05712890625
-14.6484375
-17.39501953125
-17.39501953125
-23.8037109375
-27.4658203125
-31.1279296875
-27.4658203125
-29.296875
-30.21240234375
-32.958984375
-27.4658203125
-38.4521484375
-27.4658203125
-24.71923828125
-14.6484375
-19.22607421875
-18.310546875
-19.22607421875
-15.56396484375
-16.4794921875
-10.986328125
-11.90185546875
-10.986328125
0.91552734375
10.07080078125
10.986328125
4.57763671875
6.40869140625
9.1552734375
6.40869140625
12.8173828125
-2.74658203125
13.73291015625
50.35400390625
75.98876953125
68.66455078125
74.15771484375
68.66455078125
58.59375
49.4384765625
43.02978515625
45.7763671875
43.9453125
40.283203125
35.70556640625
30.21240234375
20.1416015625
20.1416015625
19.22607421875
10.07080078125
-5.4931640625
-9.1552734375
-26.55029296875
-36.62109375
-36.62109375
-41.19873046875
-42.1142578125
-46.69189453125
-53.1005859375
-54.01611328125
-51.26953125
-62.255859375
-61.34033203125
-45.7763671875
-46.69189453125
-47.607421875
-43.9453125
-54.01611328125
-57.67822265625
-59.50927734375
-51.26953125
-63.17138671875
-55.84716796875
-65.91796875
-65.00244140625
-63.17138671875
-61.34033203125
-58.59375
-60.4248046875
-57.67822265625
-61.34033203125
-59.50927734375
-54.01611328125
-54.931640625
-63.17138671875
-72.32666015625
-65.00244140625
-69.580078125
-69.580078125
-75.98876953125
-65.91796875
-59.50927734375
-63.17138671875
-59.50927734375
-59.50927734375
-65.91796875
-71.4111328125
-70.49560546875
-64.0869140625
-58.59375
-53.1005859375
-67.7490234375
-76.904296875
-60.4248046875
-63.17138671875
-57.67822265625
-54.01611328125
-71.4111328125
-77.81982421875
-88.80615234375
-98.876953125
-108.94775390625
-104.3701171875
-77.81982421875
-43.9453125
-16.4794921875
32.958984375
125.42724609375
240.78369140625
359.80224609375
459.5947265625
558.4716796875
655.517578125
796.5087890625
934.75341796875
1040.0390625
1129.7607421875
1187.43896484375
1192.93212890625
1161.80419921875
1057.43408203125
866.0888671875
603.33251953125
398.25439453125
258.1787109375
162.04833984375
99.79248046875
86.97509765625
75.98876953125
61.34033203125
59.50927734375
45.7763671875
30.21240234375
21.97265625
17.39501953125
5.4931640625
-4.57763671875
-6.40869140625
-15.56396484375
-21.97265625
-6.40869140625
0
-4.57763671875
-21.05712890625
-21.05712890625
-33.87451171875
-29.296875
-18.310546875
-18.310546875
-14.6484375
-15.56396484375
-14.6484375
-14.6484375
-9.1552734375
-6.40869140625
-13.73291015625
-7.32421875
-5.4931640625
-6.40869140625
-7.32421875
-18.310546875
-11.90185546875
-20.1416015625
-17.39501953125
-11.90185546875
-18.310546875
-11.90185546875
-10.986328125
-6.40869140625
-8.23974609375
-3.662109375
0.91552734375
2.74658203125
4.57763671875
11.90185546875
2.74658203125
-7.32421875
-5.4931640625
-0.91552734375
-1.8310546875
9.1552734375
21.97265625
9.1552734375
15.56396484375
19.22607421875
21.05712890625
12.8173828125
15.56396484375
24.71923828125
30.21240234375
28.38134765625
20.1416015625
27.4658203125
39.36767578125
47.607421875
47.607421875
66.83349609375
69.580078125
69.580078125
64.0869140625
55.84716796875
69.580078125
75.0732421875
73.2421875
76.904296875
77.81982421875
81.48193359375
85.14404296875
94.29931640625
99.79248046875
99.79248046875
111.6943359375
116.27197265625
118.10302734375
121.76513671875
123.59619140625
128.173828125
137.3291015625
142.822265625
148.3154296875
149.23095703125
167.54150390625
171.20361328125
162.04833984375
179.443359375
191.34521484375
200.50048828125
216.064453125
224.30419921875
229.79736328125
240.78369140625
250.8544921875
271.91162109375
270.99609375
273.74267578125
270.99609375
282.89794921875
280.1513671875
271.91162109375
288.39111328125
289.306640625
288.39111328125
289.306640625
294.7998046875
296.630859375
298.4619140625
301.20849609375
304.87060546875
295.71533203125
292.96875
282.89794921875
269.1650390625
262.75634765625
253.60107421875
236.2060546875
223.388671875
211.48681640625
195.9228515625
180.35888671875
169.37255859375
152.89306640625
134.58251953125
116.27197265625
111.6943359375
92.46826171875
70.49560546875
63.17138671875
56.7626953125
43.02978515625
27.4658203125
18.310546875
18.310546875
17.39501953125
13.73291015625
11.90185546875
6.40869140625
1.8310546875
-4.57763671875
-10.986328125
-11.90185546875
-7.32421875
-9.1552734375
-10.986328125
-20.1416015625
-15.56396484375
-7.32421875
-1.8310546875
-9.1552734375
-3.662109375
-19.22607421875
-16.4794921875
-5.4931640625
-2.74658203125
-6.40869140625
-10.986328125
-15.56396484375
-18.310546875
-9.1552734375
-11.90185546875
-7.32421875
-10.986328125
-15.56396484375
-13.73291015625
-21.05712890625
-21.97265625
-18.310546875
-13.73291015625
-18.310546875
-26.55029296875
-18.310546875
-18.310546875
-23.8037109375
-11.90185546875
-12.8173828125
-14.6484375
-5.4931640625
-10.986328125
-11.90185546875
-6.40869140625
-2.74658203125
-1.8310546875
3.662109375
0
-5.4931640625
-3.662109375
-2.74658203125
-5.4931640625
-3.662109375
-8.23974609375
-8.23974609375
-7.32421875
-10.07080078125
-5.4931640625
-6.40869140625
-6.40869140625
-16.4794921875
-14.6484375
0
-6.40869140625
-14.6484375
-21.97265625
-12.8173828125
-8.23974609375
-10.07080078125
-12.8173828125
-24.71923828125
-23.8037109375
-13.73291015625
-13.73291015625
-19.22607421875
-18.310546875
-10.07080078125
-10.07080078125
-10.07080078125
-15.56396484375
-26.55029296875
-14.6484375
-19.22607421875
-27.4658203125
-23.8037109375
-32.04345703125
-27.4658203125
-25.634765625
-16.4794921875
-11.90185546875
-11.90185546875
-8.23974609375
-15.56396484375
-18.310546875
-23.8037109375
-17.39501953125
-30.21240234375
-36.62109375
-30.21240234375
-21.05712890625
-21.97265625
-26.55029296875
-32.958984375
-27.4658203125
-42.1142578125
-43.9453125
-38.4521484375
-35.70556640625
-32.958984375
-31.1279296875
-26.55029296875
-32.04345703125
-27.4658203125
-30.21240234375
-38.4521484375
-34.7900390625
-30.21240234375
-39.36767578125
-36.62109375
-24.71923828125
-21.05712890625
-21.97265625
-32.958984375
-32.04345703125
-32.04345703125
-34.7900390625
-32.04345703125
-27.4658203125
-39.36767578125
-34.7900390625
-22.88818359375
-13.73291015625
5.4931640625
-6.40869140625
-11.90185546875
0.91552734375
1.8310546875
-0.91552734375
-10.986328125
-3.662109375
5.4931640625
38.4521484375
54.01611328125
57.67822265625
56.7626953125
59.50927734375
49.4384765625
44.86083984375
38.4521484375
48.52294921875
46.69189453125
32.04345703125
35.70556640625
16.4794921875
11.90185546875
4.57763671875
22.88818359375
16.4794921875
-0.91552734375
-8.23974609375
-15.56396484375
-21.97265625
-29.296875
-35.70556640625
-44.86083984375
-54.931640625
-56.7626953125
-57.67822265625
-59.50927734375
-56.7626953125
-52.18505859375
-48.52294921875
-45.7763671875
-41.19873046875
-48.52294921875
-50.35400390625
-47.607421875
-65.91796875
-60.4248046875
-60.4248046875
-67.7490234375
-66.83349609375
-65.00244140625
-66.83349609375
-65.00244140625
-73.2421875
-65.91796875
-69.580078125
-65.00244140625
-60.4248046875
-56.7626953125
-62.255859375
-54.01611328125
-54.01611328125
-65.00244140625
-74.15771484375
-72.32666015625
-74.15771484375
-63.17138671875
-64.0869140625
-71.4111328125
-71.4111328125
-70.49560546875
-67.7490234375
-66.83349609375
-69.580078125
-65.00244140625
-67.7490234375
-72.32666015625
-63.17138671875
-62.255859375
-56.7626953125
-53.1005859375
-56.7626953125
-57.67822265625
-52.18505859375
-54.01611328125
-65.00244140625
-81.48193359375
-97.0458984375
-111.6943359375
-95.21484375
-80.56640625
-60.4248046875
-20.1416015625
33.87451171875
120.849609375
236.2060546875
353.3935546875
463.2568359375
559.38720703125
676.57470703125
809.326171875
932.92236328125
1020.81298828125
1112.36572265625
1169.12841796875
1192.0166015625
1181.0302734375
1087.646484375
884.3994140625
617.98095703125
457.763671875
314.02587890625
185.85205078125
110.77880859375
94.29931640625
87.890625
72.32666015625
63.17138671875
56.7626953125
41.19873046875
23.8037109375
13.73291015625
1.8310546875
-1.8310546875
-1.8310546875
-10.986328125
-14.6484375
-21.97265625
-16.4794921875
-14.6484375
-27.4658203125
-20.1416015625
-15.56396484375
-18.310546875
-17.39501953125
-21.97265625
-18.310546875
-22.88818359375
-21.05712890625
-25.634765625
-32.04345703125
-24.71923828125
-19.22607421875
-11.90185546875
-8.23974609375
-4.57763671875
-5.4931640625
1.8310546875
-2.74658203125
0
-6.40869140625
-7.32421875
-11.90185546875
-10.986328125
-9.1552734375
-2.74658203125
5.4931640625
0.91552734375
2.74658203125
-3.662109375
0.91552734375
1.8310546875
-4.57763671875
-4.57763671875
-10.986328125
-4.57763671875
-1.8310546875
-1.8310546875
-4.57763671875
-0.91552734375
1.8310546875
-1.8310546875
-0.91552734375
8.23974609375
7.32421875
3.662109375
13.73291015625
32.04345703125
31.1279296875
43.02978515625
41.19873046875
43.9453125
43.02978515625
51.26953125
52.18505859375
53.1005859375
52.18505859375
63.17138671875
55.84716796875
60.4248046875
64.0869140625
63.17138671875
70.49560546875
72.32666015625
76.904296875
86.97509765625
88.80615234375
99.79248046875
111.6943359375
112.60986328125
117.1875
120.849609375
115.3564453125
135.498046875
139.16015625
135.498046875
146.484375
155.6396484375
160.21728515625
167.54150390625
177.6123046875
190.4296875
190.4296875
194.091796875
197.75390625
198.66943359375
202.33154296875
205.078125
219.7265625
222.47314453125
237.12158203125
238.95263671875
242.61474609375
260.92529296875
268.24951171875
273.74267578125
273.74267578125
282.89794921875
287.4755859375
285.64453125
277.40478515625
277.40478515625
281.06689453125
276.4892578125
267.333984375
265.5029296875
249.0234375
234.375
238.037109375
220.64208984375
210.5712890625
201.416015625
191.34521484375
169.37255859375
153.80859375
139.16015625
131.8359375
116.27197265625
101.62353515625
78.7353515625
75.98876953125
60.4248046875
39.36767578125
39.36767578125
27.4658203125
9.1552734375
-5.4931640625
-5.4931640625
-19.22607421875
-22.88818359375
-22.88818359375
-17.39501953125
-11.90185546875
-11.90185546875
-10.986328125
-11.90185546875
-15.56396484375
-23.8037109375
-24.71923828125
-26.55029296875
-30.21240234375
-26.55029296875
-28.38134765625
-26.55029296875
-35.70556640625
-36.62109375
-32.04345703125
-43.02978515625
-50.35400390625
-39.36767578125
-34.7900390625
-41.19873046875
-32.04345703125
-33.87451171875
-32.958984375
-28.38134765625
-25.634765625
-29.296875
-30.21240234375
-30.21240234375
-28.38134765625
-26.55029296875
-26.55029296875
-27.4658203125
-29.296875
-29.296875
-34.7900390625
-32.04345703125
-28.38134765625
-27.4658203125
-27.4658203125
-25.634765625
-32.958984375
-29.296875
-32.958984375
-32.958984375
-20.1416015625
-17.39501953125
-21.97265625
-24.71923828125
-22.88818359375
-22.88818359375
-38.4521484375
-32.04345703125
-30.21240234375
-25.634765625
-28.38134765625
-19.22607421875
-19.22607421875
-19.22607421875
-22.88818359375
-16.4794921875
-20.1416015625
-27.4658203125
-22.88818359375
-22.88818359375
-28.38134765625
-27.4658203125
-27.4658203125
-31.1279296875
-23.8037109375
-14.6484375
-23.8037109375
-22.88818359375
-20.1416015625
-19.22607421875
-22.88818359375
-21.97265625
-24.71923828125
-20.1416015625
-26.55029296875
-32.958984375
-36.62109375
-21.05712890625
-21.05712890625
-26.55029296875
-37.53662109375
-45.7763671875
-46.69189453125
-43.9453125
-42.1142578125
-50.35400390625
-45.7763671875
-36.62109375
-36.62109375
-38.4521484375
-35.70556640625
-34.7900390625
-39.36767578125
-47.607421875
-46.69189453125
-49.4384765625
-42.1142578125
-43.02978515625
-48.52294921875
-49.4384765625
-56.7626953125
-46.69189453125
-43.9453125
-54.931640625
-44.86083984375
-32.958984375
-36.62109375
-40.283203125
-45.7763671875
-52.18505859375
-41.19873046875
-34.7900390625
-43.9453125
-36.62109375
-36.62109375
-41.19873046875
-45.7763671875
-35.70556640625
-27.4658203125
-31.1279296875
-40.283203125
-32.958984375
-30.21240234375
-21.05712890625
-16.4794921875
-2.74658203125
-5.4931640625
-11.90185546875
-12.8173828125
-16.4794921875
-18.310546875
-19.22607421875
-21.97265625
-14.6484375
22.88818359375
54.931640625
53.1005859375
54.931640625
64.0869140625
59.50927734375
59.50927734375
43.02978515625
40.283203125
39.36767578125
32.958984375
31.1279296875
20.1416015625
6.40869140625
4.57763671875
10.07080078125
0
-4.57763671875
-11.90185546875
-34.7900390625
-38.4521484375
-32.04345703125
-28.38134765625
-45.7763671875
-57.67822265625
-65.00244140625
-65.91796875
-70.49560546875
-71.4111328125
-69.580078125
-69.580078125
-78.7353515625
-76.904296875
-64.0869140625
-69.580078125
-66.83349609375
-67.7490234375
-71.4111328125
-79.65087890625
-72.32666015625
-66.83349609375
-75.98876953125
-78.7353515625
-78.7353515625
-72.32666015625
-85.14404296875
-91.552734375
-80.56640625
-82.3974609375
-86.97509765625
-97.0458984375
-92.46826171875
-83.31298828125
-85.14404296875
-85.14404296875
-85.14404296875
-84.228515625
-79.65087890625
-79.65087890625
-83.31298828125
-79.65087890625
-77.81982421875
-78.7353515625
-83.31298828125
-86.97509765625
-85.14404296875
-77.81982421875
-69.580078125
-66.83349609375
-72.32666015625
-74.15771484375
-76.904296875
-83.31298828125
-82.3974609375
-75.0732421875
-79.65087890625
-89.7216796875
-94.29931640625
-116.27197265625
-115.3564453125
-108.94775390625
-93.3837890625
-71.4111328125
-48.52294921875
-11.90185546875
66.83349609375
183.10546875
300.29296875
415.6494140625
510.8642578125
610.65673828125
752.5634765625
881.65283203125
986.9384765625
1078.4912109375
1138.00048828125
1167.29736328125
1174.62158203125
1094.970703125
911.865234375
660.09521484375
453.18603515625
300.29296875
189.51416015625
99.79248046875
87.890625
77.81982421875
54.931640625
44.86083984375
40.283203125
26.55029296875
15.56396484375
0.91552734375
-6.40869140625
-5.4931640625
-18.310546875
-28.38134765625
-29.296875
-35.70556640625
-36.62109375
-53.1005859375
-55.84716796875
-46.69189453125
-49.4384765625
-48.52294921875
-32.04345703125
-30.21240234375
-23.8037109375
-31.1279296875
-32.958984375
-30.21240234375
-31.1279296875
-30.21240234375
-31.1279296875
-32.04345703125
-40.283203125
-40.283203125
-33.87451171875
-35.70556640625
-37.53662109375
-45.7763671875
-43.9453125
-41.19873046875
-36.62109375
-38.4521484375
-42.1142578125
-34.7900390625
-27.4658203125
-22.88818359375
-18.310546875
-20.1416015625
-23.8037109375
-21.05712890625
-14.6484375
-18.310546875
-21.05712890625
-14.6484375
-17.39501953125
-10.986328125
-8.23974609375
-14.6484375
-8.23974609375
-3.662109375
-5.4931640625
-3.662109375
4.57763671875
10.986328125
8.23974609375
2.74658203125
0
-1.8310546875
6.40869140625
11.90185546875
22.88818359375
20.1416015625
27.4658203125
32.04345703125
45.7763671875
49.4384765625
43.9453125
54.931640625
58.59375
50.35400390625
50.35400390625
52.18505859375
59.50927734375
65.00244140625
82.3974609375
88.80615234375
86.97509765625
99.79248046875
107.11669921875
103.45458984375
102.5390625
113.525390625
121.76513671875
131.8359375
147.39990234375
164.794921875
166.6259765625
170.2880859375
169.37255859375
181.2744140625
186.767578125
189.51416015625
202.33154296875
214.2333984375
220.64208984375
230.712890625
231.62841796875
233.45947265625
236.2060546875
225.2197265625
233.45947265625
241.69921875
249.0234375
244.44580078125
251.77001953125
264.58740234375
279.23583984375
267.333984375
273.74267578125
284.72900390625
283.8134765625
285.64453125
291.1376953125
280.1513671875
268.24951171875
259.09423828125
249.0234375
235.29052734375
225.2197265625
204.16259765625
196.83837890625
195.9228515625
175.78125
166.6259765625
150.146484375
128.173828125
105.28564453125
86.0595703125
75.98876953125
63.17138671875
57.67822265625
51.26953125
51.26953125
41.19873046875
22.88818359375
18.310546875
10.986328125
10.07080078125
2.74658203125
-7.32421875
-9.1552734375
-9.1552734375
-19.22607421875
-22.88818359375
-18.310546875
-18.310546875
-16.4794921875
-27.4658203125
-27.4658203125
-30.21240234375
-31.1279296875
-33.87451171875
-34.7900390625
-35.70556640625
-24.71923828125
-20.1416015625
-25.634765625
-35.70556640625
-43.02978515625
-35.70556640625
-33.87451171875
-41.19873046875
-33.87451171875
-41.19873046875
-36.62109375
-42.1142578125
-33.87451171875
-33.87451171875
-32.04345703125
-40.283203125
-42.1142578125
-43.02978515625
-44.86083984375
-44.86083984375
-42.1142578125
-34.7900390625
-30.21240234375
-28.38134765625
-31.1279296875
-36.62109375
-31.1279296875
-29.296875
-36.62109375
-37.53662109375
-31.1279296875
-26.55029296875
-26.55029296875
-29.296875
-30.21240234375
-38.4521484375
-41.19873046875
-33.87451171875
-36.62109375
-33.87451171875
-35.70556640625
-37.53662109375
-43.9453125
-42.1142578125
-33.87451171875
-28.38134765625
-27.4658203125
-31.1279296875
-33.87451171875
-32.958984375
-36.62109375
-21.97265625
-28.38134765625
-21.97265625
-23.8037109375
-42.1142578125
-38.4521484375
-42.1142578125
-33.87451171875
-39.36767578125
-23.8037109375
-21.97265625
-34.7900390625
-28.38134765625
-27.4658203125
-31.1279296875
-28.38134765625
-35.70556640625
-43.9453125
-39.36767578125
-38.4521484375
-39.36767578125
-45.7763671875
-45.7763671875
-43.02978515625
-52.18505859375
-50.35400390625
-47.607421875
-50.35400390625
-49.4384765625
-43.02978515625
-43.9453125
-41.19873046875
-42.1142578125
-45.7763671875
-54.931640625
-64.0869140625
-54.931640625
-53.1005859375
-51.26953125
-54.931640625
-63.17138671875
-65.00244140625
-56.7626953125
-52.18505859375
-57.67822265625
-60.4248046875
-51.26953125
-53.1005859375
-52.18505859375
-49.4384765625
-52.18505859375
-54.931640625
-53.1005859375
-38.4521484375
-45.7763671875
-65.00244140625
-57.67822265625
-53.1005859375
-48.52294921875
-53.1005859375
-58.59375
-54.01611328125
-54.931640625
-60.4248046875
-52.18505859375
-50.35400390625
-47.607421875
-54.931640625
-53.1005859375
-43.9453125
-44.86083984375
-50.35400390625
-51.26953125
-53.1005859375
-55.84716796875
-51.26953125
-53.1005859375
-51.26953125
-52.18505859375
-47.607421875
-51.26953125
-56.7626953125
-46.69189453125
-52.18505859375
-54.931640625
-49.4384765625
-51.26953125
-51.26953125
-32.04345703125
-24.71923828125
-25.634765625
-28.38134765625
-25.634765625
-23.8037109375
-26.55029296875
-29.296875
-21.97265625
5.4931640625
25.634765625
34.7900390625
28.38134765625
34.7900390625
39.36767578125
26.55029296875
22.88818359375
18.310546875
16.4794921875
27.4658203125
22.88818359375
18.310546875
4.57763671875
2.74658203125
-0.91552734375
-8.23974609375
-32.04345703125
-40.283203125
-42.1142578125
-43.9453125
-41.19873046875
-43.9453125
-50.35400390625
-60.4248046875
-64.0869140625
-57.67822265625
-64.0869140625
-77.81982421875
-79.65087890625
-84.228515625
-81.48193359375
-74.15771484375
-75.0732421875
-79.65087890625
-77.81982421875
-84.228515625
-84.228515625
-84.228515625
-79.65087890625
-76.904296875
-78.7353515625
-78.7353515625
-80.56640625
-90.63720703125
-96.13037109375
-86.0595703125
-86.97509765625
-91.552734375
-97.96142578125
-95.21484375
-98.876953125
-95.21484375
-98.876953125
-94.29931640625
-100.7080078125
-90.63720703125
-74.15771484375
-76.904296875
-73.2421875
-71.4111328125
-72.32666015625
-79.65087890625
-83.31298828125
-88.80615234375
-88.80615234375
-75.98876953125
-74.15771484375
-76.904296875
-67.7490234375
-67.7490234375
-76.904296875
-84.228515625
-69.580078125
-75.98876953125
-79.65087890625
-75.0732421875
-101.62353515625
-111.6943359375
-119.0185546875
-109.86328125
-83.31298828125
-54.01611328125
-21.97265625
22.88818359375
118.10302734375
242.61474609375
337.82958984375
440.36865234375
550.23193359375
668.3349609375
818.4814453125
940.24658203125
1037.29248046875
1109.619140625
1156.31103515625
1166.3818359375
1137.0849609375
1008.9111328125
792.8466796875
536.4990234375
364.3798828125
237.12158203125
147.39990234375
91.552734375
77.81982421875
63.17138671875
46.69189453125
43.9453125
26.55029296875
14.6484375
17.39501953125
9.1552734375
5.4931640625
-3.662109375
-12.8173828125
-15.56396484375
-22.88818359375
-23.8037109375
-13.73291015625
-16.4794921875
-21.05712890625
-30.21240234375
-32.958984375
-25.634765625
-23.8037109375
-31.1279296875
-30.21240234375
-33.87451171875
-32.958984375
-41.19873046875
-31.1279296875
-32.958984375
-22.88818359375
-30.21240234375
-34.7900390625
-30.21240234375
-38.4521484375
-49.4384765625
-45.7763671875
-42.1142578125
-38.4521484375
-23.8037109375
-10.986328125
-20.1416015625
-16.4794921875
-11.90185546875
-11.90185546875
-13.73291015625
-13.73291015625
-16.4794921875
-15.56396484375
-7.32421875
-17.39501953125
-14.6484375
-11.90185546875
-12.8173828125
-7.32421875
-0.91552734375
1.8310546875
4.57763671875
9.1552734375
7.32421875
3.662109375
3.662109375
4.57763671875
19.22607421875
19.22607421875
19.22607421875
2.74658203125
1.8310546875
4.57763671875
17.39501953125
20.1416015625
21.05712890625
43.9453125
65.91796875
59.50927734375
65.00244140625
65.00244140625
65.00244140625
64.0869140625
74.15771484375
75.98876953125
71.4111328125
88.80615234375
86.0595703125
89.7216796875
97.96142578125
99.79248046875
107.11669921875
111.6943359375
122.6806640625
131.8359375
139.16015625
146.484375
148.3154296875
162.04833984375
162.9638671875
163.87939453125
166.6259765625
171.20361328125
184.9365234375
188.5986328125
196.83837890625
186.767578125
199.5849609375
210.5712890625
220.64208984375
234.375
242.61474609375
251.77001953125
255.43212890625
264.58740234375
272.8271484375
274.658203125
272.8271484375
275.57373046875
274.658203125
278.3203125
281.06689453125
285.64453125
290.22216796875
291.1376953125
286.56005859375
289.306640625
290.22216796875
273.74267578125
269.1650390625
272.8271484375
260.009765625
235.29052734375
218.81103515625
211.48681640625
203.2470703125
185.85205078125
170.2880859375
157.470703125
145.56884765625
127.25830078125
119.0185546875
97.96142578125
81.48193359375
71.4111328125
58.59375
50.35400390625
43.9453125
29.296875
17.39501953125
8.23974609375
16.4794921875
20.1416015625
8.23974609375
1.8310546875
1.8310546875
0
-7.32421875
-9.1552734375
-10.986328125
-10.986328125
-20.1416015625
-19.22607421875
-19.22607421875
-15.56396484375
-21.97265625
-21.97265625
-18.310546875
-22.88818359375
-30.21240234375
-34.7900390625
-34.7900390625
-31.1279296875
-28.38134765625
-20.1416015625
-19.22607421875
-20.1416015625
-22.88818359375
-17.39501953125
-19.22607421875
-26.55029296875
-33.87451171875
-34.7900390625
-26.55029296875
-21.97265625
-13.73291015625
-10.07080078125
-5.4931640625
-7.32421875
-14.6484375
-13.73291015625
-17.39501953125
-21.05712890625
-21.97265625
-27.4658203125
-24.71923828125
-22.88818359375
-21.05712890625
-17.39501953125
-14.6484375
-15.56396484375
-14.6484375
-15.56396484375
-12.8173828125
-10.986328125
-10.07080078125
-1.8310546875
-1.8310546875
-10.07080078125
-20.1416015625
-23.8037109375
-26.55029296875
-16.4794921875
-26.55029296875
-20.1416015625
-16.4794921875
-26.55029296875
-18.310546875
-8.23974609375
-18.310546875
-31.1279296875
-20.1416015625
-14.6484375
-16.4794921875
-20.1416015625
-27.4658203125
-24.71923828125
-12.8173828125
-10.07080078125
-13.73291015625
-25.634765625
-29.296875
-16.4794921875
-15.56396484375
-21.97265625
-27.4658203125
-33.87451171875
-30.21240234375
-24.71923828125
-21.05712890625
-25.634765625
-23.8037109375
-22.88818359375
-21.05712890625
-27.4658203125
-38.4521484375
-36.62109375
-28.38134765625
-33.87451171875
-42.1142578125
-41.19873046875
-40.283203125
-30.21240234375
-21.97265625
-30.21240234375
-28.38134765625
-27.4658203125
-39.36767578125
-38.4521484375
-32.958984375
-39.36767578125
-42.1142578125
-36.62109375
-36.62109375
-30.21240234375
-33.87451171875
-34.7900390625
-34.7900390625
-43.9453125
-46.69189453125
-38.4521484375
-38.4521484375
-46.69189453125
-39.36767578125
-45.7763671875
-50.35400390625
-46.69189453125
-38.4521484375
-35.70556640625
-39.36767578125
-46.69189453125
-45.7763671875
-43.9453125
-38.4521484375
-48.52294921875
-49.4384765625
-53.1005859375
-48.52294921875
-42.1142578125
-46.69189453125
-40.283203125
-39.36767578125
-41.19873046875
-44.86083984375
-41.19873046875
-38.4521484375
-35.70556640625
-37.53662109375
-37.53662109375
-41.19873046875
-41.19873046875
-34.7900390625
-39.36767578125
-44.86083984375
-45.7763671875
-32.958984375
-39.36767578125
-49.4384765625
-52.18505859375
-48.52294921875
-41.19873046875
-40.283203125
-44.86083984375
-44.86083984375
-41.19873046875
-32.958984375
-38.4521484375
-38.4521484375
-36.62109375
-45.7763671875
-49.4384765625
-63.17138671875
-61.34033203125
-59.50927734375
-64.0869140625
-60.4248046875
-43.02978515625
-34.7900390625
-33.87451171875
-25.634765625
-16.4794921875
-9.1552734375
-9.1552734375
-1.8310546875
5.4931640625
11.90185546875
10.07080078125
7.32421875
10.07080078125
16.4794921875
14.6484375
2.74658203125
4.57763671875
6.40869140625
3.662109375
-2.74658203125
-8.23974609375
-16.4794921875
-17.39501953125
-21.97265625
-32.958984375
-32.04345703125
-29.296875
-34.7900390625
-40.283203125
-47.607421875
-62.255859375
-53.1005859375
-54.01611328125
-62.255859375
-65.91796875
-65.91796875
-49.4384765625
-47.607421875
-51.26953125
-48.52294921875
-43.02978515625
-46.69189453125
-51.26953125
-61.34033203125
-60.4248046875
-66.83349609375
-67.7490234375
-54.01611328125
-56.7626953125
-57.67822265625
-61.34033203125
-60.4248046875
-65.91796875
-67.7490234375
-65.91796875
-58.59375
-65.91796875
-64.0869140625
-62.255859375
-59.50927734375
-66.83349609375
-55.84716796875
-51.26953125
-53.1005859375
-57.67822265625
-58.59375
-62.255859375
-60.4248046875
-73.2421875
-64.0869140625
-56.7626953125
-49.4384765625
-45.7763671875
-63.17138671875
-71.4111328125
-67.7490234375
-51.26953125
-56.7626953125
-65.00244140625
-68.66455078125
-81.48193359375
-96.13037109375
-101.62353515625
-92.46826171875
-84.228515625
-62.255859375
-33.87451171875
10.986328125
75.0732421875
184.02099609375
303.955078125
410.15625
518.1884765625
612.48779296875
741.5771484375
876.15966796875
981.4453125
1080.322265625
1155.3955078125
1182.861328125
1171.875
1116.943359375
951.23291015625
705.87158203125
483.3984375
329.58984375
205.078125
125.42724609375
108.0322265625
104.3701171875
82.3974609375
65.91796875
61.34033203125
39.36767578125
22.88818359375
14.6484375
-4.57763671875
-12.8173828125
-24.71923828125
-30.21240234375
-32.958984375
-36.62109375
-36.62109375
-31.1279296875
-23.8037109375
-33.87451171875
-32.958984375
-36.62109375
-43.02978515625
-49.4384765625
-54.01611328125
-54.01611328125
-37.53662109375
-39.36767578125
-50.35400390625
-47.607421875
-39.36767578125
-32.958984375
-34.7900390625
-27.4658203125
-23.8037109375
-25.634765625
-39.36767578125
-37.53662109375
-33.87451171875
-36.62109375
-34.7900390625
-24.71923828125
-19.22607421875
-20.1416015625
-25.634765625
-19.22607421875
-19.22607421875
-15.56396484375
-15.56396484375
-7.32421875
0.91552734375
-8.23974609375
-9.1552734375
-2.74658203125
-3.662109375
-12.8173828125
-18.310546875
-15.56396484375
-12.8173828125
-9.1552734375
-1.8310546875
-1.8310546875
-4.57763671875
-5.4931640625
-9.1552734375
1.8310546875
14.6484375
14.6484375
-5.4931640625
10.986328125
15.56396484375
18.310546875
22.88818359375
31.1279296875
36.62109375
40.283203125
49.4384765625
47.607421875
54.931640625
62.255859375
61.34033203125
65.91796875
65.91796875
69.580078125
77.81982421875
78.7353515625
77.81982421875
86.97509765625
88.80615234375
98.876953125
104.3701171875
110.77880859375
116.27197265625
129.08935546875
148.3154296875
146.484375
153.80859375
158.38623046875
167.54150390625
176.69677734375
183.10546875
188.5986328125
203.2470703125
214.2333984375
209.65576171875
225.2197265625
