ECG
-24.71923828125
-21.05712890625
-32.04345703125
-40.283203125
-42.1142578125
-29.296875
-25.634765625
-28.38134765625
-29.296875
-40.283203125
-35.70556640625
-38.4521484375
-48.52294921875
-42.1142578125
-33.87451171875
-32.958984375
-24.71923828125
-20.1416015625
-21.97265625
-36.62109375
-45.7763671875
-42.1142578125
-34.7900390625
-30.21240234375
-31.1279296875
-36.62109375
-37.53662109375
-39.36767578125
-44.86083984375
-45.7763671875
-35.70556640625
-42.1142578125
-43.9453125
-48.52294921875
-40.283203125
-37.53662109375
-43.02978515625
-43.02978515625
-33.87451171875
-41.19873046875
-38.4521484375
-48.52294921875
-53.1005859375
-37.53662109375
-27.4658203125
-30.21240234375
-32.958984375
-24.71923828125
-36.62109375
-25.634765625
-26.55029296875
-25.634765625
-41.19873046875
-44.86083984375
-38.4521484375
-37.53662109375
-31.1279296875
-15.56396484375
8.23974609375
41.19873046875
92.46826171875
181.2744140625
301.20849609375
444.9462890625
633.544921875
812.07275390625
931.09130859375
961.3037109375
830.38330078125
647.27783203125
449.52392578125
324.0966796875
194.091796875
34.7900390625
-89.7216796875
-127.25830078125
-119.0185546875
-103.45458984375
-108.0322265625
-126.3427734375
-120.849609375
-100.7080078125
-71.4111328125
-47.607421875
-42.1142578125
-18.310546875
-8.23974609375
-6.40869140625
4.57763671875
3.662109375
3.662109375
7.32421875
7.32421875
10.07080078125
9.1552734375
10.07080078125
8.23974609375
4.57763671875
8.23974609375
10.07080078125
5.4931640625
9.1552734375
3.662109375
3.662109375
21.97265625
13.73291015625
13.73291015625
14.6484375
24.71923828125
16.4794921875
16.4794921875
19.22607421875
9.1552734375
-1.8310546875
11.90185546875
17.39501953125
11.90185546875
10.07080078125
21.05712890625
26.55029296875
21.97265625
15.56396484375
18.310546875
25.634765625
32.958984375
36.62109375
43.9453125
39.36767578125
35.70556640625
43.02978515625
38.4521484375
41.19873046875
43.9453125
38.4521484375
43.02978515625
48.52294921875
42.1142578125
63.17138671875
77.81982421875
61.34033203125
60.4248046875
65.91796875
62.255859375
63.17138671875
60.4248046875
68.66455078125
81.48193359375
88.80615234375
82.3974609375
74.15771484375
82.3974609375
87.890625
84.228515625
85.14404296875
87.890625
100.7080078125
106.201171875
108.0322265625
111.6943359375
111.6943359375
113.525390625
117.1875
115.3564453125
124.51171875
125.42724609375
136.41357421875
147.39990234375
129.08935546875
143.73779296875
155.6396484375
159.3017578125
162.04833984375
169.37255859375
176.69677734375
176.69677734375
184.02099609375
197.75390625
203.2470703125
211.48681640625
218.81103515625
218.81103515625
219.7265625
220.64208984375
224.30419921875
238.95263671875
247.1923828125
257.26318359375
252.685546875
255.43212890625
262.75634765625
259.09423828125
259.09423828125
262.75634765625
268.24951171875
268.24951171875
283.8134765625
277.40478515625
268.24951171875
270.08056640625
268.24951171875
254.5166015625
256.34765625
239.8681640625
225.2197265625
216.064453125
216.064453125
216.064453125
197.75390625
184.02099609375
177.6123046875
162.04833984375
138.24462890625
111.6943359375
104.3701171875
103.45458984375
86.97509765625
82.3974609375
83.31298828125
70.49560546875
56.7626953125
51.26953125
46.69189453125
37.53662109375
34.7900390625
28.38134765625
34.7900390625
27.4658203125
18.310546875
10.07080078125
3.662109375
11.90185546875
7.32421875
-2.74658203125
-9.1552734375
-6.40869140625
-4.57763671875
4.57763671875
14.6484375
11.90185546875
6.40869140625
-10.07080078125
-12.8173828125
-10.07080078125
-13.73291015625
-14.6484375
-10.986328125
-4.57763671875
-3.662109375
3.662109375
1.8310546875
-7.32421875
-4.57763671875
-11.90185546875
-34.7900390625
-30.21240234375
-25.634765625
-14.6484375
-19.22607421875
-14.6484375
-15.56396484375
-15.56396484375
-18.310546875
-24.71923828125
-25.634765625
-27.4658203125
-13.73291015625
-2.74658203125
-4.57763671875
-16.4794921875
-20.1416015625
-20.1416015625
-21.97265625
-10.986328125
-23.8037109375
-25.634765625
-10.986328125
-1.8310546875
-0.91552734375
-8.23974609375
-8.23974609375
-13.73291015625
-12.8173828125
-15.56396484375
-15.56396484375
-10.07080078125
-5.4931640625
0.91552734375
15.56396484375
1.8310546875
0
-6.40869140625
-7.32421875
-10.986328125
-10.986328125
-10.07080078125
0
2.74658203125
4.57763671875
-1.8310546875
2.74658203125
10.07080078125
9.1552734375
1.8310546875
0
-0.91552734375
2.74658203125
6.40869140625
10.986328125
7.32421875
10.986328125
6.40869140625
-0.91552734375
4.57763671875
-7.32421875
-6.40869140625
-4.57763671875
3.662109375
3.662109375
-1.8310546875
-1.8310546875
-1.8310546875
-7.32421875
-10.07080078125
-7.32421875
-10.986328125
-4.57763671875
-1.8310546875
-1.8310546875
-8.23974609375
-10.986328125
-4.57763671875
-7.32421875
-12.8173828125
-9.1552734375
-7.32421875
1.8310546875
5.4931640625
1.8310546875
0
-0.91552734375
3.662109375
-10.07080078125
-23.8037109375
-21.05712890625
-13.73291015625
-14.6484375
-11.90185546875
-10.07080078125
-10.07080078125
-4.57763671875
-16.4794921875
-21.05712890625
-11.90185546875
-9.1552734375
-12.8173828125
-18.310546875
-4.57763671875
12.8173828125
16.4794921875
23.8037109375
18.310546875
10.07080078125
7.32421875
-3.662109375
8.23974609375
8.23974609375
21.97265625
24.71923828125
25.634765625
17.39501953125
10.07080078125
6.40869140625
9.1552734375
12.8173828125
21.05712890625
40.283203125
38.4521484375
39.36767578125
28.38134765625
34.7900390625
33.87451171875
28.38134765625
25.634765625
35.70556640625
34.7900390625
38.4521484375
36.62109375
33.87451171875
30.21240234375
35.70556640625
28.38134765625
20.1416015625
11.90185546875
-0.91552734375
-16.4794921875
-16.4794921875
-13.73291015625
-14.6484375
-27.4658203125
-33.87451171875
-28.38134765625
-32.04345703125
-32.958984375
-31.1279296875
-43.02978515625
-27.4658203125
-28.38134765625
-31.1279296875
-39.36767578125
-42.1142578125
-35.70556640625
-45.7763671875
-52.18505859375
-54.01611328125
-43.9453125
-40.283203125
-35.70556640625
-30.21240234375
-35.70556640625
-39.36767578125
-50.35400390625
-57.67822265625
-48.52294921875
-45.7763671875
-45.7763671875
-46.69189453125
-43.9453125
-47.607421875
-39.36767578125
-38.4521484375
-45.7763671875
-43.9453125
-54.931640625
-46.69189453125
-50.35400390625
-54.01611328125
-34.7900390625
-37.53662109375
-41.19873046875
-38.4521484375
-39.36767578125
-41.19873046875
-43.9453125
-47.607421875
-43.02978515625
-37.53662109375
-34.7900390625
-32.958984375
-38.4521484375
-38.4521484375
-37.53662109375
-41.19873046875
-39.36767578125
-40.283203125
-22.88818359375
-8.23974609375
18.310546875
43.02978515625
97.0458984375
175.78125
267.333984375
387.26806640625
553.89404296875
735.16845703125
892.63916015625
993.34716796875
940.24658203125
791.015625
573.1201171875
395.5078125
258.1787109375
116.27197265625
-62.255859375
-140.9912109375
-158.38623046875
-150.146484375
-133.6669921875
-140.9912109375
-136.41357421875
-116.27197265625
-89.7216796875
-63.17138671875
-43.02978515625
-23.8037109375
-6.40869140625
3.662109375
9.1552734375
11.90185546875
-1.8310546875
-3.662109375
4.57763671875
-1.8310546875
-7.32421875
-1.8310546875
-4.57763671875
-5.4931640625
0
0
-3.662109375
2.74658203125
-2.74658203125
-9.1552734375
-5.4931640625
-3.662109375
-10.07080078125
-2.74658203125
5.4931640625
-4.57763671875
2.74658203125
0.91552734375
0.91552734375
6.40869140625
8.23974609375
9.1552734375
10.986328125
18.310546875
25.634765625
29.296875
33.87451171875
27.4658203125
20.1416015625
14.6484375
16.4794921875
20.1416015625
26.55029296875
30.21240234375
29.296875
26.55029296875
24.71923828125
30.21240234375
24.71923828125
24.71923828125
26.55029296875
32.958984375
34.7900390625
39.36767578125
46.69189453125
47.607421875
40.283203125
48.52294921875
52.18505859375
54.01611328125
56.7626953125
62.255859375
65.00244140625
60.4248046875
65.00244140625
56.7626953125
63.17138671875
68.66455078125
66.83349609375
68.66455078125
69.580078125
66.83349609375
67.7490234375
78.7353515625
93.3837890625
97.96142578125
97.0458984375
95.21484375
97.96142578125
99.79248046875
101.62353515625
105.28564453125
115.3564453125
126.3427734375
132.75146484375
140.9912109375
140.9912109375
138.24462890625
147.39990234375
157.470703125
158.38623046875
159.3017578125
175.78125
190.4296875
200.50048828125
205.99365234375
206.9091796875
210.5712890625
205.078125
202.33154296875
215.14892578125
217.8955078125
222.47314453125
226.13525390625
236.2060546875
249.0234375
252.685546875
247.1923828125
249.0234375
252.685546875
250.8544921875
251.77001953125
251.77001953125
254.5166015625
260.92529296875
246.27685546875
236.2060546875
225.2197265625
221.5576171875
211.48681640625
195.00732421875
175.78125
174.86572265625
173.03466796875
162.9638671875
149.23095703125
144.6533203125
140.07568359375
120.849609375
108.0322265625
88.80615234375
69.580078125
60.4248046875
62.255859375
65.91796875
56.7626953125
41.19873046875
35.70556640625
29.296875
22.88818359375
13.73291015625
4.57763671875
-2.74658203125
0.91552734375
7.32421875
-1.8310546875
-6.40869140625
-10.986328125
-10.986328125
-15.56396484375
-26.55029296875
-26.55029296875
-18.310546875
-21.97265625
-20.1416015625
-20.1416015625
-33.87451171875
-32.04345703125
-34.7900390625
-35.70556640625
-41.19873046875
-51.26953125
-49.4384765625
-35.70556640625
-29.296875
-24.71923828125
-20.1416015625
-33.87451171875
-29.296875
-17.39501953125
-26.55029296875
-39.36767578125
-35.70556640625
-36.62109375
-29.296875
-32.04345703125
-39.36767578125
-34.7900390625
-25.634765625
-35.70556640625
-35.70556640625
-33.87451171875
-32.04345703125
-27.4658203125
-35.70556640625
-32.958984375
-33.87451171875
-27.4658203125
-32.04345703125
-38.4521484375
-37.53662109375
-30.21240234375
-32.04345703125
-33.87451171875
-28.38134765625
-23.8037109375
-27.4658203125
-29.296875
-32.958984375
-21.97265625
-21.97265625
-33.87451171875
-25.634765625
-13.73291015625
-10.07080078125
-10.986328125
-19.22607421875
-13.73291015625
-16.4794921875
-29.296875
-30.21240234375
-32.04345703125
-29.296875
-19.22607421875
-7.32421875
-9.1552734375
-7.32421875
-10.07080078125
-15.56396484375
-7.32421875
-11.90185546875
-15.56396484375
-16.4794921875
-10.986328125
-5.4931640625
-5.4931640625
-15.56396484375
-10.07080078125
-12.8173828125
-20.1416015625
-24.71923828125
-24.71923828125
-29.296875
-29.296875
-23.8037109375
-26.55029296875
-16.4794921875
-18.310546875
-26.55029296875
-18.310546875
-16.4794921875
-21.97265625
-23.8037109375
-27.4658203125
-19.22607421875
-18.310546875
-23.8037109375
-25.634765625
-28.38134765625
-33.87451171875
-35.70556640625
-33.87451171875
-32.04345703125
-33.87451171875
-27.4658203125
-8.23974609375
-14.6484375
-21.05712890625
-20.1416015625
-32.04345703125
-34.7900390625
-35.70556640625
-29.296875
-20.1416015625
-20.1416015625
-21.97265625
-18.310546875
-28.38134765625
-25.634765625
-27.4658203125
-33.87451171875
-32.958984375
-35.70556640625
-29.296875
-25.634765625
-34.7900390625
-46.69189453125
-43.9453125
-38.4521484375
-39.36767578125
-43.02978515625
-39.36767578125
-38.4521484375
-23.8037109375
-31.1279296875
-34.7900390625
-38.4521484375
-42.1142578125
-39.36767578125
-32.958984375
-41.19873046875
-46.69189453125
-40.283203125
-34.7900390625
-33.87451171875
-36.62109375
-34.7900390625
-37.53662109375
-39.36767578125
-43.9453125
-43.02978515625
-45.7763671875
-38.4521484375
-22.88818359375
-8.23974609375
-6.40869140625
-16.4794921875
-15.56396484375
-10.986328125
-0.91552734375
-2.74658203125
3.662109375
6.40869140625
3.662109375
1.8310546875
10.986328125
6.40869140625
10.07080078125
0
-5.4931640625
-4.57763671875
-14.6484375
-12.8173828125
-1.8310546875
14.6484375
24.71923828125
27.4658203125
27.4658203125
24.71923828125
19.22607421875
3.662109375
8.23974609375
8.23974609375
13.73291015625
13.73291015625
21.05712890625
23.8037109375
17.39501953125
17.39501953125
8.23974609375
4.57763671875
7.32421875
13.73291015625
15.56396484375
8.23974609375
-13.73291015625
-21.97265625
-30.21240234375
-37.53662109375
-51.26953125
-56.7626953125
-53.1005859375
-42.1142578125
-48.52294921875
-43.02978515625
-35.70556640625
-41.19873046875
-46.69189453125
-59.50927734375
-62.255859375
-61.34033203125
-65.00244140625
-64.0869140625
-53.1005859375
-47.607421875
-50.35400390625
-56.7626953125
-59.50927734375
-64.0869140625
-66.83349609375
-67.7490234375
-69.580078125
-67.7490234375
-64.0869140625
-60.4248046875
-56.7626953125
-57.67822265625
-61.34033203125
-65.00244140625
-65.91796875
-70.49560546875
-79.65087890625
-76.904296875
-67.7490234375
-55.84716796875
-59.50927734375
-62.255859375
-60.4248046875
-67.7490234375
-60.4248046875
-58.59375
-66.83349609375
-66.83349609375
-70.49560546875
-64.0869140625
-57.67822265625
-55.84716796875
-50.35400390625
-56.7626953125
-59.50927734375
-48.52294921875
-39.36767578125
-26.55029296875
-21.97265625
-20.1416015625
12.8173828125
32.958984375
75.98876953125
166.6259765625
282.89794921875
407.40966796875
594.17724609375
802.91748046875
979.6142578125
1097.71728515625
1071.1669921875
916.44287109375
684.814453125
489.80712890625
336.9140625
199.5849609375
32.04345703125
-68.66455078125
-106.201171875
-118.10302734375
-124.51171875
-132.75146484375
-115.3564453125
-89.7216796875
-64.0869140625
-44.86083984375
-31.1279296875
-17.39501953125
-17.39501953125
-10.986328125
-6.40869140625
-5.4931640625
-8.23974609375
-24.71923828125
-34.7900390625
-34.7900390625
-28.38134765625
-21.97265625
-26.55029296875
-16.4794921875
-16.4794921875
-21.97265625
-22.88818359375
-21.05712890625
-14.6484375
-20.1416015625
-28.38134765625
-31.1279296875
-21.05712890625
-12.8173828125
-15.56396484375
-15.56396484375
-17.39501953125
-16.4794921875
-16.4794921875
-18.310546875
-5.4931640625
-7.32421875
3.662109375
0.91552734375
3.662109375
3.662109375
0.91552734375
-3.662109375
-7.32421875
-4.57763671875
-1.8310546875
0.91552734375
-6.40869140625
12.8173828125
18.310546875
8.23974609375
10.07080078125
6.40869140625
5.4931640625
0.91552734375
0
2.74658203125
8.23974609375
13.73291015625
14.6484375
16.4794921875
17.39501953125
21.97265625
32.04345703125
21.05712890625
15.56396484375
24.71923828125
27.4658203125
32.04345703125
43.02978515625
40.283203125
33.87451171875
32.958984375
37.53662109375
49.4384765625
54.931640625
55.84716796875
65.00244140625
62.255859375
67.7490234375
63.17138671875
74.15771484375
82.3974609375
81.48193359375
76.904296875
71.4111328125
78.7353515625
92.46826171875
101.62353515625
105.28564453125
100.7080078125
98.876953125
106.201171875
104.3701171875
114.44091796875
129.08935546875
130.0048828125
130.92041015625
141.90673828125
151.06201171875
153.80859375
155.6396484375
164.794921875
171.20361328125
173.9501953125
177.6123046875
180.35888671875
175.78125
184.02099609375
192.2607421875
204.16259765625
215.14892578125
215.14892578125
219.7265625
220.64208984375
213.31787109375
207.82470703125
212.40234375
214.2333984375
220.64208984375
211.48681640625
212.40234375
209.65576171875
202.33154296875
182.18994140625
161.1328125
156.55517578125
150.146484375
145.56884765625
136.41357421875
124.51171875
107.11669921875
91.552734375
76.904296875
65.91796875
57.67822265625
51.26953125
45.7763671875
43.02978515625
32.04345703125
32.04345703125
12.8173828125
-10.07080078125
-9.1552734375
-17.39501953125
-24.71923828125
-26.55029296875
-12.8173828125
-21.05712890625
-29.296875
-31.1279296875
-38.4521484375
-50.35400390625
-57.67822265625
-57.67822265625
-58.59375
-52.18505859375
-46.69189453125
-35.70556640625
-31.1279296875
-39.36767578125
-42.1142578125
-46.69189453125
-46.69189453125
-54.931640625
-62.255859375
-56.7626953125
-55.84716796875
-57.67822265625
-55.84716796875
-41.19873046875
-40.283203125
-56.7626953125
-56.7626953125
-49.4384765625
-51.26953125
-65.00244140625
-58.59375
-51.26953125
-50.35400390625
-54.931640625
-50.35400390625
-55.84716796875
-50.35400390625
-49.4384765625
-50.35400390625
-52.18505859375
-50.35400390625
-47.607421875
-40.283203125
-39.36767578125
-46.69189453125
-43.9453125
-51.26953125
-54.931640625
-43.02978515625
-39.36767578125
-39.36767578125
-38.4521484375
-34.7900390625
-38.4521484375
-45.7763671875
-57.67822265625
-64.0869140625
-57.67822265625
-54.931640625
-48.52294921875
-35.70556640625
-32.958984375
-33.87451171875
-26.55029296875
-27.4658203125
-32.958984375
-40.283203125
-42.1142578125
-47.607421875
-37.53662109375
-30.21240234375
-34.7900390625
-23.8037109375
-23.8037109375
-30.21240234375
-33.87451171875
-35.70556640625
-42.1142578125
-43.02978515625
-34.7900390625
-34.7900390625
-38.4521484375
-32.04345703125
-32.958984375
-37.53662109375
-27.4658203125
-32.958984375
-38.4521484375
-39.36767578125
-40.283203125
-32.958984375
-28.38134765625
-27.4658203125
-29.296875
-23.8037109375
-32.04345703125
-32.04345703125
-28.38134765625
-23.8037109375
-23.8037109375
-26.55029296875
-30.21240234375
-30.21240234375
-35.70556640625
-41.19873046875
-36.62109375
-25.634765625
-24.71923828125
-24.71923828125
-23.8037109375
-24.71923828125
-23.8037109375
-31.1279296875
-28.38134765625
-36.62109375
-44.86083984375
-43.9453125
-47.607421875
-48.52294921875
-53.1005859375
-54.931640625
-50.35400390625
-30.21240234375
-33.87451171875
-30.21240234375
-28.38134765625
-34.7900390625
-37.53662109375
-38.4521484375
-42.1142578125
-41.19873046875
-38.4521484375
-23.8037109375
-23.8037109375
-25.634765625
-27.4658203125
-31.1279296875
-35.70556640625
-43.02978515625
-33.87451171875
-35.70556640625
-30.21240234375
-32.04345703125
-28.38134765625
-36.62109375
-36.62109375
-38.4521484375
-44.86083984375
-43.9453125
-44.86083984375
-39.36767578125
-34.7900390625
-33.87451171875
-38.4521484375
-36.62109375
-32.04345703125
-27.4658203125
-25.634765625
-29.296875
-35.70556640625
-29.296875
-27.4658203125
-24.71923828125
-32.958984375
-33.87451171875
-36.62109375
-36.62109375
-36.62109375
-34.7900390625
-27.4658203125
-21.05712890625
-16.4794921875
-4.57763671875
-13.73291015625
-15.56396484375
-0.91552734375
-5.4931640625
0
4.57763671875
0
-3.662109375
6.40869140625
7.32421875
5.4931640625
8.23974609375
9.1552734375
11.90185546875
12.8173828125
7.32421875
4.57763671875
9.1552734375
14.6484375
17.39501953125
23.8037109375
34.7900390625
34.7900390625
21.05712890625
11.90185546875
10.07080078125
19.22607421875
21.97265625
32.04345703125
42.1142578125
40.283203125
37.53662109375
37.53662109375
38.4521484375
39.36767578125
32.958984375
30.21240234375
17.39501953125
7.32421875
-3.662109375
-15.56396484375
-21.97265625
-18.310546875
-23.8037109375
-17.39501953125
-28.38134765625
-32.958984375
-30.21240234375
-23.8037109375
-22.88818359375
-32.04345703125
-29.296875
-21.05712890625
-33.87451171875
-38.4521484375
-47.607421875
-44.86083984375
-45.7763671875
-37.53662109375
-26.55029296875
-32.958984375
-38.4521484375
-39.36767578125
-48.52294921875
-46.69189453125
-38.4521484375
-35.70556640625
-43.02978515625
-40.283203125
-36.62109375
-41.19873046875
-37.53662109375
-43.9453125
-52.18505859375
-55.84716796875
-58.59375
-50.35400390625
-47.607421875
-47.607421875
-48.52294921875
-45.7763671875
-41.19873046875
-34.7900390625
-34.7900390625
-43.9453125
-33.87451171875
-33.87451171875
-30.21240234375
-30.21240234375
-26.55029296875
-29.296875
-20.1416015625
-30.21240234375
-24.71923828125
-41.19873046875
-40.283203125
-34.7900390625
-15.56396484375
2.74658203125
28.38134765625
54.01611328125
94.29931640625
171.20361328125
262.75634765625
398.25439453125
572.20458984375
774.5361328125
930.17578125
1040.95458984375
1020.81298828125
859.68017578125
645.44677734375
466.9189453125
312.19482421875
168.45703125
3.662109375
-90.63720703125
-120.849609375
-109.86328125
-107.11669921875
-122.6806640625
-126.3427734375
-102.5390625
-70.49560546875
-44.86083984375
-38.4521484375
-18.310546875
2.74658203125
12.8173828125
19.22607421875
28.38134765625
22.88818359375
21.05712890625
21.05712890625
16.4794921875
9.1552734375
3.662109375
1.8310546875
-1.8310546875
12.8173828125
12.8173828125
5.4931640625
0.91552734375
-6.40869140625
0.91552734375
8.23974609375
7.32421875
8.23974609375
21.97265625
19.22607421875
26.55029296875
25.634765625
21.05712890625
27.4658203125
17.39501953125
22.88818359375
21.97265625
16.4794921875
17.39501953125
28.38134765625
32.04345703125
31.1279296875
30.21240234375
25.634765625
35.70556640625
33.87451171875
27.4658203125
36.62109375
48.52294921875
49.4384765625
54.931640625
53.1005859375
56.7626953125
46.69189453125
45.7763671875
47.607421875
54.931640625
48.52294921875
56.7626953125
69.580078125
71.4111328125
65.00244140625
70.49560546875
73.2421875
61.34033203125
68.66455078125
65.00244140625
79.65087890625
81.48193359375
84.228515625
81.48193359375
71.4111328125
72.32666015625
77.81982421875
72.32666015625
79.65087890625
79.65087890625
84.228515625
94.29931640625
107.11669921875
109.86328125
118.10302734375
123.59619140625
119.93408203125
126.3427734375
122.6806640625
119.93408203125
122.6806640625
132.75146484375
142.822265625
140.07568359375
153.80859375
166.6259765625
160.21728515625
162.04833984375
163.87939453125
176.69677734375
184.9365234375
191.34521484375
202.33154296875
211.48681640625
223.388671875
228.8818359375
238.037109375
238.95263671875
230.712890625
238.037109375
255.43212890625
261.8408203125
272.8271484375
277.40478515625
275.57373046875
281.06689453125
282.89794921875
281.982421875
273.74267578125
279.23583984375
281.982421875
283.8134765625
282.89794921875
291.1376953125
276.4892578125
271.91162109375
270.99609375
264.58740234375
262.75634765625
247.1923828125
238.037109375
230.712890625
217.8955078125
205.99365234375
196.83837890625
172.119140625
158.38623046875
148.3154296875
135.498046875
119.0185546875
108.0322265625
108.0322265625
105.28564453125
88.80615234375
71.4111328125
62.255859375
59.50927734375
49.4384765625
38.4521484375
36.62109375
43.9453125
46.69189453125
35.70556640625
37.53662109375
24.71923828125
15.56396484375
16.4794921875
18.310546875
13.73291015625
3.662109375
0.91552734375
0.91552734375
11.90185546875
20.1416015625
10.07080078125
10.986328125
10.986328125
16.4794921875
21.97265625
22.88818359375
23.8037109375
10.07080078125
4.57763671875
1.8310546875
-1.8310546875
-5.4931640625
-3.662109375
-5.4931640625
-3.662109375
-2.74658203125
-2.74658203125
-5.4931640625
6.40869140625
7.32421875
1.8310546875
4.57763671875
9.1552734375
0
0
-3.662109375
-0.91552734375
8.23974609375
7.32421875
12.8173828125
6.40869140625
4.57763671875
-2.74658203125
-6.40869140625
-4.57763671875
3.662109375
2.74658203125
13.73291015625
18.310546875
14.6484375
9.1552734375
19.22607421875
8.23974609375
2.74658203125
3.662109375
10.07080078125
6.40869140625
10.986328125
17.39501953125
25.634765625
17.39501953125
8.23974609375
18.310546875
12.8173828125
10.07080078125
3.662109375
9.1552734375
10.986328125
25.634765625
36.62109375
40.283203125
25.634765625
20.1416015625
26.55029296875
15.56396484375
17.39501953125
26.55029296875
21.05712890625
31.1279296875
24.71923828125
21.97265625
27.4658203125
14.6484375
13.73291015625
17.39501953125
21.05712890625
23.8037109375
21.05712890625
22.88818359375
24.71923828125
27.4658203125
21.05712890625
26.55029296875
25.634765625
24.71923828125
21.05712890625
23.8037109375
32.958984375
24.71923828125
34.7900390625
18.310546875
4.57763671875
12.8173828125
2.74658203125
-6.40869140625
-7.32421875
4.57763671875
11.90185546875
18.310546875
11.90185546875
13.73291015625
20.1416015625
18.310546875
12.8173828125
0.91552734375
-3.662109375
3.662109375
5.4931640625
10.986328125
10.986328125
12.8173828125
17.39501953125
10.07080078125
14.6484375
18.310546875
9.1552734375
8.23974609375
11.90185546875
14.6484375
18.310546875
10.986328125
11.90185546875
13.73291015625
14.6484375
5.4931640625
6.40869140625
12.8173828125
30.21240234375
40.283203125
49.4384765625
49.4384765625
43.9453125
27.4658203125
14.6484375
17.39501953125
32.958984375
35.70556640625
35.70556640625
39.36767578125
37.53662109375
31.1279296875
38.4521484375
44.86083984375
48.52294921875
53.1005859375
49.4384765625
54.01611328125
69.580078125
63.17138671875
57.67822265625
54.01611328125
54.01611328125
60.4248046875
66.83349609375
68.66455078125
69.580078125
70.49560546875
60.4248046875
54.931640625
66.83349609375
73.2421875
64.0869140625
45.7763671875
30.21240234375
15.56396484375
10.986328125
7.32421875
12.8173828125
13.73291015625
11.90185546875
7.32421875
0.91552734375
-5.4931640625
-12.8173828125
-21.05712890625
-16.4794921875
-9.1552734375
-3.662109375
-0.91552734375
0.91552734375
-4.57763671875
-6.40869140625
-7.32421875
-10.986328125
-17.39501953125
-18.310546875
-11.90185546875
-10.07080078125
-11.90185546875
-13.73291015625
-16.4794921875
-12.8173828125
-18.310546875
-15.56396484375
-13.73291015625
-7.32421875
-8.23974609375
-11.90185546875
-3.662109375
-1.8310546875
-5.4931640625
-9.1552734375
-10.07080078125
-25.634765625
-39.36767578125
-33.87451171875
-21.05712890625
-21.05712890625
-29.296875
-22.88818359375
-28.38134765625
-29.296875
-23.8037109375
-22.88818359375
-23.8037109375
-18.310546875
-17.39501953125
-14.6484375
-6.40869140625
-5.4931640625
-15.56396484375
-18.310546875
-27.4658203125
-25.634765625
-23.8037109375
-25.634765625
-4.57763671875
21.05712890625
71.4111328125
137.3291015625
234.375
351.5625
486.14501953125
661.0107421875
822.1435546875
927.42919921875
924.6826171875
773.62060546875
600.5859375
419.3115234375
296.630859375
179.443359375
16.4794921875
-99.79248046875
-131.8359375
-114.44091796875
-97.96142578125
-98.876953125
-110.77880859375
-109.86328125
-80.56640625
-52.18505859375
-36.62109375
-25.634765625
-13.73291015625
-3.662109375
7.32421875
15.56396484375
28.38134765625
40.283203125
39.36767578125
26.55029296875
14.6484375
14.6484375
6.40869140625
19.22607421875
33.87451171875
32.04345703125
32.958984375
35.70556640625
28.38134765625
20.1416015625
22.88818359375
32.04345703125
33.87451171875
35.70556640625
32.04345703125
32.958984375
32.04345703125
39.36767578125
32.04345703125
33.87451171875
32.958984375
31.1279296875
34.7900390625
38.4521484375
43.02978515625
43.9453125
34.7900390625
45.7763671875
54.01611328125
46.69189453125
39.36767578125
40.283203125
36.62109375
41.19873046875
53.1005859375
66.83349609375
65.91796875
63.17138671875
60.4248046875
66.83349609375
63.17138671875
65.91796875
65.91796875
64.0869140625
65.00244140625
69.580078125
75.0732421875
83.31298828125
75.0732421875
74.15771484375
67.7490234375
68.66455078125
75.0732421875
75.98876953125
89.7216796875
96.13037109375
97.0458984375
110.77880859375
108.0322265625
104.3701171875
104.3701171875
98.876953125
103.45458984375
101.62353515625
114.44091796875
118.10302734375
133.6669921875
138.24462890625
129.08935546875
131.8359375
138.24462890625
143.73779296875
149.23095703125
156.55517578125
162.9638671875
173.03466796875
183.10546875
179.443359375
184.9365234375
184.02099609375
192.2607421875
198.66943359375
204.16259765625
205.99365234375
209.65576171875
215.14892578125
225.2197265625
227.05078125
228.8818359375
230.712890625
244.44580078125
241.69921875
234.375
234.375
246.27685546875
259.09423828125
275.57373046875
283.8134765625
281.06689453125
273.74267578125
269.1650390625
270.99609375
274.658203125
274.658203125
270.99609375
272.8271484375
271.91162109375
272.8271484375
264.58740234375
253.60107421875
237.12158203125
235.29052734375
224.30419921875
201.416015625
196.83837890625
185.85205078125
173.03466796875
163.87939453125
147.39990234375
139.16015625
118.10302734375
106.201171875
98.876953125
75.0732421875
69.580078125
81.48193359375
86.97509765625
65.91796875
59.50927734375
55.84716796875
45.7763671875
35.70556640625
33.87451171875
26.55029296875
25.634765625
21.05712890625
22.88818359375
25.634765625
14.6484375
5.4931640625
10.986328125
8.23974609375
5.4931640625
-0.91552734375
1.8310546875
3.662109375
7.32421875
5.4931640625
2.74658203125
1.8310546875
1.8310546875
-1.8310546875
1.8310546875
-0.91552734375
1.8310546875
5.4931640625
10.07080078125
3.662109375
0.91552734375
0
3.662109375
-5.4931640625
-11.90185546875
-10.07080078125
-9.1552734375
-8.23974609375
-6.40869140625
-15.56396484375
-5.4931640625
-1.8310546875
-4.57763671875
-6.40869140625
-16.4794921875
-14.6484375
-2.74658203125
-0.91552734375
5.4931640625
0
0
2.74658203125
2.74658203125
-4.57763671875
-7.32421875
-1.8310546875
1.8310546875
0
8.23974609375
14.6484375
12.8173828125
9.1552734375
-1.8310546875
0.91552734375
3.662109375
-7.32421875
-0.91552734375
5.4931640625
10.986328125
17.39501953125
24.71923828125
15.56396484375
2.74658203125
8.23974609375
3.662109375
2.74658203125
15.56396484375
18.310546875
12.8173828125
15.56396484375
11.90185546875
8.23974609375
10.986328125
0.91552734375
-3.662109375
-8.23974609375
10.07080078125
10.986328125
4.57763671875
10.986328125
12.8173828125
0
2.74658203125
2.74658203125
0.91552734375
-0.91552734375
-4.57763671875
-8.23974609375
1.8310546875
4.57763671875
-2.74658203125
-4.57763671875
4.57763671875
8.23974609375
-4.57763671875
-10.07080078125
-2.74658203125
3.662109375
9.1552734375
11.90185546875
0
-5.4931640625
-2.74658203125
-4.57763671875
-7.32421875
-13.73291015625
-12.8173828125
5.4931640625
10.07080078125
1.8310546875
0
0
-2.74658203125
-7.32421875
-9.1552734375
-14.6484375
-16.4794921875
-9.1552734375
-8.23974609375
-5.4931640625
-20.1416015625
-16.4794921875
-4.57763671875
-9.1552734375
-13.73291015625
-21.05712890625
-15.56396484375
-4.57763671875
-0.91552734375
-0.91552734375
1.8310546875
-5.4931640625
-1.8310546875
-7.32421875
2.74658203125
0
5.4931640625
27.4658203125
24.71923828125
22.88818359375
20.1416015625
10.986328125
18.310546875
18.310546875
16.4794921875
18.310546875
14.6484375
6.40869140625
10.07080078125
22.88818359375
38.4521484375
32.04345703125
36.62109375
34.7900390625
34.7900390625
29.296875
30.21240234375
32.04345703125
43.9453125
40.283203125
41.19873046875
33.87451171875
33.87451171875
39.36767578125
31.1279296875
29.296875
31.1279296875
40.283203125
30.21240234375
21.05712890625
10.07080078125
-5.4931640625
-16.4794921875
-21.05712890625
-26.55029296875
-24.71923828125
-18.310546875
-19.22607421875
-21.05712890625
-23.8037109375
-25.634765625
-32.958984375
-37.53662109375
-37.53662109375
-38.4521484375
-38.4521484375
-31.1279296875
-30.21240234375
-28.38134765625
-23.8037109375
-35.70556640625
-34.7900390625
-31.1279296875
-37.53662109375
-41.19873046875
-35.70556640625
-37.53662109375
-40.283203125
-30.21240234375
-32.958984375
-33.87451171875
-32.958984375
-30.21240234375
-29.296875
-39.36767578125
-49.4384765625
-41.19873046875
-26.55029296875
-23.8037109375
-25.634765625
-30.21240234375
-36.62109375
-47.607421875
-43.02978515625
-44.86083984375
-50.35400390625
-47.607421875
-43.9453125
-43.9453125
-35.70556640625
-47.607421875
-42.1142578125
-37.53662109375
-33.87451171875
-41.19873046875
-47.607421875
-46.69189453125
-43.02978515625
-32.958984375
-23.8037109375
-4.57763671875
-6.40869140625
19.22607421875
34.7900390625
83.31298828125
158.38623046875
252.685546875
376.28173828125
544.73876953125
745.2392578125
907.28759765625
1007.080078125
983.2763671875
829.4677734375
609.7412109375
420.22705078125
281.06689453125
146.484375
-13.73291015625
-106.201171875
-141.90673828125
-134.58251953125
-124.51171875
-140.07568359375
-137.3291015625
-106.201171875
-79.65087890625
-51.26953125
-37.53662109375
-20.1416015625
-10.986328125
-6.40869140625
-1.8310546875
2.74658203125
-8.23974609375
-10.07080078125
-10.07080078125
-0.91552734375
2.74658203125
-1.8310546875
-7.32421875
-13.73291015625
-16.4794921875
-10.07080078125
-14.6484375
-19.22607421875
-15.56396484375
-12.8173828125
-6.40869140625
-3.662109375
-9.1552734375
-3.662109375
-3.662109375
2.74658203125
0
2.74658203125
6.40869140625
3.662109375
8.23974609375
16.4794921875
24.71923828125
24.71923828125
20.1416015625
14.6484375
11.90185546875
8.23974609375
20.1416015625
23.8037109375
28.38134765625
25.634765625
22.88818359375
18.310546875
22.88818359375
26.55029296875
15.56396484375
19.22607421875
33.87451171875
26.55029296875
32.04345703125
30.21240234375
29.296875
33.87451171875
36.62109375
32.958984375
29.296875
37.53662109375
35.70556640625
34.7900390625
41.19873046875
43.9453125
51.26953125
46.69189453125
62.255859375
56.7626953125
55.84716796875
49.4384765625
49.4384765625
64.0869140625
73.2421875
72.32666015625
72.32666015625
76.904296875
88.80615234375
86.0595703125
86.0595703125
83.31298828125
86.97509765625
97.0458984375
103.45458984375
113.525390625
115.3564453125
122.6806640625
128.173828125
121.76513671875
123.59619140625
122.6806640625
129.08935546875
143.73779296875
152.89306640625
153.80859375
160.21728515625
164.794921875
166.6259765625
174.86572265625
178.52783203125
183.10546875
192.2607421875
199.5849609375
205.078125
214.2333984375
216.064453125
220.64208984375
218.81103515625
217.8955078125
217.8955078125
216.064453125
229.79736328125
228.8818359375
240.78369140625
242.61474609375
243.5302734375
244.44580078125
239.8681640625
238.037109375
221.5576171875
214.2333984375
202.33154296875
211.48681640625
205.078125
203.2470703125
186.767578125
167.54150390625
149.23095703125
138.24462890625
136.41357421875
129.08935546875
109.86328125
106.201171875
97.0458984375
84.228515625
75.0732421875
65.00244140625
56.7626953125
39.36767578125
18.310546875
9.1552734375
7.32421875
9.1552734375
4.57763671875
8.23974609375
9.1552734375
8.23974609375
7.32421875
-19.22607421875
-29.296875
-31.1279296875
-27.4658203125
-21.97265625
-29.296875
-27.4658203125
-24.71923828125
-27.4658203125
-32.958984375
-40.283203125
-37.53662109375
-41.19873046875
-40.283203125
-32.958984375
-30.21240234375
-31.1279296875
-33.87451171875
-39.36767578125
-37.53662109375
-49.4384765625
-48.52294921875
-43.02978515625
-40.283203125
-47.607421875
-48.52294921875
-44.86083984375
-43.9453125
-37.53662109375
-32.958984375
-43.02978515625
-43.02978515625
-46.69189453125
-57.67822265625
-49.4384765625
-39.36767578125
-29.296875
-29.296875
-23.8037109375
-31.1279296875
-36.62109375
-46.69189453125
-48.52294921875
-42.1142578125
-48.52294921875
-32.04345703125
-28.38134765625
-32.958984375
-33.87451171875
-34.7900390625
-43.9453125
-52.18505859375
-46.69189453125
-34.7900390625
-26.55029296875
-18.310546875
-16.4794921875
-32.04345703125
-22.88818359375
-17.39501953125
-16.4794921875
-28.38134765625
-32.04345703125
-25.634765625
-21.05712890625
-23.8037109375
-13.73291015625
-15.56396484375
-26.55029296875
-27.4658203125
-30.21240234375
-24.71923828125
-22.88818359375
-34.7900390625
-27.4658203125
-17.39501953125
-18.310546875
-14.6484375
-10.07080078125
-23.8037109375
-20.1416015625
-22.88818359375
-25.634765625
-22.88818359375
-12.8173828125
-13.73291015625
-9.1552734375
-14.6484375
-17.39501953125
-25.634765625
-28.38134765625
-32.04345703125
-33.87451171875
-32.04345703125
-25.634765625
-23.8037109375
-27.4658203125
-25.634765625
-36.62109375
-26.55029296875
-26.55029296875
-33.87451171875
-28.38134765625
-29.296875
-32.958984375
-23.8037109375
-15.56396484375
-30.21240234375
-34.7900390625
-35.70556640625
-36.62109375
-37.53662109375
-44.86083984375
-43.02978515625
-40.283203125
-34.7900390625
-20.1416015625
-24.71923828125
-31.1279296875
-32.04345703125
-36.62109375
-34.7900390625
-40.283203125
-39.36767578125
-42.1142578125
-36.62109375
-25.634765625
-32.04345703125
-37.53662109375
-34.7900390625
-37.53662109375
-42.1142578125
-47.607421875
-42.1142578125
-38.4521484375
-36.62109375
-27.4658203125
-32.958984375
-40.283203125
-49.4384765625
-58.59375
-60.4248046875
-50.35400390625
-50.35400390625
-45.7763671875
-34.7900390625
-32.04345703125
-34.7900390625
-34.7900390625
-35.70556640625
-35.70556640625
-43.9453125
-42.1142578125
-38.4521484375
-36.62109375
-25.634765625
-22.88818359375
-36.62109375
-43.02978515625
-42.1142578125
-42.1142578125
-44.86083984375
-46.69189453125
-49.4384765625
-46.69189453125
-34.7900390625
-34.7900390625
-35.70556640625
-32.958984375
-36.62109375
-43.9453125
-31.1279296875
-11.90185546875
0
-2.74658203125
-10.07080078125
-6.40869140625
-2.74658203125
-4.57763671875
-19.22607421875
-17.39501953125
-12.8173828125
-16.4794921875
-2.74658203125
1.8310546875
5.4931640625
10.07080078125
12.8173828125
20.1416015625
18.310546875
4.57763671875
12.8173828125
10.986328125
6.40869140625
10.07080078125
12.8173828125
14.6484375
20.1416015625
19.22607421875
4.57763671875
2.74658203125
-1.8310546875
-0.91552734375
-5.4931640625
5.4931640625
7.32421875
0
-11.90185546875
-23.8037109375
-41.19873046875
-50.35400390625
-55.84716796875
-64.0869140625
-60.4248046875
-57.67822265625
-50.35400390625
-48.52294921875
-59.50927734375
-58.59375
-63.17138671875
-70.49560546875
-72.32666015625
-77.81982421875
-66.83349609375
-60.4248046875
-64.0869140625
-56.7626953125
-67.7490234375
-68.66455078125
-59.50927734375
-58.59375
-70.49560546875
-73.2421875
-72.32666015625
-65.00244140625
-58.59375
-63.17138671875
-67.7490234375
-65.91796875
-68.66455078125
-73.2421875
-65.91796875
-72.32666015625
-75.98876953125
-73.2421875
-67.7490234375
-66.83349609375
-65.00244140625
-68.66455078125
-77.81982421875
-83.31298828125
-79.65087890625
-83.31298828125
-78.7353515625
-76.904296875
-68.66455078125
-67.7490234375
-67.7490234375
-61.34033203125
-67.7490234375
-68.66455078125
-72.32666015625
-75.98876953125
-67.7490234375
-53.1005859375
-41.19873046875
-33.87451171875
-23.8037109375
-18.310546875
6.40869140625
43.02978515625
100.7080078125
196.83837890625
314.02587890625
454.1015625
664.6728515625
877.0751953125
1024.47509765625
1114.19677734375
1050.10986328125
867.919921875
639.0380859375
446.77734375
299.37744140625
167.54150390625
12.8173828125
-69.580078125
-122.6806640625
-133.6669921875
-141.90673828125
-136.41357421875
-119.93408203125
-95.21484375
-68.66455078125
-48.52294921875
-24.71923828125
-14.6484375
-18.310546875
-23.8037109375
-22.88818359375
-26.55029296875
-34.7900390625
-31.1279296875
-32.04345703125
-32.958984375
-32.04345703125
-31.1279296875
-34.7900390625
-38.4521484375
-34.7900390625
-40.283203125
-37.53662109375
-43.9453125
-42.1142578125
-36.62109375
-22.88818359375
-21.97265625
-29.296875
-26.55029296875
-35.70556640625
-32.958984375
-32.04345703125
-26.55029296875
-19.22607421875
-24.71923828125
-20.1416015625
-20.1416015625
-17.39501953125
-12.8173828125
-18.310546875
-11.90185546875
-7.32421875
-20.1416015625
-17.39501953125
-20.1416015625
-13.73291015625
-8.23974609375
-7.32421875
-13.73291015625
-18.310546875
-9.1552734375
-10.07080078125
-17.39501953125
-11.90185546875
-2.74658203125
4.57763671875
11.90185546875
12.8173828125
2.74658203125
6.40869140625
7.32421875
9.1552734375
8.23974609375
9.1552734375
22.88818359375
21.97265625
23.8037109375
38.4521484375
31.1279296875
27.4658203125
24.71923828125
23.8037109375
25.634765625
21.05712890625
30.21240234375
39.36767578125
41.19873046875
45.7763671875
51.26953125
53.1005859375
49.4384765625
47.607421875
56.7626953125
55.84716796875
65.00244140625
73.2421875
78.7353515625
89.7216796875
85.14404296875
86.0595703125
87.890625
87.890625
87.890625
89.7216796875
109.86328125
124.51171875
134.58251953125
125.42724609375
126.3427734375
139.16015625
143.73779296875
146.484375
149.23095703125
154.72412109375
172.119140625
184.02099609375
184.02099609375
184.9365234375
190.4296875
192.2607421875
194.091796875
190.4296875
191.34521484375
198.66943359375
199.5849609375
198.66943359375
214.2333984375
221.5576171875
216.97998046875
206.9091796875
202.33154296875
196.83837890625
192.2607421875
191.34521484375
185.85205078125
181.2744140625
173.9501953125
165.71044921875
148.3154296875
136.41357421875
118.10302734375
106.201171875
91.552734375
76.904296875
74.15771484375
72.32666015625
68.66455078125
52.18505859375
41.19873046875
36.62109375
22.88818359375
13.73291015625
3.662109375
-2.74658203125
-10.07080078125
-12.8173828125
-11.90185546875
-12.8173828125
-22.88818359375
-22.88818359375
-24.71923828125
-38.4521484375
-54.01611328125
-48.52294921875
-39.36767578125
-40.283203125
-41.19873046875
-41.19873046875
-42.1142578125
-48.52294921875
-54.931640625
-54.931640625
-57.67822265625
-60.4248046875
-55.84716796875
-44.86083984375
-38.4521484375
-43.9453125
-49.4384765625
-60.4248046875
-61.34033203125
-60.4248046875
-61.34033203125
-59.50927734375
-63.17138671875
-52.18505859375
-47.607421875
-57.67822265625
-56.7626953125
-53.1005859375
-50.35400390625
-47.607421875
-47.607421875
-51.26953125
-53.1005859375
-49.4384765625
-43.9453125
-44.86083984375
-54.01611328125
-53.1005859375
-53.1005859375
-62.255859375
-64.0869140625
-58.59375
-52.18505859375
-42.1142578125
-54.01611328125
-52.18505859375
-44.86083984375
-46.69189453125
-47.607421875
-43.9453125
-39.36767578125
-44.86083984375
-40.283203125
-33.87451171875
-39.36767578125
-37.53662109375
-48.52294921875
-49.4384765625
-49.4384765625
-54.01611328125
-58.59375
-60.4248046875
-46.69189453125
-41.19873046875
-36.62109375
-36.62109375
-39.36767578125
-45.7763671875
-44.86083984375
-32.958984375
-45.7763671875
-53.1005859375
-43.9453125
-40.283203125
-31.1279296875
-40.283203125
-51.26953125
-38.4521484375
-41.19873046875
-47.607421875
-52.18505859375
-49.4384765625
-53.1005859375
-51.26953125
-38.4521484375
-47.607421875
-49.4384765625
-45.7763671875
-49.4384765625
-44.86083984375
-44.86083984375
-47.607421875
-41.19873046875
-43.02978515625
-42.1142578125
-39.36767578125
-46.69189453125
-43.02978515625
-51.26953125
-57.67822265625
-53.1005859375
-57.67822265625
-58.59375
-53.1005859375
-47.607421875
-54.931640625
-57.67822265625
-56.7626953125
-42.1142578125
-49.4384765625
-59.50927734375
-65.00244140625
-53.1005859375
-50.35400390625
-45.7763671875
-44.86083984375
-51.26953125
-65.91796875
-61.34033203125
-63.17138671875
-71.4111328125
-66.83349609375
-68.66455078125
-55.84716796875
-55.84716796875
-56.7626953125
-65.00244140625
-60.4248046875
-62.255859375
-59.50927734375
-70.49560546875
-65.91796875
-61.34033203125
-57.67822265625
-54.01611328125
-61.34033203125
-61.34033203125
-59.50927734375
-51.26953125
-73.2421875
-71.4111328125
-71.4111328125
-68.66455078125
-62.255859375
-55.84716796875
-54.01611328125
-56.7626953125
-59.50927734375
-67.7490234375
-65.00244140625
-67.7490234375
-61.34033203125
-58.59375
-56.7626953125
-49.4384765625
-50.35400390625
-58.59375
-56.7626953125
-62.255859375
-56.7626953125
-70.49560546875
-65.91796875
-62.255859375
-59.50927734375
-59.50927734375
-68.66455078125
-64.0869140625
-66.83349609375
-63.17138671875
-60.4248046875
-66.83349609375
-69.580078125
-54.01611328125
-57.67822265625
-63.17138671875
-71.4111328125
-75.98876953125
-78.7353515625
-72.32666015625
-55.84716796875
-64.0869140625
-63.17138671875
-59.50927734375
-48.52294921875
-42.1142578125
-33.87451171875
-20.1416015625
-15.56396484375
-25.634765625
-31.1279296875
-31.1279296875
-34.7900390625
-35.70556640625
-28.38134765625
-21.97265625
-8.23974609375
-17.39501953125
-25.634765625
-23.8037109375
-25.634765625
-22.88818359375
-31.1279296875
-23.8037109375
-14.6484375
-12.8173828125
-10.986328125
-16.4794921875
-20.1416015625
-22.88818359375
-14.6484375
-19.22607421875
-19.22607421875
-16.4794921875
-11.90185546875
-16.4794921875
-14.6484375
-11.90185546875
-18.310546875
-29.296875
-36.62109375
-56.7626953125
-72.32666015625
-68.66455078125
-71.4111328125
-67.7490234375
-67.7490234375
-69.580078125
-75.0732421875
-76.904296875
-77.81982421875
-84.228515625
-82.3974609375
-75.98876953125
-77.81982421875
-72.32666015625
-70.49560546875
-76.904296875
-89.7216796875
-90.63720703125
-89.7216796875
-97.0458984375
-102.5390625
-96.13037109375
-92.46826171875
-79.65087890625
-82.3974609375
-89.7216796875
-90.63720703125
-97.0458984375
-96.13037109375
-102.5390625
-97.96142578125
-91.552734375
-91.552734375
-82.3974609375
-94.29931640625
-92.46826171875
-99.79248046875
-97.0458984375
-92.46826171875
-99.79248046875
-108.94775390625
-96.13037109375
-94.29931640625
-89.7216796875
-91.552734375
-94.29931640625
-98.876953125
-97.0458984375
-102.5390625
-108.0322265625
-105.28564453125
-100.7080078125
-97.96142578125
-86.97509765625
-79.65087890625
-71.4111328125
-72.32666015625
-69.580078125
-74.15771484375
-75.0732421875
-58.59375
-30.21240234375
0.91552734375
65.00244140625
156.55517578125
275.57373046875
423.88916015625
611.572265625
821.22802734375
978.69873046875
1079.40673828125
1023.5595703125
854.18701171875
621.64306640625
436.70654296875
291.1376953125
151.06201171875
-7.32421875
-100.7080078125
-140.9912109375
-149.23095703125
-160.21728515625
-157.470703125
-134.58251953125
-100.7080078125
-81.48193359375
-65.91796875
-52.18505859375
-44.86083984375
-45.7763671875
-33.87451171875
-28.38134765625
-30.21240234375
-36.62109375
-35.70556640625
-43.02978515625
-52.18505859375
-54.931640625
-60.4248046875
-62.255859375
-57.67822265625
-54.931640625
-48.52294921875
-38.4521484375
-54.01611328125
-51.26953125
-43.9453125
-57.67822265625
-57.67822265625
-52.18505859375
-53.1005859375
-43.9453125
-42.1142578125
-42.1142578125
-36.62109375
-33.87451171875
-35.70556640625
-30.21240234375
-29.296875
-35.70556640625
-34.7900390625
-30.21240234375
-28.38134765625
-14.6484375
-18.310546875
-11.90185546875
-12.8173828125
-21.05712890625
-16.4794921875
-23.8037109375
-21.97265625
-19.22607421875
-10.986328125
4.57763671875
-5.4931640625
-8.23974609375
-8.23974609375
-9.1552734375
-17.39501953125
-20.1416015625
-7.32421875
-6.40869140625
-8.23974609375
7.32421875
3.662109375
7.32421875
8.23974609375
7.32421875
10.07080078125
11.90185546875
19.22607421875
23.8037109375
30.21240234375
32.958984375
29.296875
28.38134765625
30.21240234375
30.21240234375
33.87451171875
34.7900390625
38.4521484375
40.283203125
43.02978515625
54.931640625
56.7626953125
49.4384765625
52.18505859375
55.84716796875
64.0869140625
82.3974609375
83.31298828125
88.80615234375
81.48193359375
96.13037109375
97.96142578125
100.7080078125
108.0322265625
119.93408203125
109.86328125
127.25830078125
139.16015625
134.58251953125
144.6533203125
163.87939453125
166.6259765625
173.9501953125
181.2744140625
179.443359375
182.18994140625
187.68310546875
187.68310546875
206.9091796875
203.2470703125
203.2470703125
209.65576171875
212.40234375
215.14892578125
226.13525390625
228.8818359375
217.8955078125
221.5576171875
221.5576171875
219.7265625
218.81103515625
205.078125
193.17626953125
186.767578125
170.2880859375
149.23095703125
145.56884765625
140.07568359375
139.16015625
126.3427734375
120.849609375
106.201171875
94.29931640625
85.14404296875
65.00244140625
53.1005859375
38.4521484375
33.87451171875
42.1142578125
39.36767578125
32.958984375
29.296875
15.56396484375
9.1552734375
-4.57763671875
-12.8173828125
-16.4794921875
-30.21240234375
-22.88818359375
-24.71923828125
-23.8037109375
-19.22607421875
-14.6484375
-34.7900390625
-25.634765625
-38.4521484375
-37.53662109375
-44.86083984375
-44.86083984375
-39.36767578125
-37.53662109375
-35.70556640625
-32.04345703125
-34.7900390625
-37.53662109375
-46.69189453125
-50.35400390625
-57.67822265625
-52.18505859375
-54.01611328125
-42.1142578125
-40.283203125
-42.1142578125
-48.52294921875
-53.1005859375
-50.35400390625
-50.35400390625
-46.69189453125
-48.52294921875
-42.1142578125
-32.958984375
-32.958984375
-41.19873046875
-45.7763671875
-49.4384765625
-54.931640625
-59.50927734375
-52.18505859375
-44.86083984375
-39.36767578125
-35.70556640625
-32.958984375
-38.4521484375
-51.26953125
-49.4384765625
-43.9453125
-47.607421875
-48.52294921875
-46.69189453125
-42.1142578125
-21.05712890625
-29.296875
-39.36767578125
-45.7763671875
-42.1142578125
-39.36767578125
-44.86083984375
-52.18505859375
-38.4521484375
-32.958984375
-32.958984375
-29.296875
-29.296875
-37.53662109375
-35.70556640625
-31.1279296875
-25.634765625
-37.53662109375
-47.607421875
-43.9453125
-33.87451171875
-32.958984375
-25.634765625
-21.97265625
-15.56396484375
-13.73291015625
-14.6484375
-21.97265625
-22.88818359375
-22.88818359375
-21.97265625
-21.05712890625
-27.4658203125
-29.296875
-32.04345703125
-34.7900390625
-32.04345703125
-33.87451171875
-35.70556640625
-39.36767578125
-35.70556640625
-21.05712890625
-28.38134765625
-37.53662109375
-28.38134765625
-29.296875
-26.55029296875
-39.36767578125
-34.7900390625
-24.71923828125
-27.4658203125
-22.88818359375
-18.310546875
-21.97265625
-22.88818359375
-20.1416015625
-46.69189453125
-45.7763671875
-32.958984375
-28.38134765625
-23.8037109375
-29.296875
-39.36767578125
-29.296875
-24.71923828125
-38.4521484375
-37.53662109375
-32.04345703125
-25.634765625
-21.97265625
-17.39501953125
-32.04345703125
-37.53662109375
-38.4521484375
-37.53662109375
-39.36767578125
-52.18505859375
-36.62109375
-25.634765625
-29.296875
-30.21240234375
-34.7900390625
-29.296875
-33.87451171875
-32.958984375
-34.7900390625
-40.283203125
-38.4521484375
-31.1279296875
-30.21240234375
-32.04345703125
-32.958984375
-22.88818359375
-33.87451171875
-37.53662109375
-35.70556640625
-41.19873046875
-43.9453125
-36.62109375
-22.88818359375
-17.39501953125
-23.8037109375
-21.05712890625
-21.05712890625
-15.56396484375
-8.23974609375
-16.4794921875
-16.4794921875
-9.1552734375
3.662109375
14.6484375
7.32421875
4.57763671875
-1.8310546875
-6.40869140625
-1.8310546875
-3.662109375
-3.662109375
1.8310546875
24.71923828125
32.958984375
33.87451171875
29.296875
24.71923828125
26.55029296875
21.05712890625
13.73291015625
15.56396484375
22.88818359375
18.310546875
25.634765625
27.4658203125
26.55029296875
34.7900390625
32.958984375
27.4658203125
21.05712890625
9.1552734375
-1.8310546875
-10.986328125
-18.310546875
-23.8037109375
-27.4658203125
-35.70556640625
-29.296875
-27.4658203125
-38.4521484375
-43.02978515625
-40.283203125
-32.958984375
-34.7900390625
-40.283203125
-41.19873046875
-41.19873046875
-37.53662109375
-35.70556640625
-40.283203125
-44.86083984375
-40.283203125
-35.70556640625
-41.19873046875
-46.69189453125
-43.02978515625
-43.9453125
-45.7763671875
-50.35400390625
-51.26953125
-54.01611328125
-58.59375
-43.9453125
-38.4521484375
-36.62109375
-43.9453125
-41.19873046875
-45.7763671875
-62.255859375
-57.67822265625
-54.931640625
-56.7626953125
-47.607421875
-37.53662109375
-37.53662109375
-48.52294921875
-51.26953125
-48.52294921875
-48.52294921875
-55.84716796875
-53.1005859375
-50.35400390625
-41.19873046875
-37.53662109375
-36.62109375
-40.283203125
-49.4384765625
-52.18505859375
-50.35400390625
-45.7763671875
-47.607421875
-52.18505859375
-47.607421875
-33.87451171875
-11.90185546875
3.662109375
27.4658203125
84.228515625
166.6259765625
276.4892578125
412.90283203125
602.4169921875
780.94482421875
910.0341796875
957.6416015625
832.21435546875
675.6591796875
472.412109375
324.0966796875
202.33154296875
50.35400390625
-97.96142578125
-142.822265625
-147.39990234375
-125.42724609375
-126.3427734375
-136.41357421875
-135.498046875
-113.525390625
-71.4111328125
-46.69189453125
-39.36767578125
-23.8037109375
-11.90185546875
2.74658203125
16.4794921875
11.90185546875
-2.74658203125
-8.23974609375
-11.90185546875
-12.8173828125
-4.57763671875
2.74658203125
0.91552734375
5.4931640625
5.4931640625
0
-8.23974609375
-4.57763671875
0.91552734375
-1.8310546875
1.8310546875
2.74658203125
8.23974609375
3.662109375
11.90185546875
21.97265625
13.73291015625
10.986328125
5.4931640625
1.8310546875
7.32421875
12.8173828125
21.97265625
26.55029296875
22.88818359375
27.4658203125
24.71923828125
21.97265625
24.71923828125
24.71923828125
25.634765625
25.634765625
27.4658203125
33.87451171875
32.04345703125
44.86083984375
45.7763671875
43.9453125
36.62109375
35.70556640625
31.1279296875
44.86083984375
50.35400390625
50.35400390625
47.607421875
46.69189453125
54.931640625
53.1005859375
51.26953125
59.50927734375
52.18505859375
59.50927734375
69.580078125
68.66455078125
68.66455078125
70.49560546875
65.00244140625
65.00244140625
70.49560546875
77.81982421875
87.890625
92.46826171875
100.7080078125
105.28564453125
107.11669921875
97.0458984375
103.45458984375
106.201171875
106.201171875
105.28564453125
115.3564453125
122.6806640625
137.3291015625
150.146484375
147.39990234375
140.9912109375
149.23095703125
151.9775390625
158.38623046875
162.9638671875
173.9501953125
172.119140625
182.18994140625
197.75390625
198.66943359375
198.66943359375
195.00732421875
201.416015625
216.97998046875
224.30419921875
225.2197265625
243.5302734375
254.5166015625
245.361328125
249.0234375
250.8544921875
249.93896484375
249.93896484375
252.685546875
252.685546875
259.09423828125
260.009765625
268.24951171875
262.75634765625
249.93896484375
249.0234375
238.037109375
229.79736328125
226.13525390625
220.64208984375
215.14892578125
207.82470703125
200.50048828125
194.091796875
177.6123046875
158.38623046875
143.73779296875
132.75146484375
111.6943359375
102.5390625
95.21484375
88.80615234375
88.80615234375
77.81982421875
64.0869140625
61.34033203125
54.931640625
45.7763671875
37.53662109375
25.634765625
22.88818359375
23.8037109375
20.1416015625
18.310546875
11.90185546875
4.57763671875
8.23974609375
-8.23974609375
-12.8173828125
-13.73291015625
-29.296875
-19.22607421875
-0.91552734375
-6.40869140625
-21.97265625
-18.310546875
-29.296875
-28.38134765625
-26.55029296875
-23.8037109375
-13.73291015625
-15.56396484375
-10.07080078125
-9.1552734375
-11.90185546875
-26.55029296875
-33.87451171875
-32.958984375
-31.1279296875
-42.1142578125
-32.958984375
-15.56396484375
-15.56396484375
-17.39501953125
-16.4794921875
-23.8037109375
-32.04345703125
-37.53662109375
-31.1279296875
-23.8037109375
-25.634765625
-21.05712890625
-12.8173828125
-15.56396484375
-10.07080078125
-15.56396484375
-19.22607421875
-12.8173828125
-14.6484375
-22.88818359375
-21.05712890625
-12.8173828125
-18.310546875
-10.07080078125
-7.32421875
-10.07080078125
-19.22607421875
-27.4658203125
-14.6484375
-19.22607421875
-8.23974609375
-8.23974609375
-7.32421875
-1.8310546875
6.40869140625
-2.74658203125
-11.90185546875
-10.07080078125
-10.986328125
-5.4931640625
-10.986328125
-14.6484375
-8.23974609375
-2.74658203125
-2.74658203125
-9.1552734375
-11.90185546875
-7.32421875
-13.73291015625
-16.4794921875
-8.23974609375
-8.23974609375
-0.91552734375
2.74658203125
4.57763671875
5.4931640625
2.74658203125
-9.1552734375
-8.23974609375
-15.56396484375
-8.23974609375
-11.90185546875
-8.23974609375
-10.07080078125
-8.23974609375
-3.662109375
-7.32421875
-16.4794921875
-27.4658203125
-27.4658203125
-22.88818359375
-13.73291015625
-7.32421875
-3.662109375
-8.23974609375
-15.56396484375
-8.23974609375
-10.07080078125
-15.56396484375
-21.05712890625
-19.22607421875
-19.22607421875
-3.662109375
-2.74658203125
-17.39501953125
-26.55029296875
-23.8037109375
-23.8037109375
-25.634765625
-26.55029296875
-19.22607421875
-19.22607421875
-10.986328125
-11.90185546875
-14.6484375
-21.97265625
-24.71923828125
-19.22607421875
-27.4658203125
-21.05712890625
-21.05712890625
-9.1552734375
-10.07080078125
-9.1552734375
-12.8173828125
-15.56396484375
-26.55029296875
-23.8037109375
-28.38134765625
-37.53662109375
-32.958984375
-25.634765625
-7.32421875
-16.4794921875
-31.1279296875
-27.4658203125
-28.38134765625
-29.296875
-24.71923828125
-29.296875
-24.71923828125
-17.39501953125
-12.8173828125
-11.90185546875
-5.4931640625
1.8310546875
8.23974609375
12.8173828125
12.8173828125
7.32421875
6.40869140625
9.1552734375
10.986328125
11.90185546875
12.8173828125
10.986328125
7.32421875
8.23974609375
8.23974609375
9.1552734375
11.90185546875
29.296875
34.7900390625
32.958984375
27.4658203125
26.55029296875
23.8037109375
12.8173828125
10.986328125
9.1552734375
23.8037109375
33.87451171875
33.87451171875
33.87451171875
26.55029296875
26.55029296875
22.88818359375
20.1416015625
15.56396484375
5.4931640625
-6.40869140625
-5.4931640625
-15.56396484375
-17.39501953125
-23.8037109375
-30.21240234375
-26.55029296875
-31.1279296875
-32.04345703125
-41.19873046875
-43.9453125
-53.1005859375
-56.7626953125
-46.69189453125
-44.86083984375
-52.18505859375
-46.69189453125
-50.35400390625
-56.7626953125
-60.4248046875
-60.4248046875
-51.26953125
-42.1142578125
-36.62109375
-38.4521484375
-47.607421875
-50.35400390625
-52.18505859375
-68.66455078125
-63.17138671875
-53.1005859375
-56.7626953125
-56.7626953125
-40.283203125
-29.296875
-40.283203125
-52.18505859375
-48.52294921875
-52.18505859375
-57.67822265625
-53.1005859375
-53.1005859375
-37.53662109375
-39.36767578125
-47.607421875
-50.35400390625
-45.7763671875
-50.35400390625
-55.84716796875
-60.4248046875
-56.7626953125
-36.62109375
-38.4521484375
-43.9453125
-57.67822265625
-57.67822265625
-49.4384765625
-52.18505859375
-45.7763671875
-31.1279296875
-9.1552734375
27.4658203125
62.255859375
131.8359375
226.13525390625
328.67431640625
465.087890625
658.26416015625
836.7919921875
960.38818359375
997.9248046875
880.7373046875
693.9697265625
498.046875
335.99853515625
194.091796875
27.4658203125
-119.93408203125
-158.38623046875
-171.20361328125
-164.794921875
-162.04833984375
-145.56884765625
-129.08935546875
-103.45458984375
-69.580078125
-49.4384765625
-30.21240234375
-22.88818359375
-18.310546875
-6.40869140625
0
-1.8310546875
-7.32421875
-6.40869140625
-3.662109375
-12.8173828125
-20.1416015625
-20.1416015625
-18.310546875
-20.1416015625
-15.56396484375
-7.32421875
-17.39501953125
-15.56396484375
-10.986328125
-10.986328125
-4.57763671875
-11.90185546875
-11.90185546875
-5.4931640625
-3.662109375
0
0.91552734375
0.91552734375
8.23974609375
-0.91552734375
3.662109375
12.8173828125
2.74658203125
2.74658203125
-1.8310546875
6.40869140625
9.1552734375
7.32421875
13.73291015625
8.23974609375
2.74658203125
3.662109375
-0.91552734375
3.662109375
21.05712890625
25.634765625
25.634765625
21.97265625
24.71923828125
21.05712890625
21.05712890625
15.56396484375
13.73291015625
23.8037109375
26.55029296875
43.9453125
44.86083984375
40.283203125
32.04345703125
29.296875
28.38134765625
38.4521484375
43.02978515625
49.4384765625
49.4384765625
54.931640625
62.255859375
66.83349609375
64.0869140625
65.00244140625
61.34033203125
59.50927734375
65.91796875
65.91796875
70.49560546875
85.14404296875
88.80615234375
98.876953125
97.96142578125
101.62353515625
105.28564453125
100.7080078125
102.5390625
108.0322265625
126.3427734375
128.173828125
133.6669921875
149.23095703125
156.55517578125
147.39990234375
134.58251953125
138.24462890625
142.822265625
165.71044921875
184.02099609375
190.4296875
198.66943359375
197.75390625
200.50048828125
212.40234375
205.99365234375
202.33154296875
201.416015625
211.48681640625
227.05078125
241.69921875
237.12158203125
239.8681640625
238.037109375
238.95263671875
237.12158203125
233.45947265625
229.79736328125
239.8681640625
238.95263671875
233.45947265625
226.13525390625
221.5576171875
220.64208984375
201.416015625
184.9365234375
173.9501953125
162.9638671875
162.04833984375
155.6396484375
143.73779296875
133.6669921875
116.27197265625
108.0322265625
98.876953125
81.48193359375
71.4111328125
63.17138671875
51.26953125
54.01611328125
56.7626953125
38.4521484375
26.55029296875
26.55029296875
5.4931640625
-2.74658203125
-2.74658203125
-13.73291015625
-10.986328125
-9.1552734375
-0.91552734375
-10.986328125
-21.05712890625
-23.8037109375
-34.7900390625
-28.38134765625
-32.958984375
-37.53662109375
-34.7900390625
-33.87451171875
-30.21240234375
-22.88818359375
-30.21240234375
-35.70556640625
-40.283203125
-39.36767578125
-38.4521484375
-43.02978515625
-34.7900390625
-28.38134765625
-30.21240234375
-35.70556640625
-32.958984375
-38.4521484375
-38.4521484375
-34.7900390625
-40.283203125
-52.18505859375
-46.69189453125
-45.7763671875
-38.4521484375
-37.53662109375
-25.634765625
-26.55029296875
-31.1279296875
-42.1142578125
-43.9453125
-42.1142578125
-34.7900390625
-32.04345703125
-32.958984375
-27.4658203125
-26.55029296875
-27.4658203125
-22.88818359375
-27.4658203125
-31.1279296875
-38.4521484375
-33.87451171875
-29.296875
-19.22607421875
-19.22607421875
-23.8037109375
-21.97265625
-17.39501953125
-19.22607421875
-25.634765625
-35.70556640625
-26.55029296875
-21.97265625
-19.22607421875
-22.88818359375
-22.88818359375
-21.97265625
-10.986328125
-15.56396484375
-24.71923828125
-21.05712890625
-22.88818359375
-22.88818359375
-17.39501953125
-12.8173828125
-8.23974609375
-21.05712890625
-18.310546875
-20.1416015625
-26.55029296875
-23.8037109375
-21.97265625
-12.8173828125
-3.662109375
0
-3.662109375
-0.91552734375
-13.73291015625
-21.05712890625
-28.38134765625
-26.55029296875
-21.97265625
-12.8173828125
-13.73291015625
-11.90185546875
-7.32421875
-14.6484375
-22.88818359375
-29.296875
-32.04345703125
-33.87451171875
-24.71923828125
-23.8037109375
-19.22607421875
-17.39501953125
-20.1416015625
-16.4794921875
-16.4794921875
-21.05712890625
-22.88818359375
-32.04345703125
-26.55029296875
-19.22607421875
-17.39501953125
-34.7900390625
-34.7900390625
-28.38134765625
-32.958984375
-31.1279296875
-37.53662109375
-40.283203125
-37.53662109375
-33.87451171875
-25.634765625
-32.04345703125
-43.02978515625
-39.36767578125
-40.283203125
-43.02978515625
-38.4521484375
-42.1142578125
-43.02978515625
-33.87451171875
-31.1279296875
-22.88818359375
-25.634765625
-35.70556640625
-28.38134765625
-28.38134765625
-32.958984375
-41.19873046875
-43.02978515625
-47.607421875
-40.283203125
-37.53662109375
-29.296875
-24.71923828125
-21.05712890625
-29.296875
-40.283203125
-40.283203125
-31.1279296875
-30.21240234375
-29.296875
-32.04345703125
-31.1279296875
-30.21240234375
-40.283203125
-44.86083984375
-42.1142578125
-51.26953125
-48.52294921875
-37.53662109375
-32.958984375
-32.958984375
-32.04345703125
-25.634765625
-28.38134765625
-33.87451171875
-32.958984375
-27.4658203125
-23.8037109375
-20.1416015625
2.74658203125
5.4931640625
-8.23974609375
-10.07080078125
-14.6484375
-12.8173828125
-9.1552734375
-11.90185546875
-1.8310546875
-1.8310546875
3.662109375
1.8310546875
8.23974609375
12.8173828125
13.73291015625
11.90185546875
8.23974609375
-3.662109375
11.90185546875
25.634765625
24.71923828125
17.39501953125
15.56396484375
26.55029296875
17.39501953125
24.71923828125
18.310546875
10.07080078125
14.6484375
11.90185546875
28.38134765625
30.21240234375
17.39501953125
-1.8310546875
-12.8173828125
-21.05712890625
-24.71923828125
-26.55029296875
-42.1142578125
-49.4384765625
-47.607421875
-40.283203125
-45.7763671875
-50.35400390625
-59.50927734375
-65.00244140625
-67.7490234375
-65.00244140625
-63.17138671875
-62.255859375
-54.01611328125
-45.7763671875
-51.26953125
-56.7626953125
-51.26953125
-59.50927734375
-67.7490234375
-68.66455078125
-70.49560546875
-67.7490234375
-60.4248046875
-50.35400390625
-42.1142578125
-54.01611328125
-64.0869140625
-68.66455078125
-66.83349609375
-72.32666015625
-68.66455078125
-69.580078125
-58.59375
-57.67822265625
-56.7626953125
-54.931640625
-57.67822265625
-60.4248046875
-63.17138671875
-65.91796875
-59.50927734375
-54.931640625
-52.18505859375
-46.69189453125
-55.84716796875
-53.1005859375
-51.26953125
-45.7763671875
-58.59375
-52.18505859375
-65.91796875
-60.4248046875
-43.9453125
-32.958984375
-27.4658203125
-21.97265625
-3.662109375
17.39501953125
58.59375
133.6669921875
238.95263671875
371.7041015625
538.330078125
751.64794921875
939.3310546875
1076.66015625
1105.04150390625
982.36083984375
763.5498046875
552.978515625
379.0283203125
246.27685546875
98.876953125
-32.04345703125
-89.7216796875
-119.93408203125
-126.3427734375
-134.58251953125
-124.51171875
-99.79248046875
-60.4248046875
-44.86083984375
-23.8037109375
-11.90185546875
-10.07080078125
-4.57763671875
-14.6484375
-17.39501953125
-15.56396484375
-11.90185546875
-11.90185546875
-13.73291015625
-16.4794921875
-14.6484375
-8.23974609375
-10.07080078125
-19.22607421875
-20.1416015625
-18.310546875
-27.4658203125
-21.05712890625
-9.1552734375
0.91552734375
0
-5.4931640625
-10.986328125
-14.6484375
-10.07080078125
-10.986328125
-12.8173828125
-8.23974609375
-5.4931640625
-0.91552734375
4.57763671875
-0.91552734375
0.91552734375
0.91552734375
-14.6484375
-13.73291015625
-12.8173828125
-13.73291015625
-4.57763671875
-0.91552734375
5.4931640625
12.8173828125
11.90185546875
17.39501953125
19.22607421875
19.22607421875
18.310546875
27.4658203125
31.1279296875
35.70556640625
33.87451171875
22.88818359375
20.1416015625
28.38134765625
27.4658203125
21.05712890625
25.634765625
30.21240234375
28.38134765625
40.283203125
43.9453125
46.69189453125
42.1142578125
43.02978515625
41.19873046875
44.86083984375
49.4384765625
52.18505859375
55.84716796875
63.17138671875
63.17138671875
62.255859375
63.17138671875
63.17138671875
69.580078125
62.255859375
58.59375
67.7490234375
74.15771484375
90.63720703125
98.876953125
101.62353515625
103.45458984375
99.79248046875
108.0322265625
113.525390625
119.0185546875
121.76513671875
135.498046875
136.41357421875
143.73779296875
144.6533203125
152.89306640625
156.55517578125
157.470703125
161.1328125
165.71044921875
180.35888671875
178.52783203125
192.2607421875
199.5849609375
199.5849609375
202.33154296875
205.99365234375
210.5712890625
211.48681640625
203.2470703125
210.5712890625
223.388671875
225.2197265625
227.05078125
236.2060546875
241.69921875
220.64208984375
214.2333984375
213.31787109375
214.2333984375
205.078125
198.66943359375
199.5849609375
199.5849609375
183.10546875
174.86572265625
167.54150390625
157.470703125
150.146484375
131.8359375
104.3701171875
88.80615234375
81.48193359375
65.91796875
60.4248046875
57.67822265625
47.607421875
39.36767578125
27.4658203125
21.05712890625
10.07080078125
-1.8310546875
-15.56396484375
-12.8173828125
-12.8173828125
-13.73291015625
-10.986328125
-15.56396484375
-17.39501953125
-12.8173828125
-9.1552734375
-8.23974609375
-23.8037109375
-22.88818359375
-16.4794921875
-13.73291015625
-21.97265625
-25.634765625
-31.1279296875
-22.88818359375
-10.986328125
2.74658203125
-15.56396484375
-45.7763671875
-50.35400390625
-51.26953125
-43.02978515625
-43.02978515625
-46.69189453125
-53.1005859375
-46.69189453125
-32.04345703125
-30.21240234375
-31.1279296875
-38.4521484375
-40.283203125
-50.35400390625
-53.1005859375
-48.52294921875
-46.69189453125
-43.9453125
-48.52294921875
-41.19873046875
-30.21240234375
-38.4521484375
-42.1142578125
-44.86083984375
-47.607421875
-43.9453125
-47.607421875
-43.02978515625
-41.19873046875
-36.62109375
-33.87451171875
-41.19873046875
-35.70556640625
-34.7900390625
-37.53662109375
-35.70556640625
-23.8037109375
-29.296875
-22.88818359375
-25.634765625
-27.4658203125
-21.97265625
-21.97265625
-17.39501953125
-33.87451171875
-38.4521484375
-29.296875
-31.1279296875
-33.87451171875
-22.88818359375
-23.8037109375
-17.39501953125
-15.56396484375
-17.39501953125
-19.22607421875
-27.4658203125
-30.21240234375
-24.71923828125
-24.71923828125
-21.97265625
-21.97265625
-25.634765625
-27.4658203125
-29.296875
-27.4658203125
-29.296875
-32.958984375
-20.1416015625
-22.88818359375
-30.21240234375
-19.22607421875
-17.39501953125
-25.634765625
-26.55029296875
-29.296875
-28.38134765625
-32.958984375
-27.4658203125
-20.1416015625
-16.4794921875
-21.05712890625
-17.39501953125
-25.634765625
-21.97265625
-29.296875
-32.04345703125
-31.1279296875
-34.7900390625
-36.62109375
-43.02978515625
-37.53662109375
-26.55029296875
-23.8037109375
-32.04345703125
-44.86083984375
-49.4384765625
-43.02978515625
-37.53662109375
-33.87451171875
-29.296875
-26.55029296875
-33.87451171875
-34.7900390625
-32.958984375
-43.9453125
-43.02978515625
-39.36767578125
-33.87451171875
-28.38134765625
-28.38134765625
-26.55029296875
-21.97265625
-32.958984375
-36.62109375
-40.283203125
-43.02978515625
-43.02978515625
-46.69189453125
-45.7763671875
-37.53662109375
-32.958984375
-32.04345703125
-32.958984375
-43.02978515625
-47.607421875
-42.1142578125
-37.53662109375
-28.38134765625
-23.8037109375
-32.04345703125
-32.04345703125
-27.4658203125
-32.04345703125
-39.36767578125
-45.7763671875
-44.86083984375
-61.34033203125
-65.91796875
-48.52294921875
-34.7900390625
-36.62109375
-34.7900390625
-33.87451171875
-43.02978515625
-43.9453125
-35.70556640625
-31.1279296875
-33.87451171875
-32.958984375
-28.38134765625
-30.21240234375
-38.4521484375
-42.1142578125
-34.7900390625
-43.02978515625
-45.7763671875
-47.607421875
-37.53662109375
-41.19873046875
-41.19873046875
-20.1416015625
-23.8037109375
-29.296875
-34.7900390625
-35.70556640625
-35.70556640625
-38.4521484375
-37.53662109375
-37.53662109375
-32.04345703125
-19.22607421875
-23.8037109375
-31.1279296875
-25.634765625
-27.4658203125
-30.21240234375
-27.4658203125
-22.88818359375
-8.23974609375
5.4931640625
3.662109375
-2.74658203125
-12.8173828125
-12.8173828125
-13.73291015625
-11.90185546875
-12.8173828125
-10.07080078125
-2.74658203125
-3.662109375
-8.23974609375
-5.4931640625
1.8310546875
2.74658203125
6.40869140625
9.1552734375
10.07080078125
-4.57763671875
-2.74658203125
13.73291015625
19.22607421875
21.97265625
32.04345703125
27.4658203125
29.296875
24.71923828125
12.8173828125
12.8173828125
10.986328125
11.90185546875
4.57763671875
-3.662109375
-21.05712890625
-35.70556640625
-35.70556640625
-38.4521484375
-46.69189453125
-55.84716796875
-53.1005859375
-42.1142578125
-39.36767578125
-34.7900390625
-44.86083984375
-43.9453125
-41.19873046875
-58.59375
-66.83349609375
-56.7626953125
-54.931640625
-53.1005859375
-47.607421875
-55.84716796875
-67.7490234375
-72.32666015625
-69.580078125
-83.31298828125
-70.49560546875
-62.255859375
-68.66455078125
-59.50927734375
-57.67822265625
-58.59375
-56.7626953125
-53.1005859375
-58.59375
-62.255859375
-72.32666015625
-68.66455078125
-65.91796875
-62.255859375
-62.255859375
-65.91796875
-72.32666015625
-58.59375
-61.34033203125
-59.50927734375
-53.1005859375
-64.0869140625
-70.49560546875
-68.66455078125
-60.4248046875
-65.00244140625
-71.4111328125
-74.15771484375
-73.2421875
-56.7626953125
-54.01611328125
-52.18505859375
-40.283203125
-30.21240234375
-19.22607421875
-6.40869140625
-6.40869140625
14.6484375
38.4521484375
71.4111328125
140.07568359375
244.44580078125
379.0283203125
550.23193359375
763.5498046875
945.73974609375
1068.42041015625
1071.1669921875
926.513671875
706.787109375
509.033203125
346.98486328125
215.14892578125
57.67822265625
-67.7490234375
-129.08935546875
-146.484375
-152.89306640625
-162.04833984375
-151.06201171875
-116.27197265625
-77.81982421875
-50.35400390625
-24.71923828125
-6.40869140625
0
-7.32421875
-7.32421875
2.74658203125
-2.74658203125
-14.6484375
-15.56396484375
-7.32421875
-8.23974609375
-8.23974609375
-20.1416015625
-24.71923828125
-27.4658203125
-25.634765625
-23.8037109375
-22.88818359375
-30.21240234375
-19.22607421875
-26.55029296875
-21.97265625
-10.07080078125
-16.4794921875
-17.39501953125
-22.88818359375
-25.634765625
-18.310546875
-17.39501953125
-13.73291015625
-10.986328125
-8.23974609375
-10.986328125
-10.07080078125
0
-12.8173828125
-19.22607421875
-17.39501953125
-7.32421875
0
5.4931640625
1.8310546875
0.91552734375
2.74658203125
3.662109375
9.1552734375
7.32421875
8.23974609375
11.90185546875
21.05712890625
31.1279296875
32.958984375
26.55029296875
27.4658203125
28.38134765625
25.634765625
21.05712890625
16.4794921875
34.7900390625
46.69189453125
47.607421875
43.9453125
50.35400390625
40.283203125
43.9453125
38.4521484375
45.7763671875
41.19873046875
43.9453125
49.4384765625
47.607421875
61.34033203125
68.66455078125
64.0869140625
68.66455078125
66.83349609375
75.0732421875
75.0732421875
83.31298828125
89.7216796875
91.552734375
92.46826171875
98.876953125
97.96142578125
108.94775390625
108.94775390625
117.1875
119.0185546875
118.10302734375
121.76513671875
146.484375
153.80859375
146.484375
152.89306640625
162.9638671875
164.794921875
171.20361328125
181.2744140625
185.85205078125
201.416015625
207.82470703125
212.40234375
225.2197265625
229.79736328125
238.95263671875
227.96630859375
227.96630859375
236.2060546875
238.037109375
240.78369140625
247.1923828125
247.1923828125
238.95263671875
230.712890625
234.375
233.45947265625
229.79736328125
223.388671875
211.48681640625
225.2197265625
235.29052734375
206.9091796875
195.9228515625
190.4296875
169.37255859375
163.87939453125
155.6396484375
139.16015625
130.92041015625
121.76513671875
109.86328125
101.62353515625
86.0595703125
79.65087890625
65.91796875
56.7626953125
47.607421875
34.7900390625
33.87451171875
31.1279296875
27.4658203125
22.88818359375
19.22607421875
11.90185546875
8.23974609375
1.8310546875
0.91552734375
0.91552734375
-11.90185546875
-11.90185546875
-7.32421875
-10.986328125
-13.73291015625
-15.56396484375
-21.97265625
-41.19873046875
-34.7900390625
-32.958984375
-34.7900390625
-34.7900390625
-30.21240234375
-23.8037109375
-29.296875
-26.55029296875
-31.1279296875
-39.36767578125
-40.283203125
-38.4521484375
-36.62109375
-32.04345703125
-28.38134765625
-10.07080078125
-18.310546875
-21.97265625
-20.1416015625
-32.958984375
-40.283203125
-48.52294921875
-37.53662109375
-32.04345703125
-25.634765625
-15.56396484375
-22.88818359375
-25.634765625
-27.4658203125
-35.70556640625
-32.958984375
-38.4521484375
-38.4521484375
-32.958984375
-26.55029296875
-17.39501953125
-18.310546875
-33.87451171875
-28.38134765625
-20.1416015625
-30.21240234375
-27.4658203125
-26.55029296875
-18.310546875
-22.88818359375
-19.22607421875
-20.1416015625
-11.90185546875
-16.4794921875
-14.6484375
-14.6484375
-17.39501953125
-16.4794921875
-21.05712890625
-9.1552734375
-10.07080078125
-13.73291015625
-7.32421875
-10.07080078125
-11.90185546875
-10.986328125
-9.1552734375
-5.4931640625
3.662109375
6.40869140625
12.8173828125
-0.91552734375
-2.74658203125
-1.8310546875
-10.986328125
-12.8173828125
-19.22607421875
-12.8173828125
-1.8310546875
-0.91552734375
-4.57763671875
-3.662109375
-6.40869140625
-15.56396484375
-21.97265625
-21.05712890625
-21.05712890625
-18.310546875
-16.4794921875
-18.310546875
-16.4794921875
-19.22607421875
-20.1416015625
-9.1552734375
-14.6484375
-10.986328125
-11.90185546875
-7.32421875
-2.74658203125
-1.8310546875
-2.74658203125
-8.23974609375
1.8310546875
-9.1552734375
-12.8173828125
-14.6484375
-22.88818359375
-18.310546875
-13.73291015625
-9.1552734375
-12.8173828125
-19.22607421875
-20.1416015625
-19.22607421875
-21.97265625
-21.97265625
-25.634765625
-21.05712890625
-20.1416015625
-17.39501953125
-16.4794921875
-10.07080078125
-15.56396484375
-17.39501953125
-7.32421875
-10.07080078125
-22.88818359375
-29.296875
-10.986328125
-11.90185546875
-28.38134765625
-27.4658203125
-18.310546875
-25.634765625
-27.4658203125
-26.55029296875
-26.55029296875
-20.1416015625
-10.07080078125
-22.88818359375
-21.05712890625
-10.986328125
-17.39501953125
-18.310546875
-12.8173828125
-21.97265625
-34.7900390625
-23.8037109375
-19.22607421875
-16.4794921875
-9.1552734375
-9.1552734375
-16.4794921875
-24.71923828125
-17.39501953125
-21.05712890625
-26.55029296875
-8.23974609375
7.32421875
16.4794921875
19.22607421875
22.88818359375
21.05712890625
21.05712890625
17.39501953125
5.4931640625
5.4931640625
7.32421875
16.4794921875
17.39501953125
27.4658203125
22.88818359375
15.56396484375
17.39501953125
18.310546875
24.71923828125
27.4658203125
32.04345703125
29.296875
45.7763671875
36.62109375
33.87451171875
34.7900390625
30.21240234375
38.4521484375
43.9453125
40.283203125
37.53662109375
33.87451171875
29.296875
43.02978515625
43.9453125
29.296875
16.4794921875
5.4931640625
0.91552734375
5.4931640625
-13.73291015625
-21.97265625
-6.40869140625
-14.6484375
-18.310546875
-24.71923828125
-34.7900390625
-20.1416015625
-27.4658203125
-43.02978515625
-35.70556640625
-31.1279296875
-30.21240234375
-33.87451171875
-29.296875
-39.36767578125
-38.4521484375
-25.634765625
-26.55029296875
-26.55029296875
-28.38134765625
-30.21240234375
-43.9453125
-33.87451171875
-39.36767578125
-35.70556640625
-42.1142578125
-50.35400390625
-49.4384765625
-42.1142578125
-43.02978515625
-42.1142578125
-42.1142578125
-40.283203125
-46.69189453125
-43.9453125
-45.7763671875
-38.4521484375
-35.70556640625
-45.7763671875
-43.9453125
-37.53662109375
-33.87451171875
-31.1279296875
-34.7900390625
-37.53662109375
-40.283203125
-45.7763671875
-48.52294921875
-40.283203125
-35.70556640625
-43.02978515625
-38.4521484375
-30.21240234375
-30.21240234375
-41.19873046875
-41.19873046875
-54.01611328125
-50.35400390625
-35.70556640625
-16.4794921875
-7.32421875
48.52294921875
143.73779296875
265.5029296875
396.42333984375
552.06298828125
726.9287109375
875.244140625
942.07763671875
846.86279296875
696.71630859375
509.033203125
365.29541015625
246.27685546875
106.201171875
-66.83349609375
-126.3427734375
-135.498046875
-118.10302734375
-119.93408203125
-120.849609375
-115.3564453125
-100.7080078125
-75.98876953125
-46.69189453125
-37.53662109375
-32.958984375
-22.88818359375
-12.8173828125
-3.662109375
0
4.57763671875
15.56396484375
2.74658203125
9.1552734375
8.23974609375
1.8310546875
1.8310546875
-1.8310546875
-1.8310546875
4.57763671875
6.40869140625
10.07080078125
4.57763671875
-1.8310546875
0
-1.8310546875
4.57763671875
10.07080078125
-1.8310546875
1.8310546875
-0.91552734375
8.23974609375
16.4794921875
20.1416015625
21.05712890625
21.97265625
23.8037109375
19.22607421875
22.88818359375
30.21240234375
35.70556640625
39.36767578125
32.04345703125
36.62109375
32.04345703125
31.1279296875
31.1279296875
30.21240234375
37.53662109375
39.36767578125
53.1005859375
52.18505859375
55.84716796875
49.4384765625
52.18505859375
43.9453125
48.52294921875
52.18505859375
47.607421875
54.01611328125
57.67822265625
61.34033203125
64.0869140625
58.59375
61.34033203125
66.83349609375
67.7490234375
65.00244140625
74.15771484375
76.904296875
80.56640625
93.3837890625
88.80615234375
89.7216796875
99.79248046875
97.0458984375
99.79248046875
99.79248046875
98.876953125
111.6943359375
114.44091796875
117.1875
131.8359375
131.8359375
127.25830078125
123.59619140625
131.8359375
130.0048828125
134.58251953125
150.146484375
157.470703125
169.37255859375
173.9501953125
181.2744140625
182.18994140625
188.5986328125
194.091796875
195.9228515625
206.9091796875
216.064453125
223.388671875
227.05078125
223.388671875
231.62841796875
229.79736328125
238.037109375
243.5302734375
235.29052734375
236.2060546875
245.361328125
257.26318359375
274.658203125
274.658203125
266.41845703125
264.58740234375
266.41845703125
267.333984375
260.92529296875
263.671875
262.75634765625
258.1787109375
258.1787109375
256.34765625
238.037109375
230.712890625
216.97998046875
212.40234375
190.4296875
180.35888671875
173.03466796875
163.87939453125
151.9775390625
142.822265625
144.6533203125
135.498046875
114.44091796875
108.0322265625
86.97509765625
79.65087890625
77.81982421875
69.580078125
71.4111328125
58.59375
46.69189453125
43.02978515625
33.87451171875
23.8037109375
26.55029296875
14.6484375
20.1416015625
18.310546875
19.22607421875
10.07080078125
8.23974609375
10.07080078125
7.32421875
10.986328125
3.662109375
6.40869140625
10.986328125
-0.91552734375
-3.662109375
-0.91552734375
-7.32421875
-11.90185546875
-21.05712890625
-20.1416015625
-21.05712890625
-16.4794921875
-16.4794921875
-9.1552734375
-1.8310546875
-10.07080078125
-13.73291015625
-6.40869140625
-21.05712890625
-18.310546875
-15.56396484375
-16.4794921875
-16.4794921875
-10.07080078125
-1.8310546875
-0.91552734375
-4.57763671875
-10.986328125
-20.1416015625
-26.55029296875
-18.310546875
-14.6484375
-11.90185546875
-2.74658203125
-5.4931640625
-5.4931640625
-7.32421875
-14.6484375
-12.8173828125
-3.662109375
-10.07080078125
-7.32421875
-12.8173828125
-13.73291015625
1.8310546875
4.57763671875
1.8310546875
6.40869140625
0
-2.74658203125
-2.74658203125
-1.8310546875
-6.40869140625
4.57763671875
3.662109375
2.74658203125
10.07080078125
3.662109375
-5.4931640625
-2.74658203125
-9.1552734375
-6.40869140625
-4.57763671875
2.74658203125
6.40869140625
0.91552734375
-2.74658203125
-2.74658203125
-4.57763671875
2.74658203125
3.662109375
-8.23974609375
-0.91552734375
-2.74658203125
0
5.4931640625
-7.32421875
-2.74658203125
-0.91552734375
-5.4931640625
-12.8173828125
-15.56396484375
-12.8173828125
-5.4931640625
-2.74658203125
-7.32421875
-7.32421875
-2.74658203125
-6.40869140625
-12.8173828125
-17.39501953125
-18.310546875
-14.6484375
2.74658203125
-4.57763671875
-0.91552734375
-8.23974609375
-6.40869140625
-14.6484375
-19.22607421875
-13.73291015625
-4.57763671875
-0.91552734375
-3.662109375
-1.8310546875
3.662109375
-3.662109375
-13.73291015625
-10.986328125
-14.6484375
-17.39501953125
-10.986328125
-8.23974609375
-3.662109375
-1.8310546875
-3.662109375
-1.8310546875
-6.40869140625
-16.4794921875
-16.4794921875
-22.88818359375
-22.88818359375
-10.986328125
-2.74658203125
-0.91552734375
-10.986328125
-20.1416015625
-10.07080078125
-1.8310546875
0
-8.23974609375
-4.57763671875
16.4794921875
22.88818359375
24.71923828125
22.88818359375
24.71923828125
21.05712890625
14.6484375
12.8173828125
1.8310546875
12.8173828125
20.1416015625
31.1279296875
32.958984375
28.38134765625
32.958984375
32.04345703125
48.52294921875
43.9453125
41.19873046875
34.7900390625
30.21240234375
25.634765625
32.04345703125
35.70556640625
42.1142578125
42.1142578125
46.69189453125
46.69189453125
44.86083984375
35.70556640625
47.607421875
44.86083984375
30.21240234375
21.97265625
10.986328125
-7.32421875
-13.73291015625
-14.6484375
-14.6484375
-26.55029296875
-24.71923828125
-15.56396484375
-14.6484375
-19.22607421875
-26.55029296875
-36.62109375
-37.53662109375
-27.4658203125
-38.4521484375
-42.1142578125
-43.02978515625
-29.296875
-31.1279296875
-43.02978515625
-43.02978515625
-41.19873046875
-44.86083984375
-46.69189453125
-43.02978515625
-49.4384765625
-40.283203125
-24.71923828125
-29.296875
-38.4521484375
-33.87451171875
-30.21240234375
-36.62109375
-42.1142578125
-43.9453125
-38.4521484375
-38.4521484375
-30.21240234375
-40.283203125
-45.7763671875
-48.52294921875
-44.86083984375
-40.283203125
-43.02978515625
-48.52294921875
-44.86083984375
-47.607421875
-33.87451171875
-26.55029296875
-27.4658203125
-31.1279296875
-29.296875
-29.296875
-33.87451171875
-44.86083984375
-46.69189453125
-46.69189453125
-37.53662109375
-22.88818359375
-19.22607421875
-10.986328125
3.662109375
35.70556640625
103.45458984375
188.5986328125
296.630859375
417.48046875
598.7548828125
786.43798828125
922.8515625
979.6142578125
858.7646484375
684.814453125
486.14501953125
332.33642578125
209.65576171875
67.7490234375
-79.65087890625
-132.75146484375
-145.56884765625
-132.75146484375
-130.92041015625
-135.498046875
-139.16015625
-115.3564453125
-79.65087890625
-45.7763671875
-35.70556640625
-11.90185546875
0
-1.8310546875
0
-8.23974609375
-18.310546875
-14.6484375
-17.39501953125
-8.23974609375
5.4931640625
6.40869140625
-0.91552734375
-3.662109375
-10.07080078125
-14.6484375
-11.90185546875
-6.40869140625
-10.07080078125
-3.662109375
4.57763671875
3.662109375
9.1552734375
10.986328125
0.91552734375
2.74658203125
3.662109375
1.8310546875
7.32421875
10.986328125
16.4794921875
15.56396484375
13.73291015625
7.32421875
10.986328125
10.986328125
17.39501953125
8.23974609375
12.8173828125
24.71923828125
22.88818359375
22.88818359375
32.04345703125
30.21240234375
24.71923828125
24.71923828125
24.71923828125
25.634765625
20.1416015625
26.55029296875
39.36767578125
42.1142578125
48.52294921875
32.958984375
35.70556640625
45.7763671875
37.53662109375
29.296875
35.70556640625
35.70556640625
40.283203125
50.35400390625
60.4248046875
64.0869140625
65.91796875
58.59375
45.7763671875
47.607421875
76.904296875
80.56640625
76.904296875
84.228515625
85.14404296875
88.80615234375
95.21484375
89.7216796875
88.80615234375
95.21484375
95.21484375
101.62353515625
108.94775390625
120.849609375
122.6806640625
120.849609375
120.849609375
130.92041015625
136.41357421875
140.07568359375
145.56884765625
147.39990234375
151.06201171875
158.38623046875
166.6259765625
173.03466796875
179.443359375
185.85205078125
186.767578125
192.2607421875
196.83837890625
192.2607421875
210.5712890625
227.96630859375
226.13525390625
231.62841796875
240.78369140625
234.375
234.375
238.95263671875
248.10791015625
248.10791015625
249.93896484375
255.43212890625
250.8544921875
242.61474609375
241.69921875
226.13525390625
231.62841796875
228.8818359375
213.31787109375
215.14892578125
212.40234375
200.50048828125
188.5986328125
175.78125
155.6396484375
138.24462890625
124.51171875
106.201171875
95.21484375
94.29931640625
88.80615234375
79.65087890625
67.7490234375
59.50927734375
52.18505859375
45.7763671875
34.7900390625
32.04345703125
23.8037109375
15.56396484375
27.4658203125
19.22607421875
6.40869140625
-8.23974609375
-0.91552734375
-3.662109375
-16.4794921875
-21.05712890625
-20.1416015625
-21.05712890625
-23.8037109375
-21.05712890625
-24.71923828125
-26.55029296875
-24.71923828125
-35.70556640625
-32.04345703125
-39.36767578125
-43.9453125
-44.86083984375
-52.18505859375
-35.70556640625
-35.70556640625
-42.1142578125
-41.19873046875
-45.7763671875
-44.86083984375
-56.7626953125
-51.26953125
-43.02978515625
-42.1142578125
-41.19873046875
-32.958984375
-43.02978515625
-39.36767578125
-43.9453125
-33.87451171875
-33.87451171875
-32.958984375
-26.55029296875
-15.56396484375
-22.88818359375
-30.21240234375
-35.70556640625
-38.4521484375
-39.36767578125
-43.9453125
-42.1142578125
-32.04345703125
-43.9453125
-36.62109375
-21.97265625
-28.38134765625
-41.19873046875
-35.70556640625
-32.958984375
-29.296875
-32.04345703125
-37.53662109375
-34.7900390625
-31.1279296875
-22.88818359375
-18.310546875
-25.634765625
-30.21240234375
-27.4658203125
-27.4658203125
-23.8037109375
-23.8037109375
-16.4794921875
-18.310546875
-13.73291015625
-7.32421875
-19.22607421875
-25.634765625
-25.634765625
-20.1416015625
-24.71923828125
-30.21240234375
-32.04345703125
-21.97265625
-14.6484375
-15.56396484375
-14.6484375
-18.310546875
-28.38134765625
-24.71923828125
-27.4658203125
-32.958984375
-21.05712890625
-10.986328125
-17.39501953125
-14.6484375
-18.310546875
-33.87451171875
-35.70556640625
-40.283203125
-46.69189453125
-48.52294921875
-37.53662109375
-33.87451171875
-28.38134765625
-31.1279296875
-32.958984375
-39.36767578125
-35.70556640625
-42.1142578125
-42.1142578125
-44.86083984375
-35.70556640625
-33.87451171875
-32.958984375
-28.38134765625
-22.88818359375
-31.1279296875
-37.53662109375
-36.62109375
-35.70556640625
-37.53662109375
-32.04345703125
-41.19873046875
-37.53662109375
-36.62109375
-37.53662109375
-39.36767578125
-46.69189453125
-46.69189453125
-59.50927734375
-54.931640625
-38.4521484375
-28.38134765625
-34.7900390625
-41.19873046875
-31.1279296875
-24.71923828125
-18.310546875
-32.04345703125
-47.607421875
-43.9453125
-60.4248046875
-53.1005859375
-43.9453125
-48.52294921875
-46.69189453125
-51.26953125
-57.67822265625
-55.84716796875
-52.18505859375
-58.59375
-54.01611328125
-41.19873046875
-33.87451171875
-31.1279296875
-35.70556640625
-33.87451171875
-35.70556640625
-32.958984375
-31.1279296875
-26.55029296875
-12.8173828125
-3.662109375
-5.4931640625
-7.32421875
-10.986328125
10.07080078125
4.57763671875
-13.73291015625
-23.8037109375
-20.1416015625
-1.8310546875
5.4931640625
-0.91552734375
0.91552734375
4.57763671875
-1.8310546875
-6.40869140625
-8.23974609375
-8.23974609375
-4.57763671875
-12.8173828125
-7.32421875
-9.1552734375
-18.310546875
0
0.91552734375
3.662109375
0.91552734375
0.91552734375
14.6484375
20.1416015625
16.4794921875
16.4794921875
4.57763671875
-12.8173828125
-25.634765625
-38.4521484375
-51.26953125
-55.84716796875
-57.67822265625
-58.59375
-44.86083984375
-52.18505859375
-54.01611328125
-63.17138671875
-67.7490234375
-75.0732421875
-74.15771484375
-76.904296875
-79.65087890625
-82.3974609375
-80.56640625
-77.81982421875
-75.98876953125
-76.904296875
-78.7353515625
-81.48193359375
-82.3974609375
-84.228515625
-85.14404296875
-86.0595703125
-77.81982421875
-75.0732421875
-79.65087890625
-77.81982421875
-79.65087890625
-86.0595703125
-84.228515625
-85.14404296875
-79.65087890625
-85.14404296875
-80.56640625
-77.81982421875
-82.3974609375
-81.48193359375
-81.48193359375
-88.80615234375
-81.48193359375
-80.56640625
-83.31298828125
-83.31298828125
-80.56640625
-76.904296875
-77.81982421875
-78.7353515625
-75.98876953125
-75.98876953125
-77.81982421875
-75.98876953125
-64.0869140625
-55.84716796875
-52.18505859375
-40.283203125
-25.634765625
0
28.38134765625
81.48193359375
176.69677734375
290.22216796875
445.86181640625
650.0244140625
852.35595703125
1013.48876953125
1085.8154296875
997.9248046875
794.677734375
563.96484375
390.93017578125
246.27685546875
102.5390625
-52.18505859375
-115.3564453125
-148.3154296875
-151.06201171875
-160.21728515625
-155.6396484375
-135.498046875
-104.3701171875
-77.81982421875
-52.18505859375
-34.7900390625
-33.87451171875
-15.56396484375
-30.21240234375
-34.7900390625
-32.04345703125
-49.4384765625
-52.18505859375
-46.69189453125
-49.4384765625
-56.7626953125
-43.9453125
-32.958984375
-30.21240234375
-38.4521484375
-31.1279296875
-32.958984375
-38.4521484375
-45.7763671875
-48.52294921875
-43.02978515625
-46.69189453125
-43.02978515625
-42.1142578125
-36.62109375
-32.04345703125
-37.53662109375
-41.19873046875
-33.87451171875
-38.4521484375
-31.1279296875
-23.8037109375
-22.88818359375
-18.310546875
-24.71923828125
-25.634765625
-18.310546875
-18.310546875
-21.97265625
-20.1416015625
-10.07080078125
-5.4931640625
-0.91552734375
-5.4931640625
-14.6484375
-26.55029296875
-13.73291015625
-12.8173828125
-12.8173828125
0.91552734375
1.8310546875
6.40869140625
10.07080078125
0.91552734375
1.8310546875
10.986328125
6.40869140625
0
-4.57763671875
5.4931640625
10.986328125
22.88818359375
22.88818359375
23.8037109375
23.8037109375
28.38134765625
30.21240234375
32.04345703125
30.21240234375
23.8037109375
23.8037109375
38.4521484375
45.7763671875
54.01611328125
51.26953125
52.18505859375
55.84716796875
61.34033203125
65.00244140625
69.580078125
73.2421875
80.56640625
86.0595703125
74.15771484375
91.552734375
92.46826171875
96.13037109375
104.3701171875
108.94775390625
98.876953125
113.525390625
125.42724609375
139.16015625
140.9912109375
144.6533203125
140.9912109375
138.24462890625
143.73779296875
156.55517578125
163.87939453125
162.04833984375
169.37255859375
179.443359375
178.52783203125
185.85205078125
193.17626953125
195.00732421875
197.75390625
201.416015625
205.99365234375
207.82470703125
220.64208984375
222.47314453125
220.64208984375
214.2333984375
206.9091796875
198.66943359375
184.9365234375
176.69677734375
185.85205078125
176.69677734375
160.21728515625
148.3154296875
131.8359375
119.0185546875
114.44091796875
102.5390625
91.552734375
73.2421875
56.7626953125
53.1005859375
43.9453125
40.283203125
15.56396484375
1.8310546875
-2.74658203125
-10.986328125
-1.8310546875
-12.8173828125
-16.4794921875
-16.4794921875
-16.4794921875
-16.4794921875
-18.310546875
-26.55029296875
-32.958984375
-34.7900390625
-39.36767578125
-40.283203125
-39.36767578125
-47.607421875
-43.9453125
-42.1142578125
-44.86083984375
-51.26953125
-53.1005859375
-54.931640625
-57.67822265625
-58.59375
-67.7490234375
-65.91796875
-56.7626953125
-71.4111328125
-62.255859375
-54.931640625
-53.1005859375
-57.67822265625
-50.35400390625
-53.1005859375
-73.2421875
-62.255859375
-65.00244140625
-56.7626953125
-65.00244140625
-63.17138671875
-63.17138671875
-66.83349609375
-56.7626953125
-54.01611328125
-65.00244140625
-60.4248046875
-59.50927734375
-58.59375
-53.1005859375
-56.7626953125
-66.83349609375
-66.83349609375
-66.83349609375
-67.7490234375
-65.91796875
-57.67822265625
-55.84716796875
-53.1005859375
-53.1005859375
-50.35400390625
-47.607421875
-45.7763671875
-48.52294921875
-52.18505859375
-51.26953125
-50.35400390625
-42.1142578125
-40.283203125
-39.36767578125
-51.26953125
-53.1005859375
-57.67822265625
-52.18505859375
-52.18505859375
-56.7626953125
-45.7763671875
-37.53662109375
-23.8037109375
-35.70556640625
-43.02978515625
-48.52294921875
-67.7490234375
-61.34033203125
-54.01611328125
-52.18505859375
-56.7626953125
-56.7626953125
-51.26953125
-46.69189453125
-47.607421875
-38.4521484375
-51.26953125
-62.255859375
-68.66455078125
-74.15771484375
-60.4248046875
-53.1005859375
-48.52294921875
-43.02978515625
-42.1142578125
-46.69189453125
-45.7763671875
-44.86083984375
-52.18505859375
-55.84716796875
-48.52294921875
-45.7763671875
-38.4521484375
-44.86083984375
-54.01611328125
-51.26953125
-63.17138671875
-57.67822265625
-58.59375
-61.34033203125
-53.1005859375
-44.86083984375
-40.283203125
-50.35400390625
-53.1005859375
-50.35400390625
-46.69189453125
-51.26953125
-59.50927734375
-59.50927734375
-59.50927734375
-58.59375
-57.67822265625
-58.59375
-61.34033203125
-60.4248046875
-66.83349609375
-75.98876953125
-73.2421875
-58.59375
-54.01611328125
-56.7626953125
-50.35400390625
-56.7626953125
-64.0869140625
-68.66455078125
-64.0869140625
-64.0869140625
-66.83349609375
-71.4111328125
-65.91796875
-59.50927734375
-62.255859375
-58.59375
-66.83349609375
-61.34033203125
-65.00244140625
-62.255859375
-63.17138671875
-62.255859375
-41.19873046875
-27.4658203125
-23.8037109375
-23.8037109375
-26.55029296875
-28.38134765625
-36.62109375
-36.62109375
-32.04345703125
-39.36767578125
-26.55029296875
-21.97265625
-21.97265625
-23.8037109375
-14.6484375
-12.8173828125
2.74658203125
-1.8310546875
-13.73291015625
-7.32421875
6.40869140625
-1.8310546875
-12.8173828125
-15.56396484375
-14.6484375
-13.73291015625
-17.39501953125
-12.8173828125
-21.97265625
-26.55029296875
-14.6484375
-9.1552734375
-17.39501953125
-28.38134765625
-29.296875
-42.1142578125
-63.17138671875
-64.0869140625
-63.17138671875
-70.49560546875
-72.32666015625
-62.255859375
-51.26953125
-54.01611328125
-67.7490234375
-71.4111328125
-83.31298828125
-91.552734375
-85.14404296875
-90.63720703125
-86.0595703125
-69.580078125
-73.2421875
-79.65087890625
-84.228515625
-80.56640625
-83.31298828125
-86.0595703125
-77.81982421875
-74.15771484375
-84.228515625
-88.80615234375
-72.32666015625
-76.904296875
-85.14404296875
-76.904296875
-75.98876953125
-82.3974609375
-86.97509765625
-93.3837890625
-90.63720703125
-81.48193359375
-74.15771484375
-74.15771484375
-80.56640625
-85.14404296875
-83.31298828125
-84.228515625
-86.0595703125
-88.80615234375
-82.3974609375
-72.32666015625
-76.904296875
-76.904296875
-81.48193359375
-83.31298828125
-81.48193359375
-80.56640625
-77.81982421875
-84.228515625
-71.4111328125
-56.7626953125
-47.607421875
-32.04345703125
-28.38134765625
-8.23974609375
18.310546875
79.65087890625
162.9638671875
260.92529296875
399.169921875
596.00830078125
792.8466796875
938.41552734375
1007.080078125
926.513671875
747.0703125
520.93505859375
353.3935546875
209.65576171875
72.32666015625
-81.48193359375
-148.3154296875
-186.767578125
-174.86572265625
-174.86572265625
-177.6123046875
-164.794921875
-131.8359375
-102.5390625
-74.15771484375
-54.01611328125
-36.62109375
-34.7900390625
-20.1416015625
-22.88818359375
-24.71923828125
-29.296875
-40.283203125
-42.1142578125
-37.53662109375
-30.21240234375
-23.8037109375
-18.310546875
-24.71923828125
-31.1279296875
-37.53662109375
-36.62109375
-31.1279296875
-26.55029296875
-18.310546875
-18.310546875
-13.73291015625
-13.73291015625
-11.90185546875
-19.22607421875
-32.04345703125
-18.310546875
-15.56396484375
-16.4794921875
-26.55029296875
-15.56396484375
-11.90185546875
-3.662109375
0
-13.73291015625
-11.90185546875
-3.662109375
-13.73291015625
-3.662109375
0
15.56396484375
23.8037109375
12.8173828125
17.39501953125
3.662109375
8.23974609375
2.74658203125
0.91552734375
4.57763671875
10.986328125
18.310546875
13.73291015625
20.1416015625
28.38134765625
26.55029296875
20.1416015625
23.8037109375
21.97265625
19.22607421875
23.8037109375
36.62109375
43.02978515625
43.9453125
50.35400390625
53.1005859375
52.18505859375
50.35400390625
54.01611328125
57.67822265625
62.255859375
67.7490234375
75.0732421875
75.98876953125
82.3974609375
84.228515625
83.31298828125
80.56640625
74.15771484375
82.3974609375
89.7216796875
88.80615234375
107.11669921875
112.60986328125
111.6943359375
117.1875
117.1875
130.0048828125
128.173828125
125.42724609375
142.822265625
161.1328125
159.3017578125
162.9638671875
174.86572265625
181.2744140625
178.52783203125
179.443359375
193.17626953125
194.091796875
200.50048828125
209.65576171875
223.388671875
223.388671875
232.5439453125
231.62841796875
235.29052734375
234.375
235.29052734375
238.037109375
240.78369140625
251.77001953125
258.1787109375
249.93896484375
251.77001953125
247.1923828125
241.69921875
239.8681640625
225.2197265625
217.8955078125
200.50048828125
199.5849609375
220.64208984375
199.5849609375
181.2744140625
169.37255859375
151.06201171875
143.73779296875
124.51171875
107.11669921875
96.13037109375
81.48193359375
78.7353515625
78.7353515625
63.17138671875
41.19873046875
30.21240234375
30.21240234375
35.70556640625
21.05712890625
10.07080078125
7.32421875
7.32421875
5.4931640625
-0.91552734375
-7.32421875
-2.74658203125
-10.986328125
-26.55029296875
-21.97265625
-21.05712890625
-10.986328125
-14.6484375
-10.07080078125
-18.310546875
-26.55029296875
-46.69189453125
-42.1142578125
-34.7900390625
-35.70556640625
-36.62109375
-22.88818359375
-23.8037109375
-25.634765625
-27.4658203125
-19.22607421875
-32.958984375
-37.53662109375
-34.7900390625
-44.86083984375
-41.19873046875
-23.8037109375
-27.4658203125
-40.283203125
-37.53662109375
-38.4521484375
-35.70556640625
-37.53662109375
-44.86083984375
-41.19873046875
-32.04345703125
-23.8037109375
-26.55029296875
-25.634765625
-32.04345703125
-28.38134765625
-27.4658203125
-28.38134765625
-45.7763671875
-44.86083984375
-36.62109375
-28.38134765625
-34.7900390625
-34.7900390625
-27.4658203125
-20.1416015625
-20.1416015625
-25.634765625
-30.21240234375
-31.1279296875
-21.97265625
-20.1416015625
-12.8173828125
-5.4931640625
-10.07080078125
-3.662109375
-7.32421875
-15.56396484375
-20.1416015625
-20.1416015625
-19.22607421875
-9.1552734375
-13.73291015625
-17.39501953125
-11.90185546875
-12.8173828125
-18.310546875
-5.4931640625
-10.07080078125
-8.23974609375
-4.57763671875
-4.57763671875
-7.32421875
3.662109375
-7.32421875
-3.662109375
-7.32421875
-4.57763671875
-6.40869140625
-19.22607421875
-16.4794921875
-7.32421875
-5.4931640625
-7.32421875
-11.90185546875
-15.56396484375
-10.986328125
-17.39501953125
-20.1416015625
-20.1416015625
-15.56396484375
-18.310546875
-16.4794921875
-8.23974609375
-10.986328125
-10.07080078125
-23.8037109375
-26.55029296875
-32.958984375
-29.296875
-29.296875
-18.310546875
-5.4931640625
-9.1552734375
-8.23974609375
-7.32421875
-10.986328125
-15.56396484375
-13.73291015625
-16.4794921875
-11.90185546875
-8.23974609375
1.8310546875
21.97265625
21.97265625
6.40869140625
11.90185546875
11.90185546875
0
20.1416015625
19.22607421875
13.73291015625
13.73291015625
10.986328125
12.8173828125
1.8310546875
18.310546875
15.56396484375
3.662109375
5.4931640625
21.97265625
37.53662109375
41.19873046875
37.53662109375
39.36767578125
28.38134765625
21.97265625
20.1416015625
29.296875
23.8037109375
20.1416015625
24.71923828125
29.296875
14.6484375
23.8037109375
30.21240234375
16.4794921875
10.986328125
1.8310546875
-8.23974609375
-10.986328125
-12.8173828125
-14.6484375
-11.90185546875
-11.90185546875
-20.1416015625
-34.7900390625
-32.04345703125
-34.7900390625
-46.69189453125
-49.4384765625
-38.4521484375
-24.71923828125
-34.7900390625
-27.4658203125
-29.296875
-31.1279296875
-33.87451171875
-41.19873046875
-43.02978515625
-37.53662109375
-32.958984375
-29.296875
-35.70556640625
-49.4384765625
-59.50927734375
-53.1005859375
-58.59375
-56.7626953125
-46.69189453125
-43.02978515625
-34.7900390625
-40.283203125
-40.283203125
-47.607421875
-55.84716796875
-50.35400390625
-55.84716796875
-52.18505859375
-56.7626953125
-54.01611328125
-43.02978515625
-37.53662109375
-39.36767578125
-44.86083984375
-43.02978515625
-40.283203125
-38.4521484375
-41.19873046875
-40.283203125
-34.7900390625
-36.62109375
-30.21240234375
-36.62109375
-40.283203125
-40.283203125
-49.4384765625
-49.4384765625
-49.4384765625
-38.4521484375
-14.6484375
17.39501953125
70.49560546875
158.38623046875
274.658203125
413.818359375
589.599609375
747.0703125
874.32861328125
899.0478515625
775.45166015625
606.0791015625
416.56494140625
270.08056640625
154.72412109375
11.90185546875
-128.173828125
-173.03466796875
-160.21728515625
-138.24462890625
-126.3427734375
-136.41357421875
-127.25830078125
-109.86328125
-92.46826171875
-74.15771484375
-50.35400390625
-30.21240234375
-29.296875
-15.56396484375
4.57763671875
14.6484375
14.6484375
8.23974609375
7.32421875
-2.74658203125
0
1.8310546875
-6.40869140625
-8.23974609375
2.74658203125
2.74658203125
10.07080078125
0.91552734375
-4.57763671875
2.74658203125
4.57763671875
2.74658203125
-4.57763671875
0.91552734375
-0.91552734375
0.91552734375
9.1552734375
7.32421875
10.986328125
7.32421875
0
-1.8310546875
12.8173828125
19.22607421875
19.22607421875
19.22607421875
25.634765625
24.71923828125
24.71923828125
26.55029296875
21.05712890625
16.4794921875
21.05712890625
23.8037109375
30.21240234375
34.7900390625
38.4521484375
38.4521484375
38.4521484375
37.53662109375
34.7900390625
35.70556640625
37.53662109375
30.21240234375
40.283203125
51.26953125
55.84716796875
53.1005859375
55.84716796875
63.17138671875
60.4248046875
59.50927734375
58.59375
58.59375
63.17138671875
65.00244140625
79.65087890625
85.14404296875
80.56640625
82.3974609375
88.80615234375
90.63720703125
89.7216796875
86.97509765625
92.46826171875
98.876953125
105.28564453125
110.77880859375
111.6943359375
121.76513671875
124.51171875
122.6806640625
117.1875
125.42724609375
141.90673828125
150.146484375
158.38623046875
173.03466796875
167.54150390625
170.2880859375
173.03466796875
173.03466796875
180.35888671875
183.10546875
188.5986328125
195.9228515625
209.65576171875
220.64208984375
234.375
230.712890625
233.45947265625
238.037109375
236.2060546875
238.95263671875
248.10791015625
256.34765625
262.75634765625
268.24951171875
263.671875
260.009765625
256.34765625
254.5166015625
253.60107421875
245.361328125
244.44580078125
248.10791015625
241.69921875
230.712890625
215.14892578125
214.2333984375
203.2470703125
178.52783203125
167.54150390625
153.80859375
143.73779296875
131.8359375
128.173828125
120.849609375
108.94775390625
94.29931640625
93.3837890625
90.63720703125
65.91796875
55.84716796875
44.86083984375
45.7763671875
37.53662109375
35.70556640625
26.55029296875
14.6484375
13.73291015625
3.662109375
-2.74658203125
-4.57763671875
-4.57763671875
2.74658203125
9.1552734375
13.73291015625
-2.74658203125
-10.07080078125
-7.32421875
-18.310546875
-21.97265625
-27.4658203125
-30.21240234375
-20.1416015625
-11.90185546875
-16.4794921875
-10.07080078125
-19.22607421875
-23.8037109375
-23.8037109375
-24.71923828125
-23.8037109375
-15.56396484375
-14.6484375
-13.73291015625
-23.8037109375
-26.55029296875
-34.7900390625
-28.38134765625
-34.7900390625
-41.19873046875
-34.7900390625
-34.7900390625
-33.87451171875
-30.21240234375
-21.05712890625
-29.296875
-34.7900390625
-27.4658203125
-23.8037109375
-28.38134765625
-32.958984375
-32.04345703125
-21.05712890625
-13.73291015625
0
-8.23974609375
-17.39501953125
-14.6484375
-15.56396484375
-24.71923828125
-39.36767578125
-34.7900390625
-21.97265625
-3.662109375
-0.91552734375
-4.57763671875
-16.4794921875
-15.56396484375
-20.1416015625
-19.22607421875
-6.40869140625
-8.23974609375
-1.8310546875
-4.57763671875
-2.74658203125
-4.57763671875
-14.6484375
-16.4794921875
-18.310546875
-18.310546875
-18.310546875
-11.90185546875
-9.1552734375
0.91552734375
-0.91552734375
2.74658203125
-5.4931640625
-10.986328125
-12.8173828125
-8.23974609375
-11.90185546875
-9.1552734375
-6.40869140625
-7.32421875
-8.23974609375
-6.40869140625
-7.32421875
-12.8173828125
-13.73291015625
-25.634765625
-28.38134765625
-21.05712890625
-16.4794921875
-10.986328125
-9.1552734375
-14.6484375
-21.97265625
-21.97265625
-21.97265625
-22.88818359375
-23.8037109375
-26.55029296875
-16.4794921875
-18.310546875
-18.310546875
-16.4794921875
-16.4794921875
-20.1416015625
-21.97265625
-29.296875
-35.70556640625
-34.7900390625
-29.296875
-22.88818359375
-18.310546875
-27.4658203125
-17.39501953125
-21.05712890625
-30.21240234375
-33.87451171875
-26.55029296875
-9.1552734375
2.74658203125
7.32421875
3.662109375
5.4931640625
4.57763671875
1.8310546875
0.91552734375
2.74658203125
1.8310546875
0
7.32421875
0.91552734375
-0.91552734375
1.8310546875
10.07080078125
4.57763671875
2.74658203125
16.4794921875
15.56396484375
17.39501953125
21.05712890625
11.90185546875
13.73291015625
10.07080078125
19.22607421875
14.6484375
18.310546875
10.07080078125
6.40869140625
10.986328125
12.8173828125
18.310546875
11.90185546875
-1.8310546875
-4.57763671875
-22.88818359375
-34.7900390625
-36.62109375
-38.4521484375
-32.958984375
-32.04345703125
-21.97265625
-26.55029296875
-38.4521484375
-51.26953125
-55.84716796875
-56.7626953125
-61.34033203125
-60.4248046875
-57.67822265625
-57.67822265625
-64.0869140625
-59.50927734375
-57.67822265625
-57.67822265625
-54.931640625
-63.17138671875
-69.580078125
-68.66455078125
-67.7490234375
-62.255859375
-56.7626953125
-58.59375
-62.255859375
-54.01611328125
-54.01611328125
-58.59375
-59.50927734375
-66.83349609375
-65.91796875
-64.0869140625
-56.7626953125
-44.86083984375
-58.59375
-70.49560546875
-70.49560546875
-71.4111328125
-71.4111328125
-70.49560546875
-60.4248046875
-53.1005859375
-54.01611328125
-59.50927734375
-59.50927734375
-62.255859375
-69.580078125
-68.66455078125
-66.83349609375
-65.00244140625
-73.2421875
-60.4248046875
-52.18505859375
-45.7763671875
-36.62109375
-27.4658203125
-11.90185546875
5.4931640625
43.02978515625
122.6806640625
226.13525390625
338.7451171875
493.46923828125
679.3212890625
847.7783203125
966.796875
979.6142578125
840.4541015625
628.96728515625
423.88916015625
281.06689453125
153.80859375
0
-128.173828125
-166.6259765625
-177.6123046875
-173.03466796875
-181.2744140625
-175.78125
-141.90673828125
-115.3564453125
-83.31298828125
-50.35400390625
-41.19873046875
-36.62109375
-24.71923828125
-10.07080078125
-14.6484375
-24.71923828125
-35.70556640625
-36.62109375
-31.1279296875
-21.97265625
-26.55029296875
-28.38134765625
-32.958984375
-30.21240234375
-37.53662109375
-39.36767578125
-34.7900390625
-21.97265625
-21.97265625
-20.1416015625
-25.634765625
-20.1416015625
-22.88818359375
-27.4658203125
-26.55029296875
-27.4658203125
-24.71923828125
-13.73291015625
-15.56396484375
-5.4931640625
-7.32421875
-13.73291015625
-14.6484375
-16.4794921875
-20.1416015625
-10.07080078125
-17.39501953125
-12.8173828125
-0.91552734375
7.32421875
4.57763671875
0
0.91552734375
4.57763671875
2.74658203125
6.40869140625
4.57763671875
6.40869140625
15.56396484375
10.07080078125
14.6484375
15.56396484375
22.88818359375
18.310546875
10.07080078125
8.23974609375
17.39501953125
30.21240234375
23.8037109375
32.958984375
36.62109375
32.958984375
21.97265625
30.21240234375
29.296875
31.1279296875
36.62109375
38.4521484375
49.4384765625
52.18505859375
59.50927734375
64.0869140625
58.59375
56.7626953125
58.59375
65.00244140625
65.00244140625
71.4111328125
78.7353515625
78.7353515625
81.48193359375
86.0595703125
94.29931640625
105.28564453125
106.201171875
112.60986328125
117.1875
116.27197265625
124.51171875
136.41357421875
140.9912109375
142.822265625
142.822265625
142.822265625
154.72412109375
162.04833984375
173.03466796875
188.5986328125
204.16259765625
195.9228515625
183.10546875
194.091796875
196.83837890625
200.50048828125
200.50048828125
202.33154296875
205.078125
212.40234375
219.7265625
228.8818359375
228.8818359375
218.81103515625
219.7265625
206.9091796875
204.16259765625
201.416015625
197.75390625
185.85205078125
185.85205078125
181.2744140625
162.9638671875
150.146484375
140.9912109375
123.59619140625
105.28564453125
97.0458984375
86.0595703125
80.56640625
82.3974609375
71.4111328125
61.34033203125
51.26953125
41.19873046875
31.1279296875
27.4658203125
5.4931640625
-5.4931640625
-1.8310546875
-0.91552734375
-3.662109375
-20.1416015625
-31.1279296875
-37.53662109375
-39.36767578125
-41.19873046875
-50.35400390625
-57.67822265625
-46.69189453125
-44.86083984375
-50.35400390625
-54.931640625
-57.67822265625
-57.67822265625
-58.59375
-53.1005859375
-54.01611328125
-54.931640625
-46.69189453125
-51.26953125
-51.26953125
-50.35400390625
-47.607421875
-51.26953125
-62.255859375
-66.83349609375
-73.2421875
-69.580078125
-63.17138671875
-62.255859375
-62.255859375
-60.4248046875
-59.50927734375
-52.18505859375
-60.4248046875
-67.7490234375
-74.15771484375
-62.255859375
-63.17138671875
-58.59375
-54.931640625
-60.4248046875
-64.0869140625
-62.255859375
-67.7490234375
-72.32666015625
-78.7353515625
-66.83349609375
-68.66455078125
-66.83349609375
-53.1005859375
-42.1142578125
-59.50927734375
-60.4248046875
-60.4248046875
-57.67822265625
-54.931640625
-52.18505859375
-48.52294921875
-43.9453125
-34.7900390625
-37.53662109375
-50.35400390625
-44.86083984375
-43.02978515625
-55.84716796875
-56.7626953125
-54.931640625
-46.69189453125
-35.70556640625
-35.70556640625
-36.62109375
-39.36767578125
-43.9453125
-47.607421875
-48.52294921875
-46.69189453125
-52.18505859375
-43.9453125
-43.02978515625
-46.69189453125
-42.1142578125
-38.4521484375
-43.02978515625
-44.86083984375
-50.35400390625
-56.7626953125
-61.34033203125
-61.34033203125
-53.1005859375
-40.283203125
-54.01611328125
-57.67822265625
-64.0869140625
-60.4248046875
-50.35400390625
-51.26953125
-46.69189453125
-46.69189453125
-50.35400390625
-54.931640625
-59.50927734375
-54.931640625
-50.35400390625
-54.01611328125
-60.4248046875
-61.34033203125
-55.84716796875
-54.01611328125
-48.52294921875
-43.02978515625
-52.18505859375
-56.7626953125
-56.7626953125
-63.17138671875
-64.0869140625
-67.7490234375
-70.49560546875
-62.255859375
-61.34033203125
-59.50927734375
-66.83349609375
-58.59375
-60.4248046875
-69.580078125
-66.83349609375
-71.4111328125
-68.66455078125
-61.34033203125
-58.59375
-48.52294921875
-54.931640625
-62.255859375
-63.17138671875
-63.17138671875
-67.7490234375
-64.0869140625
-75.0732421875
-75.98876953125
-68.66455078125
-58.59375
-60.4248046875
-55.84716796875
-54.931640625
-57.67822265625
-51.26953125
-55.84716796875
-49.4384765625
-37.53662109375
-21.97265625
-21.97265625
-21.97265625
-13.73291015625
-18.310546875
-24.71923828125
-24.71923828125
-26.55029296875
-30.21240234375
-15.56396484375
-5.4931640625
-11.90185546875
-24.71923828125
-12.8173828125
-10.986328125
1.8310546875
-4.57763671875
0.91552734375
3.662109375
-6.40869140625
-12.8173828125
-15.56396484375
-19.22607421875
-15.56396484375
-18.310546875
-17.39501953125
-16.4794921875
-20.1416015625
-21.05712890625
-13.73291015625
-10.986328125
-20.1416015625
-13.73291015625
-23.8037109375
-50.35400390625
-72.32666015625
-75.98876953125
-71.4111328125
-75.98876953125
-68.66455078125
-60.4248046875
-65.91796875
-74.15771484375
-75.0732421875
-79.65087890625
-86.0595703125
-90.63720703125
-87.890625
-93.3837890625
-90.63720703125
-87.890625
-82.3974609375
-71.4111328125
-75.0732421875
-81.48193359375
-97.96142578125
-102.5390625
-103.45458984375
-98.876953125
-89.7216796875
-90.63720703125
-86.0595703125
-87.890625
-90.63720703125
-91.552734375
-94.29931640625
-90.63720703125
-97.96142578125
-108.94775390625
-106.201171875
-96.13037109375
-97.96142578125
-99.79248046875
-94.29931640625
-98.876953125
-108.0322265625
-108.94775390625
-114.44091796875
-111.6943359375
-95.21484375
-86.0595703125
-86.0595703125
-85.14404296875
-84.228515625
-85.14404296875
-85.14404296875
-87.890625
-102.5390625
-103.45458984375
-97.96142578125
-87.890625
-68.66455078125
-72.32666015625
-65.91796875
-54.01611328125
-47.607421875
-19.22607421875
18.310546875
84.228515625
182.18994140625
304.87060546875
476.07421875
670.166015625
863.34228515625
1017.15087890625
1073.91357421875
968.6279296875
755.31005859375
537.41455078125
362.548828125
231.62841796875
94.29931640625
-51.26953125
-129.08935546875
-161.1328125
-168.45703125
-170.2880859375
-171.20361328125
-140.9912109375
-107.11669921875
-76.904296875
-59.50927734375
-36.62109375
-32.04345703125
-35.70556640625
-45.7763671875
-55.84716796875
-52.18505859375
-59.50927734375
-61.34033203125
-51.26953125
-43.02978515625
-45.7763671875
-47.607421875
-50.35400390625
-61.34033203125
-60.4248046875
-63.17138671875
-60.4248046875
-49.4384765625
-48.52294921875
-50.35400390625
-43.9453125
-42.1142578125
-43.9453125
-51.26953125
-57.67822265625
-52.18505859375
-38.4521484375
-43.9453125
-45.7763671875
-36.62109375
-18.310546875
-32.958984375
-33.87451171875
-23.8037109375
-40.283203125
-43.9453125
-31.1279296875
-33.87451171875
-31.1279296875
-32.04345703125
-34.7900390625
-38.4521484375
-39.36767578125
-35.70556640625
-32.958984375
-43.9453125
-39.36767578125
-24.71923828125
-11.90185546875
-10.986328125
-9.1552734375
-10.986328125
-16.4794921875
-10.07080078125
-10.07080078125
-10.986328125
-2.74658203125
0
0.91552734375
11.90185546875
10.07080078125
6.40869140625
10.07080078125
9.1552734375
-1.8310546875
-2.74658203125
7.32421875
8.23974609375
18.310546875
27.4658203125
32.04345703125
39.36767578125
40.283203125
36.62109375
40.283203125
39.36767578125
45.7763671875
53.1005859375
60.4248046875
63.17138671875
69.580078125
72.32666015625
77.81982421875
78.7353515625
78.7353515625
83.31298828125
81.48193359375
95.21484375
101.62353515625
101.62353515625
110.77880859375
120.849609375
135.498046875
126.3427734375
139.16015625
143.73779296875
145.56884765625
135.498046875
142.822265625
164.794921875
173.9501953125
170.2880859375
175.78125
173.03466796875
175.78125
176.69677734375
175.78125
187.68310546875
197.75390625
198.66943359375
201.416015625
198.66943359375
199.5849609375
191.34521484375
184.9365234375
180.35888671875
173.03466796875
172.119140625
165.71044921875
159.3017578125
148.3154296875
130.92041015625
116.27197265625
112.60986328125
99.79248046875
86.97509765625
70.49560546875
58.59375
57.67822265625
54.931640625
51.26953125
26.55029296875
10.07080078125
1.8310546875
-9.1552734375
-14.6484375
-13.73291015625
-18.310546875
-21.05712890625
-21.97265625
-31.1279296875
-33.87451171875
-42.1142578125
-38.4521484375
-50.35400390625
-65.91796875
-59.50927734375
-63.17138671875
-59.50927734375
-56.7626953125
-63.17138671875
-70.49560546875
-72.32666015625
-74.15771484375
-76.904296875
-78.7353515625
-81.48193359375
-73.2421875
-69.580078125
-78.7353515625
-71.4111328125
-76.904296875
-80.56640625
-86.0595703125
-82.3974609375
-84.228515625
-93.3837890625
-79.65087890625
-65.91796875
-65.91796875
-63.17138671875
-71.4111328125
-81.48193359375
-76.904296875
-86.0595703125
-86.0595703125
-78.7353515625
-76.904296875
-77.81982421875
-65.00244140625
-62.255859375
-72.32666015625
-79.65087890625
-77.81982421875
-76.904296875
-75.0732421875
-81.48193359375
-75.98876953125
-65.91796875
-63.17138671875
-62.255859375
-61.34033203125
-71.4111328125
-72.32666015625
-65.91796875
-75.0732421875
-75.98876953125
-76.904296875
-75.0732421875
-66.83349609375
-73.2421875
-75.98876953125
-65.00244140625
-62.255859375
-73.2421875
-86.0595703125
-86.97509765625
-82.3974609375
-65.00244140625
-56.7626953125
-58.59375
-58.59375
-66.83349609375
-70.49560546875
-77.81982421875
-72.32666015625
-69.580078125
-75.0732421875
-69.580078125
-62.255859375
-62.255859375
-62.255859375
-58.59375
-56.7626953125
-63.17138671875
-66.83349609375
-66.83349609375
-60.4248046875
-54.931640625
-48.52294921875
-60.4248046875
-65.00244140625
-67.7490234375
-68.66455078125
-71.4111328125
-71.4111328125
-69.580078125
-57.67822265625
-50.35400390625
-60.4248046875
-63.17138671875
-68.66455078125
-66.83349609375
-62.255859375
-71.4111328125
-73.2421875
-75.98876953125
-61.34033203125
-65.91796875
-69.580078125
-64.0869140625
-65.91796875
-66.83349609375
-65.00244140625
-69.580078125
-80.56640625
-72.32666015625
-73.2421875
-71.4111328125
-65.91796875
-64.0869140625
-60.4248046875
-55.84716796875
-55.84716796875
-69.580078125
-77.81982421875
-79.65087890625
-70.49560546875
-56.7626953125
-55.84716796875
-65.91796875
-66.83349609375
-62.255859375
-69.580078125
-69.580078125
-69.580078125
-75.0732421875
-69.580078125
-62.255859375
-57.67822265625
-60.4248046875
-55.84716796875
-57.67822265625
-69.580078125
-76.904296875
-81.48193359375
-79.65087890625
-69.580078125
-61.34033203125
-58.59375
-57.67822265625
-55.84716796875
-62.255859375
-63.17138671875
-54.931640625
-56.7626953125
-44.86083984375
-35.70556640625
-21.05712890625
-31.1279296875
-35.70556640625
-36.62109375
-35.70556640625
-30.21240234375
-32.958984375
-40.283203125
-33.87451171875
-31.1279296875
-30.21240234375
-24.71923828125
-21.05712890625
-11.90185546875
-8.23974609375
-20.1416015625
-15.56396484375
-10.986328125
-21.05712890625
-22.88818359375
-19.22607421875
-8.23974609375
-7.32421875
-11.90185546875
-4.57763671875
-12.8173828125
-4.57763671875
-1.8310546875
-4.57763671875
-11.90185546875
-13.73291015625
-16.4794921875
-25.634765625
-42.1142578125
-56.7626953125
-58.59375
-63.17138671875
-74.15771484375
-77.81982421875
-73.2421875
-67.7490234375
-66.83349609375
-66.83349609375
-67.7490234375
-65.91796875
-72.32666015625
-88.80615234375
-98.876953125
-97.0458984375
-91.552734375
-87.890625
-79.65087890625
-78.7353515625
-76.904296875
-75.98876953125
-87.890625
-86.97509765625
-87.890625
-91.552734375
-89.7216796875
-77.81982421875
-66.83349609375
-80.56640625
-84.228515625
-76.904296875
-86.97509765625
-84.228515625
-97.0458984375
-98.876953125
-90.63720703125
-88.80615234375
-86.97509765625
-84.228515625
-86.97509765625
-89.7216796875
-86.97509765625
-89.7216796875
-90.63720703125
-93.3837890625
-86.0595703125
-81.48193359375
-76.904296875
-80.56640625
-79.65087890625
-75.0732421875
-80.56640625
-79.65087890625
-74.15771484375
-75.0732421875
-68.66455078125
-67.7490234375
-57.67822265625
-57.67822265625
-54.931640625
-51.26953125
-47.607421875
-17.39501953125
6.40869140625
51.26953125
129.08935546875
225.2197265625
362.548828125
520.01953125
715.02685546875
893.5546875
996.09375
972.2900390625
804.74853515625
578.61328125
400.08544921875
262.75634765625
131.8359375
-28.38134765625
-128.173828125
-174.86572265625
-177.6123046875
-179.443359375
-184.02099609375
-172.119140625
-139.16015625
-109.86328125
-89.7216796875
-66.83349609375
-50.35400390625
-43.02978515625
-41.19873046875
-48.52294921875
-47.607421875
-47.607421875
-47.607421875
-43.9453125
-39.36767578125
-43.02978515625
-43.9453125
-43.02978515625
-60.4248046875
-55.84716796875
-55.84716796875
-51.26953125
-43.02978515625
-41.19873046875
-43.02978515625
-39.36767578125
-36.62109375
-44.86083984375
-43.02978515625
-36.62109375
-35.70556640625
-32.04345703125
-39.36767578125
-34.7900390625
-16.4794921875
-11.90185546875
-16.4794921875
-11.90185546875
-15.56396484375
-23.8037109375
-14.6484375
-12.8173828125
-21.05712890625
-12.8173828125
-14.6484375
-7.32421875
-12.8173828125
-10.07080078125
-4.57763671875
-6.40869140625
-18.310546875
-18.310546875
-14.6484375
-14.6484375
-0.91552734375
15.56396484375
11.90185546875
0
1.8310546875
4.57763671875
2.74658203125
3.662109375
8.23974609375
14.6484375
18.310546875
21.05712890625
22.88818359375
29.296875
23.8037109375
29.296875
24.71923828125
28.38134765625
33.87451171875
36.62109375
50.35400390625
62.255859375
60.4248046875
69.580078125
57.67822265625
63.17138671875
64.0869140625
71.4111328125
76.904296875
86.0595703125
80.56640625
88.80615234375
85.14404296875
95.21484375
90.63720703125
95.21484375
108.94775390625
116.27197265625
121.76513671875
130.0048828125
138.24462890625
146.484375
155.6396484375
165.71044921875
169.37255859375
156.55517578125
163.87939453125
176.69677734375
184.9365234375
197.75390625
207.82470703125
207.82470703125
215.14892578125
216.064453125
219.7265625
226.13525390625
224.30419921875
226.13525390625
233.45947265625
243.5302734375
238.95263671875
238.95263671875
250.8544921875
245.361328125
242.61474609375
237.12158203125
231.62841796875
224.30419921875
224.30419921875
230.712890625
220.64208984375
213.31787109375
196.83837890625
184.02099609375
173.9501953125
149.23095703125
131.8359375
119.93408203125
111.6943359375
98.876953125
94.29931640625
94.29931640625
77.81982421875
60.4248046875
42.1142578125
37.53662109375
27.4658203125
14.6484375
12.8173828125
19.22607421875
6.40869140625
0.91552734375
-10.07080078125
-14.6484375
-12.8173828125
-21.97265625
-24.71923828125
-32.04345703125
-22.88818359375
-11.90185546875
