ECG
-20.1416015625
-22.88818359375
-26.55029296875
-27.4658203125
-34.7900390625
-41.19873046875
-28.38134765625
-24.71923828125
-24.71923828125
-28.38134765625
-36.62109375
-26.55029296875
-28.38134765625
-36.62109375
-34.7900390625
-33.87451171875
-24.71923828125
-24.71923828125
-32.958984375
-17.39501953125
-18.310546875
-21.05712890625
-22.88818359375
-21.97265625
-20.1416015625
-17.39501953125
-10.986328125
-8.23974609375
-9.1552734375
-7.32421875
-16.4794921875
-23.8037109375
-20.1416015625
-10.07080078125
-20.1416015625
-11.90185546875
-7.32421875
-6.40869140625
-3.662109375
-1.8310546875
-8.23974609375
-12.8173828125
-13.73291015625
-7.32421875
-0.91552734375
-4.57763671875
-6.40869140625
0.91552734375
0
9.1552734375
-0.91552734375
-3.662109375
0
-1.8310546875
-1.8310546875
7.32421875
10.986328125
11.90185546875
10.07080078125
14.6484375
21.05712890625
24.71923828125
14.6484375
15.56396484375
17.39501953125
13.73291015625
24.71923828125
22.88818359375
30.21240234375
40.283203125
33.87451171875
33.87451171875
32.04345703125
32.958984375
34.7900390625
38.4521484375
49.4384765625
50.35400390625
54.01611328125
55.84716796875
51.26953125
59.50927734375
68.66455078125
70.49560546875
75.0732421875
71.4111328125
80.56640625
92.46826171875
92.46826171875
102.5390625
101.62353515625
99.79248046875
123.59619140625
115.3564453125
114.44091796875
123.59619140625
142.822265625
145.56884765625
145.56884765625
144.6533203125
156.55517578125
167.54150390625
168.45703125
168.45703125
178.52783203125
181.2744140625
184.9365234375
186.767578125
194.091796875
193.17626953125
186.767578125
196.83837890625
197.75390625
188.5986328125
194.091796875
200.50048828125
193.17626953125
192.2607421875
186.767578125
176.69677734375
170.2880859375
162.04833984375
153.80859375
133.6669921875
118.10302734375
119.0185546875
119.0185546875
101.62353515625
101.62353515625
95.21484375
86.97509765625
71.4111328125
65.91796875
50.35400390625
47.607421875
38.4521484375
33.87451171875
22.88818359375
24.71923828125
16.4794921875
11.90185546875
0
-9.1552734375
-9.1552734375
-4.57763671875
-11.90185546875
-19.22607421875
-21.05712890625
-22.88818359375
-20.1416015625
-26.55029296875
-25.634765625
-31.1279296875
-36.62109375
-33.87451171875
-32.04345703125
-30.21240234375
-31.1279296875
-27.4658203125
-38.4521484375
-42.1142578125
-33.87451171875
-34.7900390625
-46.69189453125
-43.9453125
-39.36767578125
-27.4658203125
-32.04345703125
-34.7900390625
-33.87451171875
-32.958984375
-39.36767578125
-35.70556640625
-42.1142578125
-43.9453125
-32.958984375
-37.53662109375
-34.7900390625
-30.21240234375
-33.87451171875
-37.53662109375
-34.7900390625
-32.04345703125
-35.70556640625
-38.4521484375
-32.958984375
-37.53662109375
-38.4521484375
-28.38134765625
-29.296875
-36.62109375
-40.283203125
-36.62109375
-31.1279296875
-32.04345703125
-25.634765625
-28.38134765625
-27.4658203125
-29.296875
-27.4658203125
-28.38134765625
-33.87451171875
-25.634765625
-29.296875
-28.38134765625
-23.8037109375
-22.88818359375
-32.04345703125
-21.05712890625
-24.71923828125
-29.296875
-28.38134765625
-24.71923828125
-28.38134765625
-29.296875
-27.4658203125
-25.634765625
-21.05712890625
-21.97265625
-24.71923828125
-32.04345703125
-32.958984375
-37.53662109375
-38.4521484375
-33.87451171875
-32.958984375
-32.04345703125
-29.296875
-27.4658203125
-27.4658203125
-28.38134765625
-26.55029296875
-32.958984375
-43.9453125
-35.70556640625
-24.71923828125
-27.4658203125
-27.4658203125
-32.04345703125
-32.958984375
-35.70556640625
-39.36767578125
-47.607421875
-38.4521484375
-38.4521484375
-32.04345703125
-42.1142578125
-40.283203125
-38.4521484375
-31.1279296875
-35.70556640625
-40.283203125
-39.36767578125
-34.7900390625
-43.02978515625
-43.9453125
-40.283203125
-31.1279296875
-27.4658203125
-33.87451171875
-42.1142578125
-35.70556640625
-42.1142578125
-40.283203125
-40.283203125
-36.62109375
-35.70556640625
-38.4521484375
-32.958984375
-39.36767578125
-39.36767578125
-36.62109375
-37.53662109375
-42.1142578125
-43.9453125
-41.19873046875
-38.4521484375
-39.36767578125
-41.19873046875
-43.9453125
-36.62109375
-36.62109375
-34.7900390625
-42.1142578125
-40.283203125
-33.87451171875
-34.7900390625
-42.1142578125
-37.53662109375
-35.70556640625
-36.62109375
-42.1142578125
-39.36767578125
-42.1142578125
-50.35400390625
-47.607421875
-36.62109375
-30.21240234375
-43.02978515625
-40.283203125
-43.9453125
-38.4521484375
-39.36767578125
-44.86083984375
-46.69189453125
-47.607421875
-44.86083984375
-46.69189453125
-36.62109375
-39.36767578125
-43.9453125
-42.1142578125
-38.4521484375
-40.283203125
-42.1142578125
-34.7900390625
-42.1142578125
-44.86083984375
-53.1005859375
-46.69189453125
-43.9453125
-52.18505859375
-47.607421875
-45.7763671875
-34.7900390625
-32.04345703125
-32.04345703125
-36.62109375
-43.02978515625
-40.283203125
-36.62109375
-44.86083984375
-47.607421875
-45.7763671875
-50.35400390625
-43.9453125
-38.4521484375
-41.19873046875
-35.70556640625
-37.53662109375
-39.36767578125
-41.19873046875
-36.62109375
-48.52294921875
-46.69189453125
-37.53662109375
-31.1279296875
-46.69189453125
-44.86083984375
-40.283203125
-44.86083984375
-43.02978515625
-49.4384765625
-54.01611328125
-42.1142578125
-45.7763671875
-42.1142578125
-43.9453125
-43.9453125
-42.1142578125
-46.69189453125
-44.86083984375
-49.4384765625
-49.4384765625
-42.1142578125
-48.52294921875
-45.7763671875
-40.283203125
-36.62109375
-32.04345703125
-36.62109375
-39.36767578125
-33.87451171875
-31.1279296875
-21.97265625
-14.6484375
-10.986328125
-19.22607421875
-17.39501953125
0.91552734375
-0.91552734375
-6.40869140625
0
-1.8310546875
-17.39501953125
-8.23974609375
5.4931640625
5.4931640625
-0.91552734375
0.91552734375
4.57763671875
1.8310546875
17.39501953125
21.97265625
7.32421875
0
0
2.74658203125
-10.986328125
-23.8037109375
-24.71923828125
-29.296875
-22.88818359375
-4.57763671875
-5.4931640625
-18.310546875
-21.05712890625
-10.07080078125
-5.4931640625
-19.22607421875
-43.9453125
-47.607421875
-39.36767578125
-57.67822265625
-58.59375
-52.18505859375
-56.7626953125
-56.7626953125
-50.35400390625
-53.1005859375
-58.59375
-57.67822265625
-52.18505859375
-64.0869140625
-65.91796875
-65.91796875
-59.50927734375
-53.1005859375
-54.01611328125
-55.84716796875
-54.01611328125
-55.84716796875
-55.84716796875
-57.67822265625
-62.255859375
-59.50927734375
-53.1005859375
-47.607421875
-54.931640625
-55.84716796875
-53.1005859375
-38.4521484375
-29.296875
-16.4794921875
-12.8173828125
-21.05712890625
-20.1416015625
19.22607421875
78.7353515625
150.146484375
253.60107421875
384.521484375
503.5400390625
593.26171875
628.96728515625
619.81201171875
559.38720703125
505.37109375
419.3115234375
330.50537109375
265.5029296875
191.34521484375
86.97509765625
-20.1416015625
-91.552734375
-108.94775390625
-119.93408203125
-129.08935546875
-109.86328125
-81.48193359375
-67.7490234375
-52.18505859375
-35.70556640625
-30.21240234375
-25.634765625
-23.8037109375
-23.8037109375
-31.1279296875
-26.55029296875
-35.70556640625
-44.86083984375
-34.7900390625
-42.1142578125
-40.283203125
-35.70556640625
-38.4521484375
-32.958984375
-32.04345703125
-33.87451171875
-36.62109375
-41.19873046875
-37.53662109375
-35.70556640625
-37.53662109375
-35.70556640625
-32.04345703125
-26.55029296875
-25.634765625
-28.38134765625
-32.04345703125
-37.53662109375
-34.7900390625
-29.296875
-32.958984375
-32.958984375
-32.958984375
-28.38134765625
-30.21240234375
-31.1279296875
-27.4658203125
-26.55029296875
-22.88818359375
-31.1279296875
-21.97265625
-19.22607421875
-19.22607421875
-27.4658203125
-17.39501953125
-14.6484375
-15.56396484375
-14.6484375
-18.310546875
-24.71923828125
-10.07080078125
-5.4931640625
-16.4794921875
-7.32421875
-5.4931640625
-12.8173828125
-4.57763671875
0.91552734375
-11.90185546875
-8.23974609375
-2.74658203125
0.91552734375
4.57763671875
0.91552734375
2.74658203125
0.91552734375
2.74658203125
10.986328125
10.986328125
7.32421875
10.986328125
8.23974609375
22.88818359375
20.1416015625
19.22607421875
20.1416015625
30.21240234375
25.634765625
28.38134765625
30.21240234375
23.8037109375
33.87451171875
43.9453125
42.1142578125
36.62109375
49.4384765625
65.91796875
68.66455078125
72.32666015625
71.4111328125
75.98876953125
83.31298828125
86.97509765625
87.890625
97.0458984375
106.201171875
116.27197265625
114.44091796875
116.27197265625
126.3427734375
132.75146484375
137.3291015625
136.41357421875
141.90673828125
145.56884765625
145.56884765625
151.9775390625
154.72412109375
156.55517578125
155.6396484375
152.89306640625
166.6259765625
163.87939453125
170.2880859375
178.52783203125
171.20361328125
177.6123046875
173.9501953125
168.45703125
164.794921875
158.38623046875
155.6396484375
160.21728515625
150.146484375
140.9912109375
136.41357421875
127.25830078125
118.10302734375
108.94775390625
97.96142578125
79.65087890625
78.7353515625
71.4111328125
64.0869140625
51.26953125
44.86083984375
34.7900390625
18.310546875
11.90185546875
10.07080078125
2.74658203125
-5.4931640625
-11.90185546875
-14.6484375
-10.07080078125
-17.39501953125
-15.56396484375
-30.21240234375
-31.1279296875
-39.36767578125
-36.62109375
-35.70556640625
-43.9453125
-30.21240234375
-32.04345703125
-43.02978515625
-45.7763671875
-54.931640625
-51.26953125
-51.26953125
-52.18505859375
-40.283203125
-38.4521484375
-44.86083984375
-47.607421875
-49.4384765625
-44.86083984375
-41.19873046875
-47.607421875
-54.931640625
-48.52294921875
-38.4521484375
-41.19873046875
-34.7900390625
-35.70556640625
-43.02978515625
-45.7763671875
-38.4521484375
-45.7763671875
-51.26953125
-46.69189453125
-36.62109375
-34.7900390625
-41.19873046875
-41.19873046875
-43.9453125
-43.02978515625
-43.02978515625
-42.1142578125
-40.283203125
-36.62109375
-39.36767578125
-33.87451171875
-33.87451171875
-33.87451171875
-27.4658203125
-28.38134765625
-40.283203125
-26.55029296875
-35.70556640625
-38.4521484375
-30.21240234375
-26.55029296875
-32.04345703125
-32.04345703125
-34.7900390625
-26.55029296875
-29.296875
-32.04345703125
-29.296875
-35.70556640625
-34.7900390625
-37.53662109375
-32.04345703125
-32.04345703125
-23.8037109375
-22.88818359375
-25.634765625
-26.55029296875
-24.71923828125
-31.1279296875
-28.38134765625
-28.38134765625
-29.296875
-33.87451171875
-30.21240234375
-27.4658203125
-30.21240234375
-32.04345703125
-36.62109375
-34.7900390625
-43.9453125
-41.19873046875
-39.36767578125
-39.36767578125
-34.7900390625
-33.87451171875
-37.53662109375
-36.62109375
-42.1142578125
-36.62109375
-40.283203125
-39.36767578125
-30.21240234375
-39.36767578125
-28.38134765625
-34.7900390625
-42.1142578125
-39.36767578125
-32.04345703125
-32.04345703125
-42.1142578125
-43.02978515625
-39.36767578125
-43.02978515625
-39.36767578125
-34.7900390625
-43.9453125
-43.9453125
-45.7763671875
-45.7763671875
-53.1005859375
-49.4384765625
-37.53662109375
-31.1279296875
-34.7900390625
-45.7763671875
-43.9453125
-45.7763671875
-49.4384765625
-42.1142578125
-43.02978515625
-41.19873046875
-30.21240234375
-34.7900390625
-40.283203125
-41.19873046875
-36.62109375
-39.36767578125
-35.70556640625
-40.283203125
-47.607421875
-43.02978515625
-47.607421875
-40.283203125
-32.04345703125
-33.87451171875
-42.1142578125
-42.1142578125
-40.283203125
-40.283203125
-38.4521484375
-43.9453125
-40.283203125
-40.283203125
-41.19873046875
-44.86083984375
-42.1142578125
-46.69189453125
-45.7763671875
-44.86083984375
-43.9453125
-49.4384765625
-38.4521484375
-39.36767578125
-39.36767578125
-43.02978515625
-42.1142578125
-43.9453125
-43.02978515625
-49.4384765625
-46.69189453125
-39.36767578125
-34.7900390625
-40.283203125
-37.53662109375
-41.19873046875
-48.52294921875
-43.9453125
-42.1142578125
-41.19873046875
-44.86083984375
-35.70556640625
-31.1279296875
-36.62109375
-37.53662109375
-38.4521484375
-34.7900390625
-37.53662109375
-42.1142578125
-41.19873046875
-43.02978515625
-39.36767578125
-33.87451171875
-39.36767578125
-43.02978515625
-35.70556640625
-32.958984375
-34.7900390625
-38.4521484375
-39.36767578125
-39.36767578125
-36.62109375
-38.4521484375
-33.87451171875
-38.4521484375
-40.283203125
-43.02978515625
-46.69189453125
-46.69189453125
-36.62109375
-41.19873046875
-41.19873046875
-44.86083984375
-46.69189453125
-51.26953125
-41.19873046875
-43.02978515625
-40.283203125
-37.53662109375
-37.53662109375
-34.7900390625
-37.53662109375
-33.87451171875
-27.4658203125
-15.56396484375
-13.73291015625
-15.56396484375
-17.39501953125
-12.8173828125
-6.40869140625
-2.74658203125
0
-10.07080078125
-5.4931640625
7.32421875
6.40869140625
4.57763671875
-7.32421875
0
11.90185546875
15.56396484375
16.4794921875
23.8037109375
15.56396484375
7.32421875
-4.57763671875
-13.73291015625
-30.21240234375
-33.87451171875
-25.634765625
-14.6484375
-10.07080078125
-10.986328125
-1.8310546875
0
-2.74658203125
-11.90185546875
-21.05712890625
-34.7900390625
-32.04345703125
-46.69189453125
-56.7626953125
-54.01611328125
-65.91796875
-60.4248046875
-56.7626953125
-63.17138671875
-61.34033203125
-66.83349609375
-57.67822265625
-54.01611328125
-55.84716796875
-54.931640625
-51.26953125
-48.52294921875
-50.35400390625
-55.84716796875
-51.26953125
-50.35400390625
-51.26953125
-58.59375
-54.01611328125
-56.7626953125
-47.607421875
-51.26953125
-54.01611328125
-50.35400390625
-47.607421875
-57.67822265625
-54.931640625
-43.02978515625
-35.70556640625
-24.71923828125
-29.296875
-30.21240234375
-12.8173828125
41.19873046875
108.94775390625
207.82470703125
346.0693359375
470.5810546875
589.599609375
670.166015625
698.54736328125
657.3486328125
578.61328125
494.384765625
400.08544921875
314.94140625
242.61474609375
147.39990234375
43.02978515625
-43.9453125
-95.21484375
-134.58251953125
-158.38623046875
-141.90673828125
-112.60986328125
-87.890625
-69.580078125
-61.34033203125
-41.19873046875
-27.4658203125
-21.05712890625
-13.73291015625
-15.56396484375
-11.90185546875
-9.1552734375
-21.97265625
-33.87451171875
-27.4658203125
-15.56396484375
-16.4794921875
-17.39501953125
-20.1416015625
-26.55029296875
-17.39501953125
-22.88818359375
-25.634765625
-24.71923828125
-22.88818359375
-23.8037109375
-24.71923828125
-15.56396484375
-13.73291015625
-13.73291015625
-13.73291015625
-11.90185546875
-12.8173828125
-14.6484375
-18.310546875
-3.662109375
-3.662109375
-4.57763671875
0
-12.8173828125
-15.56396484375
-10.07080078125
-3.662109375
-7.32421875
-8.23974609375
-2.74658203125
-2.74658203125
4.57763671875
8.23974609375
1.8310546875
2.74658203125
-8.23974609375
-9.1552734375
-3.662109375
-0.91552734375
2.74658203125
-0.91552734375
-0.91552734375
2.74658203125
1.8310546875
1.8310546875
-0.91552734375
13.73291015625
15.56396484375
4.57763671875
18.310546875
32.04345703125
22.88818359375
20.1416015625
19.22607421875
18.310546875
21.05712890625
29.296875
37.53662109375
32.958984375
39.36767578125
40.283203125
45.7763671875
43.9453125
44.86083984375
40.283203125
39.36767578125
43.02978515625
54.01611328125
62.255859375
64.0869140625
62.255859375
60.4248046875
67.7490234375
75.98876953125
76.904296875
78.7353515625
85.14404296875
86.97509765625
81.48193359375
93.3837890625
103.45458984375
108.94775390625
120.849609375
115.3564453125
123.59619140625
134.58251953125
134.58251953125
141.90673828125
141.90673828125
143.73779296875
158.38623046875
162.04833984375
162.04833984375
169.37255859375
175.78125
182.18994140625
173.03466796875
180.35888671875
199.5849609375
196.83837890625
201.416015625
201.416015625
207.82470703125
209.65576171875
208.740234375
201.416015625
197.75390625
194.091796875
194.091796875
190.4296875
187.68310546875
184.9365234375
173.9501953125
167.54150390625
159.3017578125
140.07568359375
122.6806640625
114.44091796875
109.86328125
102.5390625
97.96142578125
98.876953125
84.228515625
74.15771484375
66.83349609375
46.69189453125
41.19873046875
35.70556640625
29.296875
15.56396484375
21.97265625
19.22607421875
5.4931640625
-1.8310546875
-3.662109375
-13.73291015625
-11.90185546875
-22.88818359375
-20.1416015625
-16.4794921875
-17.39501953125
-16.4794921875
-17.39501953125
-22.88818359375
-25.634765625
-30.21240234375
-23.8037109375
-23.8037109375
-22.88818359375
-27.4658203125
-30.21240234375
-32.958984375
-33.87451171875
-36.62109375
-39.36767578125
-31.1279296875
-34.7900390625
-36.62109375
-43.02978515625
-32.958984375
-21.05712890625
-26.55029296875
-28.38134765625
-24.71923828125
-32.04345703125
-37.53662109375
-31.1279296875
-39.36767578125
-28.38134765625
-26.55029296875
-24.71923828125
-26.55029296875
-24.71923828125
-24.71923828125
-23.8037109375
-33.87451171875
-34.7900390625
-32.04345703125
-32.958984375
-23.8037109375
-32.04345703125
-36.62109375
-32.958984375
-26.55029296875
-42.1142578125
-40.283203125
-32.958984375
-32.958984375
-25.634765625
-32.958984375
-27.4658203125
-27.4658203125
-20.1416015625
-22.88818359375
-32.958984375
-34.7900390625
-45.7763671875
-43.02978515625
-32.958984375
-34.7900390625
-28.38134765625
-21.05712890625
-29.296875
-28.38134765625
-28.38134765625
-21.97265625
-25.634765625
-25.634765625
-22.88818359375
-27.4658203125
-30.21240234375
-27.4658203125
-29.296875
-32.04345703125
-36.62109375
-33.87451171875
-35.70556640625
-32.04345703125
-34.7900390625
-33.87451171875
-34.7900390625
-36.62109375
-39.36767578125
-43.02978515625
-32.04345703125
-32.04345703125
-51.26953125
-42.1142578125
-43.02978515625
-36.62109375
-39.36767578125
-44.86083984375
-42.1142578125
-42.1142578125
-43.9453125
-40.283203125
-43.9453125
-50.35400390625
-50.35400390625
-37.53662109375
-40.283203125
-43.9453125
-42.1142578125
-37.53662109375
-45.7763671875
-52.18505859375
-54.931640625
-64.0869140625
-58.59375
-54.01611328125
-55.84716796875
-42.1142578125
-47.607421875
-43.02978515625
-46.69189453125
-54.01611328125
-46.69189453125
-47.607421875
-38.4521484375
-28.38134765625
-31.1279296875
-31.1279296875
-36.62109375
-41.19873046875
-50.35400390625
-48.52294921875
-51.26953125
-43.9453125
-36.62109375
-42.1142578125
-48.52294921875
-37.53662109375
-46.69189453125
-49.4384765625
-51.26953125
-43.9453125
-39.36767578125
-40.283203125
-40.283203125
-45.7763671875
-48.52294921875
-43.02978515625
-41.19873046875
-46.69189453125
-44.86083984375
-47.607421875
-49.4384765625
-36.62109375
-36.62109375
-47.607421875
-43.02978515625
-45.7763671875
-48.52294921875
-49.4384765625
-47.607421875
-41.19873046875
-54.931640625
-44.86083984375
-43.02978515625
-45.7763671875
-47.607421875
-48.52294921875
-46.69189453125
-46.69189453125
-48.52294921875
-50.35400390625
-46.69189453125
-52.18505859375
-52.18505859375
-46.69189453125
-47.607421875
-54.931640625
-53.1005859375
-45.7763671875
-44.86083984375
-48.52294921875
-45.7763671875
-44.86083984375
-51.26953125
-51.26953125
-48.52294921875
-54.01611328125
-55.84716796875
-51.26953125
-44.86083984375
-32.04345703125
-36.62109375
-27.4658203125
-29.296875
-23.8037109375
-18.310546875
-13.73291015625
-11.90185546875
-15.56396484375
-15.56396484375
-15.56396484375
-28.38134765625
-24.71923828125
-8.23974609375
0.91552734375
-2.74658203125
-3.662109375
-7.32421875
0
4.57763671875
6.40869140625
10.986328125
5.4931640625
6.40869140625
0.91552734375
-13.73291015625
-23.8037109375
-32.958984375
-32.04345703125
-26.55029296875
-14.6484375
-15.56396484375
-19.22607421875
-20.1416015625
-15.56396484375
-20.1416015625
-26.55029296875
-37.53662109375
-47.607421875
-57.67822265625
-56.7626953125
-65.00244140625
-66.83349609375
-77.81982421875
-75.0732421875
-64.0869140625
-69.580078125
-65.91796875
-61.34033203125
-58.59375
-64.0869140625
-59.50927734375
-62.255859375
-65.00244140625
-60.4248046875
-55.84716796875
-62.255859375
-64.0869140625
-59.50927734375
-59.50927734375
-67.7490234375
-60.4248046875
-60.4248046875
-63.17138671875
-63.17138671875
-51.26953125
-60.4248046875
-64.0869140625
-54.931640625
-53.1005859375
-45.7763671875
-38.4521484375
-38.4521484375
-25.634765625
15.56396484375
95.21484375
174.86572265625
285.64453125
426.6357421875
551.1474609375
660.09521484375
717.7734375
721.435546875
648.193359375
563.04931640625
472.412109375
375.3662109375
283.8134765625
194.091796875
87.890625
-12.8173828125
-107.11669921875
-144.6533203125
-180.35888671875
-172.119140625
-145.56884765625
-128.173828125
-92.46826171875
-77.81982421875
-67.7490234375
-47.607421875
-37.53662109375
-31.1279296875
-32.958984375
-24.71923828125
-33.87451171875
-30.21240234375
-26.55029296875
-33.87451171875
-41.19873046875
-35.70556640625
-30.21240234375
-28.38134765625
-18.310546875
-27.4658203125
-29.296875
-19.22607421875
-14.6484375
-20.1416015625
-23.8037109375
-20.1416015625
-25.634765625
-31.1279296875
-18.310546875
-17.39501953125
-15.56396484375
-21.05712890625
-18.310546875
-16.4794921875
-10.986328125
-10.986328125
-20.1416015625
-15.56396484375
-12.8173828125
-3.662109375
-8.23974609375
-16.4794921875
-6.40869140625
-8.23974609375
-8.23974609375
-8.23974609375
-12.8173828125
-6.40869140625
-4.57763671875
-3.662109375
-4.57763671875
-1.8310546875
-2.74658203125
0.91552734375
2.74658203125
1.8310546875
0
1.8310546875
0.91552734375
8.23974609375
10.07080078125
3.662109375
5.4931640625
7.32421875
9.1552734375
10.986328125
16.4794921875
14.6484375
13.73291015625
15.56396484375
16.4794921875
13.73291015625
21.97265625
32.04345703125
32.958984375
36.62109375
32.04345703125
36.62109375
36.62109375
43.02978515625
45.7763671875
49.4384765625
55.84716796875
48.52294921875
52.18505859375
60.4248046875
71.4111328125
67.7490234375
74.15771484375
80.56640625
86.97509765625
82.3974609375
93.3837890625
93.3837890625
103.45458984375
109.86328125
104.3701171875
114.44091796875
120.849609375
130.0048828125
130.0048828125
138.24462890625
147.39990234375
158.38623046875
162.9638671875
162.9638671875
165.71044921875
171.20361328125
174.86572265625
178.52783203125
187.68310546875
187.68310546875
189.51416015625
187.68310546875
190.4296875
190.4296875
196.83837890625
201.416015625
201.416015625
205.99365234375
198.66943359375
200.50048828125
203.2470703125
206.9091796875
188.5986328125
191.34521484375
178.52783203125
165.71044921875
172.119140625
161.1328125
156.55517578125
141.90673828125
124.51171875
111.6943359375
98.876953125
101.62353515625
84.228515625
65.91796875
57.67822265625
52.18505859375
52.18505859375
45.7763671875
31.1279296875
22.88818359375
26.55029296875
17.39501953125
8.23974609375
9.1552734375
4.57763671875
-10.07080078125
-13.73291015625
-13.73291015625
-16.4794921875
-4.57763671875
-13.73291015625
-17.39501953125
-21.97265625
-25.634765625
-30.21240234375
-17.39501953125
-25.634765625
-32.04345703125
-29.296875
-35.70556640625
-36.62109375
-35.70556640625
-45.7763671875
-45.7763671875
-64.0869140625
-43.9453125
-29.296875
-43.02978515625
-54.01611328125
-46.69189453125
-43.02978515625
-46.69189453125
-56.7626953125
-43.02978515625
-52.18505859375
-52.18505859375
-36.62109375
-39.36767578125
-32.958984375
-40.283203125
-44.86083984375
-43.02978515625
-60.4248046875
-43.02978515625
-42.1142578125
-43.9453125
-39.36767578125
-42.1142578125
-43.9453125
-47.607421875
-44.86083984375
-39.36767578125
-27.4658203125
-40.283203125
-33.87451171875
-27.4658203125
-38.4521484375
-30.21240234375
-32.04345703125
-25.634765625
-41.19873046875
-50.35400390625
-40.283203125
-42.1142578125
-36.62109375
-30.21240234375
-29.296875
-25.634765625
-31.1279296875
-30.21240234375
-38.4521484375
-50.35400390625
-50.35400390625
-43.02978515625
-36.62109375
-30.21240234375
-35.70556640625
-45.7763671875
-38.4521484375
-30.21240234375
-37.53662109375
-27.4658203125
-38.4521484375
-43.02978515625
-50.35400390625
-43.9453125
-44.86083984375
-43.9453125
-42.1142578125
-64.0869140625
-55.84716796875
-41.19873046875
-36.62109375
-37.53662109375
-51.26953125
-56.7626953125
-51.26953125
-49.4384765625
-44.86083984375
-39.36767578125
-36.62109375
-47.607421875
-42.1142578125
-45.7763671875
-50.35400390625
-41.19873046875
-36.62109375
-43.02978515625
-41.19873046875
-46.69189453125
-38.4521484375
-48.52294921875
-59.50927734375
-40.283203125
-46.69189453125
-38.4521484375
-42.1142578125
-56.7626953125
-57.67822265625
-61.34033203125
-63.17138671875
-66.83349609375
-66.83349609375
-70.49560546875
-78.7353515625
-91.552734375
-98.876953125
-89.7216796875
-81.48193359375
-82.3974609375
-73.2421875
-60.4248046875
-65.91796875
-86.0595703125
-75.0732421875
-68.66455078125
-57.67822265625
-38.4521484375
-21.05712890625
-31.1279296875
-47.607421875
-46.69189453125
-45.7763671875
-43.02978515625
-47.607421875
-54.01611328125
-36.62109375
-38.4521484375
-70.49560546875
-70.49560546875
-54.01611328125
-60.4248046875
-56.7626953125
-57.67822265625
-65.00244140625
-59.50927734375
-69.580078125
-69.580078125
-61.34033203125
-64.0869140625
-70.49560546875
-83.31298828125
-90.63720703125
-92.46826171875
-86.97509765625
-80.56640625
-85.14404296875
-73.2421875
-66.83349609375
-76.904296875
-82.3974609375
-66.83349609375
-65.00244140625
-71.4111328125
-61.34033203125
-38.4521484375
-39.36767578125
-44.86083984375
-41.19873046875
-54.931640625
-69.580078125
-75.0732421875
-74.15771484375
-65.00244140625
-46.69189453125
-53.1005859375
-59.50927734375
-63.17138671875
-50.35400390625
-49.4384765625
-74.15771484375
-78.7353515625
-71.4111328125
-62.255859375
-54.01611328125
-53.1005859375
-53.1005859375
-32.04345703125
-30.21240234375
-46.69189453125
-50.35400390625
-48.52294921875
-48.52294921875
-39.36767578125
-33.87451171875
-14.6484375
-21.97265625
-44.86083984375
-37.53662109375
-13.73291015625
-19.22607421875
-17.39501953125
-8.23974609375
-14.6484375
-10.986328125
9.1552734375
7.32421875
-21.05712890625
-31.1279296875
-32.958984375
-29.296875
-21.97265625
-49.4384765625
-65.00244140625
-60.4248046875
-44.86083984375
-35.70556640625
-29.296875
-15.56396484375
-14.6484375
-32.04345703125
-33.87451171875
-39.36767578125
-46.69189453125
-62.255859375
-78.7353515625
-76.904296875
-87.890625
-75.98876953125
-75.98876953125
-86.97509765625
-85.14404296875
-62.255859375
-57.67822265625
-74.15771484375
-77.81982421875
-60.4248046875
-57.67822265625
-67.7490234375
-54.01611328125
-56.7626953125
-54.01611328125
-69.580078125
-88.80615234375
-60.4248046875
-73.2421875
-93.3837890625
-99.79248046875
-82.3974609375
-71.4111328125
-69.580078125
-64.0869140625
-65.91796875
-67.7490234375
-53.1005859375
-54.01611328125
-43.02978515625
-40.283203125
-56.7626953125
-45.7763671875
-3.662109375
60.4248046875
138.24462890625
255.43212890625
378.11279296875
485.2294921875
570.37353515625
627.13623046875
646.3623046875
587.7685546875
516.357421875
440.36865234375
329.58984375
237.12158203125
197.75390625
116.27197265625
-8.23974609375
-80.56640625
-120.849609375
-134.58251953125
-160.21728515625
-130.92041015625
-119.0185546875
-121.76513671875
-109.86328125
-77.81982421875
-47.607421875
-21.97265625
-17.39501953125
-4.57763671875
-13.73291015625
-19.22607421875
-17.39501953125
-16.4794921875
-24.71923828125
-20.1416015625
-19.22607421875
-27.4658203125
-40.283203125
-46.69189453125
-54.931640625
-59.50927734375
-61.34033203125
-76.904296875
-70.49560546875
-38.4521484375
-8.23974609375
-2.74658203125
17.39501953125
15.56396484375
5.4931640625
6.40869140625
8.23974609375
-2.74658203125
9.1552734375
16.4794921875
9.1552734375
8.23974609375
28.38134765625
25.634765625
12.8173828125
-12.8173828125
-27.4658203125
-25.634765625
-6.40869140625
14.6484375
5.4931640625
8.23974609375
16.4794921875
2.74658203125
-9.1552734375
-14.6484375
-16.4794921875
-15.56396484375
-27.4658203125
-15.56396484375
-20.1416015625
-20.1416015625
-13.73291015625
-21.97265625
-13.73291015625
4.57763671875
9.1552734375
40.283203125
43.9453125
34.7900390625
35.70556640625
44.86083984375
22.88818359375
10.986328125
22.88818359375
10.07080078125
-1.8310546875
9.1552734375
23.8037109375
44.86083984375
64.0869140625
56.7626953125
43.9453125
34.7900390625
26.55029296875
27.4658203125
32.958984375
32.958984375
32.04345703125
32.04345703125
19.22607421875
30.21240234375
63.17138671875
68.66455078125
65.91796875
75.0732421875
86.97509765625
62.255859375
51.26953125
65.00244140625
59.50927734375
74.15771484375
95.21484375
112.60986328125
134.58251953125
165.71044921875
171.20361328125
154.72412109375
150.146484375
163.87939453125
173.9501953125
176.69677734375
170.2880859375
168.45703125
157.470703125
184.9365234375
184.02099609375
177.6123046875
187.68310546875
194.091796875
223.388671875
225.2197265625
207.82470703125
205.078125
205.078125
195.00732421875
177.6123046875
204.16259765625
193.17626953125
182.18994140625
168.45703125
169.37255859375
151.9775390625
153.80859375
171.20361328125
164.794921875
147.39990234375
135.498046875
120.849609375
82.3974609375
70.49560546875
79.65087890625
96.13037109375
98.876953125
74.15771484375
56.7626953125
39.36767578125
48.52294921875
53.1005859375
31.1279296875
13.73291015625
17.39501953125
16.4794921875
7.32421875
14.6484375
17.39501953125
-9.1552734375
-26.55029296875
-21.97265625
-25.634765625
-21.97265625
-10.986328125
-10.986328125
-21.97265625
-28.38134765625
-32.04345703125
-29.296875
-31.1279296875
-23.8037109375
-32.958984375
-41.19873046875
-49.4384765625
-32.04345703125
-15.56396484375
-16.4794921875
-23.8037109375
-30.21240234375
-20.1416015625
-38.4521484375
-51.26953125
-42.1142578125
-35.70556640625
-42.1142578125
-43.9453125
-32.04345703125
-4.57763671875
-9.1552734375
-27.4658203125
-46.69189453125
-32.958984375
-34.7900390625
-48.52294921875
-62.255859375
-54.01611328125
-52.18505859375
-70.49560546875
-49.4384765625
-24.71923828125
-29.296875
-11.90185546875
-17.39501953125
-32.04345703125
-21.97265625
-22.88818359375
-34.7900390625
-18.310546875
-12.8173828125
-10.07080078125
-10.986328125
-12.8173828125
-13.73291015625
-6.40869140625
-19.22607421875
-29.296875
-30.21240234375
-19.22607421875
-10.07080078125
-20.1416015625
-18.310546875
-8.23974609375
-5.4931640625
-7.32421875
-5.4931640625
-13.73291015625
-11.90185546875
-15.56396484375
-1.8310546875
-12.8173828125
-23.8037109375
-8.23974609375
-17.39501953125
-38.4521484375
-28.38134765625
-19.22607421875
-25.634765625
-21.05712890625
-8.23974609375
-0.91552734375
-12.8173828125
-13.73291015625
-13.73291015625
-9.1552734375
-19.22607421875
-37.53662109375
-21.97265625
-12.8173828125
-20.1416015625
-28.38134765625
-21.05712890625
-11.90185546875
-10.986328125
-20.1416015625
-5.4931640625
3.662109375
-2.74658203125
-22.88818359375
-19.22607421875
-27.4658203125
-28.38134765625
-20.1416015625
-8.23974609375
-1.8310546875
-3.662109375
-15.56396484375
-26.55029296875
-24.71923828125
-27.4658203125
-28.38134765625
-25.634765625
-5.4931640625
-7.32421875
8.23974609375
-1.8310546875
-12.8173828125
-16.4794921875
-22.88818359375
-12.8173828125
-9.1552734375
-10.07080078125
-32.958984375
-21.97265625
-21.05712890625
-27.4658203125
-21.05712890625
-3.662109375
11.90185546875
1.8310546875
-15.56396484375
-21.97265625
-21.05712890625
-17.39501953125
-29.296875
-50.35400390625
-50.35400390625
-27.4658203125
-15.56396484375
-12.8173828125
-9.1552734375
1.8310546875
-5.4931640625
-4.57763671875
0
-6.40869140625
0.91552734375
-7.32421875
-12.8173828125
-6.40869140625
-17.39501953125
-12.8173828125
-21.05712890625
-21.97265625
-9.1552734375
-3.662109375
-14.6484375
-7.32421875
-8.23974609375
-5.4931640625
4.57763671875
-6.40869140625
-24.71923828125
-44.86083984375
-31.1279296875
-12.8173828125
-17.39501953125
-21.97265625
-7.32421875
-1.8310546875
8.23974609375
11.90185546875
10.07080078125
12.8173828125
2.74658203125
-0.91552734375
-1.8310546875
-15.56396484375
-15.56396484375
-16.4794921875
-8.23974609375
12.8173828125
11.90185546875
-13.73291015625
-14.6484375
-12.8173828125
-13.73291015625
-21.97265625
-28.38134765625
-12.8173828125
0.91552734375
0
0
-24.71923828125
-21.97265625
-13.73291015625
-9.1552734375
15.56396484375
-2.74658203125
-21.05712890625
-12.8173828125
7.32421875
40.283203125
28.38134765625
24.71923828125
45.7763671875
20.1416015625
31.1279296875
23.8037109375
47.607421875
54.931640625
40.283203125
35.70556640625
11.90185546875
25.634765625
40.283203125
47.607421875
32.958984375
34.7900390625
43.02978515625
41.19873046875
54.01611328125
54.01611328125
53.1005859375
44.86083984375
31.1279296875
35.70556640625
23.8037109375
13.73291015625
-8.23974609375
7.32421875
15.56396484375
27.4658203125
31.1279296875
27.4658203125
29.296875
14.6484375
13.73291015625
29.296875
0.91552734375
-3.662109375
1.8310546875
-4.57763671875
-7.32421875
-22.88818359375
-11.90185546875
-7.32421875
-4.57763671875
-21.05712890625
-22.88818359375
-15.56396484375
-21.97265625
-32.04345703125
-12.8173828125
1.8310546875
-13.73291015625
-27.4658203125
-5.4931640625
-4.57763671875
-13.73291015625
-9.1552734375
-21.97265625
1.8310546875
3.662109375
-3.662109375
21.05712890625
3.662109375
-9.1552734375
-7.32421875
-16.4794921875
23.8037109375
1.8310546875
-13.73291015625
-2.74658203125
3.662109375
20.1416015625
84.228515625
141.90673828125
227.96630859375
323.18115234375
495.30029296875
574.951171875
693.9697265625
746.15478515625
712.2802734375
653.6865234375
630.79833984375
540.1611328125
441.2841796875
370.78857421875
263.671875
179.443359375
81.48193359375
7.32421875
-51.26953125
-77.81982421875
-96.13037109375
-75.0732421875
-38.4521484375
-36.62109375
-21.97265625
-8.23974609375
5.4931640625
9.1552734375
10.986328125
19.22607421875
46.69189453125
-21.05712890625
-30.21240234375
-7.32421875
5.4931640625
-0.91552734375
-2.74658203125
26.55029296875
6.40869140625
-14.6484375
-7.32421875
-5.4931640625
1.8310546875
27.4658203125
0
-30.21240234375
16.4794921875
36.62109375
64.0869140625
25.634765625
16.4794921875
4.57763671875
-4.57763671875
13.73291015625
-10.07080078125
-7.32421875
12.8173828125
27.4658203125
33.87451171875
21.05712890625
50.35400390625
15.56396484375
0
-9.1552734375
29.296875
14.6484375
28.38134765625
-1.8310546875
25.634765625
27.4658203125
28.38134765625
28.38134765625
54.931640625
43.02978515625
18.310546875
19.22607421875
10.07080078125
32.958984375
25.634765625
46.69189453125
59.50927734375
30.21240234375
36.62109375
37.53662109375
17.39501953125
48.52294921875
53.1005859375
52.18505859375
33.87451171875
32.958984375
19.22607421875
8.23974609375
27.4658203125
61.34033203125
65.91796875
62.255859375
70.49560546875
59.50927734375
54.01611328125
68.66455078125
74.15771484375
84.228515625
99.79248046875
56.7626953125
66.83349609375
70.49560546875
102.5390625
104.3701171875
122.6806640625
109.86328125
110.77880859375
126.3427734375
107.11669921875
110.77880859375
124.51171875
145.56884765625
148.3154296875
149.23095703125
119.0185546875
125.42724609375
140.07568359375
157.470703125
177.6123046875
178.52783203125
175.78125
176.69677734375
212.40234375
220.64208984375
201.416015625
190.4296875
187.68310546875
180.35888671875
209.65576171875
195.00732421875
197.75390625
213.31787109375
244.44580078125
254.5166015625
241.69921875
218.81103515625
227.96630859375
258.1787109375
227.96630859375
255.43212890625
261.8408203125
243.5302734375
224.30419921875
217.8955078125
216.97998046875
216.064453125
195.9228515625
198.66943359375
195.00732421875
174.86572265625
170.2880859375
135.498046875
173.03466796875
143.73779296875
101.62353515625
94.29931640625
87.890625
77.81982421875
71.4111328125
44.86083984375
50.35400390625
47.607421875
76.904296875
41.19873046875
42.1142578125
33.87451171875
44.86083984375
21.05712890625
46.69189453125
54.931640625
74.15771484375
61.34033203125
43.02978515625
58.59375
2.74658203125
15.56396484375
29.296875
22.88818359375
28.38134765625
6.40869140625
29.296875
3.662109375
18.310546875
-0.91552734375
-2.74658203125
3.662109375
33.87451171875
16.4794921875
-8.23974609375
10.07080078125
25.634765625
-19.22607421875
0.91552734375
0
22.88818359375
45.7763671875
14.6484375
48.52294921875
10.07080078125
8.23974609375
34.7900390625
-4.57763671875
-2.74658203125
18.310546875
3.662109375
12.8173828125
21.05712890625
21.05712890625
8.23974609375
21.05712890625
8.23974609375
5.4931640625
8.23974609375
19.22607421875
2.74658203125
0
3.662109375
20.1416015625
-6.40869140625
-20.1416015625
25.634765625
35.70556640625
2.74658203125
6.40869140625
13.73291015625
29.296875
4.57763671875
44.86083984375
34.7900390625
45.7763671875
38.4521484375
13.73291015625
39.36767578125
34.7900390625
4.57763671875
19.22607421875
11.90185546875
21.97265625
15.56396484375
30.21240234375
26.55029296875
44.86083984375
30.21240234375
5.4931640625
27.4658203125
31.1279296875
-0.91552734375
-6.40869140625
0.91552734375
32.04345703125
31.1279296875
10.07080078125
23.8037109375
38.4521484375
9.1552734375
30.21240234375
28.38134765625
9.1552734375
14.6484375
1.8310546875
1.8310546875
6.40869140625
11.90185546875
22.88818359375
19.22607421875
10.986328125
20.1416015625
6.40869140625
-17.39501953125
10.07080078125
36.62109375
18.310546875
10.986328125
20.1416015625
14.6484375
25.634765625
11.90185546875
7.32421875
-7.32421875
-7.32421875
22.88818359375
47.607421875
49.4384765625
13.73291015625
16.4794921875
18.310546875
-6.40869140625
-21.05712890625
-14.6484375
-2.74658203125
7.32421875
11.90185546875
21.05712890625
61.34033203125
22.88818359375
22.88818359375
43.02978515625
55.84716796875
38.4521484375
6.40869140625
10.07080078125
-12.8173828125
4.57763671875
11.90185546875
13.73291015625
34.7900390625
16.4794921875
15.56396484375
13.73291015625
-8.23974609375
-14.6484375
4.57763671875
21.97265625
39.36767578125
37.53662109375
23.8037109375
5.4931640625
0.91552734375
-7.32421875
13.73291015625
21.05712890625
30.21240234375
7.32421875
-14.6484375
-12.8173828125
12.8173828125
21.97265625
20.1416015625
12.8173828125
1.8310546875
23.8037109375
33.87451171875
35.70556640625
19.22607421875
10.986328125
9.1552734375
11.90185546875
13.73291015625
32.04345703125
27.4658203125
20.1416015625
32.04345703125
23.8037109375
20.1416015625
23.8037109375
31.1279296875
9.1552734375
1.8310546875
6.40869140625
6.40869140625
8.23974609375
33.87451171875
22.88818359375
12.8173828125
17.39501953125
10.986328125
19.22607421875
12.8173828125
20.1416015625
28.38134765625
14.6484375
14.6484375
16.4794921875
26.55029296875
27.4658203125
5.4931640625
21.05712890625
25.634765625
-7.32421875
-7.32421875
19.22607421875
22.88818359375
26.55029296875
14.6484375
25.634765625
30.21240234375
33.87451171875
34.7900390625
24.71923828125
20.1416015625
25.634765625
47.607421875
29.296875
20.1416015625
18.310546875
23.8037109375
16.4794921875
12.8173828125
18.310546875
33.87451171875
30.21240234375
32.04345703125
32.04345703125
30.21240234375
32.958984375
37.53662109375
47.607421875
49.4384765625
48.52294921875
66.83349609375
70.49560546875
72.32666015625
63.17138671875
51.26953125
42.1142578125
63.17138671875
79.65087890625
70.49560546875
57.67822265625
62.255859375
51.26953125
61.34033203125
64.0869140625
103.45458984375
98.876953125
81.48193359375
86.0595703125
74.15771484375
71.4111328125
56.7626953125
46.69189453125
59.50927734375
64.0869140625
69.580078125
88.80615234375
64.0869140625
35.70556640625
42.1142578125
57.67822265625
44.86083984375
43.02978515625
60.4248046875
57.67822265625
35.70556640625
32.04345703125
26.55029296875
23.8037109375
18.310546875
16.4794921875
6.40869140625
18.310546875
16.4794921875
26.55029296875
32.04345703125
24.71923828125
14.6484375
17.39501953125
7.32421875
-3.662109375
10.986328125
28.38134765625
32.958984375
40.283203125
33.87451171875
40.283203125
48.52294921875
34.7900390625
42.1142578125
35.70556640625
43.02978515625
33.87451171875
29.296875
46.69189453125
74.15771484375
82.3974609375
62.255859375
77.81982421875
115.3564453125
186.767578125
257.26318359375
360.7177734375
497.13134765625
646.3623046875
726.9287109375
769.04296875
772.705078125
709.53369140625
663.75732421875
606.0791015625
487.97607421875
404.6630859375
337.82958984375
238.037109375
115.3564453125
36.62109375
9.1552734375
2.74658203125
-14.6484375
-23.8037109375
-1.8310546875
16.4794921875
30.21240234375
52.18505859375
58.59375
64.0869140625
80.56640625
44.86083984375
52.18505859375
75.0732421875
65.91796875
65.00244140625
65.91796875
63.17138671875
72.32666015625
70.49560546875
75.98876953125
57.67822265625
64.0869140625
66.83349609375
56.7626953125
59.50927734375
56.7626953125
66.83349609375
72.32666015625
74.15771484375
70.49560546875
65.91796875
65.00244140625
65.00244140625
75.0732421875
79.65087890625
73.2421875
72.32666015625
61.34033203125
74.15771484375
78.7353515625
76.904296875
86.0595703125
86.0595703125
78.7353515625
84.228515625
65.00244140625
60.4248046875
86.97509765625
85.14404296875
75.98876953125
80.56640625
75.98876953125
72.32666015625
82.3974609375
107.11669921875
101.62353515625
106.201171875
105.28564453125
96.13037109375
104.3701171875
87.890625
99.79248046875
85.14404296875
64.0869140625
81.48193359375
75.98876953125
76.904296875
93.3837890625
86.0595703125
97.96142578125
86.0595703125
99.79248046875
111.6943359375
124.51171875
123.59619140625
119.93408203125
124.51171875
119.0185546875
124.51171875
128.173828125
131.8359375
139.16015625
127.25830078125
114.44091796875
121.76513671875
124.51171875
140.07568359375
144.6533203125
145.56884765625
145.56884765625
144.6533203125
145.56884765625
147.39990234375
158.38623046875
161.1328125
178.52783203125
186.767578125
196.83837890625
186.767578125
188.5986328125
195.00732421875
201.416015625
198.66943359375
198.66943359375
216.064453125
236.2060546875
252.685546875
234.375
233.45947265625
248.10791015625
268.24951171875
278.3203125
262.75634765625
276.4892578125
264.58740234375
270.99609375
281.06689453125
275.57373046875
293.88427734375
292.05322265625
303.955078125
303.03955078125
292.96875
289.306640625
292.05322265625
279.23583984375
275.57373046875
284.72900390625
287.4755859375
276.4892578125
251.77001953125
248.10791015625
245.361328125
230.712890625
222.47314453125
208.740234375
206.9091796875
205.078125
181.2744140625
177.6123046875
162.04833984375
142.822265625
145.56884765625
139.16015625
125.42724609375
156.55517578125
162.04833984375
128.173828125
106.201171875
104.3701171875
85.14404296875
76.904296875
70.49560546875
65.91796875
60.4248046875
69.580078125
60.4248046875
68.66455078125
92.46826171875
84.228515625
69.580078125
73.2421875
75.98876953125
75.98876953125
70.49560546875
67.7490234375
65.00244140625
63.17138671875
61.34033203125
65.91796875
65.00244140625
65.00244140625
65.00244140625
51.26953125
48.52294921875
51.26953125
49.4384765625
47.607421875
45.7763671875
41.19873046875
35.70556640625
56.7626953125
33.87451171875
40.283203125
41.19873046875
48.52294921875
48.52294921875
38.4521484375
51.26953125
58.59375
53.1005859375
36.62109375
28.38134765625
32.958984375
43.9453125
39.36767578125
32.04345703125
14.6484375
34.7900390625
44.86083984375
45.7763671875
46.69189453125
37.53662109375
37.53662109375
36.62109375
50.35400390625
61.34033203125
60.4248046875
62.255859375
53.1005859375
51.26953125
49.4384765625
54.931640625
51.26953125
40.283203125
48.52294921875
50.35400390625
50.35400390625
43.9453125
41.19873046875
45.7763671875
43.9453125
38.4521484375
34.7900390625
42.1142578125
37.53662109375
42.1142578125
55.84716796875
57.67822265625
63.17138671875
44.86083984375
40.283203125
50.35400390625
46.69189453125
39.36767578125
44.86083984375
32.958984375
25.634765625
32.04345703125
34.7900390625
24.71923828125
19.22607421875
31.1279296875
15.56396484375
1.8310546875
18.310546875
41.19873046875
52.18505859375
43.02978515625
40.283203125
43.02978515625
43.9453125
41.19873046875
43.02978515625
31.1279296875
29.296875
21.97265625
31.1279296875
29.296875
32.958984375
28.38134765625
39.36767578125
36.62109375
36.62109375
43.9453125
39.36767578125
31.1279296875
31.1279296875
35.70556640625
34.7900390625
22.88818359375
21.05712890625
21.97265625
11.90185546875
10.986328125
24.71923828125
32.958984375
32.04345703125
30.21240234375
28.38134765625
15.56396484375
21.05712890625
18.310546875
19.22607421875
12.8173828125
12.8173828125
21.97265625
23.8037109375
17.39501953125
16.4794921875
16.4794921875
18.310546875
25.634765625
16.4794921875
20.1416015625
14.6484375
16.4794921875
37.53662109375
38.4521484375
33.87451171875
30.21240234375
21.05712890625
15.56396484375
10.986328125
15.56396484375
12.8173828125
10.986328125
24.71923828125
17.39501953125
5.4931640625
10.07080078125
18.310546875
13.73291015625
13.73291015625
16.4794921875
13.73291015625
7.32421875
11.90185546875
13.73291015625
12.8173828125
13.73291015625
14.6484375
23.8037109375
22.88818359375
17.39501953125
10.07080078125
8.23974609375
10.986328125
9.1552734375
10.07080078125
17.39501953125
21.97265625
11.90185546875
13.73291015625
13.73291015625
7.32421875
7.32421875
14.6484375
10.986328125
9.1552734375
17.39501953125
9.1552734375
13.73291015625
14.6484375
9.1552734375
0.91552734375
13.73291015625
15.56396484375
15.56396484375
1.8310546875
-2.74658203125
4.57763671875
11.90185546875
5.4931640625
0.91552734375
15.56396484375
6.40869140625
2.74658203125
4.57763671875
0
5.4931640625
7.32421875
1.8310546875
-11.90185546875
0.91552734375
-0.91552734375
6.40869140625
4.57763671875
8.23974609375
2.74658203125
10.07080078125
12.8173828125
0.91552734375
-3.662109375
-4.57763671875
1.8310546875
-18.310546875
3.662109375
8.23974609375
11.90185546875
19.22607421875
13.73291015625
21.05712890625
20.1416015625
15.56396484375
16.4794921875
23.8037109375
31.1279296875
33.87451171875
32.958984375
28.38134765625
32.958984375
37.53662109375
33.87451171875
20.1416015625
21.05712890625
46.69189453125
41.19873046875
64.0869140625
64.0869140625
72.32666015625
65.91796875
54.931640625
28.38134765625
31.1279296875
32.04345703125
22.88818359375
21.05712890625
15.56396484375
30.21240234375
27.4658203125
21.97265625
21.97265625
28.38134765625
28.38134765625
21.05712890625
8.23974609375
6.40869140625
-4.57763671875
-20.1416015625
-22.88818359375
-25.634765625
-30.21240234375
-34.7900390625
-28.38134765625
-24.71923828125
-15.56396484375
-26.55029296875
-31.1279296875
-37.53662109375
-30.21240234375
-31.1279296875
-28.38134765625
-23.8037109375
-26.55029296875
-21.97265625
-10.07080078125
-18.310546875
-24.71923828125
-20.1416015625
-30.21240234375
-34.7900390625
-23.8037109375
-28.38134765625
-22.88818359375
-27.4658203125
-36.62109375
-27.4658203125
-10.986328125
-14.6484375
-21.97265625
-8.23974609375
-4.57763671875
25.634765625
87.890625
160.21728515625
272.8271484375
406.494140625
522.76611328125
641.78466796875
728.759765625
742.49267578125
681.15234375
614.31884765625
529.1748046875
437.6220703125
358.88671875
270.99609375
163.87939453125
55.84716796875
-37.53662109375
-95.21484375
-123.59619140625
-159.3017578125
-140.9912109375
-103.45458984375
-77.81982421875
-65.91796875
-64.0869140625
-44.86083984375
-32.04345703125
-21.05712890625
-7.32421875
-9.1552734375
-2.74658203125
-9.1552734375
-14.6484375
-10.986328125
-13.73291015625
-10.986328125
-4.57763671875
-9.1552734375
-2.74658203125
-10.986328125
-13.73291015625
-7.32421875
-6.40869140625
-19.22607421875
-9.1552734375
-3.662109375
-7.32421875
-8.23974609375
-14.6484375
-8.23974609375
-4.57763671875
0
-12.8173828125
-3.662109375
5.4931640625
8.23974609375
5.4931640625
3.662109375
0.91552734375
0
0.91552734375
7.32421875
9.1552734375
2.74658203125
10.986328125
10.07080078125
9.1552734375
4.57763671875
9.1552734375
10.07080078125
7.32421875
10.07080078125
21.97265625
21.05712890625
18.310546875
21.05712890625
22.88818359375
12.8173828125
15.56396484375
10.986328125
12.8173828125
17.39501953125
21.05712890625
23.8037109375
27.4658203125
26.55029296875
26.55029296875
34.7900390625
27.4658203125
19.22607421875
34.7900390625
45.7763671875
44.86083984375
39.36767578125
42.1142578125
44.86083984375
46.69189453125
49.4384765625
46.69189453125
43.02978515625
54.01611328125
65.91796875
68.66455078125
63.17138671875
76.904296875
70.49560546875
69.580078125
80.56640625
84.228515625
88.80615234375
86.0595703125
94.29931640625
108.94775390625
119.93408203125
105.28564453125
114.44091796875
114.44091796875
119.93408203125
131.8359375
131.8359375
141.90673828125
150.146484375
155.6396484375
164.794921875
166.6259765625
172.119140625
176.69677734375
175.78125
184.9365234375
192.2607421875
193.17626953125
208.740234375
201.416015625
205.99365234375
213.31787109375
212.40234375
213.31787109375
223.388671875
228.8818359375
222.47314453125
225.2197265625
226.13525390625
223.388671875
219.7265625
217.8955078125
218.81103515625
216.064453125
203.2470703125
194.091796875
184.02099609375
181.2744140625
173.03466796875
163.87939453125
148.3154296875
137.3291015625
123.59619140625
113.525390625
103.45458984375
92.46826171875
83.31298828125
78.7353515625
62.255859375
59.50927734375
47.607421875
46.69189453125
41.19873046875
38.4521484375
19.22607421875
6.40869140625
-0.91552734375
5.4931640625
10.07080078125
4.57763671875
-6.40869140625
-17.39501953125
-12.8173828125
-15.56396484375
-21.97265625
-16.4794921875
-10.986328125
-10.986328125
-22.88818359375
-21.05712890625
-26.55029296875
-28.38134765625
-22.88818359375
-32.04345703125
-34.7900390625
-41.19873046875
-48.52294921875
-35.70556640625
-35.70556640625
-35.70556640625
-35.70556640625
-38.4521484375
-42.1142578125
-36.62109375
-24.71923828125
-39.36767578125
-49.4384765625
-38.4521484375
-33.87451171875
-43.02978515625
-32.958984375
-35.70556640625
-37.53662109375
-43.02978515625
-36.62109375
-36.62109375
-35.70556640625
-36.62109375
-36.62109375
-47.607421875
-41.19873046875
-30.21240234375
-30.21240234375
-35.70556640625
-43.9453125
-43.02978515625
-43.9453125
-40.283203125
-34.7900390625
-42.1142578125
-38.4521484375
-42.1142578125
-38.4521484375
-35.70556640625
-35.70556640625
-53.1005859375
-43.02978515625
-42.1142578125
-39.36767578125
-39.36767578125
-45.7763671875
-40.283203125
-47.607421875
-54.01611328125
-45.7763671875
-49.4384765625
-48.52294921875
-33.87451171875
-32.04345703125
-45.7763671875
-44.86083984375
-43.9453125
-49.4384765625
-48.52294921875
-51.26953125
-53.1005859375
-54.01611328125
-51.26953125
-52.18505859375
-50.35400390625
-42.1142578125
-46.69189453125
-56.7626953125
-52.18505859375
-52.18505859375
-56.7626953125
-48.52294921875
-49.4384765625
-54.931640625
-55.84716796875
-61.34033203125
-57.67822265625
-57.67822265625
-62.255859375
-54.01611328125
-62.255859375
-68.66455078125
-64.0869140625
-56.7626953125
-52.18505859375
-63.17138671875
-64.0869140625
-60.4248046875
-68.66455078125
-80.56640625
-74.15771484375
-65.91796875
-56.7626953125
-54.931640625
-62.255859375
-68.66455078125
-63.17138671875
-51.26953125
-62.255859375
-56.7626953125
-54.931640625
-56.7626953125
-57.67822265625
-63.17138671875
-79.65087890625
-70.49560546875
-68.66455078125
-66.83349609375
-69.580078125
-83.31298828125
-86.97509765625
-80.56640625
-70.49560546875
-62.255859375
-65.00244140625
-68.66455078125
-67.7490234375
-61.34033203125
-68.66455078125
-74.15771484375
-65.91796875
-68.66455078125
-82.3974609375
-73.2421875
-72.32666015625
-63.17138671875
-67.7490234375
-55.84716796875
-60.4248046875
-71.4111328125
-76.904296875
-75.0732421875
-65.00244140625
-61.34033203125
-68.66455078125
-75.98876953125
-75.98876953125
-62.255859375
-65.91796875
-75.98876953125
-67.7490234375
-76.904296875
-61.34033203125
-61.34033203125
-67.7490234375
-56.7626953125
-54.01611328125
-43.9453125
-38.4521484375
-47.607421875
-49.4384765625
-37.53662109375
-21.97265625
-31.1279296875
-18.310546875
-22.88818359375
-32.04345703125
-34.7900390625
-27.4658203125
-35.70556640625
-42.1142578125
-15.56396484375
-13.73291015625
-31.1279296875
-21.05712890625
-8.23974609375
-16.4794921875
0.91552734375
3.662109375
-9.1552734375
-26.55029296875
-34.7900390625
-38.4521484375
-32.04345703125
-42.1142578125
-44.86083984375
-34.7900390625
-38.4521484375
-43.9453125
-43.9453125
-40.283203125
-43.02978515625
-53.1005859375
-65.00244140625
-58.59375
-73.2421875
-75.0732421875
-69.580078125
-72.32666015625
-73.2421875
-88.80615234375
-77.81982421875
-93.3837890625
-93.3837890625
-89.7216796875
-89.7216796875
-95.21484375
-87.890625
-97.96142578125
-97.96142578125
-92.46826171875
-104.3701171875
-105.28564453125
-93.3837890625
-86.0595703125
-88.80615234375
-98.876953125
-103.45458984375
-97.0458984375
-94.29931640625
-99.79248046875
-108.0322265625
-101.62353515625
-86.97509765625
-104.3701171875
-99.79248046875
-93.3837890625
-79.65087890625
-81.48193359375
-69.580078125
-71.4111328125
-57.67822265625
-28.38134765625
23.8037109375
87.890625
192.2607421875
311.279296875
450.439453125
572.20458984375
662.841796875
705.87158203125
657.3486328125
570.37353515625
511.77978515625
412.90283203125
315.85693359375
219.7265625
123.59619140625
18.310546875
-101.62353515625
-162.9638671875
-173.03466796875
-203.2470703125
-211.48681640625
-172.119140625
-154.72412109375
-134.58251953125
-123.59619140625
-105.28564453125
-91.552734375
-76.904296875
-64.0869140625
-74.15771484375
-76.904296875
-64.0869140625
-61.34033203125
-75.98876953125
-72.32666015625
-77.81982421875
-82.3974609375
-69.580078125
-73.2421875
-56.7626953125
-60.4248046875
-61.34033203125
-64.0869140625
-61.34033203125
-70.49560546875
-58.59375
-52.18505859375
-53.1005859375
-50.35400390625
-51.26953125
-45.7763671875
-50.35400390625
-48.52294921875
-46.69189453125
-53.1005859375
-50.35400390625
-56.7626953125
-57.67822265625
-52.18505859375
-42.1142578125
-44.86083984375
-49.4384765625
-50.35400390625
-42.1142578125
-43.9453125
-52.18505859375
-54.01611328125
-54.01611328125
-43.02978515625
-43.02978515625
-38.4521484375
-34.7900390625
-35.70556640625
-33.87451171875
-29.296875
-35.70556640625
-37.53662109375
-33.87451171875
-30.21240234375
-30.21240234375
-23.8037109375
-29.296875
-32.04345703125
-21.97265625
-20.1416015625
-22.88818359375
-15.56396484375
-22.88818359375
-18.310546875
-14.6484375
-15.56396484375
-15.56396484375
-5.4931640625
-8.23974609375
-5.4931640625
-6.40869140625
0
4.57763671875
7.32421875
4.57763671875
16.4794921875
15.56396484375
16.4794921875
17.39501953125
24.71923828125
23.8037109375
19.22607421875
21.97265625
33.87451171875
45.7763671875
53.1005859375
50.35400390625
54.931640625
68.66455078125
70.49560546875
75.0732421875
79.65087890625
87.890625
89.7216796875
97.96142578125
112.60986328125
120.849609375
121.76513671875
129.08935546875
135.498046875
140.07568359375
145.56884765625
144.6533203125
153.80859375
162.04833984375
165.71044921875
170.2880859375
169.37255859375
173.9501953125
172.119140625
173.03466796875
173.9501953125
180.35888671875
172.119140625
183.10546875
178.52783203125
179.443359375
176.69677734375
179.443359375
174.86572265625
162.9638671875
150.146484375
146.484375
147.39990234375
133.6669921875
125.42724609375
118.10302734375
106.201171875
97.0458984375
87.890625
70.49560546875
61.34033203125
58.59375
43.02978515625
31.1279296875
22.88818359375
11.90185546875
6.40869140625
-0.91552734375
-10.986328125
-21.05712890625
-31.1279296875
-27.4658203125
-34.7900390625
-36.62109375
-36.62109375
-42.1142578125
-45.7763671875
-51.26953125
-51.26953125
-56.7626953125
-72.32666015625
-75.98876953125
-59.50927734375
-57.67822265625
-62.255859375
-59.50927734375
-65.00244140625
-65.91796875
-64.0869140625
-72.32666015625
-70.49560546875
-82.3974609375
-86.97509765625
-78.7353515625
-78.7353515625
-73.2421875
-74.15771484375
-74.15771484375
-86.97509765625
-75.98876953125
-65.91796875
-80.56640625
-83.31298828125
-75.0732421875
-71.4111328125
-71.4111328125
-77.81982421875
-75.0732421875
-62.255859375
-54.01611328125
-73.2421875
-79.65087890625
-75.0732421875
-67.7490234375
-78.7353515625
-77.81982421875
-81.48193359375
-80.56640625
-52.18505859375
-60.4248046875
-71.4111328125
-84.228515625
-75.0732421875
-72.32666015625
-75.0732421875
-65.91796875
-65.00244140625
-66.83349609375
-62.255859375
-63.17138671875
-65.91796875
-74.15771484375
-72.32666015625
-68.66455078125
-60.4248046875
-58.59375
-65.00244140625
-67.7490234375
-66.83349609375
-68.66455078125
-72.32666015625
-75.0732421875
-65.00244140625
-65.91796875
-66.83349609375
-68.66455078125
-65.91796875
-62.255859375
-65.91796875
-72.32666015625
-69.580078125
-73.2421875
-71.4111328125
-70.49560546875
-66.83349609375
-69.580078125
-72.32666015625
-67.7490234375
-71.4111328125
-74.15771484375
-79.65087890625
-82.3974609375
-77.81982421875
-77.81982421875
-74.15771484375
-76.904296875
-78.7353515625
-78.7353515625
-86.0595703125
-87.890625
-91.552734375
-79.65087890625
-80.56640625
-78.7353515625
-75.98876953125
-87.890625
-81.48193359375
-67.7490234375
-81.48193359375
-73.2421875
-76.904296875
-93.3837890625
-92.46826171875
-91.552734375
-80.56640625
-86.0595703125
-83.31298828125
-82.3974609375
-86.97509765625
-86.97509765625
-87.890625
-96.13037109375
-93.3837890625
-84.228515625
-84.228515625
-86.0595703125
-80.56640625
-81.48193359375
-91.552734375
-92.46826171875
-86.97509765625
-95.21484375
-94.29931640625
-95.21484375
-87.890625
-90.63720703125
-87.890625
-91.552734375
-86.97509765625
-80.56640625
-82.3974609375
-94.29931640625
-86.0595703125
-97.96142578125
-95.21484375
-95.21484375
-95.21484375
-86.97509765625
-99.79248046875
-90.63720703125
-86.97509765625
-97.96142578125
-95.21484375
-97.0458984375
-86.97509765625
-89.7216796875
-82.3974609375
-93.3837890625
-95.21484375
-83.31298828125
-87.890625
-101.62353515625
-101.62353515625
-88.80615234375
-81.48193359375
-65.00244140625
-59.50927734375
-60.4248046875
-64.0869140625
-56.7626953125
-49.4384765625
-60.4248046875
-63.17138671875
-45.7763671875
-44.86083984375
-57.67822265625
-56.7626953125
-53.1005859375
-60.4248046875
-56.7626953125
-47.607421875
-44.86083984375
-52.18505859375
-55.84716796875
-46.69189453125
-33.87451171875
-24.71923828125
-27.4658203125
-33.87451171875
-37.53662109375
-45.7763671875
-47.607421875
-65.91796875
-75.0732421875
-58.59375
-46.69189453125
-51.26953125
-55.84716796875
-54.01611328125
-54.931640625
-51.26953125
-59.50927734375
-64.0869140625
-68.66455078125
-77.81982421875
-84.228515625
-90.63720703125
-97.96142578125
-98.876953125
-108.94775390625
-108.0322265625
-110.77880859375
-103.45458984375
-102.5390625
-99.79248046875
-102.5390625
-101.62353515625
-101.62353515625
-103.45458984375
-94.29931640625
-112.60986328125
-101.62353515625
-107.11669921875
-105.28564453125
-101.62353515625
-90.63720703125
-96.13037109375
-93.3837890625
-92.46826171875
-95.21484375
-108.94775390625
-103.45458984375
-100.7080078125
-108.0322265625
-103.45458984375
-93.3837890625
-83.31298828125
-66.83349609375
-56.7626953125
-72.32666015625
-73.2421875
-42.1142578125
21.97265625
89.7216796875
195.00732421875
325.927734375
445.86181640625
560.302734375
628.0517578125
637.20703125
579.52880859375
520.93505859375
454.1015625
358.88671875
262.75634765625
195.00732421875
101.62353515625
-13.73291015625
-102.5390625
-152.89306640625
-178.52783203125
-198.66943359375
-193.17626953125
-165.71044921875
-133.6669921875
-126.3427734375
-100.7080078125
-87.890625
-76.904296875
-75.0732421875
-76.904296875
-70.49560546875
-79.65087890625
-84.228515625
-70.49560546875
-74.15771484375
-84.228515625
-86.0595703125
-85.14404296875
-90.63720703125
-82.3974609375
-79.65087890625
-79.65087890625
-81.48193359375
-85.14404296875
-85.14404296875
-79.65087890625
-87.890625
-82.3974609375
-75.98876953125
-75.98876953125
-79.65087890625
-79.65087890625
-70.49560546875
-67.7490234375
-71.4111328125
-78.7353515625
-66.83349609375
-66.83349609375
-62.255859375
-66.83349609375
-69.580078125
-62.255859375
-64.0869140625
-59.50927734375
-50.35400390625
-53.1005859375
-65.00244140625
-65.91796875
-61.34033203125
-57.67822265625
-42.1142578125
-59.50927734375
-54.931640625
-54.931640625
-50.35400390625
-36.62109375
-43.02978515625
-48.52294921875
-55.84716796875
-50.35400390625
-51.26953125
-50.35400390625
-45.7763671875
-50.35400390625
-43.02978515625
-32.04345703125
-29.296875
-37.53662109375
-31.1279296875
-32.958984375
-26.55029296875
-24.71923828125
-30.21240234375
-24.71923828125
-12.8173828125
-20.1416015625
-24.71923828125
-26.55029296875
-34.7900390625
-23.8037109375
-10.986328125
-2.74658203125
-0.91552734375
8.23974609375
6.40869140625
7.32421875
9.1552734375
11.90185546875
9.1552734375
17.39501953125
25.634765625
21.05712890625
34.7900390625
42.1142578125
46.69189453125
51.26953125
47.607421875
58.59375
59.50927734375
75.0732421875
68.66455078125
75.0732421875
80.56640625
97.0458984375
108.0322265625
110.77880859375
105.28564453125
105.28564453125
108.0322265625
116.27197265625
120.849609375
129.08935546875
130.0048828125
133.6669921875
140.9912109375
148.3154296875
154.72412109375
145.56884765625
147.39990234375
151.9775390625
146.484375
162.9638671875
162.9638671875
162.04833984375
162.04833984375
157.470703125
151.06201171875
141.90673828125
128.173828125
117.1875
117.1875
108.0322265625
98.876953125
95.21484375
82.3974609375
75.0732421875
62.255859375
50.35400390625
44.86083984375
35.70556640625
19.22607421875
6.40869140625
0.91552734375
0
-10.07080078125
-17.39501953125
-22.88818359375
-31.1279296875
-36.62109375
-35.70556640625
-51.26953125
-54.01611328125
-49.4384765625
-52.18505859375
-43.02978515625
-54.01611328125
-63.17138671875
-69.580078125
-65.91796875
-65.00244140625
-71.4111328125
-70.49560546875
-66.83349609375
-65.91796875
-69.580078125
-68.66455078125
-75.0732421875
-70.49560546875
-75.98876953125
-80.56640625
-81.48193359375
-72.32666015625
-75.0732421875
-69.580078125
-75.0732421875
-75.0732421875
-72.32666015625
-79.65087890625
-86.0595703125
-76.904296875
-78.7353515625
-84.228515625
-77.81982421875
-73.2421875
-82.3974609375
-81.48193359375
-75.98876953125
-78.7353515625
-90.63720703125
-78.7353515625
-85.14404296875
-79.65087890625
-78.7353515625
-77.81982421875
-82.3974609375
-70.49560546875
-76.904296875
-77.81982421875
-75.98876953125
-81.48193359375
-82.3974609375
-74.15771484375
-82.3974609375
-86.0595703125
-80.56640625
-65.91796875
-78.7353515625
-83.31298828125
-77.81982421875
-82.3974609375
-82.3974609375
-81.48193359375
-76.904296875
-74.15771484375
-77.81982421875
-79.65087890625
-71.4111328125
-67.7490234375
-69.580078125
-84.228515625
-82.3974609375
-72.32666015625
-81.48193359375
-75.98876953125
-77.81982421875
-72.32666015625
-86.0595703125
-75.98876953125
-78.7353515625
-86.97509765625
-90.63720703125
-92.46826171875
-84.228515625
-81.48193359375
-85.14404296875
-82.3974609375
-78.7353515625
-77.81982421875
-86.0595703125
-89.7216796875
-95.21484375
-89.7216796875
-85.14404296875
-78.7353515625
-75.98876953125
-86.0595703125
-80.56640625
-89.7216796875
-96.13037109375
-94.29931640625
-95.21484375
-87.890625
-88.80615234375
-91.552734375
-87.890625
-86.0595703125
-88.80615234375
-85.14404296875
-92.46826171875
-100.7080078125
-97.0458984375
-91.552734375
-89.7216796875
-93.3837890625
-91.552734375
-86.0595703125
-86.0595703125
-88.80615234375
-91.552734375
-93.3837890625
-93.3837890625
-90.63720703125
-88.80615234375
-89.7216796875
-90.63720703125
-91.552734375
-90.63720703125
-91.552734375
-96.13037109375
-96.13037109375
-103.45458984375
-108.94775390625
-93.3837890625
-84.228515625
-81.48193359375
-90.63720703125
-93.3837890625
-90.63720703125
-90.63720703125
-94.29931640625
-100.7080078125
-90.63720703125
-90.63720703125
-87.890625
-91.552734375
-93.3837890625
-90.63720703125
-87.890625
-99.79248046875
-108.94775390625
-100.7080078125
-96.13037109375
-107.11669921875
-97.96142578125
-90.63720703125
-98.876953125
-103.45458984375
-91.552734375
-90.63720703125
-92.46826171875
-94.29931640625
-97.0458984375
-97.96142578125
-85.14404296875
-83.31298828125
-92.46826171875
-92.46826171875
-94.29931640625
-100.7080078125
-90.63720703125
-102.5390625
-103.45458984375
-98.876953125
-81.48193359375
-81.48193359375
-84.228515625
-97.96142578125
-94.29931640625
-94.29931640625
-99.79248046875
-94.29931640625
-94.29931640625
-97.96142578125
-89.7216796875
-90.63720703125
-92.46826171875
-90.63720703125
-91.552734375
-95.21484375
-96.13037109375
-99.79248046875
-97.0458984375
-88.80615234375
-90.63720703125
-88.80615234375
-88.80615234375
-88.80615234375
-93.3837890625
-84.228515625
-86.97509765625
-93.3837890625
-94.29931640625
-94.29931640625
-97.0458984375
-85.14404296875
-84.228515625
-92.46826171875
-97.96142578125
-87.890625
-77.81982421875
-79.65087890625
-80.56640625
-71.4111328125
-64.0869140625
-63.17138671875
-54.931640625
-53.1005859375
-49.4384765625
-49.4384765625
-53.1005859375
-57.67822265625
-47.607421875
-50.35400390625
-49.4384765625
-57.67822265625
-54.931640625
-40.283203125
-39.36767578125
-49.4384765625
-49.4384765625
-50.35400390625
-42.1142578125
-29.296875
-35.70556640625
-39.36767578125
-38.4521484375
-50.35400390625
-55.84716796875
-59.50927734375
-80.56640625
-78.7353515625
-67.7490234375
-63.17138671875
-54.931640625
-42.1142578125
-48.52294921875
-56.7626953125
-48.52294921875
-56.7626953125
-69.580078125
-74.15771484375
-84.228515625
-90.63720703125
-97.0458984375
-106.201171875
-104.3701171875
-107.11669921875
-111.6943359375
-106.201171875
-110.77880859375
-110.77880859375
-114.44091796875
-117.1875
-109.86328125
-108.94775390625
-108.94775390625
-111.6943359375
-106.201171875
-108.0322265625
-103.45458984375
-112.60986328125
-109.86328125
-104.3701171875
-101.62353515625
-99.79248046875
-98.876953125
-97.0458984375
-105.28564453125
-106.201171875
-109.86328125
-115.3564453125
-90.63720703125
-76.904296875
-64.0869140625
-61.34033203125
-66.83349609375
-55.84716796875
-2.74658203125
52.18505859375
140.07568359375
262.75634765625
394.59228515625
509.94873046875
613.4033203125
638.12255859375
604.248046875
537.41455078125
496.2158203125
406.494140625
306.70166015625
226.13525390625
150.146484375
43.02978515625
-67.7490234375
-128.173828125
-155.6396484375
-178.52783203125
-182.18994140625
-167.54150390625
-140.07568359375
-126.3427734375
-109.86328125
-92.46826171875
-86.97509765625
-74.15771484375
-67.7490234375
-72.32666015625
-75.98876953125
-76.904296875
-76.904296875
-85.14404296875
-82.3974609375
-83.31298828125
-75.98876953125
-71.4111328125
-69.580078125
-72.32666015625
-73.2421875
-75.0732421875
-74.15771484375
-76.904296875
-72.32666015625
-68.66455078125
-72.32666015625
-69.580078125
-72.32666015625
-71.4111328125
-69.580078125
-73.2421875
-73.2421875
-65.91796875
-67.7490234375
-68.66455078125
-65.91796875
-57.67822265625
-63.17138671875
-55.84716796875
-55.84716796875
-64.0869140625
-63.17138671875
-57.67822265625
-61.34033203125
-54.931640625
-57.67822265625
-48.52294921875
-47.607421875
-51.26953125
-54.01611328125
-53.1005859375
-45.7763671875
-45.7763671875
-49.4384765625
-53.1005859375
-47.607421875
-45.7763671875
-40.283203125
-45.7763671875
-41.19873046875
-43.9453125
-40.283203125
-36.62109375
-32.04345703125
-34.7900390625
-36.62109375
-36.62109375
-32.958984375
-23.8037109375
-25.634765625
-25.634765625
-30.21240234375
-28.38134765625
-23.8037109375
-20.1416015625
-13.73291015625
-8.23974609375
-13.73291015625
-10.986328125
-3.662109375
-5.4931640625
-4.57763671875
-2.74658203125
0.91552734375
12.8173828125
14.6484375
20.1416015625
17.39501953125
17.39501953125
17.39501953125
28.38134765625
23.8037109375
28.38134765625
40.283203125
53.1005859375
62.255859375
55.84716796875
55.84716796875
58.59375
68.66455078125
81.48193359375
88.80615234375
96.13037109375
94.29931640625
102.5390625
110.77880859375
119.0185546875
122.6806640625
130.0048828125
122.6806640625
122.6806640625
135.498046875
140.9912109375
149.23095703125
152.89306640625
150.146484375
156.55517578125
156.55517578125
163.87939453125
165.71044921875
161.1328125
152.89306640625
155.6396484375
153.80859375
154.72412109375
156.55517578125
158.38623046875
148.3154296875
140.9912109375
131.8359375
117.1875
111.6943359375
103.45458984375
100.7080078125
92.46826171875
82.3974609375
67.7490234375
65.00244140625
59.50927734375
46.69189453125
35.70556640625
23.8037109375
19.22607421875
0.91552734375
-3.662109375
-5.4931640625
-10.07080078125
-17.39501953125
-18.310546875
-26.55029296875
-31.1279296875
-33.87451171875
-45.7763671875
-51.26953125
-54.931640625
-54.931640625
-50.35400390625
-52.18505859375
-60.4248046875
-61.34033203125
-69.580078125
-74.15771484375
-73.2421875
-65.00244140625
-71.4111328125
-63.17138671875
-54.931640625
-63.17138671875
-66.83349609375
-75.0732421875
-77.81982421875
-77.81982421875
-70.49560546875
-74.15771484375
-73.2421875
-75.98876953125
-67.7490234375
-66.83349609375
-67.7490234375
-81.48193359375
-79.65087890625
-74.15771484375
-72.32666015625
-70.49560546875
-70.49560546875
-65.00244140625
-67.7490234375
-73.2421875
-73.2421875
-76.904296875
-75.0732421875
-68.66455078125
-80.56640625
-74.15771484375
-72.32666015625
-72.32666015625
-69.580078125
-44.86083984375
-38.4521484375
-39.36767578125
-54.931640625
-71.4111328125
-69.580078125
-70.49560546875
-67.7490234375
-61.34033203125
-55.84716796875
-59.50927734375
-61.34033203125
-65.00244140625
-72.32666015625
-75.0732421875
-73.2421875
-69.580078125
-77.81982421875
-75.0732421875
-71.4111328125
-67.7490234375
-68.66455078125
-64.0869140625
-77.81982421875
-81.48193359375
-69.580078125
-72.32666015625
-65.00244140625
-66.83349609375
-66.83349609375
-66.83349609375
-72.32666015625
-69.580078125
-68.66455078125
-68.66455078125
-69.580078125
-77.81982421875
-76.904296875
-71.4111328125
-66.83349609375
-72.32666015625
-68.66455078125
-70.49560546875
-72.32666015625
-80.56640625
-75.0732421875
-70.49560546875
-75.98876953125
-71.4111328125
-67.7490234375
-70.49560546875
-80.56640625
-75.98876953125
-72.32666015625
-75.98876953125
-75.98876953125
-76.904296875
-71.4111328125
-71.4111328125
-75.0732421875
-75.98876953125
-76.904296875
-71.4111328125
-75.98876953125
-76.904296875
-77.81982421875
-84.228515625
-86.0595703125
-83.31298828125
-70.49560546875
-75.0732421875
-76.904296875
-78.7353515625
-95.21484375
-87.890625
-87.890625
-80.56640625
-74.15771484375
-65.91796875
-69.580078125
-72.32666015625
-75.98876953125
-84.228515625
-82.3974609375
-75.0732421875
-81.48193359375
-75.0732421875
-80.56640625
-72.32666015625
-69.580078125
-67.7490234375
-75.98876953125
-75.0732421875
-77.81982421875
-84.228515625
-91.552734375
-80.56640625
-74.15771484375
-70.49560546875
-70.49560546875
-72.32666015625
-70.49560546875
-75.98876953125
-78.7353515625
-80.56640625
-80.56640625
-76.904296875
-83.31298828125
-75.98876953125
-75.0732421875
-61.34033203125
-64.0869140625
-65.00244140625
-72.32666015625
-77.81982421875
-78.7353515625
-80.56640625
-75.98876953125
-74.15771484375
-67.7490234375
-70.49560546875
-74.15771484375
-83.31298828125
-83.31298828125
-82.3974609375
-75.98876953125
-66.83349609375
-80.56640625
-72.32666015625
-72.32666015625
-69.580078125
-75.0732421875
-76.904296875
-82.3974609375
-78.7353515625
-78.7353515625
-88.80615234375
-76.904296875
-73.2421875
-75.98876953125
-84.228515625
-75.98876953125
-75.0732421875
-78.7353515625
-82.3974609375
-87.890625
-83.31298828125
-78.7353515625
-84.228515625
-73.2421875
-72.32666015625
-74.15771484375
-75.0732421875
-81.48193359375
-78.7353515625
-75.98876953125
-74.15771484375
-86.0595703125
-79.65087890625
-75.0732421875
-84.228515625
-86.97509765625
-77.81982421875
-76.904296875
-75.98876953125
-74.15771484375
-74.15771484375
-71.4111328125
-66.83349609375
-60.4248046875
-64.0869140625
-58.59375
-52.18505859375
-47.607421875
-45.7763671875
-36.62109375
-44.86083984375
-43.9453125
-43.02978515625
-37.53662109375
-43.9453125
-46.69189453125
-28.38134765625
-26.55029296875
-40.283203125
-43.02978515625
-33.87451171875
-33.87451171875
-23.8037109375
-19.22607421875
-22.88818359375
-26.55029296875
-31.1279296875
-46.69189453125
-54.01611328125
-66.83349609375
-68.66455078125
-59.50927734375
-56.7626953125
-50.35400390625
-44.86083984375
-46.69189453125
-53.1005859375
-52.18505859375
-54.931640625
-70.49560546875
-69.580078125
-67.7490234375
-65.91796875
-70.49560546875
-82.3974609375
-87.890625
-98.876953125
-107.11669921875
-103.45458984375
-99.79248046875
-97.96142578125
-102.5390625
-110.77880859375
-94.29931640625
-86.97509765625
-86.97509765625
-95.21484375
-82.3974609375
-81.48193359375
-97.0458984375
-101.62353515625
-103.45458984375
-99.79248046875
-95.21484375
-80.56640625
-82.3974609375
-102.5390625
-101.62353515625
-99.79248046875
-106.201171875
-108.0322265625
-105.28564453125
-83.31298828125
-67.7490234375
-49.4384765625
-55.84716796875
-65.00244140625
-51.26953125
-6.40869140625
52.18505859375
135.498046875
248.10791015625
381.77490234375
500.79345703125
587.7685546875
635.3759765625
605.16357421875
541.9921875
488.8916015625
398.25439453125
313.1103515625
231.62841796875
154.72412109375
50.35400390625
-73.2421875
-139.16015625
-153.80859375
-165.71044921875
-181.2744140625
-161.1328125
-140.07568359375
-117.1875
-106.201171875
-88.80615234375
-84.228515625
-75.98876953125
-64.0869140625
-66.83349609375
-74.15771484375
-75.0732421875
-71.4111328125
-72.32666015625
-65.00244140625
-64.0869140625
-71.4111328125
-79.65087890625
-71.4111328125
-73.2421875
-63.17138671875
-73.2421875
-81.48193359375
-83.31298828125
-77.81982421875
-73.2421875
-64.0869140625
-77.81982421875
-62.255859375
-65.00244140625
-75.98876953125
-76.904296875
-58.59375
-72.32666015625
-73.2421875
-61.34033203125
-62.255859375
-63.17138671875
-66.83349609375
-65.00244140625
-62.255859375
-65.91796875
-58.59375
-57.67822265625
-57.67822265625
-48.52294921875
-58.59375
-55.84716796875
-51.26953125
-64.0869140625
-56.7626953125
-51.26953125
-42.1142578125
-49.4384765625
-43.02978515625
-43.9453125
-54.01611328125
-51.26953125
-43.02978515625
-43.02978515625
-51.26953125
-53.1005859375
-46.69189453125
-38.4521484375
-32.04345703125
-39.36767578125
-42.1142578125
-35.70556640625
-32.958984375
-28.38134765625
-34.7900390625
-33.87451171875
-21.05712890625
-23.8037109375
-18.310546875
-18.310546875
-13.73291015625
-15.56396484375
-8.23974609375
-3.662109375
-3.662109375
-10.07080078125
0
9.1552734375
0.91552734375
2.74658203125
7.32421875
10.986328125
4.57763671875
8.23974609375
24.71923828125
24.71923828125
30.21240234375
38.4521484375
43.02978515625
42.1142578125
53.1005859375
59.50927734375
59.50927734375
68.66455078125
69.580078125
75.98876953125
82.3974609375
87.890625
92.46826171875
97.0458984375
109.86328125
112.60986328125
112.60986328125
111.6943359375
117.1875
123.59619140625
123.59619140625
121.76513671875
135.498046875
137.3291015625
139.16015625
138.24462890625
144.6533203125
150.146484375
146.484375
144.6533203125
148.3154296875
145.56884765625
153.80859375
153.80859375
145.56884765625
142.822265625
140.9912109375
134.58251953125
119.93408203125
108.0322265625
105.28564453125
104.3701171875
96.13037109375
83.31298828125
77.81982421875
63.17138671875
52.18505859375
42.1142578125
34.7900390625
34.7900390625
17.39501953125
13.73291015625
14.6484375
1.8310546875
-7.32421875
-25.634765625
-24.71923828125
-27.4658203125
-27.4658203125
-34.7900390625
-38.4521484375
-35.70556640625
-46.69189453125
-43.9453125
-46.69189453125
-54.01611328125
-50.35400390625
-57.67822265625
-65.00244140625
-60.4248046875
-54.931640625
-55.84716796875
-63.17138671875
-62.255859375
-65.91796875
-54.01611328125
-59.50927734375
-57.67822265625
-60.4248046875
-68.66455078125
-70.49560546875
-69.580078125
-65.91796875
-65.00244140625
-60.4248046875
-63.17138671875
-65.91796875
-60.4248046875
-65.00244140625
-75.0732421875
-72.32666015625
-67.7490234375
-62.255859375
-63.17138671875
-65.00244140625
-64.0869140625
-63.17138671875
-57.67822265625
-69.580078125
-75.98876953125
-68.66455078125
-61.34033203125
-52.18505859375
-54.931640625
-61.34033203125
-61.34033203125
-63.17138671875
-51.26953125
-61.34033203125
-65.00244140625
-59.50927734375
-65.00244140625
-67.7490234375
-66.83349609375
-67.7490234375
-65.91796875
-68.66455078125
-74.15771484375
-67.7490234375
-65.91796875
-71.4111328125
-72.32666015625
-64.0869140625
-54.931640625
-52.18505859375
-52.18505859375
-54.931640625
-57.67822265625
-64.0869140625
-59.50927734375
-66.83349609375
-66.83349609375
-51.26953125
-61.34033203125
-55.84716796875
-59.50927734375
-58.59375
-54.931640625
-60.4248046875
-57.67822265625
-66.83349609375
-74.15771484375
-62.255859375
-57.67822265625
-54.01611328125
-62.255859375
-62.255859375
-64.0869140625
-66.83349609375
-68.66455078125
-67.7490234375
-63.17138671875
-59.50927734375
-66.83349609375
-70.49560546875
-69.580078125
-64.0869140625
-65.00244140625
-71.4111328125
-69.580078125
-75.98876953125
-70.49560546875
-68.66455078125
-70.49560546875
-75.0732421875
-71.4111328125
-71.4111328125
-68.66455078125
-71.4111328125
-75.98876953125
-71.4111328125
-68.66455078125
-67.7490234375
-69.580078125
-68.66455078125
-67.7490234375
-65.91796875
-72.32666015625
-76.904296875
-73.2421875
-62.255859375
-66.83349609375
-67.7490234375
-70.49560546875
-64.0869140625
-70.49560546875
-75.98876953125
-69.580078125
-70.49560546875
-73.2421875
-73.2421875
-68.66455078125
-68.66455078125
-70.49560546875
-57.67822265625
-63.17138671875
-75.98876953125
-73.2421875
-64.0869140625
-74.15771484375
-77.81982421875
-78.7353515625
-85.14404296875
-70.49560546875
-68.66455078125
-68.66455078125
-80.56640625
-82.3974609375
-66.83349609375
-67.7490234375
-76.904296875
-79.65087890625
-68.66455078125
-67.7490234375
-75.0732421875
-74.15771484375
-71.4111328125
-66.83349609375
-77.81982421875
-86.0595703125
-81.48193359375
-75.0732421875
-75.0732421875
-64.0869140625
-73.2421875
-82.3974609375
-83.31298828125
-72.32666015625
-82.3974609375
-77.81982421875
-75.0732421875
-83.31298828125
-69.580078125
-66.83349609375
-75.98876953125
-75.98876953125
-76.904296875
-71.4111328125
-76.904296875
-70.49560546875
-72.32666015625
-76.904296875
-71.4111328125
-69.580078125
-71.4111328125
-78.7353515625
-85.14404296875
-80.56640625
-79.65087890625
-73.2421875
-74.15771484375
-74.15771484375
-75.0732421875
-69.580078125
-69.580078125
-68.66455078125
-65.00244140625
-65.91796875
-75.0732421875
-71.4111328125
-67.7490234375
-64.0869140625
-73.2421875
-80.56640625
-73.2421875
-67.7490234375
-61.34033203125
-57.67822265625
-54.931640625
-47.607421875
-49.4384765625
-51.26953125
-33.87451171875
-35.70556640625
-25.634765625
-18.310546875
-32.958984375
-29.296875
-40.283203125
-42.1142578125
-34.7900390625
-11.90185546875
-15.56396484375
-20.1416015625
-21.97265625
-23.8037109375
-21.05712890625
-16.4794921875
-10.07080078125
-12.8173828125
-24.71923828125
-37.53662109375
-31.1279296875
-33.87451171875
-45.7763671875
-54.931640625
-46.69189453125
-45.7763671875
-32.04345703125
-43.9453125
-46.69189453125
-44.86083984375
-44.86083984375
-35.70556640625
-51.26953125
-55.84716796875
-62.255859375
-74.15771484375
-81.48193359375
-80.56640625
-88.80615234375
-92.46826171875
-88.80615234375
-86.0595703125
-86.0595703125
-89.7216796875
-85.14404296875
-97.96142578125
-94.29931640625
-87.890625
-82.3974609375
-85.14404296875
-87.890625
-87.890625
-78.7353515625
-77.81982421875
-83.31298828125
-88.80615234375
-85.14404296875
-86.97509765625
-93.3837890625
-86.97509765625
-78.7353515625
-83.31298828125
-90.63720703125
-85.14404296875
-62.255859375
-57.67822265625
-65.00244140625
-46.69189453125
-43.9453125
-52.18505859375
-20.1416015625
39.36767578125
98.876953125
202.33154296875
323.18115234375
446.77734375
552.06298828125
606.0791015625
614.31884765625
564.88037109375
517.27294921875
445.86181640625
341.49169921875
270.08056640625
206.9091796875
108.94775390625
-5.4931640625
-89.7216796875
-117.1875
-131.8359375
-151.9775390625
-134.58251953125
-111.6943359375
-103.45458984375
-85.14404296875
-71.4111328125
-63.17138671875
-52.18505859375
-48.52294921875
-53.1005859375
-48.52294921875
-47.607421875
-53.1005859375
-51.26953125
-53.1005859375
-50.35400390625
-54.01611328125
-55.84716796875
-55.84716796875
-55.84716796875
-51.26953125
-51.26953125
-50.35400390625
-52.18505859375
-50.35400390625
-53.1005859375
-53.1005859375
-56.7626953125
-57.67822265625
-57.67822265625
-46.69189453125
-48.52294921875
-49.4384765625
-48.52294921875
-43.9453125
-43.9453125
-50.35400390625
-51.26953125
-44.86083984375
-43.9453125
-44.86083984375
-34.7900390625
-39.36767578125
-40.283203125
-37.53662109375
-36.62109375
-33.87451171875
-39.36767578125
-28.38134765625
-35.70556640625
-43.9453125
-38.4521484375
-37.53662109375
-42.1142578125
-43.9453125
-32.958984375
-31.1279296875
-28.38134765625
-32.04345703125
-26.55029296875
-28.38134765625
-19.22607421875
-21.05712890625
-28.38134765625
-19.22607421875
-18.310546875
-22.88818359375
-21.97265625
-22.88818359375
-12.8173828125
-8.23974609375
-14.6484375
-14.6484375
-8.23974609375
-16.4794921875
-14.6484375
-10.986328125
-6.40869140625
-0.91552734375
2.74658203125
6.40869140625
13.73291015625
14.6484375
7.32421875
9.1552734375
18.310546875
24.71923828125
25.634765625
16.4794921875
26.55029296875
40.283203125
40.283203125
45.7763671875
50.35400390625
50.35400390625
57.67822265625
54.931640625
62.255859375
63.17138671875
68.66455078125
82.3974609375
90.63720703125
89.7216796875
108.94775390625
114.44091796875
108.94775390625
111.6943359375
116.27197265625
118.10302734375
124.51171875
131.8359375
135.498046875
144.6533203125
146.484375
146.484375
151.06201171875
152.89306640625
150.146484375
153.80859375
162.04833984375
170.2880859375
169.37255859375
171.20361328125
172.119140625
174.86572265625
162.04833984375
152.89306640625
151.06201171875
150.146484375
143.73779296875
136.41357421875
136.41357421875
121.76513671875
104.3701171875
110.77880859375
97.96142578125
83.31298828125
84.228515625
78.7353515625
56.7626953125
54.931640625
55.84716796875
43.9453125
34.7900390625
25.634765625
16.4794921875
3.662109375
-5.4931640625
-13.73291015625
-16.4794921875
-12.8173828125
-19.22607421875
-22.88818359375
-20.1416015625
-28.38134765625
-37.53662109375
-47.607421875
-46.69189453125
-48.52294921875
-46.69189453125
-43.9453125
-43.9453125
-49.4384765625
-43.9453125
-45.7763671875
-43.9453125
-47.607421875
-62.255859375
-59.50927734375
-51.26953125
-52.18505859375
-53.1005859375
-59.50927734375
-60.4248046875
-51.26953125
-56.7626953125
-60.4248046875
-50.35400390625
-57.67822265625
-56.7626953125
-54.931640625
-46.69189453125
-48.52294921875
-54.931640625
-51.26953125
-52.18505859375
-56.7626953125
-58.59375
-48.52294921875
-52.18505859375
-52.18505859375
-50.35400390625
-47.607421875
-37.53662109375
-45.7763671875
-49.4384765625
-52.18505859375
-55.84716796875
-50.35400390625
-54.01611328125
-48.52294921875
-51.26953125
-52.18505859375
-47.607421875
-57.67822265625
-54.931640625
-54.01611328125
-54.931640625
-61.34033203125
-45.7763671875
-46.69189453125
-54.01611328125
-50.35400390625
-49.4384765625
-47.607421875
-46.69189453125
-51.26953125
-55.84716796875
-54.931640625
-54.931640625
-47.607421875
-48.52294921875
-45.7763671875
-46.69189453125
-51.26953125
-53.1005859375
-60.4248046875
-58.59375
-60.4248046875
-62.255859375
-54.931640625
-51.26953125
-53.1005859375
-53.1005859375
-53.1005859375
-49.4384765625
-50.35400390625
-53.1005859375
-54.931640625
-54.931640625
-52.18505859375
-52.18505859375
-52.18505859375
-62.255859375
-61.34033203125
-58.59375
-65.91796875
-67.7490234375
-68.66455078125
-61.34033203125
-50.35400390625
-57.67822265625
-61.34033203125
-58.59375
-49.4384765625
-59.50927734375
-60.4248046875
-58.59375
-66.83349609375
-59.50927734375
-51.26953125
-49.4384765625
-54.931640625
-67.7490234375
-59.50927734375
-57.67822265625
-54.01611328125
-58.59375
-61.34033203125
-58.59375
-61.34033203125
-59.50927734375
-59.50927734375
-51.26953125
-57.67822265625
-63.17138671875
-60.4248046875
-68.66455078125
-65.00244140625
-57.67822265625
-56.7626953125
-58.59375
-56.7626953125
-63.17138671875
-61.34033203125
-55.84716796875
-60.4248046875
-65.00244140625
-63.17138671875
-62.255859375
-58.59375
-53.1005859375
-50.35400390625
-49.4384765625
-56.7626953125
-61.34033203125
-55.84716796875
-56.7626953125
-55.84716796875
-53.1005859375
-52.18505859375
-54.931640625
-60.4248046875
-52.18505859375
-59.50927734375
-57.67822265625
-57.67822265625
-61.34033203125
-58.59375
-60.4248046875
-68.66455078125
-60.4248046875
-54.931640625
-63.17138671875
-62.255859375
-70.49560546875
-59.50927734375
-54.01611328125
-51.26953125
-50.35400390625
-56.7626953125
-58.59375
-57.67822265625
-56.7626953125
-61.34033203125
-57.67822265625
-59.50927734375
-60.4248046875
-61.34033203125
-56.7626953125
-59.50927734375
-63.17138671875
-55.84716796875
-61.34033203125
-57.67822265625
-60.4248046875
-63.17138671875
-69.580078125
-65.00244140625
-65.00244140625
-68.66455078125
-56.7626953125
-55.84716796875
-51.26953125
-64.0869140625
-63.17138671875
-60.4248046875
-64.0869140625
-68.66455078125
-61.34033203125
-47.607421875
-42.1142578125
-43.02978515625
-33.87451171875
-37.53662109375
-33.87451171875
-24.71923828125
-26.55029296875
-22.88818359375
-21.97265625
-25.634765625
-28.38134765625
-12.8173828125
-6.40869140625
-22.88818359375
-32.04345703125
-21.05712890625
-11.90185546875
-10.986328125
-11.90185546875
-9.1552734375
-4.57763671875
-9.1552734375
-16.4794921875
-31.1279296875
-49.4384765625
-59.50927734375
-50.35400390625
-47.607421875
-43.9453125
-32.958984375
-21.97265625
-19.22607421875
-26.55029296875
-23.8037109375
-37.53662109375
-38.4521484375
-46.69189453125
-59.50927734375
-70.49560546875
-73.2421875
-71.4111328125
-65.91796875
-74.15771484375
-76.904296875
-75.98876953125
-83.31298828125
-86.97509765625
-87.890625
-80.56640625
-66.83349609375
-71.4111328125
-75.98876953125
-82.3974609375
-75.98876953125
-65.91796875
-79.65087890625
-76.904296875
-75.98876953125
-76.904296875
-75.0732421875
-70.49560546875
-71.4111328125
-77.81982421875
-77.81982421875
-84.228515625
-83.31298828125
-78.7353515625
-70.49560546875
-60.4248046875
-50.35400390625
-43.9453125
-47.607421875
-48.52294921875
-26.55029296875
23.8037109375
97.96142578125
208.740234375
334.16748046875
461.42578125
570.37353515625
633.544921875
640.869140625
576.7822265625
526.42822265625
444.03076171875
360.7177734375
285.64453125
207.82470703125
108.0322265625
8.23974609375
-74.15771484375
-113.525390625
-141.90673828125
-160.21728515625
-147.39990234375
-121.76513671875
-98.876953125
-86.0595703125
-72.32666015625
-54.01611328125
-43.9453125
-38.4521484375
-41.19873046875
-43.9453125
-48.52294921875
-47.607421875
-42.1142578125
-43.02978515625
-55.84716796875
-51.26953125
-41.19873046875
-44.86083984375
-48.52294921875
-44.86083984375
-43.02978515625
-51.26953125
-49.4384765625
-51.26953125
-41.19873046875
-34.7900390625
-41.19873046875
-39.36767578125
-35.70556640625
-43.02978515625
-42.1142578125
-35.70556640625
-35.70556640625
-30.21240234375
-35.70556640625
-39.36767578125
-27.4658203125
-33.87451171875
-34.7900390625
-28.38134765625
-29.296875
-36.62109375
-32.04345703125
-27.4658203125
-26.55029296875
-24.71923828125
-22.88818359375
-20.1416015625
-31.1279296875
-24.71923828125
-21.97265625
-24.71923828125
-28.38134765625
-24.71923828125
-40.283203125
-19.22607421875
-20.1416015625
-30.21240234375
-23.8037109375
-12.8173828125
-4.57763671875
-10.986328125
-29.296875
-22.88818359375
-3.662109375
-6.40869140625
-10.07080078125
-10.07080078125
-2.74658203125
-2.74658203125
-4.57763671875
-5.4931640625
-6.40869140625
-1.8310546875
0.91552734375
10.07080078125
15.56396484375
6.40869140625
10.07080078125
11.90185546875
14.6484375
14.6484375
16.4794921875
18.310546875
23.8037109375
31.1279296875
36.62109375
35.70556640625
44.86083984375
48.52294921875
45.7763671875
55.84716796875
54.01611328125
54.931640625
61.34033203125
74.15771484375
76.904296875
84.228515625
91.552734375
99.79248046875
101.62353515625
99.79248046875
103.45458984375
108.94775390625
116.27197265625
123.59619140625
128.173828125
135.498046875
137.3291015625
144.6533203125
148.3154296875
148.3154296875
157.470703125
151.9775390625
159.3017578125
177.6123046875
179.443359375
179.443359375
174.86572265625
174.86572265625
168.45703125
174.86572265625
172.119140625
156.55517578125
170.2880859375
176.69677734375
170.2880859375
163.87939453125
153.80859375
150.146484375
140.9912109375
122.6806640625
115.3564453125
113.525390625
100.7080078125
87.890625
73.2421875
66.83349609375
65.00244140625
47.607421875
51.26953125
35.70556640625
11.90185546875
18.310546875
14.6484375
5.4931640625
-3.662109375
-5.4931640625
-10.986328125
-19.22607421875
-24.71923828125
-30.21240234375
-33.87451171875
-32.04345703125
-33.87451171875
-36.62109375
-35.70556640625
-37.53662109375
-41.19873046875
-39.36767578125
-43.02978515625
-43.02978515625
-40.283203125
-41.19873046875
-44.86083984375
-50.35400390625
-44.86083984375
-45.7763671875
-40.283203125
-43.02978515625
-59.50927734375
-55.84716796875
-65.91796875
-51.26953125
-44.86083984375
-44.86083984375
-41.19873046875
-42.1142578125
-48.52294921875
-44.86083984375
-40.283203125
-43.9453125
-57.67822265625
-53.1005859375
-52.18505859375
-42.1142578125
-44.86083984375
-43.9453125
-52.18505859375
-53.1005859375
-56.7626953125
-56.7626953125
-59.50927734375
-52.18505859375
-48.52294921875
-54.01611328125
-46.69189453125
-52.18505859375
-47.607421875
-43.9453125
-52.18505859375
-52.18505859375
-47.607421875
-43.02978515625
-57.67822265625
-54.01611328125
-44.86083984375
-48.52294921875
-55.84716796875
-44.86083984375
-58.59375
-57.67822265625
-50.35400390625
-61.34033203125
-58.59375
-49.4384765625
-43.9453125
-40.283203125
-43.9453125
-50.35400390625
-51.26953125
-53.1005859375
-58.59375
-59.50927734375
-50.35400390625
-49.4384765625
-47.607421875
-52.18505859375
-43.02978515625
-48.52294921875
-58.59375
-58.59375
-58.59375
-63.17138671875
-51.26953125
-54.931640625
-50.35400390625
-47.607421875
-49.4384765625
-54.931640625
-57.67822265625
-63.17138671875
-65.00244140625
-52.18505859375
-62.255859375
-54.01611328125
-53.1005859375
-57.67822265625
-56.7626953125
-54.01611328125
-62.255859375
-60.4248046875
-60.4248046875
-63.17138671875
-60.4248046875
-54.931640625
-57.67822265625
-62.255859375
-54.931640625
-65.91796875
-62.255859375
-64.0869140625
-61.34033203125
-57.67822265625
-64.0869140625
-56.7626953125
-62.255859375
-57.67822265625
-57.67822265625
-67.7490234375
-58.59375
-59.50927734375
-62.255859375
-66.83349609375
-63.17138671875
-58.59375
-62.255859375
-65.91796875
-64.0869140625
-65.91796875
-70.49560546875
-73.2421875
-71.4111328125
-70.49560546875
-60.4248046875
-59.50927734375
-63.17138671875
-63.17138671875
-65.91796875
-70.49560546875
-68.66455078125
-68.66455078125
-73.2421875
-76.904296875
-60.4248046875
-55.84716796875
-60.4248046875
-57.67822265625
-63.17138671875
-52.18505859375
-47.607421875
-45.7763671875
-42.1142578125
-36.62109375
-20.1416015625
-23.8037109375
-35.70556640625
-26.55029296875
-20.1416015625
-32.958984375
-30.21240234375
-18.310546875
-26.55029296875
-22.88818359375
-9.1552734375
-6.40869140625
-1.8310546875
3.662109375
-4.57763671875
-5.4931640625
-5.4931640625
-12.8173828125
-16.4794921875
-24.71923828125
-43.02978515625
-44.86083984375
-38.4521484375
-32.04345703125
-23.8037109375
-30.21240234375
-37.53662109375
-31.1279296875
-29.296875
-30.21240234375
-38.4521484375
-49.4384765625
-51.26953125
-53.1005859375
-71.4111328125
-82.3974609375
-77.81982421875
-81.48193359375
-85.14404296875
-77.81982421875
-82.3974609375
-85.14404296875
-85.14404296875
-75.98876953125
-71.4111328125
-77.81982421875
-92.46826171875
-86.97509765625
-82.3974609375
-84.228515625
-74.15771484375
-81.48193359375
-76.904296875
-81.48193359375
-82.3974609375
-75.0732421875
-73.2421875
-74.15771484375
-80.56640625
-70.49560546875
-76.904296875
-95.21484375
-82.3974609375
-81.48193359375
-73.2421875
-63.17138671875
-61.34033203125
-54.01611328125
-41.19873046875
-7.32421875
61.34033203125
133.6669921875
253.60107421875
388.18359375
505.37109375
622.55859375
699.462890625
707.70263671875
630.79833984375
554.8095703125
468.75
359.80224609375
270.08056640625
188.5986328125
73.2421875
-23.8037109375
-104.3701171875
-151.06201171875
-181.2744140625
-189.51416015625
-164.794921875
-137.3291015625
-117.1875
-101.62353515625
-92.46826171875
-73.2421875
-66.83349609375
-61.34033203125
-48.52294921875
-50.35400390625
-46.69189453125
-46.69189453125
-52.18505859375
-45.7763671875
-53.1005859375
-50.35400390625
-54.931640625
-45.7763671875
-53.1005859375
-42.1142578125
-42.1142578125
-48.52294921875
-43.02978515625
-39.36767578125
-31.1279296875
-40.283203125
-39.36767578125
-44.86083984375
-47.607421875
-36.62109375
-35.70556640625
-41.19873046875
-36.62109375
-27.4658203125
-31.1279296875
-34.7900390625
-32.04345703125
-32.04345703125
-21.97265625
-32.04345703125
-30.21240234375
-30.21240234375
-27.4658203125
-21.05712890625
-18.310546875
-21.05712890625
-24.71923828125
-21.97265625
-26.55029296875
-19.22607421875
-11.90185546875
-11.90185546875
-8.23974609375
-12.8173828125
-12.8173828125
-13.73291015625
-9.1552734375
-12.8173828125
-13.73291015625
-8.23974609375
-3.662109375
-3.662109375
-7.32421875
-0.91552734375
-8.23974609375
-1.8310546875
3.662109375
0
9.1552734375
3.662109375
4.57763671875
10.07080078125
11.90185546875
16.4794921875
19.22607421875
15.56396484375
18.310546875
25.634765625
16.4794921875
14.6484375
22.88818359375
35.70556640625
39.36767578125
37.53662109375
31.1279296875
41.19873046875
41.19873046875
51.26953125
56.7626953125
56.7626953125
65.00244140625
70.49560546875
65.91796875
86.0595703125
92.46826171875
87.890625
98.876953125
100.7080078125
103.45458984375
109.86328125
114.44091796875
129.08935546875
133.6669921875
140.07568359375
144.6533203125
149.23095703125
147.39990234375
151.06201171875
159.3017578125
166.6259765625
163.87939453125
173.03466796875
169.37255859375
165.71044921875
176.69677734375
184.02099609375
182.18994140625
180.35888671875
181.2744140625
181.2744140625
184.02099609375
185.85205078125
177.6123046875
161.1328125
151.06201171875
162.9638671875
160.21728515625
148.3154296875
127.25830078125
123.59619140625
116.27197265625
112.60986328125
100.7080078125
92.46826171875
79.65087890625
68.66455078125
54.931640625
46.69189453125
39.36767578125
31.1279296875
22.88818359375
15.56396484375
8.23974609375
3.662109375
-5.4931640625
-17.39501953125
-24.71923828125
-24.71923828125
-21.97265625
-29.296875
-35.70556640625
-29.296875
-32.04345703125
-34.7900390625
-37.53662109375
-43.02978515625
-45.7763671875
-45.7763671875
-39.36767578125
-46.69189453125
-40.283203125
-52.18505859375
-48.52294921875
-51.26953125
-56.7626953125
-55.84716796875
-60.4248046875
-59.50927734375
-54.01611328125
-57.67822265625
-48.52294921875
-49.4384765625
-60.4248046875
-59.50927734375
-58.59375
-50.35400390625
-54.931640625
-65.91796875
-55.84716796875
-49.4384765625
-47.607421875
-52.18505859375
-55.84716796875
-42.1142578125
-43.02978515625
-58.59375
-59.50927734375
-56.7626953125
-54.931640625
-57.67822265625
-54.01611328125
-49.4384765625
-62.255859375
-53.1005859375
-43.9453125
-44.86083984375
-49.4384765625
-53.1005859375
-56.7626953125
-48.52294921875
-51.26953125
-52.18505859375
-46.69189453125
-48.52294921875
-48.52294921875
-54.931640625
-60.4248046875
-58.59375
-54.931640625
-47.607421875
-57.67822265625
-53.1005859375
-44.86083984375
-45.7763671875
-44.86083984375
-49.4384765625
-43.9453125
-42.1142578125
-52.18505859375
-53.1005859375
-50.35400390625
-49.4384765625
-50.35400390625
-54.931640625
-50.35400390625
-48.52294921875
-57.67822265625
-60.4248046875
-56.7626953125
-47.607421875
-41.19873046875
-53.1005859375
-48.52294921875
-35.70556640625
-49.4384765625
-57.67822265625
-59.50927734375
-58.59375
-62.255859375
-62.255859375
-49.4384765625
-55.84716796875
-60.4248046875
-57.67822265625
-63.17138671875
-60.4248046875
-51.26953125
-66.83349609375
-72.32666015625
-67.7490234375
-65.91796875
-65.91796875
-57.67822265625
-58.59375
-60.4248046875
-72.32666015625
-75.0732421875
-69.580078125
-67.7490234375
-72.32666015625
-56.7626953125
-52.18505859375
-63.17138671875
-63.17138671875
-55.84716796875
-59.50927734375
-69.580078125
-64.0869140625
-61.34033203125
-65.00244140625
-57.67822265625
-50.35400390625
-62.255859375
-67.7490234375
-47.607421875
-54.01611328125
-63.17138671875
-70.49560546875
-59.50927734375
-51.26953125
-43.9453125
-43.9453125
-38.4521484375
-33.87451171875
-35.70556640625
-41.19873046875
-29.296875
-35.70556640625
-29.296875
-23.8037109375
-21.05712890625
-23.8037109375
-21.05712890625
-29.296875
-28.38134765625
-21.05712890625
-21.05712890625
-19.22607421875
-19.22607421875
-15.56396484375
-13.73291015625
-10.986328125
-0.91552734375
-6.40869140625
-0.91552734375
-3.662109375
-16.4794921875
-21.05712890625
-33.87451171875
-34.7900390625
-37.53662109375
-44.86083984375
-37.53662109375
-21.05712890625
-21.97265625
-32.958984375
-43.02978515625
-32.958984375
-32.04345703125
-41.19873046875
-46.69189453125
-55.84716796875
-67.7490234375
-74.15771484375
-75.98876953125
-77.81982421875
-88.80615234375
-93.3837890625
-84.228515625
-86.97509765625
-90.63720703125
-83.31298828125
-82.3974609375
-83.31298828125
-77.81982421875
-71.4111328125
-78.7353515625
-85.14404296875
-73.2421875
-86.97509765625
-86.97509765625
-74.15771484375
-74.15771484375
-74.15771484375
-76.904296875
-81.48193359375
-76.904296875
-83.31298828125
-81.48193359375
-80.56640625
-80.56640625
-82.3974609375
-73.2421875
-75.0732421875
-70.49560546875
-42.1142578125
-46.69189453125
-46.69189453125
-22.88818359375
27.4658203125
97.96142578125
202.33154296875
330.50537109375
456.84814453125
573.1201171875
667.41943359375
694.88525390625
633.544921875
560.302734375
495.30029296875
408.3251953125
308.53271484375
234.375
131.8359375
18.310546875
-77.81982421875
-130.92041015625
-157.470703125
-175.78125
-171.20361328125
-154.72412109375
-122.6806640625
-93.3837890625
-78.7353515625
-72.32666015625
-60.4248046875
-60.4248046875
-59.50927734375
-46.69189453125
-44.86083984375
-43.02978515625
-41.19873046875
-44.86083984375
-48.52294921875
-55.84716796875
-57.67822265625
-54.931640625
-54.931640625
-50.35400390625
-43.02978515625
-46.69189453125
-44.86083984375
-38.4521484375
-45.7763671875
-43.9453125
-37.53662109375
-40.283203125
-40.283203125
-41.19873046875
-43.02978515625
-38.4521484375
-32.958984375
-40.283203125
-43.9453125
-44.86083984375
-49.4384765625
-34.7900390625
-40.283203125
-44.86083984375
-33.87451171875
-31.1279296875
-26.55029296875
-32.04345703125
-24.71923828125
-33.87451171875
-32.958984375
-32.04345703125
-33.87451171875
-27.4658203125
-34.7900390625
-26.55029296875
-16.4794921875
-18.310546875
-10.07080078125
-14.6484375
-20.1416015625
-24.71923828125
-17.39501953125
-32.04345703125
-21.97265625
-19.22607421875
-12.8173828125
-13.73291015625
-18.310546875
-3.662109375
-5.4931640625
-6.40869140625
-5.4931640625
-0.91552734375
-5.4931640625
4.57763671875
0.91552734375
0
5.4931640625
7.32421875
11.90185546875
17.39501953125
14.6484375
10.07080078125
10.986328125
25.634765625
23.8037109375
29.296875
31.1279296875
32.04345703125
32.958984375
38.4521484375
44.86083984375
44.86083984375
54.931640625
59.50927734375
62.255859375
69.580078125
69.580078125
85.14404296875
82.3974609375
89.7216796875
95.21484375
101.62353515625
108.0322265625
120.849609375
122.6806640625
125.42724609375
126.3427734375
140.07568359375
140.9912109375
132.75146484375
146.484375
141.90673828125
150.146484375
157.470703125
167.54150390625
166.6259765625
170.2880859375
171.20361328125
172.119140625
171.20361328125
176.69677734375
173.9501953125
169.37255859375
171.20361328125
182.18994140625
171.20361328125
168.45703125
162.04833984375
147.39990234375
144.6533203125
131.8359375
116.27197265625
109.86328125
101.62353515625
100.7080078125
86.97509765625
74.15771484375
65.91796875
54.931640625
43.02978515625
32.958984375
24.71923828125
20.1416015625
11.90185546875
6.40869140625
0
-9.1552734375
-20.1416015625
-28.38134765625
-30.21240234375
-37.53662109375
-32.04345703125
-37.53662109375
-39.36767578125
-36.62109375
-42.1142578125
-39.36767578125
-43.02978515625
-46.69189453125
-48.52294921875
-43.9453125
-54.01611328125
-59.50927734375
-57.67822265625
-60.4248046875
-50.35400390625
-58.59375
-61.34033203125
-53.1005859375
-71.4111328125
-65.00244140625
-54.01611328125
-62.255859375
-60.4248046875
-61.34033203125
-60.4248046875
-55.84716796875
-63.17138671875
-60.4248046875
-61.34033203125
-64.0869140625
-66.83349609375
-65.00244140625
-68.66455078125
-56.7626953125
-52.18505859375
-54.931640625
-56.7626953125
-61.34033203125
-70.49560546875
-74.15771484375
-62.255859375
-61.34033203125
-67.7490234375
-66.83349609375
-54.931640625
-58.59375
-56.7626953125
-64.0869140625
-65.91796875
-63.17138671875
-65.00244140625
-60.4248046875
-63.17138671875
-60.4248046875
-57.67822265625
-55.84716796875
-55.84716796875
-63.17138671875
-59.50927734375
-61.34033203125
-63.17138671875
-54.931640625
-48.52294921875
-53.1005859375
-54.931640625
-48.52294921875
-54.01611328125
-54.01611328125
-52.18505859375
-57.67822265625
-64.0869140625
-51.26953125
-46.69189453125
-54.931640625
-54.931640625
-53.1005859375
-55.84716796875
-69.580078125
-59.50927734375
-46.69189453125
-59.50927734375
-63.17138671875
-64.0869140625
-58.59375
-51.26953125
-54.931640625
-57.67822265625
-57.67822265625
-65.00244140625
-67.7490234375
-67.7490234375
-64.0869140625
-60.4248046875
-65.91796875
-68.66455078125
-60.4248046875
-65.91796875
-65.00244140625
-59.50927734375
-62.255859375
-65.00244140625
-59.50927734375
-65.00244140625
-65.91796875
-63.17138671875
-60.4248046875
-66.83349609375
-68.66455078125
-67.7490234375
-64.0869140625
-66.83349609375
-64.0869140625
-68.66455078125
-65.91796875
-65.91796875
-56.7626953125
-63.17138671875
-58.59375
-59.50927734375
-66.83349609375
-67.7490234375
-69.580078125
-70.49560546875
-65.91796875
-60.4248046875
-68.66455078125
-65.00244140625
-67.7490234375
-68.66455078125
-69.580078125
-66.83349609375
-70.49560546875
-65.00244140625
-63.17138671875
-56.7626953125
-53.1005859375
-57.67822265625
-65.00244140625
-64.0869140625
-73.2421875
-75.0732421875
-64.0869140625
-65.91796875
-64.0869140625
-65.00244140625
-69.580078125
-71.4111328125
-68.66455078125
-68.66455078125
-77.81982421875
-72.32666015625
-70.49560546875
-75.98876953125
-70.49560546875
-58.59375
-64.0869140625
-63.17138671875
-60.4248046875
-66.83349609375
-64.0869140625
-72.32666015625
-74.15771484375
-71.4111328125
-60.4248046875
-65.91796875
-64.0869140625
-67.7490234375
-67.7490234375
-67.7490234375
-65.00244140625
-56.7626953125
-46.69189453125
-41.19873046875
-32.958984375
-32.04345703125
-27.4658203125
-29.296875
-22.88818359375
-29.296875
-23.8037109375
-23.8037109375
-32.04345703125
-37.53662109375
-26.55029296875
-18.310546875
-21.05712890625
-20.1416015625
-19.22607421875
-22.88818359375
-19.22607421875
-20.1416015625
-21.05712890625
-21.05712890625
-19.22607421875
-25.634765625
-34.7900390625
-54.931640625
-54.931640625
-53.1005859375
-51.26953125
-39.36767578125
-38.4521484375
-32.958984375
-28.38134765625
-32.04345703125
-25.634765625
-33.87451171875
-46.69189453125
-57.67822265625
-62.255859375
-67.7490234375
-77.81982421875
-81.48193359375
-85.14404296875
-80.56640625
-83.31298828125
-86.97509765625
-85.14404296875
-87.890625
-87.890625
-87.890625
-85.14404296875
-82.3974609375
-84.228515625
-83.31298828125
-77.81982421875
-80.56640625
-80.56640625
-77.81982421875
-90.63720703125
-97.0458984375
-77.81982421875
-77.81982421875
-80.56640625
-70.49560546875
-68.66455078125
-80.56640625
-79.65087890625
-75.98876953125
-80.56640625
-63.17138671875
-47.607421875
-42.1142578125
-32.04345703125
-26.55029296875
-18.310546875
22.88818359375
81.48193359375
157.470703125
270.08056640625
412.90283203125
525.5126953125
603.33251953125
633.544921875
610.65673828125
543.8232421875
492.5537109375
401.91650390625
302.1240234375
230.712890625
160.21728515625
43.9453125
-64.0869140625
-119.0185546875
-126.3427734375
-144.6533203125
-153.80859375
-130.0048828125
-100.7080078125
-88.80615234375
-74.15771484375
-58.59375
-47.607421875
-40.283203125
-38.4521484375
-46.69189453125
-49.4384765625
-52.18505859375
-55.84716796875
-65.00244140625
-69.580078125
-62.255859375
-55.84716796875
-56.7626953125
-51.26953125
-52.18505859375
-53.1005859375
-56.7626953125
-58.59375
-51.26953125
-50.35400390625
-46.69189453125
-43.9453125
-43.9453125
-42.1142578125
-43.02978515625
-43.02978515625
-40.283203125
-41.19873046875
-45.7763671875
-56.7626953125
-46.69189453125
-42.1142578125
-38.4521484375
-42.1142578125
-42.1142578125
-37.53662109375
-31.1279296875
-33.87451171875
-38.4521484375
-44.86083984375
-34.7900390625
-32.958984375
-32.04345703125
-36.62109375
-31.1279296875
-21.97265625
-31.1279296875
-26.55029296875
-32.958984375
-33.87451171875
-30.21240234375
-27.4658203125
-21.97265625
-15.56396484375
-21.05712890625
-23.8037109375
-17.39501953125
-20.1416015625
-32.04345703125
-18.310546875
-13.73291015625
-10.07080078125
-8.23974609375
-3.662109375
-9.1552734375
-10.07080078125
-10.986328125
-6.40869140625
-2.74658203125
-14.6484375
-0.91552734375
4.57763671875
4.57763671875
6.40869140625
6.40869140625
12.8173828125
10.986328125
9.1552734375
17.39501953125
19.22607421875
18.310546875
26.55029296875
36.62109375
41.19873046875
39.36767578125
43.9453125
47.607421875
58.59375
55.84716796875
59.50927734375
67.7490234375
68.66455078125
83.31298828125
93.3837890625
94.29931640625
87.890625
97.96142578125
108.94775390625
110.77880859375
119.0185546875
124.51171875
132.75146484375
134.58251953125
140.9912109375
146.484375
145.56884765625
146.484375
151.06201171875
154.72412109375
160.21728515625
157.470703125
164.794921875
175.78125
171.20361328125
170.2880859375
171.20361328125
166.6259765625
165.71044921875
173.03466796875
165.71044921875
148.3154296875
153.80859375
152.89306640625
147.39990234375
144.6533203125
129.08935546875
118.10302734375
109.86328125
99.79248046875
86.97509765625
75.0732421875
69.580078125
52.18505859375
35.70556640625
34.7900390625
24.71923828125
21.97265625
21.97265625
10.986328125
7.32421875
-1.8310546875
-1.8310546875
-21.05712890625
-17.39501953125
-18.310546875
-29.296875
-32.04345703125
-32.958984375
-32.958984375
-39.36767578125
-49.4384765625
-40.283203125
-37.53662109375
-43.02978515625
-43.02978515625
-45.7763671875
-51.26953125
-47.607421875
-49.4384765625
-57.67822265625
-53.1005859375
-59.50927734375
-63.17138671875
-58.59375
-50.35400390625
-45.7763671875
-54.01611328125
-54.01611328125
-59.50927734375
-53.1005859375
-47.607421875
-60.4248046875
-59.50927734375
-52.18505859375
-50.35400390625
-53.1005859375
-60.4248046875
-50.35400390625
-56.7626953125
-61.34033203125
-51.26953125
-54.931640625
-55.84716796875
-61.34033203125
-52.18505859375
-60.4248046875
-61.34033203125
-60.4248046875
-57.67822265625
-63.17138671875
-58.59375
-53.1005859375
-43.9453125
-50.35400390625
-58.59375
-57.67822265625
-54.01611328125
-53.1005859375
-61.34033203125
-57.67822265625
-56.7626953125
-54.931640625
-50.35400390625
-54.931640625
-58.59375
-52.18505859375
-47.607421875
-49.4384765625
-53.1005859375
-57.67822265625
-56.7626953125
-55.84716796875
-54.931640625
-52.18505859375
-51.26953125
-44.86083984375
-53.1005859375
-63.17138671875
-61.34033203125
-54.01611328125
-50.35400390625
-61.34033203125
-54.01611328125
-49.4384765625
-44.86083984375
-47.607421875
-48.52294921875
-51.26953125
-59.50927734375
-58.59375
-62.255859375
-54.01611328125
-47.607421875
-52.18505859375
-52.18505859375
-53.1005859375
-55.84716796875
-54.01611328125
-54.01611328125
-48.52294921875
-54.01611328125
-61.34033203125
-58.59375
-51.26953125
-59.50927734375
-62.255859375
-56.7626953125
-59.50927734375
-56.7626953125
-66.83349609375
-62.255859375
-54.931640625
-54.931640625
-56.7626953125
-62.255859375
-60.4248046875
-58.59375
-65.91796875
-69.580078125
-67.7490234375
-59.50927734375
-61.34033203125
-64.0869140625
-61.34033203125
-62.255859375
-65.91796875
-75.0732421875
-61.34033203125
-67.7490234375
-64.0869140625
-58.59375
-65.91796875
-63.17138671875
-61.34033203125
-57.67822265625
-59.50927734375
-63.17138671875
-61.34033203125
-66.83349609375
-76.904296875
-71.4111328125
-64.0869140625
-53.1005859375
-54.01611328125
-62.255859375
-64.0869140625
-65.91796875
-63.17138671875
-67.7490234375
-68.66455078125
-67.7490234375
-65.00244140625
-62.255859375
-72.32666015625
-61.34033203125
-60.4248046875
-67.7490234375
-67.7490234375
-70.49560546875
-72.32666015625
-71.4111328125
-68.66455078125
-64.0869140625
-65.91796875
-65.00244140625
-65.00244140625
-64.0869140625
-60.4248046875
-62.255859375
-68.66455078125
-67.7490234375
-75.0732421875
-73.2421875
-55.84716796875
-65.00244140625
-68.66455078125
-64.0869140625
-62.255859375
-67.7490234375
-69.580078125
-66.83349609375
-64.0869140625
-59.50927734375
-63.17138671875
-61.34033203125
-63.17138671875
-72.32666015625
-71.4111328125
-65.00244140625
-66.83349609375
-65.91796875
-62.255859375
-60.4248046875
-63.17138671875
-61.34033203125
-60.4248046875
-62.255859375
-62.255859375
-71.4111328125
-73.2421875
-65.91796875
-61.34033203125
-54.01611328125
-54.01611328125
-63.17138671875
-62.255859375
-75.98876953125
-73.2421875
-67.7490234375
-63.17138671875
-62.255859375
-65.91796875
-54.01611328125
-63.17138671875
-67.7490234375
-64.0869140625
-69.580078125
-68.66455078125
-63.17138671875
-54.931640625
-54.931640625
-46.69189453125
-45.7763671875
-33.87451171875
-31.1279296875
-32.958984375
-32.04345703125
-28.38134765625
-23.8037109375
-34.7900390625
-39.36767578125
-43.9453125
-40.283203125
-28.38134765625
-21.05712890625
-14.6484375
-23.8037109375
-18.310546875
-27.4658203125
-21.05712890625
-11.90185546875
-21.05712890625
-22.88818359375
-14.6484375
-21.05712890625
-44.86083984375
-49.4384765625
-46.69189453125
-49.4384765625
-60.4248046875
-42.1142578125
-30.21240234375
-34.7900390625
-32.958984375
-32.04345703125
-30.21240234375
-39.36767578125
-56.7626953125
-58.59375
-64.0869140625
-78.7353515625
-79.65087890625
-77.81982421875
-83.31298828125
-93.3837890625
-85.14404296875
-89.7216796875
-86.0595703125
-82.3974609375
-83.31298828125
-91.552734375
-79.65087890625
-75.98876953125
-87.890625
-87.890625
-73.2421875
-77.81982421875
-87.890625
-83.31298828125
-81.48193359375
-80.56640625
-77.81982421875
-73.2421875
-75.98876953125
-80.56640625
-78.7353515625
-74.15771484375
-82.3974609375
-86.0595703125
-67.7490234375
-55.84716796875
-47.607421875
-24.71923828125
-31.1279296875
-44.86083984375
-7.32421875
45.7763671875
108.0322265625
198.66943359375
326.84326171875
458.67919921875
557.55615234375
613.4033203125
621.64306640625
559.38720703125
502.62451171875
439.453125
345.15380859375
265.5029296875
201.416015625
107.11669921875
-3.662109375
-88.80615234375
-126.3427734375
-138.24462890625
-141.90673828125
-132.75146484375
-111.6943359375
-97.96142578125
-83.31298828125
-63.17138671875
-54.01611328125
-40.283203125
-34.7900390625
-42.1142578125
-47.607421875
-54.01611328125
-43.9453125
-50.35400390625
-49.4384765625
-49.4384765625
-51.26953125
-46.69189453125
-48.52294921875
-43.9453125
-43.9453125
-51.26953125
-55.84716796875
-51.26953125
-47.607421875
-50.35400390625
-44.86083984375
-43.9453125
-40.283203125
-42.1142578125
-38.4521484375
-45.7763671875
-49.4384765625
-42.1142578125
-39.36767578125
-43.9453125
-45.7763671875
-36.62109375
-31.1279296875
-35.70556640625
-39.36767578125
-47.607421875
-37.53662109375
-36.62109375
-36.62109375
-43.9453125
-30.21240234375
-32.04345703125
-26.55029296875
-29.296875
-37.53662109375
-34.7900390625
-28.38134765625
-26.55029296875
-34.7900390625
-32.958984375
-32.958984375
-25.634765625
-24.71923828125
-26.55029296875
-28.38134765625
-24.71923828125
-29.296875
-29.296875
-24.71923828125
-14.6484375
-14.6484375
-13.73291015625
-10.986328125
0
-5.4931640625
-11.90185546875
-14.6484375
-16.4794921875
-5.4931640625
-1.8310546875
-3.662109375
4.57763671875
5.4931640625
2.74658203125
9.1552734375
14.6484375
14.6484375
17.39501953125
16.4794921875
20.1416015625
22.88818359375
32.04345703125
31.1279296875
35.70556640625
37.53662109375
42.1142578125
47.607421875
51.26953125
52.18505859375
66.83349609375
70.49560546875
75.98876953125
85.14404296875
87.890625
91.552734375
103.45458984375
108.0322265625
99.79248046875
104.3701171875
116.27197265625
121.76513671875
128.173828125
134.58251953125
140.07568359375
139.16015625
143.73779296875
141.90673828125
141.90673828125
158.38623046875
166.6259765625
169.37255859375
176.69677734375
171.20361328125
172.119140625
176.69677734375
174.86572265625
168.45703125
172.119140625
173.9501953125
169.37255859375
167.54150390625
159.3017578125
158.38623046875
156.55517578125
137.3291015625
134.58251953125
129.08935546875
112.60986328125
106.201171875
102.5390625
89.7216796875
76.904296875
73.2421875
62.255859375
51.26953125
41.19873046875
32.04345703125
27.4658203125
25.634765625
11.90185546875
11.90185546875
3.662109375
2.74658203125
-4.57763671875
-13.73291015625
-18.310546875
-20.1416015625
-21.05712890625
-25.634765625
-22.88818359375
-28.38134765625
-31.1279296875
-32.04345703125
-30.21240234375
-41.19873046875
-43.9453125
-43.02978515625
-47.607421875
-51.26953125
-43.9453125
-41.19873046875
-38.4521484375
-43.9453125
-33.87451171875
-49.4384765625
-56.7626953125
-46.69189453125
-54.931640625
-51.26953125
-48.52294921875
-45.7763671875
-47.607421875
-46.69189453125
-53.1005859375
-47.607421875
-43.02978515625
-45.7763671875
-52.18505859375
-49.4384765625
-50.35400390625
-45.7763671875
-47.607421875
-44.86083984375
-43.02978515625
-38.4521484375
-47.607421875
-46.69189453125
-45.7763671875
-52.18505859375
-51.26953125
-53.1005859375
-45.7763671875
-39.36767578125
-38.4521484375
-46.69189453125
-47.607421875
-49.4384765625
-45.7763671875
-41.19873046875
-47.607421875
-45.7763671875
-42.1142578125
-43.02978515625
-38.4521484375
-37.53662109375
-50.35400390625
-54.931640625
-52.18505859375
-49.4384765625
-49.4384765625
-46.69189453125
-41.19873046875
-43.9453125
-39.36767578125
-31.1279296875
-38.4521484375
-35.70556640625
-37.53662109375
-49.4384765625
-46.69189453125
-45.7763671875
-43.9453125
-46.69189453125
-50.35400390625
-49.4384765625
-41.19873046875
-47.607421875
-41.19873046875
-45.7763671875
-62.255859375
-48.52294921875
-43.9453125
-39.36767578125
-42.1142578125
-41.19873046875
-51.26953125
-47.607421875
-41.19873046875
-52.18505859375
-54.01611328125
-39.36767578125
-48.52294921875
-47.607421875
-44.86083984375
-43.9453125
-58.59375
-50.35400390625
-49.4384765625
-48.52294921875
-53.1005859375
-50.35400390625
-51.26953125
-50.35400390625
-53.1005859375
-49.4384765625
-52.18505859375
-46.69189453125
-48.52294921875
-53.1005859375
-55.84716796875
-45.7763671875
-45.7763671875
-52.18505859375
-48.52294921875
-54.01611328125
-54.931640625
-56.7626953125
-55.84716796875
-56.7626953125
-57.67822265625
-54.01611328125
-50.35400390625
-53.1005859375
-48.52294921875
-48.52294921875
-51.26953125
-54.931640625
-58.59375
-54.01611328125
-48.52294921875
-50.35400390625
-51.26953125
-43.02978515625
-51.26953125
-51.26953125
-54.01611328125
-58.59375
-64.0869140625
-56.7626953125
-56.7626953125
-56.7626953125
-51.26953125
-54.931640625
-50.35400390625
-62.255859375
-61.34033203125
-59.50927734375
-58.59375
-52.18505859375
-54.01611328125
-52.18505859375
-52.18505859375
-48.52294921875
-47.607421875
-54.931640625
-54.01611328125
-60.4248046875
-54.931640625
-45.7763671875
-52.18505859375
-48.52294921875
-53.1005859375
-47.607421875
-53.1005859375
-55.84716796875
-52.18505859375
-55.84716796875
-62.255859375
-65.00244140625
-60.4248046875
-52.18505859375
-48.52294921875
-49.4384765625
-51.26953125
-48.52294921875
-50.35400390625
-52.18505859375
-55.84716796875
-55.84716796875
-50.35400390625
-45.7763671875
-43.02978515625
-53.1005859375
-51.26953125
-44.86083984375
-48.52294921875
-53.1005859375
-54.931640625
-54.01611328125
-58.59375
-53.1005859375
-51.26953125
-53.1005859375
-57.67822265625
-61.34033203125
-49.4384765625
-54.01611328125
-57.67822265625
-49.4384765625
-55.84716796875
-61.34033203125
-54.01611328125
-45.7763671875
-53.1005859375
-56.7626953125
-53.1005859375
-55.84716796875
-45.7763671875
-47.607421875
-54.931640625
-53.1005859375
-52.18505859375
-54.931640625
-46.69189453125
-49.4384765625
-43.9453125
-41.19873046875
-40.283203125
-38.4521484375
-36.62109375
-22.88818359375
-21.97265625
-16.4794921875
-18.310546875
-15.56396484375
-15.56396484375
-12.8173828125
-16.4794921875
-25.634765625
-12.8173828125
-8.23974609375
-8.23974609375
-11.90185546875
-9.1552734375
-0.91552734375
0
2.74658203125
4.57763671875
0.91552734375
-15.56396484375
-13.73291015625
-19.22607421875
-27.4658203125
-33.87451171875
-29.296875
-27.4658203125
-20.1416015625
-17.39501953125
-22.88818359375
-26.55029296875
-20.1416015625
-9.1552734375
-23.8037109375
-32.958984375
-46.69189453125
-54.931640625
-63.17138671875
-69.580078125
-71.4111328125
-77.81982421875
-80.56640625
-69.580078125
-67.7490234375
-69.580078125
-64.0869140625
-71.4111328125
-73.2421875
-57.67822265625
-73.2421875
-69.580078125
-65.91796875
-66.83349609375
-63.17138671875
-67.7490234375
-70.49560546875
-60.4248046875
-65.91796875
-68.66455078125
-72.32666015625
-70.49560546875
-65.91796875
-62.255859375
-58.59375
-66.83349609375
-75.0732421875
-65.00244140625
-53.1005859375
-59.50927734375
-53.1005859375
-56.7626953125
-44.86083984375
-16.4794921875
33.87451171875
100.7080078125
196.83837890625
331.4208984375
462.34130859375
583.19091796875
667.41943359375
696.71630859375
656.43310546875
583.19091796875
504.45556640625
403.74755859375
314.94140625
236.2060546875
140.07568359375
23.8037109375
-68.66455078125
-114.44091796875
-149.23095703125
-167.54150390625
-159.3017578125
-134.58251953125
-97.96142578125
-78.7353515625
-80.56640625
-61.34033203125
-43.9453125
-32.958984375
-31.1279296875
-38.4521484375
-36.62109375
-35.70556640625
-43.02978515625
-45.7763671875
-47.607421875
-50.35400390625
-46.69189453125
-43.9453125
-42.1142578125
-37.53662109375
-36.62109375
-32.958984375
-28.38134765625
-34.7900390625
-32.04345703125
-35.70556640625
-30.21240234375
-27.4658203125
-29.296875
-27.4658203125
-12.8173828125
-21.05712890625
-20.1416015625
-24.71923828125
-31.1279296875
-25.634765625
-21.97265625
-24.71923828125
-19.22607421875
-17.39501953125
-15.56396484375
-21.97265625
-23.8037109375
-25.634765625
-21.05712890625
-24.71923828125
-25.634765625
-18.310546875
-17.39501953125
-13.73291015625
-4.57763671875
-9.1552734375
-11.90185546875
-8.23974609375
-6.40869140625
-4.57763671875
3.662109375
0.91552734375
-1.8310546875
-7.32421875
0
10.986328125
-0.91552734375
-9.1552734375
-0.91552734375
0
-4.57763671875
3.662109375
8.23974609375
15.56396484375
12.8173828125
10.07080078125
8.23974609375
7.32421875
10.986328125
16.4794921875
16.4794921875
26.55029296875
27.4658203125
36.62109375
39.36767578125
36.62109375
34.7900390625
38.4521484375
39.36767578125
36.62109375
44.86083984375
53.1005859375
61.34033203125
55.84716796875
57.67822265625
58.59375
66.83349609375
73.2421875
82.3974609375
73.2421875
82.3974609375
96.13037109375
98.876953125
106.201171875
116.27197265625
120.849609375
125.42724609375
123.59619140625
131.8359375
142.822265625
149.23095703125
157.470703125
156.55517578125
164.794921875
164.794921875
170.2880859375
168.45703125
181.2744140625
173.9501953125
175.78125
182.18994140625
191.34521484375
192.2607421875
184.02099609375
191.34521484375
198.66943359375
197.75390625
198.66943359375
187.68310546875
184.9365234375
180.35888671875
178.52783203125
169.37255859375
158.38623046875
147.39990234375
144.6533203125
145.56884765625
133.6669921875
114.44091796875
105.28564453125
100.7080078125
88.80615234375
75.0732421875
64.0869140625
50.35400390625
48.52294921875
42.1142578125
35.70556640625
25.634765625
16.4794921875
11.90185546875
6.40869140625
6.40869140625
-0.91552734375
-6.40869140625
-5.4931640625
-11.90185546875
-18.310546875
-23.8037109375
-29.296875
-26.55029296875
-29.296875
-24.71923828125
-26.55029296875
-35.70556640625
-33.87451171875
-30.21240234375
-31.1279296875
-40.283203125
-35.70556640625
-33.87451171875
-36.62109375
-36.62109375
-38.4521484375
-42.1142578125
-38.4521484375
-35.70556640625
-37.53662109375
-43.9453125
-45.7763671875
-41.19873046875
-42.1142578125
-46.69189453125
-41.19873046875
-46.69189453125
-39.36767578125
-27.4658203125
-36.62109375
-43.02978515625
-38.4521484375
-51.26953125
-45.7763671875
-35.70556640625
-39.36767578125
-41.19873046875
-43.02978515625
-46.69189453125
