ECG
5.4931640625
8.23974609375
14.6484375
7.32421875
-1.8310546875
5.4931640625
2.74658203125
-4.57763671875
-21.05712890625
-21.97265625
-26.55029296875
-18.310546875
-19.22607421875
-13.73291015625
-12.8173828125
-20.1416015625
-20.1416015625
-18.310546875
-29.296875
-28.38134765625
-35.70556640625
-38.4521484375
-47.607421875
-54.931640625
-56.7626953125
-65.91796875
-75.98876953125
-67.7490234375
-60.4248046875
-60.4248046875
-62.255859375
-54.931640625
-63.17138671875
-63.17138671875
-65.00244140625
-67.7490234375
-57.67822265625
-58.59375
-65.00244140625
-55.84716796875
-56.7626953125
-60.4248046875
-49.4384765625
-49.4384765625
-59.50927734375
-69.580078125
-71.4111328125
-65.00244140625
-62.255859375
-73.2421875
-54.931640625
-40.283203125
-28.38134765625
-26.55029296875
-37.53662109375
-19.22607421875
21.97265625
89.7216796875
175.78125
284.72900390625
410.15625
532.8369140625
639.0380859375
689.39208984375
676.57470703125
606.0791015625
557.55615234375
456.84814453125
327.7587890625
245.361328125
169.37255859375
54.931640625
-40.283203125
-114.44091796875
-155.6396484375
-170.2880859375
-168.45703125
-145.56884765625
-109.86328125
-75.98876953125
-71.4111328125
-64.0869140625
-54.931640625
-51.26953125
-26.55029296875
-16.4794921875
-33.87451171875
-16.4794921875
-24.71923828125
-40.283203125
-28.38134765625
-34.7900390625
-40.283203125
-39.36767578125
-41.19873046875
-35.70556640625
-32.04345703125
-24.71923828125
-27.4658203125
-27.4658203125
-32.04345703125
-26.55029296875
-19.22607421875
-24.71923828125
-23.8037109375
-34.7900390625
-24.71923828125
-19.22607421875
-21.05712890625
-34.7900390625
-30.21240234375
-26.55029296875
-24.71923828125
-12.8173828125
-13.73291015625
-14.6484375
-10.07080078125
-17.39501953125
-16.4794921875
-10.986328125
-18.310546875
-18.310546875
-9.1552734375
-11.90185546875
-17.39501953125
-1.8310546875
-10.07080078125
-15.56396484375
-8.23974609375
-4.57763671875
2.74658203125
8.23974609375
3.662109375
1.8310546875
4.57763671875
0
10.986328125
4.57763671875
-3.662109375
7.32421875
10.07080078125
10.07080078125
7.32421875
7.32421875
10.07080078125
19.22607421875
21.05712890625
17.39501953125
10.986328125
22.88818359375
23.8037109375
26.55029296875
16.4794921875
26.55029296875
37.53662109375
37.53662109375
33.87451171875
46.69189453125
51.26953125
61.34033203125
63.17138671875
51.26953125
50.35400390625
55.84716796875
63.17138671875
66.83349609375
68.66455078125
72.32666015625
86.0595703125
96.13037109375
98.876953125
89.7216796875
98.876953125
108.0322265625
114.44091796875
115.3564453125
124.51171875
130.0048828125
130.0048828125
132.75146484375
143.73779296875
151.9775390625
155.6396484375
150.146484375
151.9775390625
172.119140625
163.87939453125
169.37255859375
171.20361328125
175.78125
181.2744140625
192.2607421875
184.9365234375
182.18994140625
179.443359375
177.6123046875
177.6123046875
183.10546875
174.86572265625
167.54150390625
167.54150390625
166.6259765625
155.6396484375
140.9912109375
143.73779296875
134.58251953125
135.498046875
118.10302734375
86.0595703125
90.63720703125
76.904296875
67.7490234375
57.67822265625
43.02978515625
23.8037109375
26.55029296875
23.8037109375
14.6484375
16.4794921875
12.8173828125
10.986328125
0
-3.662109375
-7.32421875
-9.1552734375
-7.32421875
-16.4794921875
-31.1279296875
-24.71923828125
-18.310546875
-22.88818359375
-26.55029296875
-21.97265625
-30.21240234375
-37.53662109375
-22.88818359375
-28.38134765625
-45.7763671875
-43.02978515625
-39.36767578125
-29.296875
-23.8037109375
-33.87451171875
-48.52294921875
-32.958984375
-37.53662109375
-47.607421875
-32.04345703125
-34.7900390625
-40.283203125
-30.21240234375
-39.36767578125
-45.7763671875
-49.4384765625
-41.19873046875
-38.4521484375
-31.1279296875
-31.1279296875
-32.04345703125
-27.4658203125
-46.69189453125
-38.4521484375
-29.296875
-32.958984375
-34.7900390625
-44.86083984375
-45.7763671875
-43.9453125
-36.62109375
-34.7900390625
-39.36767578125
-25.634765625
-22.88818359375
-33.87451171875
-29.296875
-32.04345703125
-38.4521484375
-29.296875
-29.296875
-26.55029296875
-27.4658203125
-30.21240234375
-26.55029296875
-46.69189453125
-44.86083984375
-27.4658203125
-28.38134765625
-25.634765625
-27.4658203125
-20.1416015625
-26.55029296875
-32.958984375
-23.8037109375
-29.296875
-18.310546875
-32.958984375
-31.1279296875
-29.296875
-35.70556640625
-41.19873046875
-33.87451171875
-43.02978515625
-30.21240234375
-34.7900390625
-51.26953125
-49.4384765625
-43.02978515625
-43.02978515625
-43.02978515625
-30.21240234375
-27.4658203125
-40.283203125
-44.86083984375
-44.86083984375
-44.86083984375
-37.53662109375
-35.70556640625
-38.4521484375
-42.1142578125
-36.62109375
-41.19873046875
-31.1279296875
-40.283203125
-41.19873046875
-36.62109375
-32.958984375
-45.7763671875
-48.52294921875
-46.69189453125
-47.607421875
-42.1142578125
-44.86083984375
-51.26953125
-54.01611328125
-41.19873046875
-36.62109375
-45.7763671875
-57.67822265625
-41.19873046875
-44.86083984375
-50.35400390625
-51.26953125
-54.931640625
-50.35400390625
-49.4384765625
-50.35400390625
-63.17138671875
-57.67822265625
-44.86083984375
-47.607421875
-58.59375
-60.4248046875
-54.01611328125
-52.18505859375
-46.69189453125
-54.01611328125
-56.7626953125
-59.50927734375
-51.26953125
-51.26953125
-58.59375
-49.4384765625
-45.7763671875
-42.1142578125
-48.52294921875
-63.17138671875
-59.50927734375
-54.931640625
-47.607421875
-51.26953125
-49.4384765625
-45.7763671875
-47.607421875
-51.26953125
-47.607421875
-39.36767578125
-50.35400390625
-55.84716796875
-43.9453125
-43.9453125
-43.9453125
-50.35400390625
-49.4384765625
-48.52294921875
-48.52294921875
-50.35400390625
-47.607421875
-50.35400390625
-45.7763671875
-52.18505859375
-47.607421875
-43.9453125
-46.69189453125
-55.84716796875
-49.4384765625
-36.62109375
-50.35400390625
-52.18505859375
-35.70556640625
-41.19873046875
-51.26953125
-48.52294921875
-42.1142578125
-32.958984375
-40.283203125
-58.59375
-58.59375
-43.9453125
-41.19873046875
-36.62109375
-43.9453125
-42.1142578125
-38.4521484375
-52.18505859375
-49.4384765625
-42.1142578125
-43.9453125
-61.34033203125
-53.1005859375
-40.283203125
-43.02978515625
-43.02978515625
-36.62109375
-43.9453125
-38.4521484375
-33.87451171875
-43.02978515625
-37.53662109375
-32.958984375
-32.958984375
-24.71923828125
-21.05712890625
-29.296875
-19.22607421875
-13.73291015625
-16.4794921875
-11.90185546875
-10.07080078125
-1.8310546875
-9.1552734375
12.8173828125
-5.4931640625
-16.4794921875
-12.8173828125
5.4931640625
8.23974609375
9.1552734375
-4.57763671875
-2.74658203125
-0.91552734375
3.662109375
3.662109375
5.4931640625
1.8310546875
0
-9.1552734375
-15.56396484375
-16.4794921875
-24.71923828125
-29.296875
-21.05712890625
-21.05712890625
-21.05712890625
-18.310546875
-23.8037109375
-15.56396484375
-16.4794921875
-22.88818359375
-24.71923828125
-37.53662109375
-36.62109375
-49.4384765625
-52.18505859375
-47.607421875
-56.7626953125
-62.255859375
-61.34033203125
-58.59375
-55.84716796875
-58.59375
-52.18505859375
-56.7626953125
-50.35400390625
-53.1005859375
-65.91796875
-68.66455078125
-66.83349609375
-61.34033203125
-51.26953125
-50.35400390625
-61.34033203125
-56.7626953125
-57.67822265625
-57.67822265625
-70.49560546875
-61.34033203125
-59.50927734375
-68.66455078125
-60.4248046875
-43.9453125
-20.1416015625
-6.40869140625
-19.22607421875
-25.634765625
1.8310546875
51.26953125
108.0322265625
203.2470703125
327.7587890625
460.51025390625
568.54248046875
632.62939453125
658.26416015625
608.82568359375
538.330078125
498.046875
394.59228515625
288.39111328125
222.47314453125
139.16015625
16.4794921875
-70.49560546875
-121.76513671875
-138.24462890625
-147.39990234375
-144.6533203125
-113.525390625
-90.63720703125
-68.66455078125
-57.67822265625
-40.283203125
-36.62109375
-34.7900390625
-39.36767578125
-44.86083984375
-47.607421875
-30.21240234375
-41.19873046875
-43.9453125
-32.04345703125
-43.02978515625
-40.283203125
-34.7900390625
-35.70556640625
-36.62109375
-37.53662109375
-30.21240234375
-27.4658203125
-32.04345703125
-28.38134765625
-30.21240234375
-35.70556640625
-27.4658203125
-26.55029296875
-33.87451171875
-28.38134765625
-22.88818359375
-17.39501953125
-28.38134765625
-21.05712890625
-23.8037109375
-30.21240234375
-24.71923828125
-19.22607421875
-19.22607421875
-23.8037109375
-28.38134765625
-16.4794921875
-11.90185546875
-23.8037109375
-21.05712890625
-13.73291015625
-16.4794921875
-10.986328125
-4.57763671875
-18.310546875
-6.40869140625
-9.1552734375
-11.90185546875
-16.4794921875
-10.986328125
-11.90185546875
0.91552734375
-1.8310546875
-3.662109375
-16.4794921875
-17.39501953125
-6.40869140625
-8.23974609375
-5.4931640625
-3.662109375
2.74658203125
3.662109375
-3.662109375
6.40869140625
12.8173828125
15.56396484375
5.4931640625
15.56396484375
23.8037109375
17.39501953125
29.296875
34.7900390625
35.70556640625
24.71923828125
21.05712890625
16.4794921875
22.88818359375
33.87451171875
58.59375
40.283203125
32.958984375
43.9453125
47.607421875
54.01611328125
55.84716796875
60.4248046875
65.00244140625
67.7490234375
79.65087890625
90.63720703125
87.890625
91.552734375
102.5390625
96.13037109375
107.11669921875
116.27197265625
113.525390625
122.6806640625
130.0048828125
124.51171875
132.75146484375
139.16015625
130.92041015625
140.9912109375
156.55517578125
156.55517578125
148.3154296875
150.146484375
164.794921875
165.71044921875
159.3017578125
158.38623046875
163.87939453125
161.1328125
170.2880859375
169.37255859375
162.04833984375
160.21728515625
160.21728515625
158.38623046875
157.470703125
141.90673828125
138.24462890625
119.93408203125
114.44091796875
111.6943359375
95.21484375
96.13037109375
87.890625
82.3974609375
67.7490234375
56.7626953125
54.931640625
40.283203125
25.634765625
25.634765625
17.39501953125
24.71923828125
17.39501953125
1.8310546875
-10.986328125
-1.8310546875
-6.40869140625
-12.8173828125
-24.71923828125
-16.4794921875
-12.8173828125
-25.634765625
-14.6484375
-21.97265625
-24.71923828125
-32.04345703125
-30.21240234375
-38.4521484375
-37.53662109375
-32.958984375
-45.7763671875
-40.283203125
-37.53662109375
-38.4521484375
-42.1142578125
-43.02978515625
-42.1142578125
-39.36767578125
-51.26953125
-51.26953125
-39.36767578125
-32.958984375
-50.35400390625
-46.69189453125
-46.69189453125
-43.02978515625
-54.01611328125
-62.255859375
-39.36767578125
-54.01611328125
-56.7626953125
-46.69189453125
-59.50927734375
-49.4384765625
-55.84716796875
-54.01611328125
-49.4384765625
-37.53662109375
-52.18505859375
-48.52294921875
-44.86083984375
-43.02978515625
-47.607421875
-47.607421875
-53.1005859375
-48.52294921875
-42.1142578125
-56.7626953125
-52.18505859375
-47.607421875
-43.02978515625
-42.1142578125
-43.9453125
-43.9453125
-56.7626953125
-45.7763671875
-46.69189453125
-50.35400390625
-45.7763671875
-50.35400390625
-43.9453125
-41.19873046875
-48.52294921875
-44.86083984375
-44.86083984375
-41.19873046875
-41.19873046875
-43.02978515625
-39.36767578125
-45.7763671875
-45.7763671875
-44.86083984375
-40.283203125
-52.18505859375
-54.931640625
-41.19873046875
-32.958984375
-35.70556640625
-49.4384765625
-42.1142578125
-44.86083984375
-43.02978515625
-41.19873046875
-45.7763671875
-43.02978515625
-38.4521484375
-35.70556640625
-46.69189453125
-39.36767578125
-32.04345703125
-39.36767578125
-46.69189453125
-53.1005859375
-48.52294921875
-35.70556640625
-32.04345703125
-44.86083984375
-43.9453125
-51.26953125
-56.7626953125
-55.84716796875
-47.607421875
-44.86083984375
-39.36767578125
-38.4521484375
-47.607421875
-36.62109375
-45.7763671875
-57.67822265625
-53.1005859375
-54.01611328125
-42.1142578125
-44.86083984375
-41.19873046875
-46.69189453125
-43.02978515625
-41.19873046875
-42.1142578125
-52.18505859375
-47.607421875
-48.52294921875
-52.18505859375
-43.02978515625
-31.1279296875
-41.19873046875
-36.62109375
-46.69189453125
-51.26953125
-41.19873046875
-44.86083984375
-42.1142578125
-47.607421875
-60.4248046875
-44.86083984375
-59.50927734375
-40.283203125
-39.36767578125
-47.607421875
-50.35400390625
-41.19873046875
-38.4521484375
-42.1142578125
-37.53662109375
-28.38134765625
-30.21240234375
-52.18505859375
-44.86083984375
-56.7626953125
-49.4384765625
-33.87451171875
-50.35400390625
-48.52294921875
-50.35400390625
-50.35400390625
-44.86083984375
-54.931640625
-62.255859375
-57.67822265625
-59.50927734375
-45.7763671875
-39.36767578125
-55.84716796875
-48.52294921875
-43.9453125
-48.52294921875
-44.86083984375
-47.607421875
-58.59375
-46.69189453125
-20.1416015625
-31.1279296875
-48.52294921875
-53.1005859375
-48.52294921875
-40.283203125
-44.86083984375
-37.53662109375
-35.70556640625
-45.7763671875
-49.4384765625
-54.931640625
-44.86083984375
-37.53662109375
-51.26953125
-47.607421875
-40.283203125
-41.19873046875
-36.62109375
-43.9453125
-36.62109375
-54.931640625
-38.4521484375
-45.7763671875
-39.36767578125
-38.4521484375
-40.283203125
-36.62109375
-45.7763671875
-47.607421875
-55.84716796875
-41.19873046875
-26.55029296875
-41.19873046875
-28.38134765625
-37.53662109375
-48.52294921875
-54.01611328125
-56.7626953125
-50.35400390625
-39.36767578125
-43.02978515625
-45.7763671875
-49.4384765625
-49.4384765625
-40.283203125
-38.4521484375
-46.69189453125
-54.931640625
-40.283203125
-37.53662109375
-28.38134765625
-34.7900390625
-49.4384765625
-41.19873046875
-42.1142578125
-28.38134765625
-29.296875
-25.634765625
-26.55029296875
-21.97265625
-28.38134765625
-13.73291015625
-9.1552734375
-5.4931640625
1.8310546875
-20.1416015625
-23.8037109375
-23.8037109375
-6.40869140625
1.8310546875
5.4931640625
9.1552734375
18.310546875
10.07080078125
-8.23974609375
-8.23974609375
-3.662109375
10.07080078125
3.662109375
-10.07080078125
0
-12.8173828125
-24.71923828125
-25.634765625
-24.71923828125
-32.04345703125
-29.296875
-15.56396484375
-15.56396484375
-10.07080078125
-13.73291015625
-14.6484375
0
-24.71923828125
-37.53662109375
-33.87451171875
-46.69189453125
-56.7626953125
-58.59375
-58.59375
-48.52294921875
-56.7626953125
-52.18505859375
-63.17138671875
-66.83349609375
-61.34033203125
-63.17138671875
-60.4248046875
-59.50927734375
-56.7626953125
-54.931640625
-64.0869140625
-63.17138671875
-53.1005859375
-48.52294921875
-67.7490234375
-63.17138671875
-53.1005859375
-43.02978515625
-49.4384765625
-52.18505859375
-48.52294921875
-56.7626953125
-57.67822265625
-51.26953125
-40.283203125
-19.22607421875
-10.07080078125
-26.55029296875
-16.4794921875
-10.986328125
32.04345703125
94.29931640625
175.78125
289.306640625
417.48046875
535.58349609375
613.4033203125
649.10888671875
609.7412109375
539.24560546875
479.736328125
399.169921875
314.02587890625
239.8681640625
162.04833984375
49.4384765625
-52.18505859375
-108.0322265625
-113.525390625
-139.16015625
-126.3427734375
-105.28564453125
-86.97509765625
-75.0732421875
-47.607421875
-34.7900390625
-42.1142578125
-31.1279296875
-23.8037109375
-15.56396484375
-14.6484375
-17.39501953125
-30.21240234375
-33.87451171875
-24.71923828125
-30.21240234375
-49.4384765625
-31.1279296875
-23.8037109375
-30.21240234375
-31.1279296875
-32.958984375
-21.97265625
-29.296875
-28.38134765625
-22.88818359375
-12.8173828125
-20.1416015625
-38.4521484375
-32.04345703125
-10.986328125
-18.310546875
-14.6484375
-6.40869140625
-12.8173828125
-12.8173828125
-12.8173828125
-5.4931640625
-11.90185546875
-20.1416015625
-5.4931640625
-1.8310546875
-9.1552734375
-9.1552734375
-7.32421875
-11.90185546875
-10.07080078125
-7.32421875
7.32421875
5.4931640625
-14.6484375
4.57763671875
-2.74658203125
-14.6484375
-8.23974609375
7.32421875
0.91552734375
-0.91552734375
7.32421875
15.56396484375
5.4931640625
8.23974609375
21.05712890625
21.05712890625
16.4794921875
23.8037109375
20.1416015625
30.21240234375
13.73291015625
12.8173828125
18.310546875
25.634765625
26.55029296875
25.634765625
29.296875
38.4521484375
38.4521484375
35.70556640625
43.02978515625
41.19873046875
43.02978515625
43.02978515625
44.86083984375
49.4384765625
63.17138671875
50.35400390625
68.66455078125
75.0732421875
57.67822265625
64.0869140625
67.7490234375
76.904296875
81.48193359375
85.14404296875
83.31298828125
74.15771484375
97.0458984375
94.29931640625
94.29931640625
111.6943359375
120.849609375
119.0185546875
129.08935546875
125.42724609375
135.498046875
139.16015625
150.146484375
146.484375
138.24462890625
145.56884765625
150.146484375
151.06201171875
167.54150390625
168.45703125
178.52783203125
172.119140625
175.78125
173.9501953125
170.2880859375
180.35888671875
188.5986328125
180.35888671875
170.2880859375
194.091796875
181.2744140625
167.54150390625
169.37255859375
164.794921875
158.38623046875
150.146484375
130.0048828125
128.173828125
123.59619140625
125.42724609375
114.44091796875
105.28564453125
90.63720703125
87.890625
82.3974609375
44.86083984375
39.36767578125
50.35400390625
34.7900390625
32.958984375
30.21240234375
25.634765625
10.07080078125
11.90185546875
9.1552734375
2.74658203125
-7.32421875
-12.8173828125
-13.73291015625
-13.73291015625
-7.32421875
-10.986328125
-14.6484375
-20.1416015625
-14.6484375
-15.56396484375
-11.90185546875
-21.97265625
-27.4658203125
-21.05712890625
-11.90185546875
-15.56396484375
-34.7900390625
-38.4521484375
-36.62109375
-28.38134765625
-22.88818359375
-22.88818359375
-33.87451171875
-30.21240234375
-25.634765625
-27.4658203125
-32.958984375
-22.88818359375
-30.21240234375
-21.05712890625
-16.4794921875
-14.6484375
-24.71923828125
-30.21240234375
-21.05712890625
-22.88818359375
-16.4794921875
-28.38134765625
-30.21240234375
-21.05712890625
-25.634765625
-29.296875
-22.88818359375
-13.73291015625
-30.21240234375
-38.4521484375
-32.04345703125
-27.4658203125
-29.296875
-26.55029296875
-19.22607421875
-17.39501953125
-17.39501953125
-20.1416015625
-32.04345703125
-27.4658203125
-32.04345703125
-30.21240234375
-28.38134765625
-22.88818359375
-25.634765625
-33.87451171875
-19.22607421875
-19.22607421875
-17.39501953125
-34.7900390625
-24.71923828125
-31.1279296875
-40.283203125
-31.1279296875
-29.296875
-15.56396484375
-31.1279296875
-44.86083984375
-44.86083984375
-32.04345703125
-29.296875
-38.4521484375
-29.296875
-32.958984375
-40.283203125
-31.1279296875
-35.70556640625
-34.7900390625
-28.38134765625
-36.62109375
-30.21240234375
-34.7900390625
-33.87451171875
-34.7900390625
-33.87451171875
-29.296875
-42.1142578125
-32.958984375
-36.62109375
-35.70556640625
-35.70556640625
-40.283203125
-40.283203125
-42.1142578125
-39.36767578125
-42.1142578125
-35.70556640625
-33.87451171875
-38.4521484375
-32.958984375
-37.53662109375
-45.7763671875
-29.296875
-27.4658203125
-40.283203125
-41.19873046875
-35.70556640625
-34.7900390625
-39.36767578125
-32.958984375
-43.02978515625
-43.9453125
-46.69189453125
-43.9453125
-42.1142578125
-46.69189453125
-43.02978515625
-43.02978515625
-43.9453125
-34.7900390625
-39.36767578125
-52.18505859375
-45.7763671875
-43.02978515625
-46.69189453125
-46.69189453125
-47.607421875
-33.87451171875
-32.04345703125
-43.02978515625
-50.35400390625
-59.50927734375
-55.84716796875
-43.02978515625
-49.4384765625
-42.1142578125
-49.4384765625
-51.26953125
-46.69189453125
-41.19873046875
-38.4521484375
-48.52294921875
-49.4384765625
-33.87451171875
-26.55029296875
-45.7763671875
-53.1005859375
-35.70556640625
-38.4521484375
-44.86083984375
-42.1142578125
-43.9453125
-45.7763671875
-43.9453125
-39.36767578125
-36.62109375
-46.69189453125
-49.4384765625
-48.52294921875
-41.19873046875
-38.4521484375
-38.4521484375
-43.02978515625
-43.02978515625
-35.70556640625
-51.26953125
-48.52294921875
-43.9453125
-47.607421875
-43.02978515625
-38.4521484375
-48.52294921875
-44.86083984375
-43.02978515625
-49.4384765625
-50.35400390625
-43.9453125
-43.9453125
-45.7763671875
-44.86083984375
-49.4384765625
-51.26953125
-48.52294921875
-50.35400390625
-46.69189453125
-48.52294921875
-51.26953125
-48.52294921875
-43.9453125
-40.283203125
-32.04345703125
-37.53662109375
-45.7763671875
-43.02978515625
-42.1142578125
-43.9453125
-45.7763671875
-43.9453125
-35.70556640625
-46.69189453125
-52.18505859375
-54.01611328125
-51.26953125
-43.02978515625
-30.21240234375
-13.73291015625
-23.8037109375
-46.69189453125
-43.02978515625
-36.62109375
-25.634765625
-17.39501953125
-27.4658203125
-28.38134765625
-18.310546875
-21.97265625
-12.8173828125
-17.39501953125
-20.1416015625
-11.90185546875
10.07080078125
16.4794921875
0
-9.1552734375
-3.662109375
-0.91552734375
-2.74658203125
-4.57763671875
4.57763671875
-5.4931640625
-11.90185546875
-9.1552734375
-19.22607421875
-30.21240234375
-36.62109375
-47.607421875
-32.958984375
-31.1279296875
-22.88818359375
-26.55029296875
-31.1279296875
-17.39501953125
-12.8173828125
-50.35400390625
-54.931640625
-45.7763671875
-47.607421875
-61.34033203125
-63.17138671875
-65.00244140625
-73.2421875
-62.255859375
-64.0869140625
-71.4111328125
-67.7490234375
-55.84716796875
-57.67822265625
-70.49560546875
-71.4111328125
-68.66455078125
-62.255859375
-54.01611328125
-70.49560546875
-65.00244140625
-59.50927734375
-68.66455078125
-54.931640625
-59.50927734375
-61.34033203125
-66.83349609375
-69.580078125
-66.83349609375
-79.65087890625
-78.7353515625
-54.931640625
-43.9453125
-44.86083984375
-48.52294921875
-40.283203125
-29.296875
34.7900390625
106.201171875
202.33154296875
331.4208984375
450.439453125
564.88037109375
661.92626953125
700.37841796875
651.85546875
566.71142578125
481.5673828125
397.3388671875
312.19482421875
219.7265625
110.77880859375
13.73291015625
-79.65087890625
-136.41357421875
-173.9501953125
-190.4296875
-154.72412109375
-123.59619140625
-112.60986328125
-97.96142578125
-92.46826171875
-57.67822265625
-44.86083984375
-38.4521484375
-28.38134765625
-33.87451171875
-46.69189453125
-45.7763671875
-32.958984375
-40.283203125
-39.36767578125
-39.36767578125
-32.958984375
-31.1279296875
-33.87451171875
-30.21240234375
-27.4658203125
-28.38134765625
-24.71923828125
-26.55029296875
-33.87451171875
-22.88818359375
-32.04345703125
-25.634765625
-17.39501953125
-13.73291015625
-11.90185546875
-24.71923828125
-23.8037109375
-21.05712890625
-27.4658203125
-23.8037109375
-28.38134765625
-21.05712890625
-11.90185546875
-21.97265625
-22.88818359375
-21.97265625
-23.8037109375
-25.634765625
-16.4794921875
-16.4794921875
-6.40869140625
-2.74658203125
-4.57763671875
-3.662109375
-12.8173828125
-12.8173828125
-13.73291015625
-6.40869140625
-0.91552734375
1.8310546875
-3.662109375
3.662109375
7.32421875
16.4794921875
-6.40869140625
7.32421875
7.32421875
12.8173828125
16.4794921875
22.88818359375
21.97265625
29.296875
24.71923828125
27.4658203125
32.958984375
21.05712890625
43.02978515625
38.4521484375
23.8037109375
38.4521484375
41.19873046875
40.283203125
34.7900390625
43.02978515625
44.86083984375
49.4384765625
67.7490234375
58.59375
44.86083984375
43.9453125
56.7626953125
62.255859375
51.26953125
61.34033203125
73.2421875
70.49560546875
79.65087890625
90.63720703125
97.96142578125
97.96142578125
104.3701171875
117.1875
120.849609375
107.11669921875
110.77880859375
122.6806640625
137.3291015625
133.6669921875
151.06201171875
154.72412109375
156.55517578125
151.9775390625
162.04833984375
167.54150390625
173.9501953125
177.6123046875
185.85205078125
184.9365234375
183.10546875
191.34521484375
194.091796875
191.34521484375
198.66943359375
198.66943359375
193.17626953125
186.767578125
194.091796875
186.767578125
180.35888671875
167.54150390625
151.9775390625
154.72412109375
159.3017578125
135.498046875
132.75146484375
138.24462890625
118.10302734375
113.525390625
105.28564453125
89.7216796875
66.83349609375
68.66455078125
52.18505859375
43.02978515625
41.19873046875
36.62109375
34.7900390625
28.38134765625
21.97265625
13.73291015625
12.8173828125
0.91552734375
-10.07080078125
-10.986328125
-18.310546875
-16.4794921875
-18.310546875
-18.310546875
-21.97265625
-23.8037109375
-32.04345703125
-25.634765625
-21.05712890625
-32.04345703125
-25.634765625
-27.4658203125
-32.958984375
-21.97265625
-20.1416015625
-28.38134765625
-35.70556640625
-31.1279296875
-38.4521484375
-35.70556640625
-27.4658203125
-39.36767578125
-47.607421875
-37.53662109375
-31.1279296875
-27.4658203125
-27.4658203125
-34.7900390625
-44.86083984375
-42.1142578125
-40.283203125
-42.1142578125
-35.70556640625
-24.71923828125
-33.87451171875
-21.97265625
-38.4521484375
-42.1142578125
-32.04345703125
-35.70556640625
-36.62109375
-28.38134765625
-38.4521484375
-31.1279296875
-36.62109375
-31.1279296875
-27.4658203125
-28.38134765625
-33.87451171875
-23.8037109375
-16.4794921875
-29.296875
-25.634765625
-25.634765625
-35.70556640625
-41.19873046875
-39.36767578125
-35.70556640625
-39.36767578125
-42.1142578125
-32.958984375
-28.38134765625
-31.1279296875
-41.19873046875
-29.296875
-42.1142578125
-39.36767578125
-41.19873046875
-39.36767578125
-43.9453125
-41.19873046875
-31.1279296875
-35.70556640625
-43.02978515625
-34.7900390625
-49.4384765625
-47.607421875
-45.7763671875
-44.86083984375
-55.84716796875
-49.4384765625
-37.53662109375
-37.53662109375
-50.35400390625
-39.36767578125
-30.21240234375
-37.53662109375
-39.36767578125
-32.958984375
-41.19873046875
-49.4384765625
-52.18505859375
-38.4521484375
-43.9453125
-41.19873046875
-37.53662109375
-43.02978515625
-39.36767578125
-32.04345703125
-46.69189453125
-59.50927734375
-48.52294921875
-33.87451171875
-36.62109375
-47.607421875
-32.04345703125
-43.02978515625
-42.1142578125
-59.50927734375
-51.26953125
-44.86083984375
-45.7763671875
-46.69189453125
-45.7763671875
-39.36767578125
-40.283203125
-44.86083984375
-54.931640625
-53.1005859375
-54.01611328125
-53.1005859375
-51.26953125
-49.4384765625
-42.1142578125
-59.50927734375
-55.84716796875
-41.19873046875
-35.70556640625
-44.86083984375
-42.1142578125
-46.69189453125
-49.4384765625
-43.9453125
-38.4521484375
-27.4658203125
-34.7900390625
-54.01611328125
-40.283203125
-35.70556640625
-45.7763671875
-59.50927734375
-50.35400390625
-44.86083984375
-48.52294921875
-48.52294921875
-44.86083984375
-45.7763671875
-41.19873046875
-41.19873046875
-49.4384765625
-53.1005859375
-41.19873046875
-45.7763671875
-43.02978515625
-42.1142578125
-46.69189453125
-48.52294921875
-41.19873046875
-51.26953125
-54.01611328125
-55.84716796875
-39.36767578125
-39.36767578125
-53.1005859375
-54.01611328125
-54.01611328125
-53.1005859375
-51.26953125
-62.255859375
-54.01611328125
-51.26953125
-44.86083984375
-51.26953125
-48.52294921875
-37.53662109375
-25.634765625
-26.55029296875
-21.97265625
-12.8173828125
-7.32421875
4.57763671875
4.57763671875
-14.6484375
-7.32421875
-8.23974609375
-21.05712890625
-15.56396484375
-5.4931640625
3.662109375
5.4931640625
14.6484375
3.662109375
-7.32421875
0
17.39501953125
26.55029296875
16.4794921875
12.8173828125
7.32421875
-0.91552734375
-11.90185546875
-17.39501953125
-21.97265625
-21.05712890625
-11.90185546875
-23.8037109375
-27.4658203125
-15.56396484375
-8.23974609375
-26.55029296875
-30.21240234375
-25.634765625
-41.19873046875
-63.17138671875
-53.1005859375
-60.4248046875
-65.91796875
-63.17138671875
-66.83349609375
-75.0732421875
-79.65087890625
-80.56640625
-67.7490234375
-79.65087890625
-75.0732421875
-72.32666015625
-74.15771484375
-62.255859375
-62.255859375
-50.35400390625
-65.91796875
-59.50927734375
-63.17138671875
-65.00244140625
-63.17138671875
-57.67822265625
-62.255859375
-66.83349609375
-65.00244140625
-69.580078125
-76.904296875
-84.228515625
-70.49560546875
-63.17138671875
-65.00244140625
-42.1142578125
-36.62109375
-41.19873046875
-10.07080078125
60.4248046875
135.498046875
245.361328125
383.60595703125
507.2021484375
624.3896484375
696.71630859375
712.2802734375
654.60205078125
570.37353515625
485.2294921875
368.95751953125
274.658203125
187.68310546875
75.0732421875
-34.7900390625
-116.27197265625
-166.6259765625
-193.17626953125
-209.65576171875
-176.69677734375
-143.73779296875
-122.6806640625
-103.45458984375
-91.552734375
-66.83349609375
-47.607421875
-46.69189453125
-60.4248046875
-49.4384765625
-44.86083984375
-54.01611328125
-46.69189453125
-35.70556640625
-37.53662109375
-40.283203125
-42.1142578125
-46.69189453125
-35.70556640625
-38.4521484375
-43.9453125
-40.283203125
-45.7763671875
-48.52294921875
-40.283203125
-41.19873046875
-25.634765625
-32.958984375
-34.7900390625
-36.62109375
-40.283203125
-32.958984375
-38.4521484375
-37.53662109375
-32.04345703125
-33.87451171875
-32.958984375
-32.04345703125
-34.7900390625
-32.958984375
-21.05712890625
-27.4658203125
-25.634765625
-26.55029296875
-31.1279296875
-20.1416015625
-25.634765625
-27.4658203125
-20.1416015625
-24.71923828125
-25.634765625
-17.39501953125
-13.73291015625
-13.73291015625
-20.1416015625
-15.56396484375
-9.1552734375
-13.73291015625
-9.1552734375
-10.986328125
-16.4794921875
-10.986328125
-6.40869140625
4.57763671875
3.662109375
4.57763671875
-1.8310546875
3.662109375
1.8310546875
5.4931640625
11.90185546875
17.39501953125
29.296875
29.296875
15.56396484375
7.32421875
21.05712890625
21.97265625
21.05712890625
32.958984375
38.4521484375
33.87451171875
36.62109375
41.19873046875
46.69189453125
54.931640625
51.26953125
46.69189453125
64.0869140625
64.0869140625
57.67822265625
68.66455078125
66.83349609375
73.2421875
94.29931640625
88.80615234375
85.14404296875
101.62353515625
108.94775390625
107.11669921875
118.10302734375
127.25830078125
124.51171875
132.75146484375
139.16015625
144.6533203125
135.498046875
149.23095703125
157.470703125
166.6259765625
173.03466796875
162.04833984375
155.6396484375
168.45703125
172.119140625
182.18994140625
180.35888671875
171.20361328125
176.69677734375
190.4296875
195.9228515625
179.443359375
164.794921875
173.03466796875
164.794921875
158.38623046875
160.21728515625
141.90673828125
137.3291015625
129.08935546875
117.1875
117.1875
100.7080078125
91.552734375
80.56640625
68.66455078125
48.52294921875
49.4384765625
38.4521484375
32.958984375
25.634765625
21.05712890625
11.90185546875
10.986328125
2.74658203125
3.662109375
-3.662109375
0
-16.4794921875
-18.310546875
-30.21240234375
-31.1279296875
-26.55029296875
-31.1279296875
-25.634765625
-29.296875
-43.9453125
-37.53662109375
-30.21240234375
-43.02978515625
-41.19873046875
-44.86083984375
-34.7900390625
-32.958984375
-55.84716796875
-38.4521484375
-30.21240234375
-44.86083984375
-54.01611328125
-47.607421875
-33.87451171875
-45.7763671875
-43.02978515625
-40.283203125
-44.86083984375
-50.35400390625
-47.607421875
-39.36767578125
-42.1142578125
-33.87451171875
-43.02978515625
-54.01611328125
-39.36767578125
-50.35400390625
-49.4384765625
-36.62109375
-33.87451171875
-47.607421875
-50.35400390625
-44.86083984375
-44.86083984375
-51.26953125
-43.02978515625
-32.04345703125
-28.38134765625
-30.21240234375
-47.607421875
-41.19873046875
-32.958984375
-26.55029296875
-35.70556640625
-43.9453125
-37.53662109375
-30.21240234375
-33.87451171875
-27.4658203125
-32.04345703125
-36.62109375
-41.19873046875
-33.87451171875
-31.1279296875
-38.4521484375
-31.1279296875
-33.87451171875
-37.53662109375
-39.36767578125
-37.53662109375
-24.71923828125
-27.4658203125
-39.36767578125
-34.7900390625
-41.19873046875
-43.9453125
-39.36767578125
-43.02978515625
-52.18505859375
-46.69189453125
-43.02978515625
-36.62109375
-34.7900390625
-53.1005859375
-51.26953125
-50.35400390625
-52.18505859375
-48.52294921875
-38.4521484375
-49.4384765625
-52.18505859375
-53.1005859375
-47.607421875
-41.19873046875
-44.86083984375
-47.607421875
-43.9453125
-46.69189453125
-53.1005859375
-48.52294921875
-40.283203125
-49.4384765625
-51.26953125
-49.4384765625
-54.01611328125
-43.02978515625
-47.607421875
-45.7763671875
-41.19873046875
-56.7626953125
-55.84716796875
-45.7763671875
-34.7900390625
-43.02978515625
-48.52294921875
-38.4521484375
-36.62109375
-49.4384765625
-47.607421875
-52.18505859375
-48.52294921875
-32.04345703125
-46.69189453125
-45.7763671875
-32.04345703125
-41.19873046875
-54.01611328125
-60.4248046875
-56.7626953125
-63.17138671875
-57.67822265625
-45.7763671875
-47.607421875
-51.26953125
-54.931640625
-47.607421875
-50.35400390625
-40.283203125
-40.283203125
-52.18505859375
-54.931640625
-53.1005859375
-44.86083984375
-46.69189453125
-52.18505859375
-52.18505859375
-54.931640625
-38.4521484375
-31.1279296875
-41.19873046875
-43.9453125
-41.19873046875
-41.19873046875
-48.52294921875
-38.4521484375
-40.283203125
-51.26953125
-49.4384765625
-46.69189453125
-41.19873046875
-47.607421875
-54.931640625
-48.52294921875
-49.4384765625
-57.67822265625
-54.931640625
-52.18505859375
-50.35400390625
-47.607421875
-49.4384765625
-49.4384765625
-36.62109375
-52.18505859375
-52.18505859375
-52.18505859375
-53.1005859375
-43.02978515625
-34.7900390625
-50.35400390625
-52.18505859375
-41.19873046875
-35.70556640625
-26.55029296875
-26.55029296875
-34.7900390625
-32.04345703125
-9.1552734375
-5.4931640625
-2.74658203125
6.40869140625
-7.32421875
-1.8310546875
-10.986328125
-10.07080078125
-7.32421875
10.986328125
2.74658203125
3.662109375
13.73291015625
8.23974609375
2.74658203125
2.74658203125
10.986328125
8.23974609375
9.1552734375
8.23974609375
0
-8.23974609375
-5.4931640625
-22.88818359375
-24.71923828125
-20.1416015625
-17.39501953125
-9.1552734375
-30.21240234375
-22.88818359375
-8.23974609375
-22.88818359375
-28.38134765625
-26.55029296875
-31.1279296875
-49.4384765625
-62.255859375
-50.35400390625
-65.00244140625
-74.15771484375
-59.50927734375
-63.17138671875
-72.32666015625
-75.0732421875
-69.580078125
-70.49560546875
-79.65087890625
-72.32666015625
-68.66455078125
-63.17138671875
-57.67822265625
-66.83349609375
-70.49560546875
-79.65087890625
-67.7490234375
-53.1005859375
-57.67822265625
-75.98876953125
-65.00244140625
-61.34033203125
-65.91796875
-73.2421875
-84.228515625
-70.49560546875
-66.83349609375
-50.35400390625
-38.4521484375
-34.7900390625
-36.62109375
-31.1279296875
2.74658203125
77.81982421875
150.146484375
264.58740234375
405.57861328125
514.5263671875
616.14990234375
675.6591796875
664.6728515625
583.19091796875
531.005859375
441.2841796875
335.0830078125
251.77001953125
171.20361328125
62.255859375
-38.4521484375
-119.0185546875
-145.56884765625
-161.1328125
-184.9365234375
-159.3017578125
-130.0048828125
-98.876953125
-90.63720703125
-68.66455078125
-59.50927734375
-40.283203125
-48.52294921875
-44.86083984375
-49.4384765625
-54.01611328125
-46.69189453125
-50.35400390625
-51.26953125
-39.36767578125
-47.607421875
-50.35400390625
-43.9453125
-43.02978515625
-31.1279296875
-35.70556640625
-33.87451171875
-29.296875
-39.36767578125
-51.26953125
-47.607421875
-37.53662109375
-39.36767578125
-36.62109375
-39.36767578125
-41.19873046875
-36.62109375
-31.1279296875
-45.7763671875
-45.7763671875
-41.19873046875
-34.7900390625
-37.53662109375
-24.71923828125
-22.88818359375
-27.4658203125
-24.71923828125
-29.296875
-35.70556640625
-21.97265625
-15.56396484375
-15.56396484375
-14.6484375
-20.1416015625
-21.97265625
-22.88818359375
-18.310546875
-9.1552734375
-12.8173828125
-20.1416015625
-9.1552734375
-6.40869140625
0.91552734375
-3.662109375
-15.56396484375
-10.07080078125
-10.07080078125
-4.57763671875
-8.23974609375
-7.32421875
-3.662109375
11.90185546875
-3.662109375
4.57763671875
3.662109375
0
-4.57763671875
0.91552734375
17.39501953125
22.88818359375
17.39501953125
13.73291015625
32.04345703125
18.310546875
18.310546875
22.88818359375
29.296875
29.296875
37.53662109375
39.36767578125
36.62109375
50.35400390625
39.36767578125
52.18505859375
62.255859375
55.84716796875
65.00244140625
66.83349609375
65.00244140625
84.228515625
78.7353515625
87.890625
93.3837890625
88.80615234375
108.94775390625
120.849609375
119.93408203125
120.849609375
117.1875
113.525390625
139.16015625
156.55517578125
143.73779296875
138.24462890625
140.07568359375
148.3154296875
157.470703125
162.9638671875
158.38623046875
154.72412109375
156.55517578125
166.6259765625
175.78125
161.1328125
162.9638671875
170.2880859375
177.6123046875
163.87939453125
149.23095703125
148.3154296875
146.484375
147.39990234375
140.9912109375
132.75146484375
123.59619140625
127.25830078125
115.3564453125
94.29931640625
84.228515625
78.7353515625
70.49560546875
69.580078125
53.1005859375
41.19873046875
28.38134765625
22.88818359375
19.22607421875
19.22607421875
16.4794921875
2.74658203125
6.40869140625
-4.57763671875
-4.57763671875
-3.662109375
-20.1416015625
-20.1416015625
-17.39501953125
-22.88818359375
-26.55029296875
-20.1416015625
-16.4794921875
-20.1416015625
-21.97265625
-35.70556640625
-36.62109375
-36.62109375
-32.04345703125
-34.7900390625
-28.38134765625
-37.53662109375
-37.53662109375
-36.62109375
-39.36767578125
-43.9453125
-31.1279296875
-32.958984375
-32.04345703125
-21.97265625
-44.86083984375
-44.86083984375
-35.70556640625
-34.7900390625
-43.02978515625
-43.9453125
-34.7900390625
-29.296875
-23.8037109375
-23.8037109375
-36.62109375
-34.7900390625
-32.04345703125
-29.296875
-33.87451171875
-50.35400390625
-48.52294921875
-43.02978515625
-38.4521484375
-46.69189453125
-37.53662109375
-34.7900390625
-28.38134765625
-32.958984375
-36.62109375
-32.958984375
-48.52294921875
-49.4384765625
-22.88818359375
-35.70556640625
-34.7900390625
-37.53662109375
-42.1142578125
-32.958984375
-37.53662109375
-31.1279296875
-24.71923828125
-34.7900390625
-33.87451171875
-29.296875
-19.22607421875
-32.04345703125
-33.87451171875
-29.296875
-33.87451171875
-32.958984375
-29.296875
-28.38134765625
-34.7900390625
-28.38134765625
-25.634765625
-34.7900390625
-30.21240234375
-30.21240234375
-38.4521484375
-37.53662109375
-31.1279296875
-33.87451171875
-39.36767578125
-32.958984375
-52.18505859375
-48.52294921875
-47.607421875
-39.36767578125
-39.36767578125
-39.36767578125
-49.4384765625
-42.1142578125
-29.296875
-43.02978515625
-54.931640625
-43.9453125
-54.931640625
-45.7763671875
-36.62109375
-44.86083984375
-49.4384765625
-46.69189453125
-49.4384765625
-43.9453125
-45.7763671875
-40.283203125
-36.62109375
-41.19873046875
-50.35400390625
-53.1005859375
-45.7763671875
-48.52294921875
-39.36767578125
-44.86083984375
-44.86083984375
-37.53662109375
-42.1142578125
-43.02978515625
-37.53662109375
-29.296875
-32.04345703125
-43.02978515625
-38.4521484375
-32.958984375
-34.7900390625
-41.19873046875
-39.36767578125
-39.36767578125
-34.7900390625
-30.21240234375
-50.35400390625
-47.607421875
-42.1142578125
-42.1142578125
-36.62109375
-38.4521484375
-53.1005859375
-46.69189453125
-37.53662109375
-47.607421875
-51.26953125
-57.67822265625
-53.1005859375
-42.1142578125
-50.35400390625
-54.931640625
-46.69189453125
-49.4384765625
-58.59375
-49.4384765625
-43.9453125
-39.36767578125
-44.86083984375
-47.607421875
-47.607421875
-44.86083984375
-51.26953125
-43.02978515625
-37.53662109375
-54.01611328125
-43.02978515625
-34.7900390625
-37.53662109375
-47.607421875
-38.4521484375
-32.958984375
-39.36767578125
-43.9453125
-45.7763671875
-36.62109375
-26.55029296875
-39.36767578125
-49.4384765625
-39.36767578125
-43.9453125
-39.36767578125
-48.52294921875
-50.35400390625
-41.19873046875
-43.02978515625
-50.35400390625
-46.69189453125
-35.70556640625
-38.4521484375
-41.19873046875
-44.86083984375
-47.607421875
-43.9453125
-50.35400390625
-43.9453125
-43.9453125
-43.9453125
-41.19873046875
-50.35400390625
-47.607421875
-47.607421875
-47.607421875
-45.7763671875
-49.4384765625
-37.53662109375
-34.7900390625
-38.4521484375
-29.296875
-36.62109375
-14.6484375
-18.310546875
-30.21240234375
-18.310546875
0.91552734375
-0.91552734375
-3.662109375
2.74658203125
12.8173828125
4.57763671875
-2.74658203125
-1.8310546875
6.40869140625
13.73291015625
28.38134765625
14.6484375
11.90185546875
20.1416015625
11.90185546875
9.1552734375
23.8037109375
21.97265625
1.8310546875
-14.6484375
-17.39501953125
-17.39501953125
-32.04345703125
-32.04345703125
-36.62109375
-25.634765625
-20.1416015625
-32.04345703125
-32.958984375
-30.21240234375
-16.4794921875
-25.634765625
-36.62109375
-41.19873046875
-45.7763671875
-51.26953125
-70.49560546875
-66.83349609375
-75.98876953125
-81.48193359375
-83.31298828125
-83.31298828125
-79.65087890625
-55.84716796875
-54.01611328125
-58.59375
-61.34033203125
-72.32666015625
-61.34033203125
-59.50927734375
-63.17138671875
-67.7490234375
-61.34033203125
-48.52294921875
-50.35400390625
-56.7626953125
-55.84716796875
-62.255859375
-48.52294921875
-53.1005859375
-65.91796875
-51.26953125
-58.59375
-56.7626953125
-32.04345703125
-32.04345703125
-14.6484375
-28.38134765625
-20.1416015625
14.6484375
58.59375
127.25830078125
230.712890625
370.78857421875
500.79345703125
600.5859375
629.8828125
615.234375
536.4990234375
485.2294921875
399.169921875
306.70166015625
243.5302734375
167.54150390625
52.18505859375
-42.1142578125
-103.45458984375
-145.56884765625
-150.146484375
-155.6396484375
-133.6669921875
-102.5390625
-81.48193359375
-69.580078125
-63.17138671875
-54.01611328125
-46.69189453125
-33.87451171875
-38.4521484375
-43.9453125
-41.19873046875
-35.70556640625
-50.35400390625
-41.19873046875
-40.283203125
-42.1142578125
-40.283203125
-32.958984375
-35.70556640625
-39.36767578125
-37.53662109375
-37.53662109375
-43.9453125
-41.19873046875
-47.607421875
-33.87451171875
-38.4521484375
-28.38134765625
-35.70556640625
-32.958984375
-43.9453125
-30.21240234375
-33.87451171875
-30.21240234375
-22.88818359375
-25.634765625
-18.310546875
-17.39501953125
-28.38134765625
-32.04345703125
-28.38134765625
-17.39501953125
-25.634765625
-22.88818359375
-24.71923828125
-19.22607421875
-24.71923828125
-30.21240234375
-26.55029296875
-18.310546875
-15.56396484375
-18.310546875
-19.22607421875
-4.57763671875
-12.8173828125
-13.73291015625
-7.32421875
-21.05712890625
-19.22607421875
-13.73291015625
1.8310546875
4.57763671875
-4.57763671875
-10.07080078125
3.662109375
6.40869140625
-7.32421875
6.40869140625
11.90185546875
10.986328125
-0.91552734375
-9.1552734375
-4.57763671875
14.6484375
19.22607421875
11.90185546875
17.39501953125
21.05712890625
21.05712890625
33.87451171875
40.283203125
43.02978515625
29.296875
22.88818359375
16.4794921875
30.21240234375
39.36767578125
39.36767578125
47.607421875
56.7626953125
62.255859375
55.84716796875
56.7626953125
70.49560546875
75.98876953125
66.83349609375
73.2421875
97.96142578125
97.0458984375
101.62353515625
114.44091796875
93.3837890625
109.86328125
114.44091796875
128.173828125
132.75146484375
122.6806640625
129.08935546875
151.06201171875
151.9775390625
149.23095703125
148.3154296875
152.89306640625
164.794921875
171.20361328125
151.06201171875
153.80859375
166.6259765625
167.54150390625
167.54150390625
167.54150390625
166.6259765625
163.87939453125
152.89306640625
152.89306640625
145.56884765625
143.73779296875
146.484375
123.59619140625
126.3427734375
110.77880859375
115.3564453125
98.876953125
86.97509765625
80.56640625
73.2421875
63.17138671875
54.931640625
45.7763671875
27.4658203125
28.38134765625
21.05712890625
20.1416015625
0
-0.91552734375
-9.1552734375
-9.1552734375
-5.4931640625
-18.310546875
-13.73291015625
-25.634765625
-34.7900390625
-30.21240234375
-24.71923828125
-25.634765625
-27.4658203125
-32.04345703125
-32.958984375
-26.55029296875
-32.958984375
-43.9453125
-35.70556640625
-26.55029296875
-47.607421875
-33.87451171875
-29.296875
-47.607421875
-45.7763671875
-42.1142578125
-34.7900390625
-34.7900390625
-44.86083984375
-40.283203125
-20.1416015625
-21.97265625
-28.38134765625
-29.296875
-36.62109375
-41.19873046875
-42.1142578125
-43.9453125
-41.19873046875
-43.02978515625
-40.283203125
-40.283203125
-44.86083984375
-46.69189453125
-43.02978515625
-39.36767578125
-33.87451171875
-37.53662109375
-50.35400390625
-43.9453125
-42.1142578125
-43.9453125
-43.02978515625
-39.36767578125
-50.35400390625
-53.1005859375
-50.35400390625
-54.931640625
-47.607421875
-42.1142578125
-33.87451171875
-41.19873046875
-54.01611328125
-46.69189453125
-46.69189453125
-37.53662109375
-43.02978515625
-42.1142578125
-33.87451171875
-29.296875
-34.7900390625
-54.931640625
-46.69189453125
-43.02978515625
-43.9453125
-46.69189453125
-38.4521484375
-37.53662109375
-42.1142578125
-41.19873046875
-32.958984375
-46.69189453125
-52.18505859375
-50.35400390625
-36.62109375
-31.1279296875
-35.70556640625
-42.1142578125
-48.52294921875
-41.19873046875
-31.1279296875
-48.52294921875
-48.52294921875
-42.1142578125
-42.1142578125
-37.53662109375
-46.69189453125
-54.931640625
-59.50927734375
-65.00244140625
-56.7626953125
-54.931640625
-56.7626953125
-53.1005859375
-57.67822265625
-58.59375
-58.59375
-45.7763671875
-44.86083984375
-48.52294921875
-51.26953125
-47.607421875
-36.62109375
-39.36767578125
-58.59375
-54.931640625
-45.7763671875
-44.86083984375
-44.86083984375
-57.67822265625
-54.01611328125
-45.7763671875
-46.69189453125
-54.931640625
-46.69189453125
-53.1005859375
-47.607421875
-42.1142578125
-43.9453125
-53.1005859375
-52.18505859375
-46.69189453125
-53.1005859375
-58.59375
-43.02978515625
-43.9453125
-51.26953125
-54.931640625
-54.01611328125
-57.67822265625
-56.7626953125
-56.7626953125
-54.01611328125
-54.931640625
-45.7763671875
-56.7626953125
-51.26953125
-21.97265625
-57.67822265625
-54.01611328125
-54.931640625
-48.52294921875
-52.18505859375
-55.84716796875
-52.18505859375
-46.69189453125
-59.50927734375
-48.52294921875
-43.02978515625
-49.4384765625
-47.607421875
-45.7763671875
-47.607421875
-57.67822265625
-48.52294921875
-36.62109375
-54.01611328125
-51.26953125
-54.931640625
-63.17138671875
-54.01611328125
-43.02978515625
-54.01611328125
-46.69189453125
-42.1142578125
-42.1142578125
-50.35400390625
-52.18505859375
-42.1142578125
-36.62109375
-48.52294921875
-36.62109375
-33.87451171875
-47.607421875
-58.59375
-53.1005859375
-48.52294921875
-52.18505859375
-49.4384765625
-54.01611328125
-55.84716796875
-55.84716796875
-47.607421875
-43.9453125
-47.607421875
-48.52294921875
-58.59375
-64.0869140625
-54.01611328125
-52.18505859375
-45.7763671875
-32.958984375
-49.4384765625
-59.50927734375
-64.0869140625
-57.67822265625
-54.931640625
-53.1005859375
-38.4521484375
-45.7763671875
-40.283203125
-50.35400390625
-64.0869140625
-48.52294921875
-55.84716796875
-54.931640625
-58.59375
-53.1005859375
-49.4384765625
-52.18505859375
-45.7763671875
-56.7626953125
-41.19873046875
-44.86083984375
-43.02978515625
-40.283203125
-36.62109375
-33.87451171875
-31.1279296875
-28.38134765625
-33.87451171875
-23.8037109375
-21.05712890625
-24.71923828125
-14.6484375
-19.22607421875
-23.8037109375
-23.8037109375
-26.55029296875
-24.71923828125
-18.310546875
3.662109375
9.1552734375
3.662109375
-4.57763671875
-13.73291015625
-8.23974609375
-3.662109375
-11.90185546875
-13.73291015625
-9.1552734375
-2.74658203125
-2.74658203125
-20.1416015625
-22.88818359375
-22.88818359375
-37.53662109375
-54.931640625
-21.97265625
-28.38134765625
-31.1279296875
-13.73291015625
-9.1552734375
-24.71923828125
-32.04345703125
-31.1279296875
-32.04345703125
-50.35400390625
-61.34033203125
-63.17138671875
-65.91796875
-61.34033203125
-65.91796875
-69.580078125
-79.65087890625
-70.49560546875
-59.50927734375
-67.7490234375
-86.97509765625
-65.00244140625
-65.00244140625
-65.00244140625
-75.0732421875
-75.0732421875
-64.0869140625
-69.580078125
-66.83349609375
-63.17138671875
-66.83349609375
-65.91796875
-64.0869140625
-66.83349609375
-63.17138671875
-62.255859375
-54.01611328125
-72.32666015625
-48.52294921875
-37.53662109375
-21.97265625
-32.04345703125
-34.7900390625
-31.1279296875
8.23974609375
67.7490234375
156.55517578125
275.57373046875
406.494140625
538.330078125
625.30517578125
656.43310546875
632.62939453125
549.31640625
488.8916015625
402.83203125
312.19482421875
238.037109375
156.55517578125
24.71923828125
-56.7626953125
-108.0322265625
-140.9912109375
-177.6123046875
-183.10546875
-151.06201171875
-108.94775390625
-80.56640625
-67.7490234375
-49.4384765625
-44.86083984375
-54.01611328125
-41.19873046875
-31.1279296875
-41.19873046875
-38.4521484375
-51.26953125
-53.1005859375
-40.283203125
-25.634765625
-43.9453125
-46.69189453125
-33.87451171875
-42.1142578125
-39.36767578125
-42.1142578125
-41.19873046875
-35.70556640625
-35.70556640625
-32.958984375
-27.4658203125
-29.296875
-31.1279296875
-29.296875
-31.1279296875
-19.22607421875
-23.8037109375
-32.958984375
-24.71923828125
-29.296875
-36.62109375
-26.55029296875
-18.310546875
-17.39501953125
-24.71923828125
-19.22607421875
-25.634765625
-10.07080078125
-20.1416015625
-28.38134765625
-12.8173828125
-17.39501953125
-16.4794921875
-23.8037109375
-14.6484375
-11.90185546875
-24.71923828125
-29.296875
-25.634765625
-11.90185546875
-12.8173828125
-2.74658203125
-5.4931640625
-18.310546875
0
2.74658203125
-13.73291015625
3.662109375
0.91552734375
-1.8310546875
-7.32421875
-12.8173828125
-6.40869140625
9.1552734375
12.8173828125
-0.91552734375
7.32421875
19.22607421875
13.73291015625
17.39501953125
24.71923828125
10.986328125
21.05712890625
31.1279296875
34.7900390625
38.4521484375
32.04345703125
32.04345703125
45.7763671875
30.21240234375
36.62109375
50.35400390625
49.4384765625
48.52294921875
61.34033203125
62.255859375
59.50927734375
65.00244140625
88.80615234375
88.80615234375
73.2421875
92.46826171875
103.45458984375
104.3701171875
92.46826171875
98.876953125
112.60986328125
119.0185546875
123.59619140625
130.92041015625
144.6533203125
140.9912109375
152.89306640625
157.470703125
148.3154296875
153.80859375
153.80859375
155.6396484375
162.9638671875
160.21728515625
153.80859375
165.71044921875
162.04833984375
168.45703125
165.71044921875
170.2880859375
162.9638671875
168.45703125
171.20361328125
173.9501953125
156.55517578125
153.80859375
156.55517578125
141.90673828125
120.849609375
116.27197265625
109.86328125
101.62353515625
94.29931640625
70.49560546875
68.66455078125
65.91796875
62.255859375
62.255859375
47.607421875
31.1279296875
21.05712890625
12.8173828125
10.07080078125
0.91552734375
-7.32421875
0.91552734375
-10.07080078125
-10.07080078125
-4.57763671875
-23.8037109375
-27.4658203125
-33.87451171875
-30.21240234375
-43.02978515625
-38.4521484375
-31.1279296875
-41.19873046875
-38.4521484375
-50.35400390625
-43.9453125
-37.53662109375
-43.9453125
-42.1142578125
-48.52294921875
-54.01611328125
-45.7763671875
-50.35400390625
-44.86083984375
-33.87451171875
-43.9453125
-55.84716796875
-54.01611328125
-53.1005859375
-47.607421875
-40.283203125
-41.19873046875
-43.9453125
-32.958984375
-42.1142578125
-50.35400390625
-54.931640625
-54.01611328125
-54.931640625
-49.4384765625
-41.19873046875
-43.9453125
-34.7900390625
-51.26953125
-56.7626953125
-47.607421875
-43.02978515625
-43.02978515625
-46.69189453125
-51.26953125
-48.52294921875
-50.35400390625
-49.4384765625
-43.9453125
-43.02978515625
-40.283203125
-36.62109375
-46.69189453125
-49.4384765625
-48.52294921875
-49.4384765625
-50.35400390625
-40.283203125
-41.19873046875
-47.607421875
-56.7626953125
-52.18505859375
-37.53662109375
-45.7763671875
-44.86083984375
-45.7763671875
-35.70556640625
-35.70556640625
-41.19873046875
-58.59375
-52.18505859375
-31.1279296875
-48.52294921875
-58.59375
-51.26953125
-53.1005859375
-56.7626953125
-63.17138671875
-59.50927734375
-43.9453125
-52.18505859375
-60.4248046875
-63.17138671875
-53.1005859375
-55.84716796875
-56.7626953125
-58.59375
-46.69189453125
-54.01611328125
-57.67822265625
-54.01611328125
-62.255859375
-47.607421875
-55.84716796875
-65.00244140625
-54.931640625
-61.34033203125
-55.84716796875
-53.1005859375
-59.50927734375
-57.67822265625
-56.7626953125
-58.59375
-51.26953125
-50.35400390625
-43.9453125
-67.7490234375
-59.50927734375
-61.34033203125
-58.59375
-49.4384765625
-52.18505859375
-56.7626953125
-59.50927734375
-56.7626953125
-59.50927734375
-64.0869140625
-58.59375
-61.34033203125
-56.7626953125
-59.50927734375
-63.17138671875
-60.4248046875
-45.7763671875
-54.931640625
-63.17138671875
-59.50927734375
-72.32666015625
-64.0869140625
-65.00244140625
-60.4248046875
-56.7626953125
-58.59375
-58.59375
-70.49560546875
-75.98876953125
-65.00244140625
-46.69189453125
-65.00244140625
-71.4111328125
-59.50927734375
-55.84716796875
-54.01611328125
-67.7490234375
-74.15771484375
-70.49560546875
-67.7490234375
-69.580078125
-60.4248046875
-65.00244140625
-50.35400390625
-58.59375
-78.7353515625
-67.7490234375
-57.67822265625
-61.34033203125
-65.00244140625
-59.50927734375
-52.18505859375
-61.34033203125
-65.91796875
-55.84716796875
-63.17138671875
-57.67822265625
-62.255859375
-56.7626953125
-53.1005859375
-47.607421875
-56.7626953125
-61.34033203125
-72.32666015625
-57.67822265625
-61.34033203125
-50.35400390625
-49.4384765625
-67.7490234375
-57.67822265625
-62.255859375
-68.66455078125
-66.83349609375
-62.255859375
-80.56640625
-75.0732421875
-70.49560546875
-65.91796875
-65.00244140625
-65.00244140625
-74.15771484375
-68.66455078125
-65.00244140625
-62.255859375
-54.01611328125
-49.4384765625
-48.52294921875
-55.84716796875
-38.4521484375
-32.04345703125
-49.4384765625
-47.607421875
-44.86083984375
-32.04345703125
-27.4658203125
-24.71923828125
-21.05712890625
-44.86083984375
-43.9453125
-39.36767578125
-40.283203125
-33.87451171875
-9.1552734375
-17.39501953125
-17.39501953125
7.32421875
-7.32421875
-17.39501953125
-10.986328125
0
-8.23974609375
-2.74658203125
-5.4931640625
-14.6484375
-24.71923828125
-43.02978515625
-51.26953125
-42.1142578125
-26.55029296875
-24.71923828125
-37.53662109375
-27.4658203125
-26.55029296875
-24.71923828125
-25.634765625
-36.62109375
-54.01611328125
-49.4384765625
-71.4111328125
-77.81982421875
-68.66455078125
-68.66455078125
-81.48193359375
-77.81982421875
-79.65087890625
-81.48193359375
-85.14404296875
-78.7353515625
-77.81982421875
-75.0732421875
-73.2421875
-67.7490234375
-63.17138671875
-65.91796875
-59.50927734375
-72.32666015625
-77.81982421875
-69.580078125
-64.0869140625
-61.34033203125
-68.66455078125
-65.91796875
-75.98876953125
-78.7353515625
-76.904296875
-86.0595703125
-70.49560546875
-56.7626953125
-60.4248046875
-61.34033203125
-48.52294921875
-47.607421875
-20.1416015625
48.52294921875
118.10302734375
244.44580078125
375.3662109375
490.72265625
602.4169921875
699.462890625
711.36474609375
637.20703125
548.40087890625
473.32763671875
373.53515625
270.99609375
162.04833984375
58.59375
-58.59375
-138.24462890625
-171.20361328125
-197.75390625
-201.416015625
-183.10546875
-159.3017578125
-131.8359375
-104.3701171875
-100.7080078125
-85.14404296875
-69.580078125
-51.26953125
-46.69189453125
-54.931640625
-56.7626953125
-55.84716796875
-45.7763671875
-38.4521484375
-34.7900390625
-51.26953125
-57.67822265625
-46.69189453125
-40.283203125
-51.26953125
-43.02978515625
-39.36767578125
-32.04345703125
-46.69189453125
-45.7763671875
-39.36767578125
-29.296875
-26.55029296875
-31.1279296875
-31.1279296875
-36.62109375
-41.19873046875
-37.53662109375
-27.4658203125
-30.21240234375
-37.53662109375
-28.38134765625
-30.21240234375
-29.296875
-27.4658203125
-21.05712890625
-22.88818359375
-21.05712890625
-19.22607421875
-24.71923828125
-27.4658203125
-19.22607421875
-19.22607421875
-21.97265625
-13.73291015625
4.57763671875
-15.56396484375
-12.8173828125
-24.71923828125
-17.39501953125
-8.23974609375
-16.4794921875
-8.23974609375
-5.4931640625
0
-2.74658203125
-0.91552734375
8.23974609375
-0.91552734375
-8.23974609375
-1.8310546875
8.23974609375
7.32421875
2.74658203125
4.57763671875
13.73291015625
8.23974609375
20.1416015625
15.56396484375
9.1552734375
18.310546875
28.38134765625
36.62109375
21.97265625
17.39501953125
21.97265625
27.4658203125
30.21240234375
36.62109375
46.69189453125
49.4384765625
50.35400390625
50.35400390625
55.84716796875
64.0869140625
83.31298828125
72.32666015625
82.3974609375
76.904296875
74.15771484375
93.3837890625
106.201171875
105.28564453125
108.0322265625
111.6943359375
119.0185546875
130.0048828125
140.07568359375
136.41357421875
132.75146484375
140.07568359375
151.9775390625
152.89306640625
159.3017578125
169.37255859375
161.1328125
164.794921875
183.10546875
192.2607421875
170.2880859375
162.9638671875
172.119140625
183.10546875
178.52783203125
176.69677734375
168.45703125
173.9501953125
169.37255859375
171.20361328125
169.37255859375
165.71044921875
151.9775390625
151.9775390625
137.3291015625
128.173828125
130.0048828125
108.0322265625
100.7080078125
85.14404296875
83.31298828125
80.56640625
63.17138671875
46.69189453125
58.59375
37.53662109375
10.986328125
4.57763671875
11.90185546875
7.32421875
-14.6484375
-10.986328125
-0.91552734375
-16.4794921875
-30.21240234375
-25.634765625
-28.38134765625
-32.958984375
-30.21240234375
-43.9453125
-43.02978515625
-31.1279296875
-42.1142578125
-43.02978515625
-49.4384765625
-47.607421875
-43.02978515625
-45.7763671875
-34.7900390625
-28.38134765625
-51.26953125
-48.52294921875
-41.19873046875
-51.26953125
-49.4384765625
-54.01611328125
-54.931640625
-51.26953125
-54.01611328125
-69.580078125
-49.4384765625
-50.35400390625
-50.35400390625
-50.35400390625
-53.1005859375
-57.67822265625
-47.607421875
-46.69189453125
-53.1005859375
-42.1142578125
-48.52294921875
-61.34033203125
-62.255859375
-54.931640625
-42.1142578125
-54.931640625
-54.931640625
-44.86083984375
-41.19873046875
-59.50927734375
-56.7626953125
-55.84716796875
-47.607421875
-50.35400390625
-56.7626953125
-47.607421875
-42.1142578125
-43.9453125
-56.7626953125
-56.7626953125
-45.7763671875
-55.84716796875
-50.35400390625
-52.18505859375
-52.18505859375
-56.7626953125
-53.1005859375
-54.931640625
-49.4384765625
-43.9453125
-51.26953125
-56.7626953125
-53.1005859375
-47.607421875
-53.1005859375
-54.01611328125
-53.1005859375
-53.1005859375
-57.67822265625
-54.931640625
-58.59375
-63.17138671875
-55.84716796875
-53.1005859375
-53.1005859375
-38.4521484375
-60.4248046875
-56.7626953125
-55.84716796875
-56.7626953125
-54.931640625
-33.87451171875
-52.18505859375
-69.580078125
-49.4384765625
-46.69189453125
-53.1005859375
-73.2421875
-75.98876953125
-58.59375
-41.19873046875
-66.83349609375
-62.255859375
-60.4248046875
-58.59375
-49.4384765625
-52.18505859375
-59.50927734375
-63.17138671875
-67.7490234375
-58.59375
-59.50927734375
-62.255859375
-57.67822265625
-54.931640625
-54.931640625
-64.0869140625
-61.34033203125
-59.50927734375
-57.67822265625
-57.67822265625
-65.91796875
-70.49560546875
-57.67822265625
-46.69189453125
-59.50927734375
-58.59375
-61.34033203125
-55.84716796875
-61.34033203125
-65.00244140625
-56.7626953125
-47.607421875
-54.01611328125
-61.34033203125
-61.34033203125
-56.7626953125
-59.50927734375
-63.17138671875
-54.931640625
-56.7626953125
-58.59375
-57.67822265625
-60.4248046875
-60.4248046875
-65.91796875
-66.83349609375
-66.83349609375
-62.255859375
-49.4384765625
-64.0869140625
-60.4248046875
-50.35400390625
-53.1005859375
-70.49560546875
-75.98876953125
-69.580078125
-57.67822265625
-64.0869140625
-59.50927734375
-53.1005859375
-62.255859375
-66.83349609375
-60.4248046875
-65.00244140625
-61.34033203125
-68.66455078125
-67.7490234375
-68.66455078125
-66.83349609375
-57.67822265625
-57.67822265625
-65.00244140625
-57.67822265625
-54.931640625
-64.0869140625
-61.34033203125
-69.580078125
-77.81982421875
-73.2421875
-67.7490234375
-74.15771484375
-66.83349609375
-60.4248046875
-63.17138671875
-57.67822265625
-56.7626953125
-59.50927734375
-54.931640625
-65.91796875
-55.84716796875
-46.69189453125
-54.01611328125
-48.52294921875
-41.19873046875
-40.283203125
-32.958984375
-33.87451171875
-24.71923828125
-13.73291015625
-14.6484375
-29.296875
-26.55029296875
-21.05712890625
-23.8037109375
-9.1552734375
-7.32421875
-15.56396484375
-9.1552734375
-12.8173828125
-22.88818359375
-7.32421875
3.662109375
7.32421875
8.23974609375
2.74658203125
-0.91552734375
-15.56396484375
-32.958984375
-24.71923828125
-37.53662109375
-45.7763671875
-32.04345703125
-25.634765625
-28.38134765625
-23.8037109375
-27.4658203125
-28.38134765625
-35.70556640625
-50.35400390625
-54.01611328125
-58.59375
-62.255859375
-66.83349609375
-69.580078125
-72.32666015625
-76.904296875
-80.56640625
-79.65087890625
-82.3974609375
-79.65087890625
-73.2421875
-64.0869140625
-59.50927734375
-55.84716796875
-63.17138671875
-69.580078125
-62.255859375
-69.580078125
-86.97509765625
-88.80615234375
-62.255859375
-71.4111328125
-73.2421875
-63.17138671875
-72.32666015625
-73.2421875
-67.7490234375
-69.580078125
-76.904296875
-76.904296875
-54.931640625
-36.62109375
-33.87451171875
-42.1142578125
-38.4521484375
-8.23974609375
65.91796875
143.73779296875
256.34765625
394.59228515625
510.8642578125
617.98095703125
695.80078125
688.4765625
618.896484375
554.8095703125
464.17236328125
365.29541015625
278.3203125
189.51416015625
70.49560546875
-46.69189453125
-114.44091796875
-149.23095703125
-162.9638671875
-178.52783203125
-165.71044921875
-123.59619140625
-105.28564453125
-93.3837890625
-69.580078125
-54.931640625
-35.70556640625
-16.4794921875
-33.87451171875
-39.36767578125
-36.62109375
-47.607421875
-45.7763671875
-39.36767578125
-34.7900390625
-43.02978515625
-34.7900390625
-28.38134765625
-36.62109375
-43.9453125
-42.1142578125
-35.70556640625
-50.35400390625
-33.87451171875
-27.4658203125
-29.296875
-26.55029296875
-28.38134765625
-28.38134765625
-29.296875
-18.310546875
-18.310546875
-12.8173828125
-6.40869140625
-17.39501953125
-9.1552734375
-21.05712890625
-17.39501953125
-7.32421875
-10.986328125
-21.97265625
-24.71923828125
-9.1552734375
-6.40869140625
-11.90185546875
-12.8173828125
-21.05712890625
-12.8173828125
9.1552734375
-5.4931640625
-23.8037109375
-5.4931640625
-1.8310546875
-8.23974609375
1.8310546875
11.90185546875
-5.4931640625
-9.1552734375
-3.662109375
-3.662109375
-1.8310546875
7.32421875
2.74658203125
9.1552734375
0
18.310546875
12.8173828125
3.662109375
21.97265625
27.4658203125
17.39501953125
15.56396484375
22.88818359375
27.4658203125
26.55029296875
36.62109375
31.1279296875
25.634765625
39.36767578125
47.607421875
38.4521484375
28.38134765625
42.1142578125
44.86083984375
52.18505859375
55.84716796875
50.35400390625
62.255859375
70.49560546875
65.91796875
74.15771484375
84.228515625
84.228515625
89.7216796875
96.13037109375
100.7080078125
104.3701171875
114.44091796875
119.93408203125
117.1875
127.25830078125
130.0048828125
138.24462890625
158.38623046875
146.484375
152.89306640625
167.54150390625
174.86572265625
172.119140625
159.3017578125
169.37255859375
163.87939453125
175.78125
186.767578125
183.10546875
189.51416015625
179.443359375
179.443359375
184.9365234375
192.2607421875
186.767578125
183.10546875
175.78125
189.51416015625
187.68310546875
174.86572265625
167.54150390625
146.484375
142.822265625
137.3291015625
130.0048828125
123.59619140625
114.44091796875
106.201171875
72.32666015625
78.7353515625
72.32666015625
72.32666015625
56.7626953125
38.4521484375
35.70556640625
24.71923828125
20.1416015625
21.05712890625
16.4794921875
3.662109375
-3.662109375
-6.40869140625
7.32421875
-2.74658203125
-0.91552734375
-5.4931640625
-12.8173828125
-20.1416015625
-33.87451171875
-23.8037109375
-31.1279296875
-28.38134765625
-24.71923828125
-24.71923828125
-28.38134765625
-33.87451171875
-37.53662109375
-42.1142578125
-38.4521484375
-32.958984375
-42.1142578125
-34.7900390625
-29.296875
-28.38134765625
-42.1142578125
-39.36767578125
-36.62109375
-29.296875
-32.04345703125
-43.02978515625
-29.296875
-35.70556640625
-43.9453125
-38.4521484375
-31.1279296875
-38.4521484375
-36.62109375
-36.62109375
-35.70556640625
-29.296875
-31.1279296875
-41.19873046875
-32.958984375
-32.04345703125
-28.38134765625
-32.958984375
-22.88818359375
-25.634765625
-27.4658203125
-35.70556640625
-31.1279296875
-28.38134765625
-34.7900390625
-28.38134765625
-28.38134765625
-23.8037109375
-32.04345703125
-29.296875
-33.87451171875
-32.04345703125
-16.4794921875
-26.55029296875
-34.7900390625
-32.958984375
-34.7900390625
-32.958984375
-31.1279296875
-32.04345703125
-32.04345703125
-35.70556640625
-36.62109375
-36.62109375
-32.958984375
-40.283203125
-38.4521484375
-33.87451171875
-25.634765625
-30.21240234375
-19.22607421875
-29.296875
-21.97265625
-32.958984375
-49.4384765625
-32.958984375
-33.87451171875
-35.70556640625
-41.19873046875
-37.53662109375
-30.21240234375
-20.1416015625
-31.1279296875
-40.283203125
-42.1142578125
-43.02978515625
-44.86083984375
-27.4658203125
-31.1279296875
-38.4521484375
-36.62109375
-50.35400390625
-46.69189453125
-51.26953125
-38.4521484375
-23.8037109375
-43.9453125
-52.18505859375
-48.52294921875
-53.1005859375
-51.26953125
-43.02978515625
-43.9453125
-41.19873046875
-46.69189453125
-38.4521484375
-45.7763671875
-43.9453125
-44.86083984375
-35.70556640625
-26.55029296875
-32.958984375
-40.283203125
-21.97265625
-31.1279296875
-38.4521484375
-51.26953125
-43.02978515625
-47.607421875
-42.1142578125
-32.958984375
-29.296875
-32.04345703125
-43.9453125
-53.1005859375
-37.53662109375
-28.38134765625
-30.21240234375
-43.9453125
-47.607421875
-38.4521484375
-37.53662109375
-34.7900390625
-30.21240234375
-44.86083984375
-49.4384765625
-32.958984375
-42.1142578125
-51.26953125
-44.86083984375
-36.62109375
-44.86083984375
-51.26953125
-51.26953125
-45.7763671875
-40.283203125
-47.607421875
-52.18505859375
-44.86083984375
-37.53662109375
-45.7763671875
-45.7763671875
-36.62109375
-42.1142578125
-43.9453125
-44.86083984375
-46.69189453125
-43.9453125
-43.9453125
-36.62109375
-45.7763671875
-43.9453125
-43.9453125
-53.1005859375
-36.62109375
3.662109375
-11.90185546875
-59.50927734375
-58.59375
-43.02978515625
-50.35400390625
-51.26953125
-43.9453125
-36.62109375
-48.52294921875
-41.19873046875
-41.19873046875
-35.70556640625
-36.62109375
-44.86083984375
-34.7900390625
-25.634765625
-31.1279296875
-37.53662109375
-32.958984375
-39.36767578125
-32.958984375
-40.283203125
-31.1279296875
-43.02978515625
-42.1142578125
-40.283203125
-43.02978515625
-40.283203125
-45.7763671875
-48.52294921875
-41.19873046875
-26.55029296875
-43.02978515625
-44.86083984375
-45.7763671875
-37.53662109375
-36.62109375
-46.69189453125
-55.84716796875
-50.35400390625
-35.70556640625
-42.1142578125
-50.35400390625
-47.607421875
-32.04345703125
-43.9453125
-32.958984375
-41.19873046875
-44.86083984375
-41.19873046875
-39.36767578125
-41.19873046875
-34.7900390625
-21.05712890625
-31.1279296875
-30.21240234375
-18.310546875
-16.4794921875
-3.662109375
2.74658203125
4.57763671875
-3.662109375
-12.8173828125
-17.39501953125
-8.23974609375
-11.90185546875
-4.57763671875
8.23974609375
6.40869140625
10.07080078125
0.91552734375
-2.74658203125
5.4931640625
-3.662109375
-7.32421875
3.662109375
8.23974609375
2.74658203125
-9.1552734375
-22.88818359375
-26.55029296875
-30.21240234375
-29.296875
-10.986328125
-0.91552734375
-14.6484375
-25.634765625
-18.310546875
-14.6484375
-18.310546875
-32.04345703125
-32.04345703125
-27.4658203125
-52.18505859375
-54.01611328125
-47.607421875
-54.01611328125
-67.7490234375
-66.83349609375
-57.67822265625
-56.7626953125
-61.34033203125
-65.91796875
-60.4248046875
-51.26953125
-57.67822265625
-61.34033203125
-61.34033203125
-48.52294921875
-60.4248046875
-55.84716796875
-59.50927734375
-48.52294921875
-48.52294921875
-55.84716796875
-56.7626953125
-59.50927734375
-54.931640625
-60.4248046875
-54.931640625
-46.69189453125
-40.283203125
-28.38134765625
-13.73291015625
-16.4794921875
-21.97265625
11.90185546875
51.26953125
114.44091796875
205.99365234375
322.265625
445.86181640625
559.38720703125
658.26416015625
697.6318359375
638.12255859375
574.951171875
527.34375
414.73388671875
325.927734375
245.361328125
152.89306640625
32.04345703125
-53.1005859375
-103.45458984375
-130.92041015625
-143.73779296875
-142.822265625
-104.3701171875
-75.98876953125
-61.34033203125
-43.02978515625
-33.87451171875
-33.87451171875
-19.22607421875
-28.38134765625
-21.97265625
-14.6484375
-31.1279296875
-31.1279296875
-32.04345703125
-30.21240234375
-34.7900390625
-24.71923828125
-18.310546875
-27.4658203125
-30.21240234375
-21.97265625
-25.634765625
-14.6484375
-23.8037109375
-32.958984375
-32.04345703125
-13.73291015625
-10.07080078125
-14.6484375
-24.71923828125
-20.1416015625
-21.05712890625
-20.1416015625
-14.6484375
-16.4794921875
0.91552734375
-8.23974609375
-15.56396484375
-10.07080078125
-12.8173828125
-5.4931640625
6.40869140625
2.74658203125
-6.40869140625
-0.91552734375
-7.32421875
-13.73291015625
1.8310546875
-4.57763671875
-2.74658203125
10.986328125
10.986328125
-6.40869140625
11.90185546875
4.57763671875
1.8310546875
10.986328125
8.23974609375
5.4931640625
10.07080078125
6.40869140625
3.662109375
9.1552734375
18.310546875
16.4794921875
24.71923828125
21.05712890625
-1.8310546875
17.39501953125
20.1416015625
15.56396484375
20.1416015625
13.73291015625
25.634765625
32.04345703125
29.296875
39.36767578125
46.69189453125
44.86083984375
38.4521484375
42.1142578125
50.35400390625
43.9453125
46.69189453125
46.69189453125
53.1005859375
62.255859375
58.59375
70.49560546875
68.66455078125
66.83349609375
75.0732421875
79.65087890625
76.904296875
87.890625
94.29931640625
97.0458984375
92.46826171875
102.5390625
117.1875
130.0048828125
127.25830078125
131.8359375
123.59619140625
136.41357421875
144.6533203125
148.3154296875
153.80859375
172.119140625
165.71044921875
157.470703125
164.794921875
164.794921875
168.45703125
175.78125
177.6123046875
175.78125
174.86572265625
179.443359375
186.767578125
177.6123046875
180.35888671875
183.10546875
191.34521484375
193.17626953125
184.9365234375
167.54150390625
157.470703125
151.06201171875
149.23095703125
153.80859375
138.24462890625
131.8359375
123.59619140625
106.201171875
91.552734375
76.904296875
78.7353515625
74.15771484375
61.34033203125
58.59375
60.4248046875
36.62109375
29.296875
32.958984375
17.39501953125
20.1416015625
11.90185546875
8.23974609375
4.57763671875
2.74658203125
-3.662109375
-2.74658203125
-10.986328125
-17.39501953125
-3.662109375
-6.40869140625
-13.73291015625
-23.8037109375
-30.21240234375
-29.296875
-25.634765625
-19.22607421875
-31.1279296875
-32.04345703125
-21.05712890625
-21.97265625
-17.39501953125
-32.04345703125
-32.04345703125
-29.296875
-28.38134765625
-32.04345703125
-29.296875
-27.4658203125
-21.97265625
-22.88818359375
-30.21240234375
-14.6484375
-13.73291015625
-28.38134765625
-33.87451171875
-41.19873046875
-31.1279296875
-30.21240234375
-32.958984375
-30.21240234375
-11.90185546875
-23.8037109375
-35.70556640625
-29.296875
-27.4658203125
-21.97265625
-32.958984375
-29.296875
-18.310546875
-31.1279296875
-27.4658203125
-23.8037109375
-30.21240234375
-28.38134765625
-16.4794921875
-14.6484375
-33.87451171875
-30.21240234375
-28.38134765625
-25.634765625
-35.70556640625
-23.8037109375
-22.88818359375
-28.38134765625
-21.97265625
-19.22607421875
-21.05712890625
-28.38134765625
-30.21240234375
-26.55029296875
-32.04345703125
-38.4521484375
-35.70556640625
-33.87451171875
-27.4658203125
-28.38134765625
-33.87451171875
-23.8037109375
-21.97265625
-28.38134765625
-35.70556640625
-23.8037109375
-12.8173828125
-15.56396484375
-32.958984375
-32.04345703125
-26.55029296875
-25.634765625
-27.4658203125
-27.4658203125
-33.87451171875
-42.1142578125
-37.53662109375
-41.19873046875
-27.4658203125
-32.04345703125
-24.71923828125
-17.39501953125
-22.88818359375
-32.958984375
-35.70556640625
-34.7900390625
-25.634765625
-31.1279296875
-27.4658203125
-29.296875
-34.7900390625
-37.53662109375
-42.1142578125
-34.7900390625
-35.70556640625
-23.8037109375
-30.21240234375
-33.87451171875
-32.04345703125
-28.38134765625
-32.04345703125
-38.4521484375
-35.70556640625
-19.22607421875
-21.97265625
-25.634765625
-34.7900390625
-32.958984375
-21.97265625
-32.958984375
-46.69189453125
-42.1142578125
-35.70556640625
-35.70556640625
-27.4658203125
-29.296875
-38.4521484375
-50.35400390625
-35.70556640625
-38.4521484375
-30.21240234375
-21.05712890625
-33.87451171875
-37.53662109375
-32.04345703125
-25.634765625
-31.1279296875
-32.958984375
-35.70556640625
-37.53662109375
-35.70556640625
-33.87451171875
-34.7900390625
-43.02978515625
-36.62109375
-33.87451171875
-36.62109375
-27.4658203125
-31.1279296875
-33.87451171875
-23.8037109375
-27.4658203125
-25.634765625
-37.53662109375
-48.52294921875
-53.1005859375
-39.36767578125
-25.634765625
-36.62109375
-38.4521484375
-35.70556640625
-39.36767578125
-42.1142578125
-43.9453125
-34.7900390625
-31.1279296875
-36.62109375
-36.62109375
-34.7900390625
-48.52294921875
-47.607421875
-31.1279296875
-32.958984375
-42.1142578125
-51.26953125
-42.1142578125
-21.97265625
-32.958984375
-29.296875
-40.283203125
-38.4521484375
-43.02978515625
-30.21240234375
-36.62109375
-43.02978515625
-54.01611328125
-51.26953125
-36.62109375
-36.62109375
-44.86083984375
-31.1279296875
-34.7900390625
-38.4521484375
-33.87451171875
-45.7763671875
-32.04345703125
-33.87451171875
-38.4521484375
-42.1142578125
-49.4384765625
-48.52294921875
-34.7900390625
-26.55029296875
-39.36767578125
-37.53662109375
-35.70556640625
-37.53662109375
-44.86083984375
-37.53662109375
-33.87451171875
-39.36767578125
-46.69189453125
-40.283203125
-36.62109375
-35.70556640625
-41.19873046875
-32.958984375
-32.958984375
-33.87451171875
-35.70556640625
-45.7763671875
-47.607421875
-33.87451171875
-34.7900390625
-47.607421875
-46.69189453125
-40.283203125
-27.4658203125
-27.4658203125
-42.1142578125
-41.19873046875
-30.21240234375
-28.38134765625
-25.634765625
-27.4658203125
-27.4658203125
-16.4794921875
-10.986328125
0.91552734375
-4.57763671875
-17.39501953125
0.91552734375
2.74658203125
-7.32421875
-11.90185546875
-16.4794921875
9.1552734375
23.8037109375
4.57763671875
-10.07080078125
6.40869140625
6.40869140625
-3.662109375
9.1552734375
8.23974609375
8.23974609375
10.986328125
12.8173828125
-2.74658203125
-16.4794921875
-26.55029296875
-24.71923828125
-17.39501953125
-9.1552734375
-6.40869140625
-2.74658203125
-17.39501953125
-11.90185546875
-0.91552734375
-5.4931640625
-18.310546875
-22.88818359375
-31.1279296875
-33.87451171875
-54.931640625
-55.84716796875
-54.931640625
-57.67822265625
-57.67822265625
-53.1005859375
-58.59375
-54.931640625
-58.59375
-65.00244140625
-45.7763671875
-52.18505859375
-58.59375
-54.931640625
-62.255859375
-55.84716796875
-56.7626953125
-55.84716796875
-51.26953125
-41.19873046875
-31.1279296875
-48.52294921875
-50.35400390625
-41.19873046875
-45.7763671875
-47.607421875
-57.67822265625
-42.1142578125
-27.4658203125
-26.55029296875
-11.90185546875
-24.71923828125
-16.4794921875
20.1416015625
84.228515625
151.06201171875
265.5029296875
405.57861328125
525.5126953125
620.7275390625
647.27783203125
642.7001953125
562.1337890625
520.01953125
444.03076171875
338.7451171875
265.5029296875
202.33154296875
88.80615234375
-16.4794921875
-93.3837890625
-126.3427734375
-136.41357421875
-129.08935546875
-98.876953125
-84.228515625
-65.00244140625
-51.26953125
-22.88818359375
-16.4794921875
-10.986328125
-14.6484375
-19.22607421875
-12.8173828125
-23.8037109375
-31.1279296875
-30.21240234375
-26.55029296875
-28.38134765625
-20.1416015625
-21.05712890625
-24.71923828125
-23.8037109375
-19.22607421875
-29.296875
-27.4658203125
-16.4794921875
-7.32421875
-11.90185546875
-7.32421875
-10.986328125
-8.23974609375
-4.57763671875
-18.310546875
-16.4794921875
0.91552734375
-0.91552734375
5.4931640625
-11.90185546875
-16.4794921875
3.662109375
-2.74658203125
4.57763671875
9.1552734375
-10.07080078125
-18.310546875
-10.986328125
-15.56396484375
-7.32421875
2.74658203125
5.4931640625
13.73291015625
1.8310546875
8.23974609375
-0.91552734375
10.986328125
15.56396484375
10.07080078125
5.4931640625
14.6484375
22.88818359375
18.310546875
20.1416015625
12.8173828125
5.4931640625
9.1552734375
1.8310546875
11.90185546875
17.39501953125
12.8173828125
12.8173828125
15.56396484375
28.38134765625
28.38134765625
34.7900390625
10.07080078125
20.1416015625
26.55029296875
28.38134765625
36.62109375
23.8037109375
34.7900390625
49.4384765625
49.4384765625
46.69189453125
47.607421875
48.52294921875
52.18505859375
54.01611328125
61.34033203125
75.98876953125
73.2421875
72.32666015625
75.98876953125
75.0732421875
78.7353515625
83.31298828125
92.46826171875
109.86328125
93.3837890625
107.11669921875
108.94775390625
113.525390625
120.849609375
123.59619140625
140.9912109375
139.16015625
142.822265625
148.3154296875
153.80859375
157.470703125
164.794921875
161.1328125
154.72412109375
169.37255859375
179.443359375
182.18994140625
187.68310546875
171.20361328125
179.443359375
195.9228515625
195.00732421875
186.767578125
182.18994140625
188.5986328125
193.17626953125
189.51416015625
182.18994140625
176.69677734375
170.2880859375
175.78125
170.2880859375
148.3154296875
152.89306640625
145.56884765625
137.3291015625
125.42724609375
107.11669921875
102.5390625
100.7080078125
90.63720703125
79.65087890625
77.81982421875
77.81982421875
63.17138671875
61.34033203125
52.18505859375
47.607421875
37.53662109375
29.296875
19.22607421875
16.4794921875
2.74658203125
4.57763671875
14.6484375
11.90185546875
-0.91552734375
-10.07080078125
-4.57763671875
-5.4931640625
-10.07080078125
-12.8173828125
-0.91552734375
3.662109375
-3.662109375
-9.1552734375
-13.73291015625
-10.986328125
-12.8173828125
-14.6484375
-10.986328125
-19.22607421875
-23.8037109375
-15.56396484375
-17.39501953125
-18.310546875
-17.39501953125
-15.56396484375
-23.8037109375
-18.310546875
-12.8173828125
-15.56396484375
-9.1552734375
-18.310546875
-25.634765625
-21.05712890625
-20.1416015625
-12.8173828125
-14.6484375
-18.310546875
-22.88818359375
-23.8037109375
-15.56396484375
-10.986328125
-16.4794921875
-21.05712890625
-16.4794921875
-21.05712890625
-24.71923828125
-14.6484375
-9.1552734375
-22.88818359375
-18.310546875
-18.310546875
-21.97265625
-17.39501953125
-21.97265625
-18.310546875
-12.8173828125
-14.6484375
-14.6484375
-20.1416015625
-21.97265625
-11.90185546875
-21.05712890625
-17.39501953125
-24.71923828125
-11.90185546875
-7.32421875
-10.07080078125
-19.22607421875
-13.73291015625
-8.23974609375
-13.73291015625
-20.1416015625
-16.4794921875
-21.97265625
-17.39501953125
-12.8173828125
-8.23974609375
-24.71923828125
-28.38134765625
-28.38134765625
-25.634765625
-15.56396484375
-18.310546875
-21.97265625
-23.8037109375
-18.310546875
-15.56396484375
-25.634765625
-29.296875
-26.55029296875
-22.88818359375
-17.39501953125
-27.4658203125
-29.296875
-27.4658203125
-24.71923828125
-9.1552734375
-20.1416015625
-23.8037109375
-25.634765625
-21.05712890625
-29.296875
-30.21240234375
-31.1279296875
-22.88818359375
-27.4658203125
-27.4658203125
-16.4794921875
-16.4794921875
-24.71923828125
-21.97265625
-21.05712890625
-27.4658203125
-27.4658203125
-25.634765625
-22.88818359375
-12.8173828125
-17.39501953125
-25.634765625
-35.70556640625
-37.53662109375
-35.70556640625
-31.1279296875
-24.71923828125
-17.39501953125
-23.8037109375
-34.7900390625
-20.1416015625
-19.22607421875
-14.6484375
-24.71923828125
-32.958984375
-31.1279296875
-27.4658203125
-29.296875
-20.1416015625
-25.634765625
-32.04345703125
-28.38134765625
-22.88818359375
-23.8037109375
-22.88818359375
-14.6484375
-29.296875
-36.62109375
-32.04345703125
-29.296875
-21.05712890625
-27.4658203125
-21.97265625
-14.6484375
-33.87451171875
-27.4658203125
-28.38134765625
-23.8037109375
-20.1416015625
-21.97265625
-28.38134765625
-35.70556640625
-21.97265625
-24.71923828125
-23.8037109375
-25.634765625
-20.1416015625
-30.21240234375
-23.8037109375
-21.05712890625
-26.55029296875
-24.71923828125
-24.71923828125
-29.296875
-27.4658203125
-32.958984375
-31.1279296875
-32.04345703125
-31.1279296875
-31.1279296875
-39.36767578125
-22.88818359375
-21.97265625
-21.97265625
-21.97265625
-24.71923828125
-30.21240234375
-27.4658203125
-23.8037109375
-29.296875
-25.634765625
-21.97265625
-13.73291015625
-25.634765625
-31.1279296875
-37.53662109375
-22.88818359375
-30.21240234375
-23.8037109375
-21.97265625
-15.56396484375
-19.22607421875
-28.38134765625
-28.38134765625
-21.97265625
-21.97265625
-32.958984375
-34.7900390625
-25.634765625
-19.22607421875
-21.05712890625
-16.4794921875
-27.4658203125
-47.607421875
-32.04345703125
-17.39501953125
-21.97265625
-31.1279296875
-38.4521484375
-29.296875
-32.04345703125
-24.71923828125
-24.71923828125
-26.55029296875
-32.04345703125
-23.8037109375
-26.55029296875
-13.73291015625
-7.32421875
-21.05712890625
-15.56396484375
-21.97265625
-12.8173828125
-7.32421875
3.662109375
3.662109375
-5.4931640625
-23.8037109375
-12.8173828125
2.74658203125
-2.74658203125
15.56396484375
25.634765625
15.56396484375
16.4794921875
19.22607421875
13.73291015625
21.05712890625
23.8037109375
16.4794921875
12.8173828125
12.8173828125
28.38134765625
10.986328125
-7.32421875
-20.1416015625
-19.22607421875
-15.56396484375
-7.32421875
6.40869140625
7.32421875
0
2.74658203125
0.91552734375
-10.07080078125
-23.8037109375
-28.38134765625
-26.55029296875
-27.4658203125
-45.7763671875
-48.52294921875
-47.607421875
-43.02978515625
-33.87451171875
-32.04345703125
-46.69189453125
-63.17138671875
-52.18505859375
-53.1005859375
-60.4248046875
-60.4248046875
-46.69189453125
-49.4384765625
-50.35400390625
-56.7626953125
-50.35400390625
-49.4384765625
-49.4384765625
-47.607421875
-52.18505859375
-52.18505859375
-48.52294921875
-50.35400390625
-49.4384765625
-49.4384765625
-54.931640625
-59.50927734375
-44.86083984375
-40.283203125
-32.04345703125
-36.62109375
-20.1416015625
13.73291015625
69.580078125
148.3154296875
268.24951171875
410.15625
539.24560546875
645.44677734375
698.54736328125
707.70263671875
635.3759765625
557.55615234375
464.17236328125
367.12646484375
275.57373046875
173.03466796875
65.91796875
-36.62109375
-108.0322265625
-148.3154296875
-168.45703125
-163.87939453125
-142.822265625
-117.1875
-86.0595703125
-72.32666015625
-62.255859375
-44.86083984375
-37.53662109375
-26.55029296875
-31.1279296875
-29.296875
-21.97265625
-22.88818359375
-24.71923828125
-30.21240234375
-26.55029296875
-27.4658203125
-24.71923828125
-22.88818359375
-16.4794921875
-19.22607421875
-29.296875
-25.634765625
-28.38134765625
-23.8037109375
-19.22607421875
-9.1552734375
-15.56396484375
-27.4658203125
-17.39501953125
-17.39501953125
-25.634765625
-17.39501953125
-14.6484375
-15.56396484375
-17.39501953125
-16.4794921875
-9.1552734375
-6.40869140625
-6.40869140625
-5.4931640625
-6.40869140625
-12.8173828125
-5.4931640625
-2.74658203125
10.07080078125
2.74658203125
-6.40869140625
-7.32421875
1.8310546875
-5.4931640625
-3.662109375
-1.8310546875
17.39501953125
9.1552734375
6.40869140625
3.662109375
6.40869140625
12.8173828125
8.23974609375
10.986328125
7.32421875
13.73291015625
19.22607421875
25.634765625
21.97265625
23.8037109375
30.21240234375
36.62109375
28.38134765625
18.310546875
14.6484375
29.296875
31.1279296875
36.62109375
37.53662109375
47.607421875
41.19873046875
51.26953125
61.34033203125
56.7626953125
51.26953125
65.00244140625
59.50927734375
57.67822265625
65.00244140625
51.26953125
60.4248046875
71.4111328125
78.7353515625
81.48193359375
84.228515625
83.31298828125
92.46826171875
95.21484375
102.5390625
122.6806640625
129.08935546875
111.6943359375
119.0185546875
126.3427734375
135.498046875
135.498046875
137.3291015625
150.146484375
152.89306640625
158.38623046875
167.54150390625
165.71044921875
173.9501953125
173.03466796875
167.54150390625
174.86572265625
177.6123046875
178.52783203125
200.50048828125
194.091796875
182.18994140625
200.50048828125
199.5849609375
203.2470703125
193.17626953125
196.83837890625
197.75390625
195.00732421875
187.68310546875
180.35888671875
180.35888671875
160.21728515625
160.21728515625
156.55517578125
147.39990234375
136.41357421875
127.25830078125
116.27197265625
99.79248046875
95.21484375
95.21484375
90.63720703125
67.7490234375
65.91796875
65.00244140625
57.67822265625
30.21240234375
21.05712890625
16.4794921875
20.1416015625
5.4931640625
0.91552734375
8.23974609375
7.32421875
0.91552734375
0
-3.662109375
-10.986328125
-21.97265625
-28.38134765625
-16.4794921875
-13.73291015625
-26.55029296875
-24.71923828125
-22.88818359375
-19.22607421875
-14.6484375
-22.88818359375
-32.958984375
-32.958984375
-29.296875
-21.05712890625
-21.97265625
-21.97265625
-30.21240234375
-42.1142578125
-37.53662109375
-27.4658203125
-22.88818359375
-34.7900390625
-26.55029296875
-29.296875
-39.36767578125
-32.958984375
-32.958984375
-32.04345703125
-26.55029296875
-31.1279296875
-29.296875
-27.4658203125
-35.70556640625
-36.62109375
-26.55029296875
-35.70556640625
-31.1279296875
-35.70556640625
-36.62109375
-34.7900390625
-30.21240234375
-23.8037109375
-35.70556640625
-30.21240234375
-27.4658203125
-21.97265625
-25.634765625
-24.71923828125
-22.88818359375
-30.21240234375
-27.4658203125
-25.634765625
-21.97265625
-30.21240234375
-27.4658203125
-13.73291015625
-23.8037109375
-30.21240234375
-25.634765625
-29.296875
-32.04345703125
-22.88818359375
-34.7900390625
-32.958984375
-34.7900390625
-32.04345703125
-35.70556640625
-28.38134765625
-30.21240234375
-30.21240234375
-21.97265625
-33.87451171875
-29.296875
-24.71923828125
-32.04345703125
-33.87451171875
-31.1279296875
-33.87451171875
-32.04345703125
-34.7900390625
-25.634765625
-41.19873046875
-34.7900390625
-29.296875
-34.7900390625
-35.70556640625
-34.7900390625
-22.88818359375
-19.22607421875
-32.958984375
-45.7763671875
-43.9453125
-41.19873046875
-34.7900390625
-31.1279296875
-44.86083984375
-32.04345703125
-33.87451171875
-43.02978515625
-41.19873046875
-32.958984375
-40.283203125
-32.04345703125
-33.87451171875
-51.26953125
-39.36767578125
-30.21240234375
-36.62109375
-32.04345703125
-35.70556640625
-30.21240234375
-33.87451171875
-45.7763671875
-41.19873046875
-38.4521484375
-43.02978515625
-37.53662109375
-42.1142578125
-42.1142578125
-36.62109375
-42.1142578125
-41.19873046875
-45.7763671875
-43.02978515625
-44.86083984375
-42.1142578125
-42.1142578125
-37.53662109375
-49.4384765625
-44.86083984375
-37.53662109375
-36.62109375
-37.53662109375
-41.19873046875
-43.02978515625
-39.36767578125
-31.1279296875
-32.04345703125
-43.02978515625
-46.69189453125
-40.283203125
-53.1005859375
-43.02978515625
-29.296875
-34.7900390625
-43.02978515625
-41.19873046875
-43.02978515625
-46.69189453125
-43.9453125
-51.26953125
-54.931640625
-46.69189453125
-46.69189453125
-43.02978515625
-38.4521484375
-29.296875
-44.86083984375
-43.02978515625
-39.36767578125
-43.9453125
-36.62109375
-42.1142578125
-32.04345703125
-37.53662109375
-42.1142578125
-48.52294921875
-46.69189453125
-32.958984375
-47.607421875
-44.86083984375
-47.607421875
-39.36767578125
-32.958984375
-37.53662109375
-38.4521484375
-44.86083984375
-54.931640625
-44.86083984375
-33.87451171875
-37.53662109375
-39.36767578125
-41.19873046875
-43.02978515625
-43.9453125
-53.1005859375
-36.62109375
-32.958984375
-32.958984375
-32.958984375
-32.958984375
-32.958984375
-16.4794921875
-19.22607421875
-14.6484375
-16.4794921875
-20.1416015625
-20.1416015625
-21.05712890625
-21.05712890625
-21.05712890625
-9.1552734375
-2.74658203125
13.73291015625
11.90185546875
-0.91552734375
-10.07080078125
-5.4931640625
2.74658203125
7.32421875
8.23974609375
15.56396484375
3.662109375
7.32421875
-2.74658203125
6.40869140625
-13.73291015625
-16.4794921875
-21.97265625
-24.71923828125
-7.32421875
-3.662109375
-0.91552734375
-5.4931640625
-2.74658203125
-15.56396484375
-22.88818359375
-23.8037109375
-38.4521484375
-40.283203125
-44.86083984375
-56.7626953125
-60.4248046875
-66.83349609375
-67.7490234375
-60.4248046875
-51.26953125
-54.931640625
-56.7626953125
-65.00244140625
-70.49560546875
-59.50927734375
-57.67822265625
-58.59375
-63.17138671875
-70.49560546875
-52.18505859375
-64.0869140625
-53.1005859375
-55.84716796875
-44.86083984375
-48.52294921875
-56.7626953125
-62.255859375
-50.35400390625
-63.17138671875
-72.32666015625
-64.0869140625
-51.26953125
-43.02978515625
-32.958984375
-25.634765625
-2.74658203125
31.1279296875
117.1875
209.65576171875
333.251953125
464.17236328125
589.599609375
694.88525390625
750.732421875
742.49267578125
658.26416015625
577.69775390625
483.3984375
350.64697265625
253.60107421875
149.23095703125
42.1142578125
-68.66455078125
-128.173828125
-150.146484375
-185.85205078125
-190.4296875
-151.9775390625
-105.28564453125
-81.48193359375
-65.91796875
-76.904296875
-44.86083984375
-40.283203125
-41.19873046875
-33.87451171875
-32.958984375
-22.88818359375
-21.97265625
-36.62109375
-21.05712890625
-24.71923828125
-25.634765625
-24.71923828125
-22.88818359375
-22.88818359375
-14.6484375
-25.634765625
-11.90185546875
-13.73291015625
-18.310546875
-9.1552734375
-8.23974609375
-14.6484375
-10.07080078125
-17.39501953125
-13.73291015625
-10.986328125
-13.73291015625
-19.22607421875
-7.32421875
-10.07080078125
-8.23974609375
-10.07080078125
-9.1552734375
-5.4931640625
-12.8173828125
-12.8173828125
-13.73291015625
-8.23974609375
-11.90185546875
-8.23974609375
-5.4931640625
3.662109375
0
-2.74658203125
8.23974609375
10.07080078125
7.32421875
7.32421875
0.91552734375
7.32421875
10.07080078125
6.40869140625
0.91552734375
10.07080078125
17.39501953125
16.4794921875
13.73291015625
19.22607421875
17.39501953125
19.22607421875
14.6484375
28.38134765625
36.62109375
31.1279296875
36.62109375
34.7900390625
32.958984375
39.36767578125
42.1142578125
33.87451171875
35.70556640625
38.4521484375
43.9453125
42.1142578125
46.69189453125
54.01611328125
64.0869140625
60.4248046875
55.84716796875
52.18505859375
63.17138671875
78.7353515625
81.48193359375
78.7353515625
88.80615234375
92.46826171875
97.0458984375
105.28564453125
97.96142578125
107.11669921875
119.93408203125
119.93408203125
126.3427734375
134.58251953125
132.75146484375
138.24462890625
149.23095703125
159.3017578125
166.6259765625
146.484375
152.89306640625
161.1328125
173.03466796875
176.69677734375
177.6123046875
185.85205078125
194.091796875
191.34521484375
196.83837890625
198.66943359375
195.00732421875
189.51416015625
199.5849609375
200.50048828125
195.9228515625
205.078125
205.99365234375
202.33154296875
186.767578125
184.02099609375
190.4296875
170.2880859375
156.55517578125
156.55517578125
138.24462890625
147.39990234375
127.25830078125
111.6943359375
100.7080078125
83.31298828125
75.98876953125
77.81982421875
62.255859375
54.01611328125
63.17138671875
43.02978515625
24.71923828125
20.1416015625
14.6484375
15.56396484375
7.32421875
3.662109375
14.6484375
-8.23974609375
-10.986328125
-10.986328125
-11.90185546875
-9.1552734375
-15.56396484375
-21.05712890625
-22.88818359375
-31.1279296875
-32.04345703125
-25.634765625
-26.55029296875
-32.958984375
-41.19873046875
-41.19873046875
-39.36767578125
-29.296875
-30.21240234375
-28.38134765625
-29.296875
-39.36767578125
-30.21240234375
-31.1279296875
-38.4521484375
-39.36767578125
-36.62109375
-42.1142578125
-36.62109375
-35.70556640625
-38.4521484375
-35.70556640625
-35.70556640625
-36.62109375
-38.4521484375
-43.9453125
-36.62109375
-32.04345703125
-38.4521484375
-34.7900390625
-47.607421875
-38.4521484375
-35.70556640625
-24.71923828125
-30.21240234375
-43.9453125
-38.4521484375
-35.70556640625
-41.19873046875
-37.53662109375
-35.70556640625
-37.53662109375
-25.634765625
-33.87451171875
-37.53662109375
-33.87451171875
-33.87451171875
-36.62109375
-48.52294921875
-36.62109375
-31.1279296875
-28.38134765625
-32.958984375
-22.88818359375
-24.71923828125
-46.69189453125
-34.7900390625
-35.70556640625
-44.86083984375
-49.4384765625
-49.4384765625
-41.19873046875
-33.87451171875
-32.958984375
-36.62109375
-24.71923828125
-29.296875
-32.04345703125
-34.7900390625
-43.02978515625
-44.86083984375
-34.7900390625
-36.62109375
-39.36767578125
-33.87451171875
-44.86083984375
-51.26953125
-43.9453125
-32.958984375
-42.1142578125
-54.01611328125
-43.02978515625
-43.02978515625
-48.52294921875
-58.59375
-50.35400390625
-46.69189453125
-53.1005859375
-46.69189453125
-38.4521484375
-43.9453125
-51.26953125
-49.4384765625
-42.1142578125
-45.7763671875
-45.7763671875
-61.34033203125
-50.35400390625
-42.1142578125
-46.69189453125
-50.35400390625
-48.52294921875
-54.01611328125
-50.35400390625
-48.52294921875
-53.1005859375
-36.62109375
-43.02978515625
-48.52294921875
-58.59375
-59.50927734375
-48.52294921875
-49.4384765625
-54.931640625
-50.35400390625
-52.18505859375
-57.67822265625
-34.7900390625
-50.35400390625
-43.9453125
-40.283203125
-59.50927734375
-46.69189453125
-47.607421875
-55.84716796875
-49.4384765625
-47.607421875
-44.86083984375
-48.52294921875
-46.69189453125
-52.18505859375
-44.86083984375
-52.18505859375
-59.50927734375
-54.01611328125
-42.1142578125
-48.52294921875
-54.931640625
-49.4384765625
-41.19873046875
-49.4384765625
-45.7763671875
-40.283203125
-40.283203125
-56.7626953125
-52.18505859375
-45.7763671875
-46.69189453125
-49.4384765625
-50.35400390625
-52.18505859375
-51.26953125
-48.52294921875
-52.18505859375
-54.931640625
-55.84716796875
-51.26953125
-54.931640625
-56.7626953125
-54.01611328125
-32.04345703125
-47.607421875
-55.84716796875
-51.26953125
-49.4384765625
-51.26953125
-48.52294921875
-35.70556640625
-46.69189453125
-55.84716796875
-54.931640625
-45.7763671875
-39.36767578125
-39.36767578125
-47.607421875
-54.01611328125
-65.00244140625
-63.17138671875
-47.607421875
-40.283203125
-34.7900390625
-38.4521484375
-37.53662109375
-42.1142578125
-37.53662109375
-40.283203125
-32.958984375
-16.4794921875
-27.4658203125
-31.1279296875
-31.1279296875
-32.958984375
-23.8037109375
-29.296875
-22.88818359375
-20.1416015625
-10.07080078125
-6.40869140625
-16.4794921875
-22.88818359375
-13.73291015625
-14.6484375
-4.57763671875
8.23974609375
4.57763671875
6.40869140625
-3.662109375
-21.97265625
-32.958984375
-27.4658203125
-39.36767578125
-41.19873046875
-26.55029296875
-23.8037109375
-21.05712890625
-26.55029296875
-25.634765625
-27.4658203125
-28.38134765625
-32.04345703125
-39.36767578125
-43.9453125
-43.9453125
-51.26953125
-58.59375
-63.17138671875
-73.2421875
-75.98876953125
-67.7490234375
-67.7490234375
-69.580078125
-69.580078125
-71.4111328125
-64.0869140625
-73.2421875
-78.7353515625
-76.904296875
-73.2421875
-75.98876953125
-64.0869140625
-68.66455078125
-75.98876953125
-82.3974609375
-65.00244140625
-59.50927734375
-63.17138671875
-56.7626953125
-60.4248046875
-71.4111328125
-78.7353515625
-75.98876953125
-57.67822265625
-51.26953125
-34.7900390625
-32.04345703125
-27.4658203125
5.4931640625
63.17138671875
120.849609375
229.79736328125
363.46435546875
494.384765625
616.14990234375
702.20947265625
721.435546875
652.77099609375
575.86669921875
506.28662109375
408.3251953125
292.05322265625
207.82470703125
105.28564453125
-19.22607421875
-112.60986328125
-150.146484375
-180.35888671875
-191.34521484375
-173.03466796875
-136.41357421875
-106.201171875
-90.63720703125
-68.66455078125
-57.67822265625
-50.35400390625
-40.283203125
-35.70556640625
-33.87451171875
-36.62109375
-34.7900390625
-32.958984375
-44.86083984375
-40.283203125
-30.21240234375
-41.19873046875
-35.70556640625
-35.70556640625
-32.958984375
-34.7900390625
-37.53662109375
-26.55029296875
-34.7900390625
-39.36767578125
-21.05712890625
-27.4658203125
-32.04345703125
-28.38134765625
-32.04345703125
-31.1279296875
-32.958984375
-21.97265625
-21.05712890625
-26.55029296875
-21.05712890625
-27.4658203125
-30.21240234375
-22.88818359375
-18.310546875
-24.71923828125
-26.55029296875
-13.73291015625
-20.1416015625
-30.21240234375
-20.1416015625
-10.986328125
-20.1416015625
-13.73291015625
-23.8037109375
-32.04345703125
-11.90185546875
-7.32421875
-9.1552734375
-7.32421875
-6.40869140625
-9.1552734375
-4.57763671875
7.32421875
-1.8310546875
-13.73291015625
-7.32421875
-6.40869140625
-1.8310546875
7.32421875
12.8173828125
9.1552734375
-4.57763671875
5.4931640625
19.22607421875
16.4794921875
12.8173828125
11.90185546875
19.22607421875
25.634765625
20.1416015625
7.32421875
21.97265625
24.71923828125
21.97265625
38.4521484375
33.87451171875
33.87451171875
43.9453125
48.52294921875
47.607421875
59.50927734375
54.01611328125
62.255859375
64.0869140625
61.34033203125
73.2421875
81.48193359375
85.14404296875
86.97509765625
84.228515625
88.80615234375
97.0458984375
106.201171875
107.11669921875
119.93408203125
127.25830078125
124.51171875
132.75146484375
141.90673828125
159.3017578125
156.55517578125
156.55517578125
168.45703125
168.45703125
170.2880859375
174.86572265625
177.6123046875
164.794921875
167.54150390625
179.443359375
173.9501953125
186.767578125
182.18994140625
182.18994140625
184.9365234375
177.6123046875
174.86572265625
178.52783203125
174.86572265625
172.119140625
158.38623046875
154.72412109375
149.23095703125
125.42724609375
122.6806640625
113.525390625
111.6943359375
106.201171875
85.14404296875
65.91796875
65.91796875
61.34033203125
58.59375
38.4521484375
27.4658203125
21.97265625
11.90185546875
4.57763671875
3.662109375
8.23974609375
0
0
4.57763671875
-2.74658203125
-24.71923828125
-9.1552734375
-30.21240234375
-28.38134765625
-20.1416015625
-26.55029296875
-25.634765625
-31.1279296875
-28.38134765625
-26.55029296875
-42.1142578125
-39.36767578125
-40.283203125
-33.87451171875
-29.296875
-37.53662109375
-50.35400390625
-41.19873046875
-41.19873046875
-57.67822265625
-37.53662109375
-33.87451171875
-55.84716796875
-55.84716796875
-50.35400390625
-51.26953125
-49.4384765625
-60.4248046875
-54.01611328125
-58.59375
-52.18505859375
-43.9453125
-49.4384765625
-42.1142578125
-46.69189453125
-41.19873046875
-54.01611328125
-45.7763671875
-37.53662109375
-38.4521484375
-49.4384765625
-55.84716796875
-46.69189453125
-53.1005859375
-49.4384765625
-43.9453125
-29.296875
-36.62109375
-40.283203125
-46.69189453125
-59.50927734375
-50.35400390625
-44.86083984375
-48.52294921875
-37.53662109375
-45.7763671875
-31.1279296875
-25.634765625
-40.283203125
-47.607421875
-34.7900390625
-33.87451171875
-22.88818359375
-21.05712890625
-37.53662109375
-39.36767578125
-41.19873046875
-42.1142578125
-34.7900390625
-44.86083984375
-43.02978515625
-39.36767578125
-49.4384765625
-41.19873046875
-35.70556640625
-38.4521484375
-28.38134765625
-44.86083984375
-53.1005859375
-47.607421875
-36.62109375
-41.19873046875
-41.19873046875
-38.4521484375
-43.02978515625
-48.52294921875
-43.9453125
-53.1005859375
-46.69189453125
-41.19873046875
-46.69189453125
-43.02978515625
-37.53662109375
-43.9453125
-39.36767578125
-38.4521484375
-43.9453125
-42.1142578125
-42.1142578125
-46.69189453125
-32.958984375
-43.02978515625
-48.52294921875
-35.70556640625
-40.283203125
-49.4384765625
-51.26953125
-44.86083984375
-31.1279296875
-27.4658203125
-30.21240234375
-44.86083984375
-43.9453125
-43.9453125
-46.69189453125
-45.7763671875
-36.62109375
-37.53662109375
-40.283203125
-40.283203125
-54.01611328125
-48.52294921875
-45.7763671875
-47.607421875
-45.7763671875
-50.35400390625
-46.69189453125
-43.9453125
-53.1005859375
-44.86083984375
-42.1142578125
-54.931640625
-55.84716796875
-51.26953125
-45.7763671875
-38.4521484375
-45.7763671875
-54.931640625
-54.931640625
-54.931640625
-51.26953125
-40.283203125
-52.18505859375
-47.607421875
-31.1279296875
-37.53662109375
-41.19873046875
-40.283203125
-49.4384765625
-58.59375
-46.69189453125
-43.9453125
-46.69189453125
-41.19873046875
-49.4384765625
-44.86083984375
-47.607421875
-49.4384765625
-43.02978515625
-68.66455078125
-52.18505859375
-38.4521484375
-42.1142578125
-42.1142578125
-41.19873046875
-37.53662109375
-49.4384765625
-50.35400390625
-44.86083984375
-48.52294921875
-46.69189453125
-50.35400390625
-55.84716796875
-47.607421875
-45.7763671875
-54.01611328125
-52.18505859375
-46.69189453125
-55.84716796875
-54.931640625
-48.52294921875
-45.7763671875
-38.4521484375
-32.04345703125
-52.18505859375
-68.66455078125
-59.50927734375
-49.4384765625
-53.1005859375
-44.86083984375
-42.1142578125
-47.607421875
-54.01611328125
-42.1142578125
-35.70556640625
-45.7763671875
-43.02978515625
-51.26953125
-45.7763671875
-44.86083984375
-49.4384765625
-51.26953125
-54.931640625
-46.69189453125
-43.02978515625
-43.9453125
-34.7900390625
-53.1005859375
-47.607421875
-40.283203125
-37.53662109375
-43.02978515625
-48.52294921875
-44.86083984375
-45.7763671875
-48.52294921875
-37.53662109375
-37.53662109375
-49.4384765625
-54.01611328125
-43.02978515625
-29.296875
-40.283203125
-32.958984375
-32.04345703125
-32.04345703125
-26.55029296875
-32.04345703125
-20.1416015625
-12.8173828125
-19.22607421875
-14.6484375
-15.56396484375
-15.56396484375
-10.07080078125
-21.97265625
-21.05712890625
-7.32421875
13.73291015625
4.57763671875
6.40869140625
-12.8173828125
-4.57763671875
3.662109375
-10.07080078125
-24.71923828125
-10.07080078125
-7.32421875
-10.986328125
-8.23974609375
-11.90185546875
-35.70556640625
-46.69189453125
-36.62109375
-21.05712890625
-21.97265625
-17.39501953125
-21.05712890625
-30.21240234375
-19.22607421875
-18.310546875
-26.55029296875
-23.8037109375
-37.53662109375
-57.67822265625
-53.1005859375
-58.59375
-68.66455078125
-71.4111328125
-65.91796875
-69.580078125
-68.66455078125
-59.50927734375
-57.67822265625
-63.17138671875
-65.00244140625
-58.59375
-62.255859375
-57.67822265625
-68.66455078125
-61.34033203125
-55.84716796875
-55.84716796875
-51.26953125
-59.50927734375
-57.67822265625
-60.4248046875
-75.0732421875
-64.0869140625
-60.4248046875
-60.4248046875
-54.931640625
-61.34033203125
-63.17138671875
-50.35400390625
-14.6484375
-13.73291015625
-24.71923828125
-10.07080078125
41.19873046875
101.62353515625
186.767578125
305.7861328125
455.01708984375
563.96484375
657.3486328125
687.56103515625
643.61572265625
580.4443359375
516.357421875
417.48046875
332.33642578125
246.27685546875
151.9775390625
46.69189453125
-68.66455078125
-119.93408203125
-139.16015625
-162.9638671875
-164.794921875
-126.3427734375
-87.890625
-81.48193359375
-49.4384765625
-26.55029296875
-43.9453125
-39.36767578125
-45.7763671875
-32.958984375
-30.21240234375
-42.1142578125
-33.87451171875
-44.86083984375
-32.958984375
-26.55029296875
-12.8173828125
-35.70556640625
-51.26953125
-40.283203125
-33.87451171875
-38.4521484375
-31.1279296875
-33.87451171875
-28.38134765625
-24.71923828125
-31.1279296875
-25.634765625
-20.1416015625
-29.296875
-27.4658203125
-34.7900390625
-24.71923828125
-18.310546875
-22.88818359375
-22.88818359375
-20.1416015625
-24.71923828125
-16.4794921875
-19.22607421875
-19.22607421875
-6.40869140625
-8.23974609375
-11.90185546875
-10.07080078125
-16.4794921875
-22.88818359375
-13.73291015625
-1.8310546875
2.74658203125
-6.40869140625
-18.310546875
-11.90185546875
-5.4931640625
-8.23974609375
-4.57763671875
2.74658203125
1.8310546875
-4.57763671875
5.4931640625
-2.74658203125
-16.4794921875
-10.986328125
-13.73291015625
2.74658203125
6.40869140625
3.662109375
-0.91552734375
1.8310546875
8.23974609375
13.73291015625
13.73291015625
21.05712890625
24.71923828125
13.73291015625
17.39501953125
17.39501953125
30.21240234375
26.55029296875
20.1416015625
26.55029296875
33.87451171875
42.1142578125
34.7900390625
41.19873046875
45.7763671875
48.52294921875
58.59375
60.4248046875
55.84716796875
68.66455078125
68.66455078125
70.49560546875
74.15771484375
80.56640625
85.14404296875
81.48193359375
93.3837890625
106.201171875
109.86328125
125.42724609375
122.6806640625
117.1875
139.16015625
141.90673828125
144.6533203125
133.6669921875
142.822265625
157.470703125
159.3017578125
159.3017578125
162.9638671875
163.87939453125
168.45703125
173.9501953125
175.78125
176.69677734375
188.5986328125
186.767578125
184.02099609375
177.6123046875
169.37255859375
190.4296875
182.18994140625
171.20361328125
178.52783203125
170.2880859375
172.119140625
160.21728515625
150.146484375
137.3291015625
124.51171875
119.93408203125
112.60986328125
102.5390625
97.96142578125
94.29931640625
73.2421875
58.59375
43.9453125
30.21240234375
35.70556640625
42.1142578125
24.71923828125
21.05712890625
16.4794921875
9.1552734375
-4.57763671875
-1.8310546875
-2.74658203125
2.74658203125
-7.32421875
-9.1552734375
-2.74658203125
-12.8173828125
-20.1416015625
-19.22607421875
-20.1416015625
-27.4658203125
-24.71923828125
-26.55029296875
-32.958984375
-26.55029296875
-22.88818359375
-35.70556640625
-35.70556640625
-21.05712890625
-25.634765625
-35.70556640625
-38.4521484375
-25.634765625
-25.634765625
-32.958984375
-31.1279296875
-37.53662109375
-39.36767578125
-26.55029296875
-27.4658203125
-36.62109375
-44.86083984375
-35.70556640625
-39.36767578125
-28.38134765625
-26.55029296875
-38.4521484375
-41.19873046875
-26.55029296875
-22.88818359375
-29.296875
-42.1142578125
-41.19873046875
-37.53662109375
-35.70556640625
-38.4521484375
-31.1279296875
-28.38134765625
-36.62109375
-42.1142578125
-39.36767578125
-33.87451171875
-30.21240234375
-16.4794921875
-25.634765625
-42.1142578125
-34.7900390625
-21.97265625
-32.04345703125
-19.22607421875
-27.4658203125
-36.62109375
-30.21240234375
-25.634765625
-32.958984375
-25.634765625
-26.55029296875
-30.21240234375
-32.04345703125
-21.05712890625
-25.634765625
-20.1416015625
-27.4658203125
-20.1416015625
-13.73291015625
-21.97265625
-26.55029296875
-22.88818359375
-36.62109375
-39.36767578125
-32.04345703125
-27.4658203125
-27.4658203125
-26.55029296875
-35.70556640625
-22.88818359375
-26.55029296875
-32.04345703125
-35.70556640625
-30.21240234375
-20.1416015625
-27.4658203125
-43.02978515625
-34.7900390625
-33.87451171875
-33.87451171875
-20.1416015625
-26.55029296875
-29.296875
-33.87451171875
-22.88818359375
-29.296875
-28.38134765625
-30.21240234375
-41.19873046875
-37.53662109375
-21.05712890625
-34.7900390625
-30.21240234375
-32.958984375
-31.1279296875
-20.1416015625
-29.296875
-38.4521484375
-38.4521484375
-36.62109375
-39.36767578125
-32.958984375
-39.36767578125
-37.53662109375
-33.87451171875
-33.87451171875
-39.36767578125
-39.36767578125
-28.38134765625
-30.21240234375
-32.04345703125
-22.88818359375
-32.04345703125
-33.87451171875
-39.36767578125
-52.18505859375
-25.634765625
-30.21240234375
-41.19873046875
-34.7900390625
-36.62109375
-40.283203125
-37.53662109375
-23.8037109375
-32.04345703125
-37.53662109375
-40.283203125
-38.4521484375
-51.26953125
-43.9453125
-30.21240234375
-21.97265625
-26.55029296875
-25.634765625
-21.97265625
-20.1416015625
-27.4658203125
-42.1142578125
-33.87451171875
-11.90185546875
-17.39501953125
-26.55029296875
-39.36767578125
-38.4521484375
-30.21240234375
-33.87451171875
-38.4521484375
-31.1279296875
-32.958984375
-38.4521484375
-32.958984375
-31.1279296875
-35.70556640625
-34.7900390625
-37.53662109375
-32.958984375
-34.7900390625
-32.958984375
-28.38134765625
-32.04345703125
-25.634765625
-36.62109375
-20.1416015625
-24.71923828125
-48.52294921875
-48.52294921875
-35.70556640625
-36.62109375
-29.296875
-30.21240234375
-43.02978515625
-34.7900390625
-27.4658203125
-29.296875
-25.634765625
-37.53662109375
-40.283203125
-40.283203125
-32.04345703125
-26.55029296875
-28.38134765625
-27.4658203125
-22.88818359375
-17.39501953125
-34.7900390625
-40.283203125
-35.70556640625
-28.38134765625
-30.21240234375
-35.70556640625
-32.04345703125
-34.7900390625
-31.1279296875
-29.296875
-33.87451171875
-31.1279296875
-32.958984375
-25.634765625
-33.87451171875
-32.04345703125
-45.7763671875
-47.607421875
-34.7900390625
-28.38134765625
-24.71923828125
-41.19873046875
-39.36767578125
-42.1142578125
-38.4521484375
-24.71923828125
-21.97265625
-21.05712890625
-33.87451171875
-36.62109375
-34.7900390625
-35.70556640625
-36.62109375
-27.4658203125
-20.1416015625
-21.97265625
-23.8037109375
-28.38134765625
-16.4794921875
-11.90185546875
-14.6484375
-10.986328125
-4.57763671875
2.74658203125
0
0
-8.23974609375
4.57763671875
6.40869140625
-0.91552734375
4.57763671875
0
5.4931640625
21.97265625
32.04345703125
20.1416015625
3.662109375
-10.986328125
6.40869140625
18.310546875
13.73291015625
24.71923828125
16.4794921875
1.8310546875
-2.74658203125
-9.1552734375
-5.4931640625
-11.90185546875
-13.73291015625
-11.90185546875
-0.91552734375
13.73291015625
-3.662109375
-1.8310546875
7.32421875
-0.91552734375
-10.986328125
-17.39501953125
-33.87451171875
-28.38134765625
-35.70556640625
-43.02978515625
-43.02978515625
-59.50927734375
-52.18505859375
-46.69189453125
-48.52294921875
-43.02978515625
-39.36767578125
-39.36767578125
-43.02978515625
-50.35400390625
-50.35400390625
-43.9453125
-43.02978515625
-39.36767578125
-32.958984375
-41.19873046875
-40.283203125
-37.53662109375
-39.36767578125
-43.02978515625
-38.4521484375
-33.87451171875
-47.607421875
-43.02978515625
-42.1142578125
-46.69189453125
-32.958984375
-10.986328125
0
-6.40869140625
-13.73291015625
13.73291015625
56.7626953125
122.6806640625
217.8955078125
333.251953125
479.736328125
577.69775390625
658.26416015625
671.9970703125
628.96728515625
569.4580078125
507.2021484375
408.3251953125
321.35009765625
249.0234375
154.72412109375
39.36767578125
-56.7626953125
-104.3701171875
-119.0185546875
-126.3427734375
-128.173828125
-90.63720703125
-77.81982421875
-56.7626953125
-35.70556640625
-19.22607421875
-10.986328125
-7.32421875
-10.07080078125
-9.1552734375
-21.05712890625
-11.90185546875
-12.8173828125
-21.97265625
-10.986328125
-7.32421875
-11.90185546875
-16.4794921875
-23.8037109375
-21.05712890625
-10.986328125
-17.39501953125
-5.4931640625
-12.8173828125
-10.986328125
-3.662109375
0
-6.40869140625
-10.07080078125
-3.662109375
-2.74658203125
-6.40869140625
0
7.32421875
-2.74658203125
-1.8310546875
-2.74658203125
-7.32421875
0.91552734375
-5.4931640625
-8.23974609375
1.8310546875
0
-7.32421875
10.986328125
19.22607421875
9.1552734375
10.986328125
10.07080078125
0
3.662109375
10.986328125
8.23974609375
5.4931640625
13.73291015625
19.22607421875
21.97265625
14.6484375
8.23974609375
21.05712890625
15.56396484375
11.90185546875
10.986328125
12.8173828125
21.05712890625
26.55029296875
18.310546875
21.05712890625
32.958984375
31.1279296875
31.1279296875
25.634765625
28.38134765625
33.87451171875
34.7900390625
34.7900390625
48.52294921875
49.4384765625
47.607421875
40.283203125
48.52294921875
55.84716796875
61.34033203125
55.84716796875
71.4111328125
66.83349609375
66.83349609375
64.0869140625
78.7353515625
85.14404296875
81.48193359375
84.228515625
91.552734375
99.79248046875
99.79248046875
106.201171875
101.62353515625
120.849609375
131.8359375
128.173828125
136.41357421875
140.07568359375
147.39990234375
146.484375
149.23095703125
147.39990234375
160.21728515625
168.45703125
166.6259765625
164.794921875
169.37255859375
175.78125
190.4296875
200.50048828125
192.2607421875
194.091796875
190.4296875
190.4296875
197.75390625
193.17626953125
184.02099609375
197.75390625
211.48681640625
206.9091796875
183.10546875
190.4296875
182.18994140625
183.10546875
173.03466796875
158.38623046875
149.23095703125
142.822265625
136.41357421875
130.0048828125
131.8359375
112.60986328125
100.7080078125
85.14404296875
75.0732421875
73.2421875
59.50927734375
58.59375
60.4248046875
41.19873046875
43.02978515625
30.21240234375
34.7900390625
22.88818359375
7.32421875
8.23974609375
22.88818359375
34.7900390625
9.1552734375
-3.662109375
12.8173828125
4.57763671875
-2.74658203125
-5.4931640625
-5.4931640625
-6.40869140625
-25.634765625
-11.90185546875
-8.23974609375
-15.56396484375
-8.23974609375
-15.56396484375
-18.310546875
-32.958984375
-12.8173828125
-7.32421875
-16.4794921875
-21.05712890625
-21.97265625
-24.71923828125
-11.90185546875
-6.40869140625
-18.310546875
-21.05712890625
-31.1279296875
-22.88818359375
-18.310546875
-20.1416015625
-15.56396484375
-24.71923828125
-12.8173828125
-12.8173828125
-19.22607421875
-19.22607421875
-17.39501953125
-18.310546875
-10.986328125
-11.90185546875
-32.958984375
-20.1416015625
-15.56396484375
-17.39501953125
-5.4931640625
-15.56396484375
-17.39501953125
-12.8173828125
-3.662109375
-16.4794921875
-21.97265625
-19.22607421875
-6.40869140625
-28.38134765625
-18.310546875
-15.56396484375
-14.6484375
-6.40869140625
-2.74658203125
-11.90185546875
-8.23974609375
-13.73291015625
-28.38134765625
-26.55029296875
-17.39501953125
-12.8173828125
-17.39501953125
-22.88818359375
-18.310546875
-12.8173828125
-17.39501953125
-9.1552734375
-18.310546875
-13.73291015625
-14.6484375
-12.8173828125
-11.90185546875
-14.6484375
-19.22607421875
-16.4794921875
-10.07080078125
-13.73291015625
-21.97265625
-20.1416015625
-7.32421875
-18.310546875
-21.05712890625
-11.90185546875
-24.71923828125
-20.1416015625
-16.4794921875
-17.39501953125
-11.90185546875
-20.1416015625
-22.88818359375
-25.634765625
-26.55029296875
-27.4658203125
-16.4794921875
-22.88818359375
-22.88818359375
-26.55029296875
-23.8037109375
-26.55029296875
-13.73291015625
-12.8173828125
-28.38134765625
-23.8037109375
-39.36767578125
-30.21240234375
-16.4794921875
-28.38134765625
-29.296875
-24.71923828125
-22.88818359375
-20.1416015625
-21.05712890625
-24.71923828125
-32.958984375
-32.958984375
-32.04345703125
-28.38134765625
-31.1279296875
-27.4658203125
-28.38134765625
-21.05712890625
-28.38134765625
-26.55029296875
-20.1416015625
-22.88818359375
-15.56396484375
-13.73291015625
-22.88818359375
-34.7900390625
-32.04345703125
-23.8037109375
-28.38134765625
-12.8173828125
-16.4794921875
-25.634765625
-27.4658203125
-24.71923828125
-23.8037109375
-29.296875
-31.1279296875
-24.71923828125
-9.1552734375
-19.22607421875
-32.04345703125
-33.87451171875
-37.53662109375
-28.38134765625
-21.97265625
-19.22607421875
-23.8037109375
-25.634765625
-19.22607421875
-29.296875
-28.38134765625
-20.1416015625
-14.6484375
-16.4794921875
-16.4794921875
-10.07080078125
-19.22607421875
-21.05712890625
-21.97265625
-26.55029296875
-14.6484375
-18.310546875
-18.310546875
-22.88818359375
-21.05712890625
-28.38134765625
-28.38134765625
-15.56396484375
-20.1416015625
-22.88818359375
-17.39501953125
-23.8037109375
-19.22607421875
-21.05712890625
-28.38134765625
-22.88818359375
-11.90185546875
-18.310546875
-31.1279296875
-32.04345703125
-24.71923828125
-19.22607421875
-14.6484375
-28.38134765625
-20.1416015625
-10.07080078125
-21.97265625
-28.38134765625
-21.05712890625
-22.88818359375
-22.88818359375
-31.1279296875
-21.97265625
-23.8037109375
-14.6484375
-19.22607421875
-20.1416015625
-10.07080078125
-15.56396484375
-28.38134765625
-26.55029296875
-23.8037109375
-17.39501953125
-21.97265625
-28.38134765625
-20.1416015625
-13.73291015625
-19.22607421875
-25.634765625
-25.634765625
-24.71923828125
-22.88818359375
-16.4794921875
-20.1416015625
-34.7900390625
-19.22607421875
-26.55029296875
-33.87451171875
-28.38134765625
-17.39501953125
-19.22607421875
-21.05712890625
-13.73291015625
-21.97265625
-21.97265625
-21.05712890625
-32.958984375
-15.56396484375
-16.4794921875
-16.4794921875
-16.4794921875
-20.1416015625
-23.8037109375
-10.986328125
-4.57763671875
-8.23974609375
-14.6484375
-1.8310546875
10.07080078125
7.32421875
3.662109375
2.74658203125
-13.73291015625
-8.23974609375
3.662109375
9.1552734375
6.40869140625
8.23974609375
13.73291015625
15.56396484375
14.6484375
14.6484375
19.22607421875
19.22607421875
12.8173828125
13.73291015625
26.55029296875
17.39501953125
16.4794921875
14.6484375
11.90185546875
0
-9.1552734375
-5.4931640625
-9.1552734375
-2.74658203125
23.8037109375
13.73291015625
-0.91552734375
18.310546875
16.4794921875
-1.8310546875
-14.6484375
-25.634765625
-19.22607421875
-35.70556640625
-46.69189453125
-47.607421875
-38.4521484375
-33.87451171875
-44.86083984375
-46.69189453125
-35.70556640625
-31.1279296875
-36.62109375
-48.52294921875
-45.7763671875
-35.70556640625
-35.70556640625
-32.958984375
-38.4521484375
-38.4521484375
-33.87451171875
-26.55029296875
-32.958984375
-44.86083984375
-49.4384765625
-43.02978515625
-45.7763671875
-35.70556640625
-42.1142578125
-50.35400390625
-46.69189453125
-28.38134765625
-26.55029296875
-16.4794921875
-6.40869140625
-15.56396484375
-19.22607421875
3.662109375
71.4111328125
159.3017578125
266.41845703125
393.6767578125
527.34375
641.78466796875
710.44921875
728.759765625
666.50390625
587.7685546875
495.30029296875
404.6630859375
308.53271484375
212.40234375
119.93408203125
8.23974609375
-83.31298828125
-114.44091796875
-140.9912109375
-158.38623046875
-139.16015625
-106.201171875
-75.0732421875
-62.255859375
-49.4384765625
-35.70556640625
-16.4794921875
-25.634765625
-13.73291015625
-3.662109375
-15.56396484375
-10.07080078125
-8.23974609375
-14.6484375
-8.23974609375
-18.310546875
-19.22607421875
-19.22607421875
0.91552734375
-4.57763671875
-15.56396484375
-8.23974609375
-4.57763671875
-1.8310546875
-2.74658203125
-6.40869140625
5.4931640625
4.57763671875
-6.40869140625
-1.8310546875
6.40869140625
-1.8310546875
-1.8310546875
3.662109375
0
1.8310546875
6.40869140625
1.8310546875
8.23974609375
1.8310546875
3.662109375
6.40869140625
4.57763671875
-4.57763671875
-3.662109375
3.662109375
12.8173828125
3.662109375
4.57763671875
27.4658203125
18.310546875
-0.91552734375
16.4794921875
28.38134765625
19.22607421875
16.4794921875
15.56396484375
15.56396484375
18.310546875
22.88818359375
27.4658203125
6.40869140625
21.05712890625
22.88818359375
21.05712890625
24.71923828125
27.4658203125
33.87451171875
30.21240234375
39.36767578125
37.53662109375
28.38134765625
26.55029296875
45.7763671875
44.86083984375
55.84716796875
56.7626953125
43.9453125
50.35400390625
63.17138671875
65.91796875
64.0869140625
59.50927734375
72.32666015625
72.32666015625
67.7490234375
85.14404296875
80.56640625
75.0732421875
80.56640625
76.904296875
86.0595703125
97.96142578125
108.0322265625
111.6943359375
116.27197265625
121.76513671875
122.6806640625
128.173828125
138.24462890625
144.6533203125
140.07568359375
142.822265625
161.1328125
170.2880859375
172.119140625
168.45703125
176.69677734375
178.52783203125
184.02099609375
182.18994140625
184.9365234375
192.2607421875
199.5849609375
198.66943359375
208.740234375
209.65576171875
205.078125
195.00732421875
210.5712890625
209.65576171875
208.740234375
212.40234375
200.50048828125
205.078125
208.740234375
177.6123046875
168.45703125
169.37255859375
162.9638671875
151.06201171875
145.56884765625
127.25830078125
128.173828125
135.498046875
123.59619140625
102.5390625
79.65087890625
73.2421875
61.34033203125
57.67822265625
53.1005859375
48.52294921875
47.607421875
25.634765625
13.73291015625
12.8173828125
13.73291015625
21.97265625
10.986328125
3.662109375
1.8310546875
-0.91552734375
-5.4931640625
0.91552734375
-9.1552734375
-4.57763671875
0
0
-13.73291015625
-21.05712890625
-17.39501953125
-1.8310546875
-24.71923828125
-33.87451171875
-32.04345703125
-25.634765625
-25.634765625
-28.38134765625
-29.296875
-28.38134765625
-33.87451171875
-15.56396484375
-22.88818359375
-23.8037109375
-21.97265625
-25.634765625
-20.1416015625
-23.8037109375
-22.88818359375
-12.8173828125
-14.6484375
-24.71923828125
-23.8037109375
-19.22607421875
-25.634765625
-28.38134765625
-25.634765625
-26.55029296875
-27.4658203125
-29.296875
-27.4658203125
-24.71923828125
-23.8037109375
-12.8173828125
-19.22607421875
-28.38134765625
-41.19873046875
-32.958984375
-17.39501953125
-20.1416015625
-30.21240234375
-19.22607421875
-22.88818359375
-26.55029296875
-31.1279296875
-23.8037109375
-21.97265625
-33.87451171875
-30.21240234375
-21.05712890625
-12.8173828125
-19.22607421875
-17.39501953125
-21.05712890625
-32.958984375
-31.1279296875
-27.4658203125
-29.296875
-24.71923828125
-25.634765625
-27.4658203125
-32.04345703125
-26.55029296875
-16.4794921875
-15.56396484375
-22.88818359375
-23.8037109375
-25.634765625
-22.88818359375
-9.1552734375
-29.296875
-34.7900390625
-28.38134765625
-28.38134765625
-29.296875
-26.55029296875
-27.4658203125
-35.70556640625
-41.19873046875
-24.71923828125
-21.97265625
-36.62109375
-31.1279296875
-25.634765625
-31.1279296875
-42.1142578125
-27.4658203125
-21.97265625
-29.296875
-31.1279296875
-21.97265625
-22.88818359375
-15.56396484375
-29.296875
-50.35400390625
-37.53662109375
-29.296875
-31.1279296875
-35.70556640625
-36.62109375
-35.70556640625
-31.1279296875
-36.62109375
-37.53662109375
-32.04345703125
-35.70556640625
-40.283203125
-42.1142578125
-36.62109375
-32.958984375
-31.1279296875
-34.7900390625
-33.87451171875
-40.283203125
-33.87451171875
-41.19873046875
-42.1142578125
-38.4521484375
-47.607421875
-41.19873046875
-23.8037109375
-30.21240234375
-41.19873046875
-50.35400390625
-51.26953125
-35.70556640625
-42.1142578125
-32.958984375
-22.88818359375
-40.283203125
-43.9453125
-32.958984375
-43.9453125
-45.7763671875
-40.283203125
-38.4521484375
-43.9453125
-41.19873046875
-36.62109375
-29.296875
-31.1279296875
-36.62109375
-41.19873046875
-42.1142578125
-54.01611328125
-41.19873046875
-36.62109375
-38.4521484375
-32.958984375
-32.958984375
-45.7763671875
-41.19873046875
-37.53662109375
-35.70556640625
-33.87451171875
-37.53662109375
-36.62109375
-34.7900390625
-28.38134765625
-32.04345703125
