ECG
-90.63720703125
-93.3837890625
-97.96142578125
-100.7080078125
-106.201171875
-108.0322265625
-108.0322265625
-106.201171875
-104.3701171875
-102.5390625
-96.13037109375
-104.3701171875
-107.11669921875
-99.79248046875
-103.45458984375
-104.3701171875
-99.79248046875
-102.5390625
-101.62353515625
-109.86328125
-108.0322265625
-100.7080078125
-107.11669921875
-106.201171875
-108.94775390625
-112.60986328125
-116.27197265625
-104.3701171875
-99.79248046875
-98.876953125
-100.7080078125
-107.11669921875
-103.45458984375
-118.10302734375
-110.77880859375
-86.0595703125
-66.83349609375
-39.36767578125
-20.1416015625
-3.662109375
44.86083984375
111.6943359375
176.69677734375
272.8271484375
415.6494140625
541.9921875
670.166015625
779.11376953125
873.4130859375
953.9794921875
963.134765625
874.32861328125
716.85791015625
510.8642578125
247.1923828125
-12.8173828125
-199.5849609375
-279.23583984375
-336.9140625
-390.0146484375
-402.83203125
-407.40966796875
-383.60595703125
-352.47802734375
-322.265625
-274.658203125
-233.45947265625
-187.68310546875
-147.39990234375
-109.86328125
-95.21484375
-70.49560546875
-54.01611328125
-47.607421875
-43.9453125
-33.87451171875
-29.296875
-28.38134765625
-21.97265625
-2.74658203125
-10.986328125
-18.310546875
-13.73291015625
-16.4794921875
-12.8173828125
-19.22607421875
-15.56396484375
-3.662109375
-0.91552734375
-3.662109375
-2.74658203125
-0.91552734375
3.662109375
0
-0.91552734375
-2.74658203125
-1.8310546875
1.8310546875
10.07080078125
19.22607421875
25.634765625
27.4658203125
22.88818359375
13.73291015625
17.39501953125
18.310546875
17.39501953125
27.4658203125
38.4521484375
44.86083984375
38.4521484375
38.4521484375
46.69189453125
43.9453125
47.607421875
44.86083984375
46.69189453125
55.84716796875
55.84716796875
65.91796875
67.7490234375
65.91796875
66.83349609375
68.66455078125
77.81982421875
71.4111328125
78.7353515625
83.31298828125
94.29931640625
107.11669921875
108.94775390625
108.94775390625
105.28564453125
111.6943359375
116.27197265625
124.51171875
129.08935546875
138.24462890625
141.90673828125
146.484375
155.6396484375
160.21728515625
169.37255859375
169.37255859375
182.18994140625
187.68310546875
192.2607421875
200.50048828125
215.14892578125
220.64208984375
233.45947265625
239.8681640625
243.5302734375
249.93896484375
257.26318359375
266.41845703125
272.8271484375
286.56005859375
299.37744140625
303.03955078125
315.85693359375
332.33642578125
343.32275390625
342.4072265625
338.7451171875
350.64697265625
363.46435546875
369.873046875
375.3662109375
381.77490234375
385.43701171875
393.6767578125
396.42333984375
397.3388671875
390.93017578125
390.0146484375
395.5078125
404.6630859375
407.40966796875
406.494140625
393.6767578125
385.43701171875
369.873046875
350.64697265625
342.4072265625
325.927734375
309.4482421875
286.56005859375
274.658203125
256.34765625
226.13525390625
213.31787109375
190.4296875
162.9638671875
143.73779296875
122.6806640625
97.0458984375
86.0595703125
75.0732421875
65.00244140625
60.4248046875
32.958984375
14.6484375
9.1552734375
-6.40869140625
-9.1552734375
-15.56396484375
-30.21240234375
-42.1142578125
-37.53662109375
-51.26953125
-53.1005859375
-59.50927734375
-65.91796875
-60.4248046875
-66.83349609375
-59.50927734375
-66.83349609375
-73.2421875
-65.91796875
-74.15771484375
-75.0732421875
-74.15771484375
-65.91796875
-78.7353515625
-75.98876953125
-78.7353515625
-83.31298828125
-78.7353515625
-73.2421875
-72.32666015625
-75.98876953125
-76.904296875
-78.7353515625
-81.48193359375
-81.48193359375
-80.56640625
-80.56640625
-81.48193359375
-73.2421875
-72.32666015625
-77.81982421875
-76.904296875
-70.49560546875
-73.2421875
-76.904296875
-69.580078125
-70.49560546875
-65.91796875
-71.4111328125
-67.7490234375
-64.0869140625
-64.0869140625
-65.00244140625
-76.904296875
-75.98876953125
-69.580078125
-70.49560546875
-75.0732421875
-66.83349609375
-68.66455078125
-66.83349609375
-62.255859375
-66.83349609375
-71.4111328125
-70.49560546875
-68.66455078125
-61.34033203125
-63.17138671875
-64.0869140625
-62.255859375
-56.7626953125
-64.0869140625
-71.4111328125
-72.32666015625
-71.4111328125
-74.15771484375
-78.7353515625
-72.32666015625
-70.49560546875
-60.4248046875
-65.91796875
-75.0732421875
-75.0732421875
-72.32666015625
-73.2421875
-82.3974609375
-72.32666015625
-71.4111328125
-75.0732421875
-76.904296875
-75.0732421875
-77.81982421875
-73.2421875
-78.7353515625
-84.228515625
-83.31298828125
-75.98876953125
-71.4111328125
-73.2421875
-77.81982421875
-74.15771484375
-75.0732421875
-78.7353515625
-77.81982421875
-75.0732421875
-75.98876953125
-90.63720703125
-81.48193359375
-79.65087890625
-75.98876953125
-83.31298828125
-78.7353515625
-83.31298828125
-85.14404296875
-86.97509765625
-87.890625
-91.552734375
-83.31298828125
-82.3974609375
-84.228515625
-87.890625
-82.3974609375
-80.56640625
-87.890625
-93.3837890625
-90.63720703125
-94.29931640625
-79.65087890625
-83.31298828125
-86.97509765625
-86.97509765625
-89.7216796875
-86.97509765625
-89.7216796875
-93.3837890625
-97.96142578125
-95.21484375
-93.3837890625
-90.63720703125
-82.3974609375
-85.14404296875
-81.48193359375
-91.552734375
-95.21484375
-94.29931640625
-94.29931640625
-92.46826171875
-89.7216796875
-81.48193359375
-87.890625
-86.97509765625
-79.65087890625
-87.890625
-94.29931640625
-94.29931640625
-99.79248046875
-90.63720703125
-81.48193359375
-75.0732421875
-79.65087890625
-84.228515625
-83.31298828125
-86.0595703125
-93.3837890625
-98.876953125
-92.46826171875
-90.63720703125
-84.228515625
-87.890625
-86.0595703125
-85.14404296875
-85.14404296875
-93.3837890625
-92.46826171875
-92.46826171875
-92.46826171875
-86.97509765625
-80.56640625
-80.56640625
-77.81982421875
-81.48193359375
-83.31298828125
-94.29931640625
-95.21484375
-81.48193359375
-87.890625
-95.21484375
-75.0732421875
-62.255859375
-71.4111328125
-65.00244140625
-61.34033203125
-68.66455078125
-59.50927734375
-47.607421875
-49.4384765625
-44.86083984375
-38.4521484375
-34.7900390625
-45.7763671875
-54.931640625
-42.1142578125
-31.1279296875
-23.8037109375
-19.22607421875
-18.310546875
-6.40869140625
0
9.1552734375
11.90185546875
12.8173828125
6.40869140625
8.23974609375
0.91552734375
6.40869140625
10.07080078125
15.56396484375
18.310546875
10.986328125
4.57763671875
-20.1416015625
-24.71923828125
-34.7900390625
-30.21240234375
-39.36767578125
-45.7763671875
-55.84716796875
-58.59375
-61.34033203125
-71.4111328125
-75.0732421875
-75.98876953125
-86.97509765625
-86.0595703125
-91.552734375
-91.552734375
-86.0595703125
-75.98876953125
-82.3974609375
-89.7216796875
-91.552734375
-87.890625
-91.552734375
-102.5390625
-106.201171875
-103.45458984375
-103.45458984375
-95.21484375
-97.96142578125
-97.96142578125
-99.79248046875
-96.13037109375
-98.876953125
-97.96142578125
-102.5390625
-104.3701171875
-97.0458984375
-94.29931640625
-86.0595703125
-93.3837890625
-98.876953125
-95.21484375
-93.3837890625
-97.0458984375
-93.3837890625
-98.876953125
-98.876953125
-97.0458984375
-97.0458984375
-98.876953125
-105.28564453125
-97.96142578125
-86.0595703125
-76.904296875
-59.50927734375
-43.9453125
-24.71923828125
11.90185546875
74.15771484375
141.90673828125
222.47314453125
346.98486328125
487.97607421875
607.91015625
726.01318359375
833.1298828125
911.865234375
940.24658203125
935.6689453125
839.53857421875
664.6728515625
446.77734375
184.02099609375
-55.84716796875
-174.86572265625
-237.12158203125
-305.7861328125
-355.224609375
-351.5625
-352.47802734375
-335.0830078125
-307.6171875
-278.3203125
-249.0234375
-216.064453125
-176.69677734375
-131.8359375
-96.13037109375
-86.0595703125
-62.255859375
-43.9453125
-37.53662109375
-27.4658203125
-19.22607421875
-17.39501953125
-21.97265625
-11.90185546875
-6.40869140625
-10.07080078125
-10.986328125
-4.57763671875
0
5.4931640625
10.986328125
4.57763671875
0.91552734375
5.4931640625
0.91552734375
13.73291015625
21.97265625
17.39501953125
21.97265625
21.05712890625
21.97265625
17.39501953125
14.6484375
21.05712890625
28.38134765625
40.283203125
37.53662109375
28.38134765625
32.958984375
37.53662109375
48.52294921875
42.1142578125
40.283203125
49.4384765625
54.931640625
64.0869140625
64.0869140625
68.66455078125
69.580078125
69.580078125
58.59375
74.15771484375
69.580078125
66.83349609375
77.81982421875
87.890625
97.0458984375
97.96142578125
101.62353515625
97.96142578125
103.45458984375
108.0322265625
113.525390625
111.6943359375
129.08935546875
136.41357421875
131.8359375
140.9912109375
138.24462890625
138.24462890625
143.73779296875
154.72412109375
158.38623046875
162.9638671875
166.6259765625
185.85205078125
204.16259765625
203.2470703125
202.33154296875
210.5712890625
213.31787109375
219.7265625
227.05078125
240.78369140625
243.5302734375
260.009765625
280.1513671875
284.72900390625
293.88427734375
295.71533203125
308.53271484375
313.1103515625
315.85693359375
326.84326171875
343.32275390625
354.30908203125
363.46435546875
366.2109375
379.0283203125
385.43701171875
387.26806640625
395.5078125
401.0009765625
405.57861328125
412.90283203125
414.73388671875
426.6357421875
431.21337890625
440.36865234375
430.2978515625
418.39599609375
417.48046875
413.818359375
406.494140625
410.15625
407.40966796875
400.08544921875
378.11279296875
368.0419921875
349.7314453125
332.33642578125
303.03955078125
277.40478515625
267.333984375
241.69921875
229.79736328125
210.5712890625
185.85205078125
169.37255859375
150.146484375
128.173828125
113.525390625
89.7216796875
79.65087890625
67.7490234375
54.931640625
47.607421875
37.53662109375
27.4658203125
0.91552734375
-4.57763671875
-9.1552734375
-10.07080078125
-26.55029296875
-21.05712890625
-28.38134765625
-24.71923828125
-34.7900390625
-43.9453125
-42.1142578125
-40.283203125
-45.7763671875
-46.69189453125
-51.26953125
-54.01611328125
-52.18505859375
-43.02978515625
-43.02978515625
-46.69189453125
-58.59375
-60.4248046875
-62.255859375
-54.931640625
-53.1005859375
-50.35400390625
-44.86083984375
-45.7763671875
-44.86083984375
-50.35400390625
-58.59375
-57.67822265625
-54.931640625
-54.931640625
-53.1005859375
-48.52294921875
-45.7763671875
-37.53662109375
-42.1142578125
-53.1005859375
-52.18505859375
-50.35400390625
-57.67822265625
-48.52294921875
-52.18505859375
-56.7626953125
-43.02978515625
-43.9453125
-47.607421875
-41.19873046875
-46.69189453125
-44.86083984375
-45.7763671875
-48.52294921875
-44.86083984375
-50.35400390625
-43.9453125
-42.1142578125
-39.36767578125
-43.02978515625
-44.86083984375
-47.607421875
-45.7763671875
-51.26953125
-55.84716796875
-45.7763671875
-43.9453125
-48.52294921875
-50.35400390625
-54.931640625
-46.69189453125
-43.02978515625
-48.52294921875
-62.255859375
-56.7626953125
-55.84716796875
-52.18505859375
-48.52294921875
-46.69189453125
-48.52294921875
-50.35400390625
-42.1142578125
-53.1005859375
-58.59375
-54.01611328125
-46.69189453125
-48.52294921875
-54.01611328125
-54.931640625
-56.7626953125
-58.59375
-57.67822265625
-60.4248046875
-64.0869140625
-65.91796875
-62.255859375
-54.931640625
-54.01611328125
-60.4248046875
-65.00244140625
-59.50927734375
-57.67822265625
-62.255859375
-72.32666015625
-75.0732421875
-65.91796875
-60.4248046875
-61.34033203125
-68.66455078125
-65.91796875
-65.00244140625
-72.32666015625
-71.4111328125
-64.0869140625
-71.4111328125
-68.66455078125
-70.49560546875
-67.7490234375
-69.580078125
-73.2421875
-70.49560546875
-66.83349609375
-65.91796875
-77.81982421875
-75.98876953125
-66.83349609375
-55.84716796875
-66.83349609375
-66.83349609375
-69.580078125
-75.98876953125
-76.904296875
-77.81982421875
-69.580078125
-66.83349609375
-72.32666015625
-74.15771484375
-78.7353515625
-70.49560546875
-66.83349609375
-74.15771484375
-79.65087890625
-75.98876953125
-72.32666015625
-76.904296875
-78.7353515625
-70.49560546875
-70.49560546875
-69.580078125
-68.66455078125
-75.0732421875
-76.904296875
-81.48193359375
-81.48193359375
-73.2421875
-73.2421875
-65.00244140625
-69.580078125
-72.32666015625
-85.14404296875
-77.81982421875
-79.65087890625
-68.66455078125
-71.4111328125
-71.4111328125
-69.580078125
-51.26953125
-48.52294921875
-43.02978515625
-37.53662109375
-40.283203125
-32.958984375
-26.55029296875
-31.1279296875
-33.87451171875
-32.04345703125
-32.958984375
-27.4658203125
-12.8173828125
-5.4931640625
0.91552734375
2.74658203125
1.8310546875
3.662109375
10.07080078125
22.88818359375
33.87451171875
33.87451171875
18.310546875
17.39501953125
21.05712890625
31.1279296875
21.97265625
25.634765625
21.05712890625
15.56396484375
19.22607421875
7.32421875
-11.90185546875
-12.8173828125
-16.4794921875
-34.7900390625
-40.283203125
-45.7763671875
-42.1142578125
-43.9453125
-48.52294921875
-56.7626953125
-75.0732421875
-83.31298828125
-85.14404296875
-83.31298828125
-86.0595703125
-89.7216796875
-89.7216796875
-76.904296875
-81.48193359375
-80.56640625
-78.7353515625
-88.80615234375
-95.21484375
-89.7216796875
-86.97509765625
-98.876953125
-96.13037109375
-89.7216796875
-90.63720703125
-86.0595703125
-89.7216796875
-91.552734375
-94.29931640625
-99.79248046875
-101.62353515625
-98.876953125
-94.29931640625
-97.0458984375
-91.552734375
-93.3837890625
-92.46826171875
-91.552734375
-96.13037109375
-90.63720703125
-95.21484375
-97.96142578125
-101.62353515625
-95.21484375
-97.0458984375
-89.7216796875
-84.228515625
-71.4111328125
-56.7626953125
-34.7900390625
-15.56396484375
-7.32421875
43.02978515625
114.44091796875
187.68310546875
281.982421875
408.3251953125
540.1611328125
670.166015625
772.705078125
867.00439453125
930.17578125
945.73974609375
882.568359375
737.9150390625
554.8095703125
309.4482421875
52.18505859375
-148.3154296875
-237.12158203125
-303.03955078125
-363.46435546875
-380.859375
-378.11279296875
-378.11279296875
-349.7314453125
-312.19482421875
-270.99609375
-232.5439453125
-195.00732421875
-156.55517578125
-122.6806640625
-96.13037109375
-67.7490234375
-41.19873046875
-34.7900390625
-32.04345703125
-15.56396484375
-13.73291015625
-14.6484375
-10.986328125
-15.56396484375
-14.6484375
-4.57763671875
-0.91552734375
-5.4931640625
-5.4931640625
0
4.57763671875
0
0
-2.74658203125
-1.8310546875
1.8310546875
9.1552734375
15.56396484375
20.1416015625
18.310546875
20.1416015625
19.22607421875
25.634765625
21.05712890625
28.38134765625
29.296875
31.1279296875
35.70556640625
29.296875
31.1279296875
41.19873046875
41.19873046875
37.53662109375
38.4521484375
45.7763671875
59.50927734375
47.607421875
53.1005859375
63.17138671875
61.34033203125
65.00244140625
65.91796875
63.17138671875
75.98876953125
76.904296875
75.0732421875
83.31298828125
91.552734375
87.890625
92.46826171875
102.5390625
101.62353515625
99.79248046875
101.62353515625
112.60986328125
119.93408203125
128.173828125
128.173828125
131.8359375
132.75146484375
136.41357421875
142.822265625
155.6396484375
159.3017578125
157.470703125
175.78125
181.2744140625
188.5986328125
191.34521484375
200.50048828125
205.99365234375
213.31787109375
227.05078125
232.5439453125
249.93896484375
259.09423828125
271.91162109375
275.57373046875
285.64453125
286.56005859375
295.71533203125
306.70166015625
320.4345703125
323.18115234375
330.50537109375
333.251953125
350.64697265625
361.63330078125
366.2109375
370.78857421875
379.94384765625
390.0146484375
390.93017578125
394.59228515625
390.93017578125
401.0009765625
409.24072265625
411.07177734375
416.56494140625
411.9873046875
405.57861328125
403.74755859375
404.6630859375
397.3388671875
386.3525390625
379.94384765625
367.12646484375
353.3935546875
341.49169921875
325.927734375
305.7861328125
269.1650390625
248.10791015625
232.5439453125
213.31787109375
192.2607421875
175.78125
157.470703125
136.41357421875
116.27197265625
95.21484375
81.48193359375
57.67822265625
33.87451171875
32.04345703125
32.958984375
28.38134765625
8.23974609375
3.662109375
-14.6484375
-19.22607421875
-35.70556640625
-38.4521484375
-52.18505859375
-52.18505859375
-46.69189453125
-43.9453125
-53.1005859375
-54.01611328125
-61.34033203125
-60.4248046875
-55.84716796875
-61.34033203125
-69.580078125
-75.98876953125
-66.83349609375
-63.17138671875
-67.7490234375
-73.2421875
-67.7490234375
-70.49560546875
-81.48193359375
-79.65087890625
-69.580078125
-76.904296875
-71.4111328125
-66.83349609375
-70.49560546875
-73.2421875
-76.904296875
-77.81982421875
-76.904296875
-78.7353515625
-78.7353515625
-78.7353515625
-68.66455078125
-66.83349609375
-68.66455078125
-60.4248046875
-70.49560546875
-73.2421875
-76.904296875
-75.0732421875
-74.15771484375
-75.0732421875
-65.91796875
-65.00244140625
-65.00244140625
-68.66455078125
-65.00244140625
-66.83349609375
-70.49560546875
-68.66455078125
-65.91796875
-61.34033203125
-70.49560546875
-63.17138671875
-60.4248046875
-61.34033203125
-66.83349609375
-65.91796875
-64.0869140625
-67.7490234375
-72.32666015625
-71.4111328125
-65.91796875
-57.67822265625
-50.35400390625
-60.4248046875
-67.7490234375
-65.00244140625
-67.7490234375
-64.0869140625
-68.66455078125
-69.580078125
-68.66455078125
-60.4248046875
-57.67822265625
-54.931640625
-46.69189453125
-72.32666015625
-81.48193359375
-73.2421875
-74.15771484375
-67.7490234375
-72.32666015625
-74.15771484375
-69.580078125
-79.65087890625
-71.4111328125
-60.4248046875
-72.32666015625
-79.65087890625
-75.98876953125
-84.228515625
-80.56640625
-72.32666015625
-74.15771484375
-77.81982421875
-77.81982421875
-78.7353515625
-84.228515625
-89.7216796875
-89.7216796875
-85.14404296875
-77.81982421875
-76.904296875
-75.0732421875
-81.48193359375
-81.48193359375
-88.80615234375
-87.890625
-87.890625
-82.3974609375
-86.97509765625
-90.63720703125
-83.31298828125
-79.65087890625
-78.7353515625
-88.80615234375
-95.21484375
-93.3837890625
-90.63720703125
-94.29931640625
-95.21484375
-88.80615234375
-79.65087890625
-78.7353515625
-80.56640625
-87.890625
-85.14404296875
-92.46826171875
-95.21484375
-98.876953125
-102.5390625
-92.46826171875
-90.63720703125
-86.0595703125
-91.552734375
-92.46826171875
-86.97509765625
-89.7216796875
-95.21484375
-106.201171875
-105.28564453125
-95.21484375
-86.97509765625
-82.3974609375
-85.14404296875
-91.552734375
-89.7216796875
-94.29931640625
-92.46826171875
-98.876953125
-100.7080078125
-86.0595703125
-83.31298828125
-96.13037109375
-95.21484375
-93.3837890625
-97.0458984375
-92.46826171875
-90.63720703125
-104.3701171875
-101.62353515625
-94.29931640625
-89.7216796875
-88.80615234375
-93.3837890625
-97.0458984375
-97.0458984375
-105.28564453125
-108.0322265625
-100.7080078125
-95.21484375
-93.3837890625
-88.80615234375
-78.7353515625
-80.56640625
-92.46826171875
-88.80615234375
-84.228515625
-82.3974609375
-84.228515625
-66.83349609375
-66.83349609375
-52.18505859375
-33.87451171875
-39.36767578125
-43.02978515625
-55.84716796875
-53.1005859375
-57.67822265625
-57.67822265625
-51.26953125
-31.1279296875
-10.986328125
-11.90185546875
-12.8173828125
-10.07080078125
-5.4931640625
-6.40869140625
-3.662109375
3.662109375
7.32421875
0
10.07080078125
13.73291015625
17.39501953125
10.986328125
-0.91552734375
-10.986328125
-20.1416015625
-35.70556640625
-37.53662109375
-42.1142578125
-36.62109375
-43.02978515625
-52.18505859375
-65.91796875
-65.91796875
-68.66455078125
-80.56640625
-85.14404296875
-91.552734375
-90.63720703125
-94.29931640625
-96.13037109375
-91.552734375
-98.876953125
-101.62353515625
-101.62353515625
-100.7080078125
-104.3701171875
-107.11669921875
-103.45458984375
-108.94775390625
-108.0322265625
-110.77880859375
-112.60986328125
-117.1875
-107.11669921875
-111.6943359375
-108.94775390625
-113.525390625
-106.201171875
-99.79248046875
-107.11669921875
-103.45458984375
-101.62353515625
-110.77880859375
-115.3564453125
-120.849609375
-118.10302734375
-113.525390625
-108.94775390625
-99.79248046875
-107.11669921875
-102.5390625
-110.77880859375
-110.77880859375
-117.1875
-119.93408203125
-126.3427734375
-113.525390625
-87.890625
-71.4111328125
-51.26953125
-29.296875
-10.07080078125
37.53662109375
96.13037109375
164.794921875
249.0234375
387.26806640625
527.34375
647.27783203125
769.95849609375
862.4267578125
932.92236328125
944.82421875
877.99072265625
723.2666015625
522.76611328125
270.99609375
12.8173828125
-184.02099609375
-284.72900390625
-331.4208984375
-394.59228515625
-414.73388671875
-420.22705078125
-401.0009765625
-368.0419921875
-323.18115234375
-285.64453125
-234.375
-187.68310546875
-148.3154296875
-128.173828125
-111.6943359375
-86.97509765625
-64.0869140625
-54.931640625
-42.1142578125
-32.958984375
-31.1279296875
-30.21240234375
-27.4658203125
-21.97265625
-22.88818359375
-30.21240234375
-30.21240234375
-27.4658203125
-24.71923828125
-20.1416015625
-18.310546875
-7.32421875
-6.40869140625
-15.56396484375
-15.56396484375
-11.90185546875
-9.1552734375
-1.8310546875
5.4931640625
-6.40869140625
-1.8310546875
10.986328125
8.23974609375
5.4931640625
10.07080078125
9.1552734375
10.986328125
10.986328125
9.1552734375
21.05712890625
30.21240234375
27.4658203125
26.55029296875
33.87451171875
32.04345703125
40.283203125
36.62109375
37.53662109375
38.4521484375
47.607421875
45.7763671875
56.7626953125
59.50927734375
54.01611328125
60.4248046875
61.34033203125
65.00244140625
64.0869140625
77.81982421875
84.228515625
83.31298828125
84.228515625
92.46826171875
97.0458984375
96.13037109375
101.62353515625
100.7080078125
104.3701171875
118.10302734375
120.849609375
131.8359375
138.24462890625
140.9912109375
148.3154296875
155.6396484375
148.3154296875
154.72412109375
166.6259765625
170.2880859375
179.443359375
193.17626953125
201.416015625
208.740234375
221.5576171875
226.13525390625
229.79736328125
245.361328125
249.93896484375
256.34765625
273.74267578125
282.89794921875
286.56005859375
307.6171875
309.4482421875
310.36376953125
326.84326171875
334.16748046875
335.0830078125
351.5625
356.14013671875
369.873046875
375.3662109375
376.28173828125
378.11279296875
382.6904296875
390.0146484375
394.59228515625
387.26806640625
398.25439453125
398.25439453125
402.83203125
401.91650390625
402.83203125
385.43701171875
385.43701171875
378.11279296875
357.0556640625
341.49169921875
335.0830078125
318.603515625
298.4619140625
278.3203125
260.92529296875
245.361328125
217.8955078125
192.2607421875
169.37255859375
146.484375
119.93408203125
110.77880859375
106.201171875
84.228515625
66.83349609375
52.18505859375
32.04345703125
25.634765625
10.986328125
-10.07080078125
-16.4794921875
-22.88818359375
-30.21240234375
-37.53662109375
-42.1142578125
-38.4521484375
-53.1005859375
-64.0869140625
-60.4248046875
-65.91796875
-66.83349609375
-70.49560546875
-58.59375
-59.50927734375
-63.17138671875
-71.4111328125
-70.49560546875
-77.81982421875
-91.552734375
-86.97509765625
-84.228515625
-84.228515625
-73.2421875
-77.81982421875
-85.14404296875
-82.3974609375
-86.97509765625
-75.98876953125
-75.98876953125
-80.56640625
-76.904296875
-78.7353515625
-78.7353515625
-71.4111328125
-74.15771484375
-77.81982421875
-78.7353515625
-79.65087890625
-85.14404296875
-77.81982421875
-83.31298828125
-75.0732421875
-75.98876953125
-75.0732421875
-68.66455078125
-73.2421875
-67.7490234375
-70.49560546875
-80.56640625
-84.228515625
-81.48193359375
-74.15771484375
-69.580078125
-70.49560546875
-68.66455078125
-75.0732421875
-65.91796875
-65.91796875
-75.0732421875
-75.98876953125
-75.98876953125
-70.49560546875
-64.0869140625
-62.255859375
-71.4111328125
-67.7490234375
-65.91796875
-68.66455078125
-70.49560546875
-72.32666015625
-68.66455078125
-66.83349609375
-66.83349609375
-72.32666015625
-65.00244140625
-62.255859375
-63.17138671875
-71.4111328125
-83.31298828125
-79.65087890625
-82.3974609375
-75.0732421875
-64.0869140625
-65.91796875
-68.66455078125
-66.83349609375
-75.0732421875
-70.49560546875
-73.2421875
-82.3974609375
-85.14404296875
-80.56640625
-76.904296875
-78.7353515625
-74.15771484375
-79.65087890625
-80.56640625
-75.0732421875
-79.65087890625
-87.890625
-86.97509765625
-87.890625
-82.3974609375
-80.56640625
-83.31298828125
-86.0595703125
-78.7353515625
-81.48193359375
-83.31298828125
-92.46826171875
-84.228515625
-89.7216796875
-86.0595703125
-86.0595703125
-76.904296875
-76.904296875
-86.97509765625
-89.7216796875
-96.13037109375
-94.29931640625
-95.21484375
-99.79248046875
-91.552734375
-93.3837890625
-95.21484375
-85.14404296875
-86.97509765625
-92.46826171875
-96.13037109375
-93.3837890625
-92.46826171875
-93.3837890625
-94.29931640625
-86.97509765625
-88.80615234375
-88.80615234375
-94.29931640625
-100.7080078125
-95.21484375
-97.96142578125
-99.79248046875
-103.45458984375
-93.3837890625
-86.97509765625
-93.3837890625
-90.63720703125
-94.29931640625
-97.96142578125
-107.11669921875
-105.28564453125
-94.29931640625
-93.3837890625
-93.3837890625
-86.0595703125
-89.7216796875
-88.80615234375
-86.0595703125
-97.0458984375
-93.3837890625
-98.876953125
-92.46826171875
-99.79248046875
-103.45458984375
-93.3837890625
-91.552734375
-94.29931640625
-98.876953125
-89.7216796875
-99.79248046875
-103.45458984375
-103.45458984375
-97.96142578125
-82.3974609375
-81.48193359375
-79.65087890625
-64.0869140625
-65.00244140625
-63.17138671875
-58.59375
-60.4248046875
-60.4248046875
-57.67822265625
-48.52294921875
-57.67822265625
-61.34033203125
-41.19873046875
-45.7763671875
-37.53662109375
-22.88818359375
-21.97265625
-16.4794921875
-5.4931640625
3.662109375
10.07080078125
9.1552734375
13.73291015625
0.91552734375
-9.1552734375
-6.40869140625
5.4931640625
16.4794921875
9.1552734375
-10.07080078125
-10.07080078125
-13.73291015625
-24.71923828125
-40.283203125
-51.26953125
-52.18505859375
-60.4248046875
-69.580078125
-60.4248046875
-53.1005859375
-71.4111328125
-79.65087890625
-79.65087890625
-90.63720703125
-94.29931640625
-91.552734375
-108.0322265625
-103.45458984375
-101.62353515625
-99.79248046875
-87.890625
-101.62353515625
-107.11669921875
-105.28564453125
-104.3701171875
-108.94775390625
-116.27197265625
-118.10302734375
-108.94775390625
-105.28564453125
-97.96142578125
-109.86328125
-111.6943359375
-108.94775390625
-108.94775390625
-112.60986328125
-109.86328125
-110.77880859375
-108.94775390625
-106.201171875
-103.45458984375
-105.28564453125
-104.3701171875
-100.7080078125
-110.77880859375
-117.1875
-112.60986328125
-108.94775390625
-107.11669921875
-113.525390625
-111.6943359375
-109.86328125
-106.201171875
-101.62353515625
-94.29931640625
-72.32666015625
-47.607421875
-32.958984375
2.74658203125
71.4111328125
143.73779296875
210.5712890625
331.4208984375
473.32763671875
603.33251953125
711.36474609375
819.39697265625
901.79443359375
927.42919921875
909.11865234375
802.001953125
628.96728515625
405.57861328125
151.9775390625
-78.7353515625
-196.83837890625
-254.5166015625
-323.18115234375
-368.0419921875
-363.46435546875
-359.80224609375
-344.23828125
-314.94140625
-280.1513671875
-252.685546875
-232.5439453125
-192.2607421875
-151.9775390625
-131.8359375
-106.201171875
-86.97509765625
-63.17138671875
-41.19873046875
-30.21240234375
-30.21240234375
-32.04345703125
-32.958984375
-31.1279296875
-23.8037109375
-21.05712890625
-21.97265625
-18.310546875
-16.4794921875
-9.1552734375
-4.57763671875
-10.986328125
-9.1552734375
-10.986328125
-9.1552734375
3.662109375
0
5.4931640625
12.8173828125
11.90185546875
-1.8310546875
-0.91552734375
0.91552734375
2.74658203125
10.986328125
17.39501953125
27.4658203125
23.8037109375
26.55029296875
29.296875
23.8037109375
34.7900390625
35.70556640625
34.7900390625
34.7900390625
43.9453125
47.607421875
49.4384765625
54.01611328125
54.931640625
54.01611328125
52.18505859375
62.255859375
58.59375
56.7626953125
74.15771484375
79.65087890625
81.48193359375
85.14404296875
89.7216796875
100.7080078125
99.79248046875
101.62353515625
102.5390625
96.13037109375
104.3701171875
116.27197265625
123.59619140625
123.59619140625
126.3427734375
133.6669921875
140.9912109375
142.822265625
149.23095703125
162.04833984375
170.2880859375
171.20361328125
180.35888671875
183.10546875
192.2607421875
201.416015625
210.5712890625
220.64208984375
224.30419921875
238.95263671875
249.93896484375
258.1787109375
269.1650390625
269.1650390625
278.3203125
289.306640625
305.7861328125
304.87060546875
317.68798828125
325.927734375
334.16748046875
350.64697265625
357.97119140625
361.63330078125
368.95751953125
372.61962890625
373.53515625
375.3662109375
393.6767578125
399.169921875
403.74755859375
403.74755859375
407.40966796875
412.90283203125
413.818359375
406.494140625
401.0009765625
398.25439453125
394.59228515625
386.3525390625
374.45068359375
360.7177734375
349.7314453125
329.58984375
311.279296875
291.1376953125
270.99609375
239.8681640625
225.2197265625
212.40234375
191.34521484375
174.86572265625
155.6396484375
139.16015625
122.6806640625
95.21484375
73.2421875
61.34033203125
42.1142578125
33.87451171875
28.38134765625
21.97265625
5.4931640625
-7.32421875
-13.73291015625
-28.38134765625
-33.87451171875
-45.7763671875
-49.4384765625
-52.18505859375
-47.607421875
-46.69189453125
-45.7763671875
-51.26953125
-59.50927734375
-65.00244140625
-70.49560546875
-81.48193359375
-79.65087890625
-75.0732421875
-69.580078125
-70.49560546875
-68.66455078125
-70.49560546875
-77.81982421875
-74.15771484375
-75.0732421875
-75.0732421875
-70.49560546875
-77.81982421875
-66.83349609375
-66.83349609375
-74.15771484375
-77.81982421875
-71.4111328125
-77.81982421875
-82.3974609375
-78.7353515625
-80.56640625
-75.98876953125
-70.49560546875
-66.83349609375
-68.66455078125
-68.66455078125
-69.580078125
-68.66455078125
-65.00244140625
-75.0732421875
-75.98876953125
-71.4111328125
-69.580078125
-71.4111328125
-65.00244140625
-68.66455078125
-64.0869140625
-57.67822265625
-71.4111328125
-77.81982421875
-72.32666015625
-68.66455078125
-65.91796875
-65.00244140625
-60.4248046875
-62.255859375
-65.91796875
-69.580078125
-74.15771484375
-80.56640625
-68.66455078125
-69.580078125
-68.66455078125
-62.255859375
-62.255859375
-66.83349609375
-76.904296875
-70.49560546875
-68.66455078125
-73.2421875
-83.31298828125
-75.98876953125
-76.904296875
-69.580078125
-65.00244140625
-69.580078125
-76.904296875
-69.580078125
-72.32666015625
-78.7353515625
-79.65087890625
-75.0732421875
-78.7353515625
-74.15771484375
-68.66455078125
-69.580078125
-74.15771484375
-82.3974609375
-85.14404296875
-83.31298828125
-86.97509765625
-75.0732421875
-74.15771484375
-81.48193359375
-85.14404296875
-79.65087890625
-88.80615234375
-86.97509765625
-93.3837890625
-94.29931640625
-93.3837890625
-90.63720703125
-85.14404296875
-79.65087890625
-86.97509765625
-92.46826171875
-88.80615234375
-87.890625
-86.97509765625
-94.29931640625
-93.3837890625
-90.63720703125
-83.31298828125
-80.56640625
-91.552734375
-90.63720703125
-88.80615234375
-89.7216796875
-96.13037109375
-98.876953125
-98.876953125
-91.552734375
-92.46826171875
-87.890625
-86.97509765625
-87.890625
-87.890625
-82.3974609375
-97.96142578125
-102.5390625
-100.7080078125
-97.0458984375
-92.46826171875
-97.0458984375
-89.7216796875
-89.7216796875
-96.13037109375
-96.13037109375
-97.96142578125
-101.62353515625
-100.7080078125
-99.79248046875
-88.80615234375
-85.14404296875
-92.46826171875
-97.0458984375
-97.0458984375
-98.876953125
-94.29931640625
-100.7080078125
-97.0458984375
-95.21484375
-93.3837890625
-100.7080078125
-92.46826171875
-88.80615234375
-104.3701171875
-105.28564453125
-92.46826171875
-104.3701171875
-106.201171875
-100.7080078125
-92.46826171875
-79.65087890625
-81.48193359375
-88.80615234375
-89.7216796875
-91.552734375
-80.56640625
-80.56640625
-77.81982421875
-73.2421875
-61.34033203125
-52.18505859375
-49.4384765625
-51.26953125
-54.01611328125
-53.1005859375
-60.4248046875
-60.4248046875
-33.87451171875
-21.05712890625
-16.4794921875
-17.39501953125
-12.8173828125
-10.986328125
-11.90185546875
-5.4931640625
-2.74658203125
-0.91552734375
-2.74658203125
2.74658203125
7.32421875
12.8173828125
7.32421875
12.8173828125
6.40869140625
-9.1552734375
-14.6484375
-29.296875
-48.52294921875
-51.26953125
-46.69189453125
-50.35400390625
-52.18505859375
-59.50927734375
-64.0869140625
-74.15771484375
-80.56640625
-95.21484375
-97.96142578125
-103.45458984375
-108.94775390625
-101.62353515625
-105.28564453125
-101.62353515625
-101.62353515625
-100.7080078125
-105.28564453125
-119.93408203125
-117.1875
-113.525390625
-116.27197265625
-115.3564453125
-113.525390625
-115.3564453125
-114.44091796875
-117.1875
-119.0185546875
-121.76513671875
-113.525390625
-112.60986328125
-111.6943359375
-112.60986328125
-115.3564453125
-107.11669921875
-112.60986328125
-121.76513671875
-123.59619140625
-119.0185546875
-110.77880859375
-115.3564453125
-119.0185546875
-115.3564453125
-115.3564453125
-115.3564453125
-108.94775390625
-115.3564453125
-125.42724609375
-122.6806640625
-111.6943359375
-92.46826171875
-69.580078125
-39.36767578125
-33.87451171875
-2.74658203125
57.67822265625
117.1875
188.5986328125
307.6171875
462.34130859375
582.275390625
698.54736328125
807.4951171875
887.14599609375
936.58447265625
912.78076171875
808.41064453125
631.7138671875
402.83203125
142.822265625
-98.876953125
-229.79736328125
-290.22216796875
-351.5625
-404.6630859375
-409.24072265625
-405.57861328125
-387.26806640625
-358.88671875
-311.279296875
-268.24951171875
-226.13525390625
-181.2744140625
-140.9912109375
-122.6806640625
-99.79248046875
-75.0732421875
-62.255859375
-54.931640625
-43.02978515625
-37.53662109375
-29.296875
-20.1416015625
-26.55029296875
-32.958984375
-34.7900390625
-31.1279296875
-27.4658203125
-31.1279296875
-29.296875
-25.634765625
-12.8173828125
-12.8173828125
-13.73291015625
-12.8173828125
-8.23974609375
-4.57763671875
-12.8173828125
-17.39501953125
-0.91552734375
0
-3.662109375
2.74658203125
5.4931640625
6.40869140625
13.73291015625
11.90185546875
8.23974609375
6.40869140625
18.310546875
24.71923828125
27.4658203125
25.634765625
21.97265625
26.55029296875
33.87451171875
34.7900390625
29.296875
26.55029296875
35.70556640625
49.4384765625
50.35400390625
52.18505859375
53.1005859375
54.01611328125
59.50927734375
64.0869140625
65.91796875
61.34033203125
66.83349609375
72.32666015625
74.15771484375
85.14404296875
95.21484375
99.79248046875
94.29931640625
102.5390625
109.86328125
109.86328125
110.77880859375
116.27197265625
131.8359375
139.16015625
149.23095703125
150.146484375
146.484375
148.3154296875
154.72412109375
163.87939453125
172.119140625
179.443359375
192.2607421875
202.33154296875
205.078125
217.8955078125
234.375
240.78369140625
238.037109375
243.5302734375
258.1787109375
272.8271484375
284.72900390625
297.54638671875
302.1240234375
319.51904296875
323.18115234375
328.67431640625
334.16748046875
331.4208984375
340.576171875
353.3935546875
360.7177734375
377.197265625
383.60595703125
387.26806640625
379.94384765625
386.3525390625
391.845703125
388.18359375
390.93017578125
393.6767578125
396.42333984375
390.93017578125
393.6767578125
375.3662109375
362.548828125
354.30908203125
338.7451171875
315.85693359375
297.54638671875
285.64453125
274.658203125
253.60107421875
227.05078125
212.40234375
191.34521484375
162.9638671875
139.16015625
122.6806640625
105.28564453125
84.228515625
72.32666015625
58.59375
40.283203125
28.38134765625
12.8173828125
2.74658203125
-17.39501953125
-30.21240234375
-31.1279296875
-33.87451171875
-36.62109375
-51.26953125
-56.7626953125
-57.67822265625
-64.0869140625
-79.65087890625
-81.48193359375
-79.65087890625
-80.56640625
-71.4111328125
-74.15771484375
-74.15771484375
-82.3974609375
-74.15771484375
-78.7353515625
-81.48193359375
-84.228515625
-91.552734375
-98.876953125
-93.3837890625
-86.97509765625
-86.97509765625
-86.97509765625
-86.97509765625
-80.56640625
-85.14404296875
-97.0458984375
-96.13037109375
-93.3837890625
-93.3837890625
-92.46826171875
-84.228515625
-80.56640625
-79.65087890625
-92.46826171875
-91.552734375
-83.31298828125
-94.29931640625
-91.552734375
-94.29931640625
-86.97509765625
-76.904296875
-85.14404296875
-79.65087890625
-80.56640625
-86.0595703125
-85.14404296875
-91.552734375
-84.228515625
-79.65087890625
-81.48193359375
-75.0732421875
-75.98876953125
-82.3974609375
-74.15771484375
-80.56640625
-88.80615234375
-86.97509765625
-83.31298828125
-79.65087890625
-69.580078125
-74.15771484375
-79.65087890625
-81.48193359375
-82.3974609375
-80.56640625
-84.228515625
-85.14404296875
-87.890625
-81.48193359375
-87.890625
-72.32666015625
-74.15771484375
-73.2421875
-70.49560546875
-75.98876953125
-81.48193359375
-82.3974609375
-82.3974609375
-78.7353515625
-85.14404296875
-86.97509765625
-91.552734375
-89.7216796875
-89.7216796875
-88.80615234375
-86.0595703125
-87.890625
-92.46826171875
-93.3837890625
-83.31298828125
-83.31298828125
-79.65087890625
-91.552734375
-97.96142578125
-97.96142578125
-97.0458984375
-101.62353515625
-95.21484375
-94.29931640625
-97.96142578125
-94.29931640625
-91.552734375
-89.7216796875
-93.3837890625
-99.79248046875
-102.5390625
-102.5390625
-102.5390625
-103.45458984375
-97.96142578125
-97.96142578125
-95.21484375
-106.201171875
-108.94775390625
-105.28564453125
-102.5390625
-112.60986328125
-105.28564453125
-105.28564453125
-108.0322265625
-99.79248046875
-99.79248046875
-106.201171875
-106.201171875
-101.62353515625
-106.201171875
-112.60986328125
-106.201171875
-104.3701171875
-97.96142578125
-99.79248046875
-105.28564453125
-104.3701171875
-98.876953125
-105.28564453125
-106.201171875
-105.28564453125
-113.525390625
-102.5390625
-105.28564453125
-106.201171875
-105.28564453125
-98.876953125
-102.5390625
-114.44091796875
-109.86328125
-107.11669921875
-108.0322265625
-110.77880859375
-104.3701171875
-98.876953125
-96.13037109375
-100.7080078125
-106.201171875
-108.94775390625
-111.6943359375
-115.3564453125
-111.6943359375
-108.94775390625
-108.94775390625
-102.5390625
-106.201171875
-104.3701171875
-105.28564453125
-108.0322265625
-103.45458984375
-108.94775390625
-109.86328125
-108.0322265625
-106.201171875
-104.3701171875
-97.0458984375
-101.62353515625
-110.77880859375
-107.11669921875
-108.0322265625
-115.3564453125
-117.1875
-108.94775390625
-103.45458984375
-100.7080078125
-98.876953125
-97.0458984375
-90.63720703125
-97.96142578125
-110.77880859375
-115.3564453125
-113.525390625
-111.6943359375
-106.201171875
-101.62353515625
-100.7080078125
-97.0458984375
-87.890625
-83.31298828125
-87.890625
-84.228515625
-84.228515625
-69.580078125
-56.7626953125
-63.17138671875
-61.34033203125
-54.931640625
-56.7626953125
-67.7490234375
-72.32666015625
-63.17138671875
-50.35400390625
-33.87451171875
-23.8037109375
-21.97265625
-21.97265625
-20.1416015625
-13.73291015625
-7.32421875
-7.32421875
-8.23974609375
-14.6484375
-7.32421875
-2.74658203125
-0.91552734375
-6.40869140625
-4.57763671875
-19.22607421875
-27.4658203125
-39.36767578125
-58.59375
-62.255859375
-54.931640625
-58.59375
-65.91796875
-71.4111328125
-73.2421875
-82.3974609375
-84.228515625
-90.63720703125
-101.62353515625
-108.0322265625
-98.876953125
-99.79248046875
-105.28564453125
-107.11669921875
-107.11669921875
-108.94775390625
-116.27197265625
-119.0185546875
-121.76513671875
-127.25830078125
-128.173828125
-119.93408203125
-115.3564453125
-113.525390625
-123.59619140625
-129.08935546875
-119.93408203125
-120.849609375
-130.92041015625
-118.10302734375
-119.0185546875
-121.76513671875
-117.1875
-113.525390625
-116.27197265625
-116.27197265625
-126.3427734375
-125.42724609375
-122.6806640625
-122.6806640625
-120.849609375
-119.93408203125
-113.525390625
-112.60986328125
-113.525390625
-120.849609375
-124.51171875
-124.51171875
-120.849609375
-107.11669921875
-93.3837890625
-65.91796875
-36.62109375
-21.97265625
-9.1552734375
56.7626953125
125.42724609375
208.740234375
329.58984375
477.9052734375
600.5859375
716.85791015625
822.1435546875
908.203125
940.24658203125
893.5546875
768.12744140625
584.1064453125
335.99853515625
77.81982421875
-151.06201171875
-269.1650390625
-324.0966796875
-386.3525390625
-420.22705078125
-424.8046875
-407.40966796875
-382.6904296875
-354.30908203125
-314.94140625
-252.685546875
-205.99365234375
-168.45703125
-140.9912109375
-123.59619140625
-97.96142578125
-80.56640625
-63.17138671875
-48.52294921875
-46.69189453125
-44.86083984375
-40.283203125
-28.38134765625
-29.296875
-33.87451171875
-34.7900390625
-33.87451171875
-38.4521484375
-32.958984375
-28.38134765625
-24.71923828125
-23.8037109375
-21.05712890625
-13.73291015625
-10.07080078125
-17.39501953125
-22.88818359375
-21.05712890625
-14.6484375
-11.90185546875
-5.4931640625
-2.74658203125
0
0.91552734375
1.8310546875
-0.91552734375
7.32421875
8.23974609375
9.1552734375
10.986328125
11.90185546875
14.6484375
19.22607421875
21.97265625
21.05712890625
32.04345703125
34.7900390625
23.8037109375
23.8037109375
27.4658203125
42.1142578125
43.02978515625
52.18505859375
51.26953125
54.01611328125
48.52294921875
59.50927734375
59.50927734375
63.17138671875
69.580078125
74.15771484375
74.15771484375
72.32666015625
83.31298828125
87.890625
97.96142578125
96.13037109375
86.97509765625
98.876953125
98.876953125
114.44091796875
125.42724609375
131.8359375
140.9912109375
140.07568359375
139.16015625
147.39990234375
152.89306640625
156.55517578125
174.86572265625
178.52783203125
197.75390625
201.416015625
215.14892578125
209.65576171875
213.31787109375
233.45947265625
241.69921875
249.93896484375
250.8544921875
255.43212890625
274.658203125
292.05322265625
300.29296875
309.4482421875
313.1103515625
316.7724609375
323.18115234375
324.0966796875
330.50537109375
350.64697265625
355.224609375
362.548828125
383.60595703125
377.197265625
378.11279296875
383.60595703125
385.43701171875
379.0283203125
383.60595703125
385.43701171875
381.77490234375
389.09912109375
394.59228515625
394.59228515625
374.45068359375
356.14013671875
343.32275390625
324.0966796875
298.4619140625
290.22216796875
278.3203125
258.1787109375
236.2060546875
217.8955078125
195.9228515625
172.119140625
147.39990234375
128.173828125
108.0322265625
94.29931640625
79.65087890625
63.17138671875
53.1005859375
29.296875
19.22607421875
-5.4931640625
-10.07080078125
-17.39501953125
-24.71923828125
-23.8037109375
-39.36767578125
-47.607421875
-50.35400390625
-54.931640625
-67.7490234375
-75.0732421875
-79.65087890625
-66.83349609375
-77.81982421875
-90.63720703125
-85.14404296875
-79.65087890625
-78.7353515625
-78.7353515625
-91.552734375
-98.876953125
-90.63720703125
-100.7080078125
-97.0458984375
-97.0458984375
-87.890625
-78.7353515625
-80.56640625
-93.3837890625
-94.29931640625
-88.80615234375
-96.13037109375
-99.79248046875
-98.876953125
-93.3837890625
-90.63720703125
-86.0595703125
-80.56640625
-90.63720703125
-93.3837890625
-87.890625
-86.0595703125
-89.7216796875
-88.80615234375
-90.63720703125
-88.80615234375
-82.3974609375
-84.228515625
-76.904296875
-84.228515625
-86.97509765625
-86.97509765625
-88.80615234375
-94.29931640625
-86.97509765625
-79.65087890625
-80.56640625
-88.80615234375
-77.81982421875
-80.56640625
-79.65087890625
-80.56640625
-91.552734375
-86.0595703125
-87.890625
-83.31298828125
-74.15771484375
-85.14404296875
-86.0595703125
-79.65087890625
-74.15771484375
-80.56640625
-85.14404296875
-90.63720703125
-82.3974609375
-84.228515625
-80.56640625
-79.65087890625
-86.0595703125
-84.228515625
-86.0595703125
-96.13037109375
-91.552734375
-94.29931640625
-86.0595703125
-77.81982421875
-76.904296875
-81.48193359375
-88.80615234375
-90.63720703125
-81.48193359375
-89.7216796875
-105.28564453125
-96.13037109375
-95.21484375
-93.3837890625
-92.46826171875
-87.890625
-93.3837890625
-93.3837890625
-94.29931640625
-97.0458984375
-98.876953125
-97.0458984375
-95.21484375
-101.62353515625
-106.201171875
-101.62353515625
-97.0458984375
-99.79248046875
-97.0458984375
-90.63720703125
-100.7080078125
-99.79248046875
-97.96142578125
-102.5390625
-97.96142578125
-102.5390625
-104.3701171875
-100.7080078125
-100.7080078125
-107.11669921875
-107.11669921875
-104.3701171875
-107.11669921875
-109.86328125
-99.79248046875
-96.13037109375
-104.3701171875
-107.11669921875
-108.0322265625
-102.5390625
-106.201171875
-109.86328125
-109.86328125
-102.5390625
-96.13037109375
-99.79248046875
-97.96142578125
-97.96142578125
-103.45458984375
-108.94775390625
-109.86328125
-113.525390625
-116.27197265625
-112.60986328125
-107.11669921875
-100.7080078125
-109.86328125
-104.3701171875
-108.0322265625
-103.45458984375
-108.0322265625
-107.11669921875
-100.7080078125
-103.45458984375
-90.63720703125
-102.5390625
-103.45458984375
-102.5390625
-108.0322265625
-111.6943359375
-115.3564453125
-117.1875
-108.0322265625
-97.96142578125
-96.13037109375
-112.60986328125
-106.201171875
-103.45458984375
-91.552734375
-104.3701171875
-109.86328125
-107.11669921875
-113.525390625
-108.94775390625
-109.86328125
-103.45458984375
-100.7080078125
-104.3701171875
-104.3701171875
-109.86328125
-106.201171875
-108.0322265625
-97.0458984375
-84.228515625
-85.14404296875
-80.56640625
-78.7353515625
-81.48193359375
-78.7353515625
-69.580078125
-65.91796875
-65.91796875
-71.4111328125
-65.91796875
-53.1005859375
-54.931640625
-56.7626953125
-41.19873046875
-29.296875
-32.04345703125
-32.958984375
-26.55029296875
-21.97265625
-10.986328125
0.91552734375
-0.91552734375
-5.4931640625
-8.23974609375
-17.39501953125
-12.8173828125
-3.662109375
-3.662109375
-8.23974609375
-15.56396484375
-20.1416015625
-40.283203125
-49.4384765625
-56.7626953125
-54.01611328125
-59.50927734375
-61.34033203125
-75.0732421875
-73.2421875
-67.7490234375
-79.65087890625
-85.14404296875
-89.7216796875
-102.5390625
-106.201171875
-106.201171875
-108.0322265625
-112.60986328125
-117.1875
-114.44091796875
-106.201171875
-110.77880859375
-113.525390625
-117.1875
-112.60986328125
-112.60986328125
-108.0322265625
-111.6943359375
-127.25830078125
-118.10302734375
-110.77880859375
-117.1875
-114.44091796875
-112.60986328125
-110.77880859375
-118.10302734375
-122.6806640625
-117.1875
-114.44091796875
-113.525390625
-108.94775390625
-111.6943359375
-111.6943359375
-111.6943359375
-112.60986328125
-117.1875
-125.42724609375
-124.51171875
-118.10302734375
-118.10302734375
-119.0185546875
-117.1875
-109.86328125
-109.86328125
-93.3837890625
-75.0732421875
-62.255859375
-43.02978515625
-22.88818359375
32.958984375
106.201171875
191.34521484375
306.70166015625
441.2841796875
579.52880859375
693.05419921875
803.8330078125
888.97705078125
916.44287109375
910.94970703125
822.1435546875
659.1796875
444.9462890625
188.5986328125
-58.59375
-195.9228515625
-246.27685546875
-312.19482421875
-363.46435546875
-360.7177734375
-362.548828125
-353.3935546875
-333.251953125
-292.96875
-268.24951171875
-241.69921875
-195.9228515625
-158.38623046875
-131.8359375
-103.45458984375
-82.3974609375
-61.34033203125
-47.607421875
-40.283203125
-36.62109375
-31.1279296875
-32.958984375
-30.21240234375
-32.04345703125
-28.38134765625
-23.8037109375
-18.310546875
-14.6484375
-15.56396484375
-20.1416015625
-18.310546875
-12.8173828125
-13.73291015625
-10.07080078125
-9.1552734375
1.8310546875
2.74658203125
10.07080078125
13.73291015625
-1.8310546875
-13.73291015625
1.8310546875
6.40869140625
10.986328125
9.1552734375
19.22607421875
23.8037109375
24.71923828125
25.634765625
25.634765625
30.21240234375
28.38134765625
27.4658203125
31.1279296875
40.283203125
44.86083984375
42.1142578125
50.35400390625
49.4384765625
50.35400390625
57.67822265625
57.67822265625
55.84716796875
70.49560546875
72.32666015625
69.580078125
76.904296875
85.14404296875
85.14404296875
87.890625
79.65087890625
79.65087890625
96.13037109375
105.28564453125
102.5390625
110.77880859375
122.6806640625
120.849609375
121.76513671875
124.51171875
121.76513671875
135.498046875
146.484375
150.146484375
162.04833984375
178.52783203125
180.35888671875
177.6123046875
183.10546875
185.85205078125
194.091796875
205.078125
211.48681640625
221.5576171875
238.95263671875
247.1923828125
255.43212890625
265.5029296875
273.74267578125
280.1513671875
295.71533203125
305.7861328125
311.279296875
318.603515625
334.16748046875
344.23828125
348.81591796875
357.0556640625
360.7177734375
367.12646484375
375.3662109375
372.61962890625
372.61962890625
383.60595703125
394.59228515625
400.08544921875
403.74755859375
408.3251953125
403.74755859375
395.5078125
399.169921875
395.5078125
386.3525390625
385.43701171875
377.197265625
367.12646484375
351.5625
330.50537109375
315.85693359375
295.71533203125
276.4892578125
255.43212890625
229.79736328125
205.99365234375
196.83837890625
180.35888671875
156.55517578125
132.75146484375
110.77880859375
100.7080078125
85.14404296875
65.91796875
43.02978515625
37.53662109375
28.38134765625
14.6484375
3.662109375
-10.07080078125
-23.8037109375
-23.8037109375
-33.87451171875
-43.02978515625
-50.35400390625
-54.931640625
-58.59375
-56.7626953125
-57.67822265625
-56.7626953125
-57.67822265625
-70.49560546875
-72.32666015625
-75.0732421875
-79.65087890625
-84.228515625
-83.31298828125
-75.98876953125
-67.7490234375
-77.81982421875
-80.56640625
-81.48193359375
-79.65087890625
-75.98876953125
-82.3974609375
-75.98876953125
-73.2421875
-72.32666015625
-75.98876953125
-75.98876953125
-87.890625
-81.48193359375
-81.48193359375
-76.904296875
-84.228515625
-85.14404296875
-83.31298828125
-78.7353515625
-74.15771484375
-75.0732421875
-78.7353515625
-76.904296875
-78.7353515625
-75.98876953125
-74.15771484375
-74.15771484375
-76.904296875
-71.4111328125
-75.0732421875
-72.32666015625
-69.580078125
-65.00244140625
-78.7353515625
-83.31298828125
-87.890625
-79.65087890625
-66.83349609375
-64.0869140625
-71.4111328125
-72.32666015625
-74.15771484375
-80.56640625
-76.904296875
-83.31298828125
-78.7353515625
-67.7490234375
-75.98876953125
-74.15771484375
-75.0732421875
-79.65087890625
-75.0732421875
-72.32666015625
-75.0732421875
-86.97509765625
-88.80615234375
-81.48193359375
-72.32666015625
-75.98876953125
-75.0732421875
-75.98876953125
-81.48193359375
-78.7353515625
-83.31298828125
-84.228515625
-84.228515625
-84.228515625
-86.97509765625
-81.48193359375
-80.56640625
-82.3974609375
-85.14404296875
-81.48193359375
-85.14404296875
-99.79248046875
-92.46826171875
-88.80615234375
-87.890625
-85.14404296875
-83.31298828125
-88.80615234375
-93.3837890625
-86.0595703125
-87.890625
-97.96142578125
-100.7080078125
-98.876953125
-94.29931640625
-97.0458984375
-93.3837890625
-104.3701171875
-96.13037109375
-98.876953125
-103.45458984375
-99.79248046875
-103.45458984375
-97.0458984375
-97.0458984375
-88.80615234375
-93.3837890625
-93.3837890625
-93.3837890625
-96.13037109375
-97.96142578125
-103.45458984375
-106.201171875
-102.5390625
-95.21484375
-91.552734375
-94.29931640625
-97.0458984375
-100.7080078125
-103.45458984375
-102.5390625
-100.7080078125
-105.28564453125
-102.5390625
-98.876953125
-91.552734375
-97.0458984375
-99.79248046875
-97.0458984375
-104.3701171875
-103.45458984375
-101.62353515625
-106.201171875
-104.3701171875
-99.79248046875
-97.96142578125
-92.46826171875
-98.876953125
-97.96142578125
-104.3701171875
-103.45458984375
-104.3701171875
-100.7080078125
-109.86328125
-108.94775390625
-98.876953125
-90.63720703125
-99.79248046875
-110.77880859375
-106.201171875
-108.94775390625
-112.60986328125
-105.28564453125
-107.11669921875
-101.62353515625
-103.45458984375
-92.46826171875
-97.96142578125
-95.21484375
-100.7080078125
-98.876953125
-100.7080078125
-108.94775390625
-98.876953125
-101.62353515625
-101.62353515625
-101.62353515625
-97.96142578125
-102.5390625
-104.3701171875
-92.46826171875
-95.21484375
-101.62353515625
-100.7080078125
-89.7216796875
-82.3974609375
-69.580078125
-77.81982421875
-68.66455078125
-66.83349609375
-64.0869140625
-66.83349609375
-58.59375
-55.84716796875
-54.01611328125
-53.1005859375
-43.9453125
-43.02978515625
-31.1279296875
-27.4658203125
-25.634765625
-32.04345703125
-18.310546875
-11.90185546875
-1.8310546875
-1.8310546875
-5.4931640625
-7.32421875
-9.1552734375
0.91552734375
-0.91552734375
-4.57763671875
0
-6.40869140625
-10.07080078125
-21.97265625
-32.958984375
-38.4521484375
-40.283203125
-43.9453125
-58.59375
-75.0732421875
-87.890625
-74.15771484375
-77.81982421875
-84.228515625
-92.46826171875
-89.7216796875
-105.28564453125
-104.3701171875
-110.77880859375
-110.77880859375
-119.0185546875
-110.77880859375
-111.6943359375
-105.28564453125
-111.6943359375
-114.44091796875
-112.60986328125
-112.60986328125
-108.94775390625
-114.44091796875
-119.0185546875
-121.76513671875
-110.77880859375
-114.44091796875
-113.525390625
-107.11669921875
-117.1875
-125.42724609375
-116.27197265625
-119.0185546875
-126.3427734375
-121.76513671875
-115.3564453125
-115.3564453125
-114.44091796875
-105.28564453125
-112.60986328125
-123.59619140625
-122.6806640625
-114.44091796875
-119.93408203125
-127.25830078125
-117.1875
-116.27197265625
-114.44091796875
-108.0322265625
-86.0595703125
-66.83349609375
-45.7763671875
-29.296875
-13.73291015625
53.1005859375
124.51171875
201.416015625
323.18115234375
465.087890625
590.51513671875
701.2939453125
799.25537109375
887.14599609375
934.75341796875
909.11865234375
800.1708984375
625.30517578125
399.169921875
135.498046875
-110.77880859375
-232.5439453125
-294.7998046875
-371.7041015625
-412.90283203125
-411.9873046875
-411.07177734375
-384.521484375
-342.4072265625
-307.6171875
-267.333984375
-227.05078125
-185.85205078125
-151.9775390625
-118.10302734375
-99.79248046875
-81.48193359375
-55.84716796875
-42.1142578125
-34.7900390625
-38.4521484375
-42.1142578125
-36.62109375
-36.62109375
-32.04345703125
-32.958984375
-30.21240234375
-26.55029296875
-21.05712890625
-21.05712890625
-24.71923828125
-25.634765625
-20.1416015625
-22.88818359375
-19.22607421875
-20.1416015625
-17.39501953125
-3.662109375
-3.662109375
-1.8310546875
0.91552734375
-0.91552734375
0
-5.4931640625
-4.57763671875
0
5.4931640625
11.90185546875
15.56396484375
10.986328125
21.97265625
21.97265625
20.1416015625
11.90185546875
19.22607421875
25.634765625
32.958984375
32.04345703125
34.7900390625
43.9453125
40.283203125
43.02978515625
44.86083984375
43.02978515625
52.18505859375
55.84716796875
59.50927734375
67.7490234375
73.2421875
75.98876953125
75.98876953125
79.65087890625
85.14404296875
84.228515625
83.31298828125
88.80615234375
92.46826171875
103.45458984375
108.94775390625
109.86328125
120.849609375
127.25830078125
122.6806640625
130.92041015625
140.9912109375
152.89306640625
160.21728515625
162.9638671875
167.54150390625
172.119140625
188.5986328125
191.34521484375
199.5849609375
212.40234375
214.2333984375
219.7265625
237.12158203125
246.27685546875
254.5166015625
268.24951171875
272.8271484375
277.40478515625
289.306640625
291.1376953125
292.96875
311.279296875
325.927734375
335.0830078125
341.49169921875
346.98486328125
356.14013671875
362.548828125
364.3798828125
368.95751953125
374.45068359375
376.28173828125
375.3662109375
383.60595703125
389.09912109375
396.42333984375
396.42333984375
386.3525390625
387.26806640625
381.77490234375
367.12646484375
358.88671875
359.80224609375
351.5625
338.7451171875
317.68798828125
294.7998046875
278.3203125
257.26318359375
224.30419921875
202.33154296875
190.4296875
183.10546875
154.72412109375
134.58251953125
119.0185546875
104.3701171875
76.904296875
57.67822265625
43.9453125
32.04345703125
25.634765625
10.986328125
-4.57763671875
-8.23974609375
-19.22607421875
-30.21240234375
-38.4521484375
-45.7763671875
-45.7763671875
-47.607421875
-65.91796875
-64.0869140625
-62.255859375
-65.91796875
-70.49560546875
-76.904296875
-74.15771484375
-76.904296875
-87.890625
-86.0595703125
-82.3974609375
-75.98876953125
-72.32666015625
-81.48193359375
-92.46826171875
-87.890625
-86.97509765625
-87.890625
-90.63720703125
-87.890625
-92.46826171875
-83.31298828125
-76.904296875
-77.81982421875
-90.63720703125
-86.97509765625
-82.3974609375
-88.80615234375
-87.890625
-85.14404296875
-78.7353515625
-76.904296875
-83.31298828125
-79.65087890625
-81.48193359375
-83.31298828125
-78.7353515625
-75.0732421875
-82.3974609375
-86.0595703125
-74.15771484375
-73.2421875
-67.7490234375
-73.2421875
-77.81982421875
-74.15771484375
-76.904296875
-75.0732421875
-75.98876953125
-77.81982421875
-79.65087890625
-75.0732421875
-68.66455078125
-71.4111328125
-75.0732421875
-68.66455078125
-74.15771484375
-70.49560546875
-77.81982421875
-81.48193359375
-72.32666015625
-86.97509765625
-81.48193359375
-75.0732421875
-70.49560546875
-69.580078125
-81.48193359375
-81.48193359375
-83.31298828125
-85.14404296875
-80.56640625
-68.66455078125
-75.98876953125
-71.4111328125
-69.580078125
-81.48193359375
-88.80615234375
-84.228515625
-86.0595703125
-89.7216796875
-85.14404296875
-80.56640625
-75.0732421875
-83.31298828125
-82.3974609375
-81.48193359375
-82.3974609375
-81.48193359375
-88.80615234375
-84.228515625
-86.0595703125
-93.3837890625
-84.228515625
-89.7216796875
-90.63720703125
-90.63720703125
-86.0595703125
-89.7216796875
-95.21484375
-103.45458984375
-101.62353515625
-98.876953125
-86.0595703125
-80.56640625
-86.97509765625
-94.29931640625
-104.3701171875
-101.62353515625
-99.79248046875
-97.0458984375
-97.96142578125
-97.96142578125
-94.29931640625
-93.3837890625
-100.7080078125
-98.876953125
-98.876953125
-95.21484375
-96.13037109375
-98.876953125
-96.13037109375
-97.0458984375
-96.13037109375
-92.46826171875
-95.21484375
-93.3837890625
-97.96142578125
-107.11669921875
-106.201171875
-101.62353515625
-102.5390625
-97.96142578125
-90.63720703125
-89.7216796875
-100.7080078125
-100.7080078125
-98.876953125
-101.62353515625
-102.5390625
-101.62353515625
-101.62353515625
-97.0458984375
-93.3837890625
-93.3837890625
-92.46826171875
-97.96142578125
-101.62353515625
-97.96142578125
-97.96142578125
-104.3701171875
-104.3701171875
-109.86328125
-103.45458984375
-92.46826171875
-94.29931640625
-103.45458984375
-98.876953125
-98.876953125
-105.28564453125
-109.86328125
-103.45458984375
-92.46826171875
-91.552734375
-88.80615234375
-98.876953125
-97.96142578125
-101.62353515625
-100.7080078125
-96.13037109375
-103.45458984375
-98.876953125
-103.45458984375
-101.62353515625
-95.21484375
-91.552734375
-95.21484375
-104.3701171875
-103.45458984375
-101.62353515625
-98.876953125
-101.62353515625
-97.96142578125
-97.96142578125
-94.29931640625
-97.0458984375
-98.876953125
-99.79248046875
-98.876953125
-98.876953125
-106.201171875
-103.45458984375
-98.876953125
-97.96142578125
-97.0458984375
-99.79248046875
-96.13037109375
-92.46826171875
-94.29931640625
-108.0322265625
-108.94775390625
-101.62353515625
-93.3837890625
-90.63720703125
-87.890625
-90.63720703125
-90.63720703125
-82.3974609375
-80.56640625
-77.81982421875
-76.904296875
-74.15771484375
-60.4248046875
-55.84716796875
-51.26953125
-53.1005859375
-54.931640625
-60.4248046875
-54.01611328125
-52.18505859375
-49.4384765625
-32.958984375
-28.38134765625
-25.634765625
-23.8037109375
-12.8173828125
-7.32421875
-2.74658203125
-2.74658203125
-2.74658203125
-5.4931640625
-7.32421875
-2.74658203125
2.74658203125
4.57763671875
0
0
-12.8173828125
-29.296875
-38.4521484375
-34.7900390625
-46.69189453125
-54.01611328125
-56.7626953125
-59.50927734375
-65.91796875
-64.0869140625
-75.0732421875
-86.97509765625
-88.80615234375
-101.62353515625
-97.0458984375
-91.552734375
-99.79248046875
-101.62353515625
-100.7080078125
-105.28564453125
-105.28564453125
-98.876953125
-104.3701171875
-110.77880859375
-117.1875
-109.86328125
-110.77880859375
-112.60986328125
-114.44091796875
-110.77880859375
-111.6943359375
-118.10302734375
-121.76513671875
-111.6943359375
-115.3564453125
-115.3564453125
-111.6943359375
-100.7080078125
-97.0458984375
-103.45458984375
-115.3564453125
-115.3564453125
-109.86328125
-110.77880859375
-106.201171875
-114.44091796875
-108.0322265625
-110.77880859375
-110.77880859375
-108.94775390625
-113.525390625
-117.1875
-116.27197265625
-108.0322265625
-101.62353515625
-82.3974609375
-54.01611328125
-32.958984375
-20.1416015625
22.88818359375
83.31298828125
142.822265625
247.1923828125
383.60595703125
525.5126953125
646.3623046875
762.63427734375
859.68017578125
945.73974609375
965.88134765625
899.96337890625
746.15478515625
531.005859375
281.06689453125
27.4658203125
-172.119140625
-266.41845703125
-331.4208984375
-398.25439453125
-407.40966796875
-405.57861328125
-401.0009765625
-362.548828125
-320.4345703125
-291.1376953125
-239.8681640625
-183.10546875
-148.3154296875
-120.849609375
-102.5390625
-75.0732421875
-64.0869140625
-49.4384765625
-43.9453125
-36.62109375
-29.296875
-27.4658203125
-20.1416015625
-22.88818359375
-22.88818359375
-16.4794921875
-25.634765625
-23.8037109375
-15.56396484375
-19.22607421875
-8.23974609375
-6.40869140625
-12.8173828125
-9.1552734375
-12.8173828125
-3.662109375
-11.90185546875
-10.07080078125
-10.07080078125
-3.662109375
-0.91552734375
15.56396484375
12.8173828125
11.90185546875
11.90185546875
17.39501953125
9.1552734375
17.39501953125
16.4794921875
19.22607421875
26.55029296875
31.1279296875
32.958984375
35.70556640625
38.4521484375
26.55029296875
34.7900390625
40.283203125
43.9453125
43.9453125
48.52294921875
54.01611328125
58.59375
65.00244140625
63.17138671875
62.255859375
65.00244140625
68.66455078125
69.580078125
77.81982421875
84.228515625
90.63720703125
93.3837890625
88.80615234375
96.13037109375
105.28564453125
108.0322265625
110.77880859375
120.849609375
114.44091796875
123.59619140625
132.75146484375
132.75146484375
137.3291015625
146.484375
150.146484375
160.21728515625
169.37255859375
180.35888671875
182.18994140625
183.10546875
195.9228515625
212.40234375
215.14892578125
228.8818359375
235.29052734375
239.8681640625
249.0234375
253.60107421875
264.58740234375
270.99609375
289.306640625
304.87060546875
306.70166015625
311.279296875
318.603515625
320.4345703125
330.50537109375
337.82958984375
342.4072265625
355.224609375
358.88671875
360.7177734375
377.197265625
391.845703125
390.0146484375
386.3525390625
390.0146484375
390.0146484375
388.18359375
400.08544921875
401.91650390625
400.08544921875
393.6767578125
392.76123046875
378.11279296875
364.3798828125
356.14013671875
342.4072265625
325.01220703125
315.85693359375
289.306640625
279.23583984375
260.92529296875
239.8681640625
219.7265625
194.091796875
163.87939453125
138.24462890625
120.849609375
107.11669921875
102.5390625
77.81982421875
51.26953125
41.19873046875
32.04345703125
10.986328125
0.91552734375
-6.40869140625
-13.73291015625
-21.05712890625
-21.97265625
-28.38134765625
-31.1279296875
-37.53662109375
-51.26953125
-57.67822265625
-54.01611328125
-63.17138671875
-68.66455078125
-66.83349609375
-65.91796875
-68.66455078125
-70.49560546875
-71.4111328125
-73.2421875
-75.0732421875
-79.65087890625
-73.2421875
-70.49560546875
-64.0869140625
-68.66455078125
-75.0732421875
-75.98876953125
-73.2421875
-79.65087890625
-75.0732421875
-79.65087890625
-81.48193359375
-79.65087890625
-77.81982421875
-73.2421875
-67.7490234375
-71.4111328125
-64.0869140625
-74.15771484375
-79.65087890625
-72.32666015625
-87.890625
-81.48193359375
-70.49560546875
-61.34033203125
-66.83349609375
-57.67822265625
-70.49560546875
-69.580078125
-70.49560546875
-64.0869140625
-72.32666015625
-77.81982421875
-74.15771484375
-75.0732421875
-66.83349609375
-69.580078125
-61.34033203125
-62.255859375
-65.00244140625
-67.7490234375
-69.580078125
-77.81982421875
-72.32666015625
-60.4248046875
-68.66455078125
-69.580078125
-63.17138671875
-66.83349609375
-62.255859375
-64.0869140625
-76.904296875
-75.98876953125
-75.0732421875
-59.50927734375
-67.7490234375
-69.580078125
-76.904296875
-74.15771484375
-66.83349609375
-67.7490234375
-67.7490234375
-67.7490234375
-73.2421875
-78.7353515625
-68.66455078125
-69.580078125
-75.0732421875
-76.904296875
-84.228515625
-77.81982421875
-82.3974609375
-76.904296875
-76.904296875
-77.81982421875
-82.3974609375
-77.81982421875
-78.7353515625
-85.14404296875
-80.56640625
-80.56640625
-85.14404296875
-84.228515625
-84.228515625
-71.4111328125
-82.3974609375
-82.3974609375
-84.228515625
-86.97509765625
-94.29931640625
-94.29931640625
-86.97509765625
-92.46826171875
-89.7216796875
-85.14404296875
-78.7353515625
-83.31298828125
-80.56640625
-91.552734375
-84.228515625
-79.65087890625
-88.80615234375
-91.552734375
-95.21484375
-86.97509765625
-91.552734375
-93.3837890625
-89.7216796875
-93.3837890625
-95.21484375
-97.96142578125
-102.5390625
-93.3837890625
-92.46826171875
-90.63720703125
-78.7353515625
-86.97509765625
-84.228515625
-92.46826171875
-97.96142578125
-93.3837890625
-101.62353515625
-95.21484375
-93.3837890625
-90.63720703125
-86.0595703125
-81.48193359375
-91.552734375
-96.13037109375
-92.46826171875
-97.0458984375
-95.21484375
-94.29931640625
-91.552734375
-96.13037109375
-92.46826171875
-83.31298828125
-93.3837890625
-90.63720703125
-91.552734375
-93.3837890625
-95.21484375
-95.21484375
-97.0458984375
-92.46826171875
-84.228515625
-89.7216796875
-91.552734375
-91.552734375
-83.31298828125
-87.890625
-95.21484375
-99.79248046875
-99.79248046875
-97.0458984375
-94.29931640625
-97.96142578125
-103.45458984375
-101.62353515625
-97.96142578125
-98.876953125
-101.62353515625
-96.13037109375
-89.7216796875
-95.21484375
-87.890625
-84.228515625
-86.0595703125
-88.80615234375
-93.3837890625
-95.21484375
-98.876953125
-88.80615234375
-90.63720703125
-94.29931640625
-86.97509765625
-87.890625
-92.46826171875
-90.63720703125
-87.890625
-96.13037109375
-83.31298828125
-76.904296875
-66.83349609375
-65.91796875
-67.7490234375
-59.50927734375
-46.69189453125
-58.59375
-55.84716796875
-41.19873046875
-55.84716796875
-57.67822265625
-52.18505859375
-33.87451171875
-36.62109375
-27.4658203125
-19.22607421875
-21.97265625
-18.310546875
-16.4794921875
-13.73291015625
0
4.57763671875
2.74658203125
5.4931640625
4.57763671875
6.40869140625
11.90185546875
9.1552734375
11.90185546875
0
-11.90185546875
-17.39501953125
-31.1279296875
-40.283203125
-47.607421875
-45.7763671875
-50.35400390625
-54.931640625
-68.66455078125
-71.4111328125
-71.4111328125
-70.49560546875
-77.81982421875
-75.0732421875
-82.3974609375
-88.80615234375
-97.0458984375
-95.21484375
-99.79248046875
-98.876953125
-97.0458984375
-89.7216796875
-97.0458984375
-103.45458984375
-102.5390625
-103.45458984375
-104.3701171875
-106.201171875
-103.45458984375
-107.11669921875
-112.60986328125
-110.77880859375
-104.3701171875
-99.79248046875
-98.876953125
-101.62353515625
-97.96142578125
-101.62353515625
-101.62353515625
-106.201171875
-100.7080078125
-103.45458984375
-108.94775390625
-100.7080078125
-92.46826171875
-96.13037109375
-101.62353515625
-106.201171875
-104.3701171875
-112.60986328125
-113.525390625
-108.94775390625
-94.29931640625
-73.2421875
-56.7626953125
-43.9453125
-35.70556640625
-4.57763671875
51.26953125
114.44091796875
195.9228515625
317.68798828125
463.2568359375
593.26171875
704.04052734375
810.24169921875
892.63916015625
926.513671875
909.11865234375
819.39697265625
651.85546875
443.115234375
195.9228515625
-44.86083984375
-173.9501953125
-236.2060546875
-311.279296875
-358.88671875
-365.29541015625
-362.548828125
-350.64697265625
-313.1103515625
-274.658203125
-249.0234375
-210.5712890625
-175.78125
-142.822265625
-108.94775390625
-92.46826171875
-72.32666015625
-52.18505859375
-29.296875
-21.97265625
-13.73291015625
-16.4794921875
-21.97265625
-17.39501953125
-12.8173828125
-13.73291015625
-20.1416015625
-11.90185546875
-4.57763671875
-0.91552734375
-2.74658203125
4.57763671875
5.4931640625
10.07080078125
4.57763671875
7.32421875
5.4931640625
0
2.74658203125
13.73291015625
19.22607421875
13.73291015625
22.88818359375
24.71923828125
20.1416015625
21.97265625
18.310546875
18.310546875
33.87451171875
40.283203125
39.36767578125
45.7763671875
41.19873046875
39.36767578125
46.69189453125
55.84716796875
53.1005859375
51.26953125
56.7626953125
62.255859375
65.00244140625
62.255859375
70.49560546875
73.2421875
71.4111328125
75.0732421875
80.56640625
79.65087890625
87.890625
95.21484375
97.96142578125
105.28564453125
102.5390625
96.13037109375
111.6943359375
119.93408203125
119.0185546875
114.44091796875
120.849609375
139.16015625
147.39990234375
150.146484375
153.80859375
155.6396484375
162.04833984375
156.55517578125
173.03466796875
183.10546875
189.51416015625
199.5849609375
209.65576171875
224.30419921875
227.05078125
227.05078125
233.45947265625
231.62841796875
240.78369140625
260.009765625
271.91162109375
283.8134765625
300.29296875
303.955078125
313.1103515625
319.51904296875
318.603515625
331.4208984375
338.7451171875
343.32275390625
362.548828125
376.28173828125
385.43701171875
386.3525390625
388.18359375
392.76123046875
393.6767578125
394.59228515625
392.76123046875
398.25439453125
404.6630859375
416.56494140625
422.9736328125
418.39599609375
418.39599609375
404.6630859375
388.18359375
380.859375
371.7041015625
364.3798828125
343.32275390625
335.99853515625
331.4208984375
314.94140625
283.8134765625
260.009765625
241.69921875
217.8955078125
187.68310546875
176.69677734375
164.794921875
149.23095703125
130.0048828125
112.60986328125
89.7216796875
75.98876953125
57.67822265625
33.87451171875
22.88818359375
20.1416015625
10.07080078125
0
2.74658203125
-7.32421875
-16.4794921875
-16.4794921875
-33.87451171875
-52.18505859375
-53.1005859375
-65.00244140625
-57.67822265625
-47.607421875
-35.70556640625
-40.283203125
-53.1005859375
-46.69189453125
-55.84716796875
-64.0869140625
-75.98876953125
-67.7490234375
-67.7490234375
-62.255859375
-56.7626953125
-56.7626953125
-59.50927734375
-64.0869140625
-72.32666015625
-72.32666015625
-73.2421875
-73.2421875
-66.83349609375
-58.59375
-52.18505859375
-54.01611328125
-54.01611328125
-61.34033203125
-67.7490234375
-67.7490234375
-74.15771484375
-79.65087890625
-69.580078125
-54.931640625
-55.84716796875
-57.67822265625
-61.34033203125
-54.01611328125
-59.50927734375
-66.83349609375
-69.580078125
-65.91796875
-61.34033203125
-49.4384765625
-36.62109375
-49.4384765625
-53.1005859375
-56.7626953125
-64.0869140625
-65.00244140625
-65.91796875
-69.580078125
-65.91796875
-50.35400390625
-45.7763671875
-53.1005859375
-53.1005859375
-51.26953125
-58.59375
-67.7490234375
-65.91796875
-60.4248046875
-56.7626953125
-56.7626953125
-58.59375
-50.35400390625
-43.02978515625
-54.931640625
-71.4111328125
-74.15771484375
-74.15771484375
-72.32666015625
-69.580078125
-59.50927734375
-52.18505859375
-54.01611328125
-55.84716796875
-65.00244140625
-67.7490234375
-78.7353515625
-79.65087890625
-79.65087890625
-83.31298828125
-65.00244140625
-55.84716796875
-63.17138671875
-71.4111328125
-75.98876953125
-79.65087890625
-75.0732421875
-83.31298828125
-78.7353515625
-74.15771484375
-66.83349609375
-68.66455078125
-75.0732421875
-83.31298828125
-81.48193359375
-80.56640625
-85.14404296875
-96.13037109375
-83.31298828125
-75.98876953125
-74.15771484375
-71.4111328125
-75.98876953125
-81.48193359375
-80.56640625
-90.63720703125
-94.29931640625
-90.63720703125
-95.21484375
-88.80615234375
-80.56640625
-83.31298828125
-83.31298828125
-80.56640625
-88.80615234375
-95.21484375
-92.46826171875
-91.552734375
-97.0458984375
-92.46826171875
-72.32666015625
-75.0732421875
-81.48193359375
-91.552734375
-88.80615234375
-92.46826171875
-97.0458984375
-113.525390625
-99.79248046875
-86.97509765625
-86.97509765625
-86.0595703125
-85.14404296875
-91.552734375
-84.228515625
-93.3837890625
-98.876953125
-97.96142578125
-94.29931640625
-91.552734375
-81.48193359375
-82.3974609375
-86.0595703125
-85.14404296875
-97.96142578125
-96.13037109375
-92.46826171875
-96.13037109375
-99.79248046875
-92.46826171875
-82.3974609375
-82.3974609375
-78.7353515625
-77.81982421875
-86.0595703125
-89.7216796875
-91.552734375
-108.94775390625
-101.62353515625
-89.7216796875
-77.81982421875
-75.0732421875
-82.3974609375
-89.7216796875
-90.63720703125
-90.63720703125
-93.3837890625
-97.96142578125
-94.29931640625
-90.63720703125
-78.7353515625
-72.32666015625
-75.98876953125
-80.56640625
-84.228515625
-92.46826171875
-95.21484375
-98.876953125
-98.876953125
-93.3837890625
-86.0595703125
-75.0732421875
-76.904296875
-86.0595703125
-92.46826171875
-97.0458984375
-86.97509765625
-97.0458984375
-94.29931640625
-90.63720703125
-85.14404296875
-75.98876953125
-77.81982421875
-78.7353515625
-78.7353515625
-80.56640625
-91.552734375
-90.63720703125
-74.15771484375
-61.34033203125
-45.7763671875
-36.62109375
-41.19873046875
-37.53662109375
-39.36767578125
-46.69189453125
-54.01611328125
-57.67822265625
-54.01611328125
-44.86083984375
-22.88818359375
-7.32421875
2.74658203125
-0.91552734375
-6.40869140625
-11.90185546875
-11.90185546875
-10.986328125
0
6.40869140625
16.4794921875
21.97265625
18.310546875
17.39501953125
21.05712890625
13.73291015625
-0.91552734375
-14.6484375
-28.38134765625
-24.71923828125
-22.88818359375
-21.97265625
-32.958984375
-43.02978515625
-45.7763671875
-59.50927734375
-65.91796875
-80.56640625
-82.3974609375
-89.7216796875
-79.65087890625
-74.15771484375
-79.65087890625
-86.97509765625
-87.890625
-87.890625
-98.876953125
-111.6943359375
-106.201171875
-95.21484375
-87.890625
-86.0595703125
-92.46826171875
-91.552734375
-98.876953125
-105.28564453125
-112.60986328125
-108.94775390625
-114.44091796875
-105.28564453125
-93.3837890625
-81.48193359375
-86.97509765625
-94.29931640625
-97.0458984375
-97.96142578125
-104.3701171875
-119.93408203125
-111.6943359375
-105.28564453125
-99.79248046875
-86.0595703125
-80.56640625
-90.63720703125
-103.45458984375
-101.62353515625
-110.77880859375
-114.44091796875
-104.3701171875
-102.5390625
-82.3974609375
-66.83349609375
-43.9453125
-17.39501953125
-10.986328125
7.32421875
69.580078125
127.25830078125
228.8818359375
353.3935546875
495.30029296875
624.3896484375
746.15478515625
849.609375
926.513671875
955.810546875
906.3720703125
779.11376953125
606.0791015625
366.2109375
102.5390625
-106.201171875
-224.30419921875
-291.1376953125
-357.0556640625
-391.845703125
-404.6630859375
-398.25439453125
-364.3798828125
-325.01220703125
-279.23583984375
-227.05078125
-185.85205078125
-144.6533203125
-120.849609375
-104.3701171875
-81.48193359375
-65.91796875
-52.18505859375
-31.1279296875
-21.05712890625
-15.56396484375
-12.8173828125
-12.8173828125
-11.90185546875
-10.07080078125
-19.22607421875
-21.05712890625
-21.97265625
-17.39501953125
-1.8310546875
0.91552734375
7.32421875
8.23974609375
0.91552734375
-5.4931640625
1.8310546875
0.91552734375
4.57763671875
3.662109375
15.56396484375
24.71923828125
22.88818359375
27.4658203125
23.8037109375
20.1416015625
17.39501953125
15.56396484375
20.1416015625
32.04345703125
43.9453125
43.9453125
43.9453125
43.02978515625
44.86083984375
46.69189453125
40.283203125
33.87451171875
41.19873046875
53.1005859375
60.4248046875
75.0732421875
82.3974609375
77.81982421875
73.2421875
75.98876953125
62.255859375
68.66455078125
75.0732421875
84.228515625
97.0458984375
97.0458984375
96.13037109375
100.7080078125
110.77880859375
114.44091796875
112.60986328125
108.0322265625
104.3701171875
123.59619140625
137.3291015625
146.484375
150.146484375
154.72412109375
159.3017578125
150.146484375
152.89306640625
152.89306640625
166.6259765625
177.6123046875
190.4296875
212.40234375
214.2333984375
217.8955078125
220.64208984375
219.7265625
232.5439453125
231.62841796875
243.5302734375
260.92529296875
278.3203125
289.306640625
297.54638671875
306.70166015625
308.53271484375
311.279296875
323.18115234375
336.9140625
345.15380859375
354.30908203125
363.46435546875
376.28173828125
378.11279296875
381.77490234375
385.43701171875
392.76123046875
395.5078125
390.93017578125
398.25439453125
409.24072265625
415.6494140625
414.73388671875
412.90283203125
418.39599609375
411.07177734375
400.08544921875
391.845703125
386.3525390625
376.28173828125
369.873046875
355.224609375
344.23828125
324.0966796875
298.4619140625
278.3203125
258.1787109375
234.375
205.99365234375
192.2607421875
167.54150390625
154.72412109375
136.41357421875
118.10302734375
110.77880859375
93.3837890625
79.65087890625
54.01611328125
44.86083984375
34.7900390625
15.56396484375
21.05712890625
23.8037109375
4.57763671875
-6.40869140625
-6.40869140625
-15.56396484375
-31.1279296875
-36.62109375
-36.62109375
-35.70556640625
-36.62109375
-30.21240234375
-31.1279296875
-41.19873046875
-41.19873046875
-44.86083984375
-43.02978515625
-46.69189453125
-51.26953125
-51.26953125
-43.02978515625
-36.62109375
-35.70556640625
-38.4521484375
-32.04345703125
-48.52294921875
-54.931640625
-50.35400390625
-41.19873046875
-55.84716796875
-49.4384765625
-38.4521484375
-43.9453125
-36.62109375
-39.36767578125
-43.02978515625
-51.26953125
-43.9453125
-46.69189453125
-43.9453125
-45.7763671875
-37.53662109375
-35.70556640625
-37.53662109375
-35.70556640625
-37.53662109375
-43.9453125
-43.9453125
-35.70556640625
-24.71923828125
-30.21240234375
-35.70556640625
-32.04345703125
-32.958984375
-31.1279296875
-37.53662109375
-36.62109375
-37.53662109375
-40.283203125
-40.283203125
-39.36767578125
-35.70556640625
-30.21240234375
-41.19873046875
-34.7900390625
-35.70556640625
-38.4521484375
-44.86083984375
-47.607421875
-40.283203125
-28.38134765625
-23.8037109375
-32.04345703125
-35.70556640625
-36.62109375
-32.04345703125
-29.296875
-42.1142578125
-47.607421875
-51.26953125
-38.4521484375
-34.7900390625
-31.1279296875
-38.4521484375
-37.53662109375
-43.02978515625
-51.26953125
-41.19873046875
-44.86083984375
-44.86083984375
-40.283203125
-46.69189453125
-44.86083984375
-47.607421875
-47.607421875
-44.86083984375
-42.1142578125
-58.59375
-60.4248046875
-44.86083984375
-43.9453125
-46.69189453125
-53.1005859375
-50.35400390625
-54.01611328125
-56.7626953125
-55.84716796875
-46.69189453125
-54.01611328125
-52.18505859375
-49.4384765625
-53.1005859375
-54.931640625
-55.84716796875
-58.59375
-59.50927734375
-58.59375
-56.7626953125
-55.84716796875
-58.59375
-57.67822265625
-65.91796875
-61.34033203125
-54.01611328125
-56.7626953125
-65.91796875
-68.66455078125
-60.4248046875
-59.50927734375
-60.4248046875
-61.34033203125
-56.7626953125
-57.67822265625
-61.34033203125
-64.0869140625
-66.83349609375
-65.91796875
-65.00244140625
-65.91796875
-62.255859375
-66.83349609375
-57.67822265625
-57.67822265625
-65.91796875
-73.2421875
-75.0732421875
-75.98876953125
-84.228515625
-77.81982421875
-71.4111328125
-67.7490234375
-67.7490234375
-70.49560546875
-78.7353515625
-80.56640625
-78.7353515625
-85.14404296875
-88.80615234375
-84.228515625
-79.65087890625
-79.65087890625
-76.904296875
-79.65087890625
-83.31298828125
-81.48193359375
-78.7353515625
-82.3974609375
-85.14404296875
-97.96142578125
-86.0595703125
-75.0732421875
-77.81982421875
-80.56640625
-78.7353515625
-77.81982421875
-87.890625
-85.14404296875
-85.14404296875
-84.228515625
-85.14404296875
-80.56640625
-75.0732421875
-78.7353515625
-80.56640625
-84.228515625
-87.890625
-82.3974609375
-86.97509765625
-91.552734375
-86.0595703125
-83.31298828125
-82.3974609375
-76.904296875
-87.890625
-86.0595703125
-76.904296875
-81.48193359375
-84.228515625
-86.0595703125
-84.228515625
-79.65087890625
-77.81982421875
-84.228515625
-77.81982421875
-75.98876953125
-79.65087890625
-82.3974609375
-69.580078125
-74.15771484375
-75.98876953125
-64.0869140625
-60.4248046875
-56.7626953125
-48.52294921875
-43.9453125
-49.4384765625
-50.35400390625
-49.4384765625
-44.86083984375
-45.7763671875
-40.283203125
-39.36767578125
-37.53662109375
-26.55029296875
-17.39501953125
-11.90185546875
-2.74658203125
-2.74658203125
-17.39501953125
-9.1552734375
12.8173828125
15.56396484375
14.6484375
16.4794921875
17.39501953125
16.4794921875
21.97265625
23.8037109375
16.4794921875
7.32421875
-0.91552734375
-3.662109375
-6.40869140625
-10.986328125
-21.05712890625
-31.1279296875
-39.36767578125
-43.02978515625
-47.607421875
-54.931640625
-51.26953125
-54.931640625
-62.255859375
-76.904296875
-76.904296875
-79.65087890625
-85.14404296875
-91.552734375
-82.3974609375
-85.14404296875
-81.48193359375
-81.48193359375
-83.31298828125
-92.46826171875
-82.3974609375
-96.13037109375
-94.29931640625
-90.63720703125
-89.7216796875
-98.876953125
-92.46826171875
-86.97509765625
-80.56640625
-80.56640625
-84.228515625
-85.14404296875
-97.96142578125
-92.46826171875
-90.63720703125
-84.228515625
-78.7353515625
-78.7353515625
-86.97509765625
-91.552734375
-86.0595703125
-85.14404296875
-94.29931640625
-96.13037109375
-98.876953125
-97.0458984375
-98.876953125
-86.97509765625
-78.7353515625
-61.34033203125
-45.7763671875
-21.97265625
-10.07080078125
8.23974609375
76.904296875
145.56884765625
235.29052734375
366.2109375
511.77978515625
625.30517578125
733.33740234375
852.35595703125
931.09130859375
960.38818359375
931.09130859375
826.72119140625
661.92626953125
429.38232421875
162.04833984375
-74.15771484375
-202.33154296875
-266.41845703125
-333.251953125
-375.3662109375
-371.7041015625
-367.12646484375
-343.32275390625
-299.37744140625
-260.92529296875
-227.05078125
-189.51416015625
-151.9775390625
-116.27197265625
-102.5390625
-81.48193359375
-54.931640625
-29.296875
-9.1552734375
-5.4931640625
-6.40869140625
1.8310546875
-14.6484375
-10.986328125
-0.91552734375
-1.8310546875
-8.23974609375
-2.74658203125
10.07080078125
14.6484375
17.39501953125
14.6484375
16.4794921875
9.1552734375
9.1552734375
10.07080078125
9.1552734375
16.4794921875
21.05712890625
32.958984375
29.296875
29.296875
31.1279296875
34.7900390625
35.70556640625
34.7900390625
36.62109375
42.1142578125
41.19873046875
45.7763671875
58.59375
56.7626953125
49.4384765625
47.607421875
57.67822265625
55.84716796875
61.34033203125
54.931640625
65.91796875
80.56640625
77.81982421875
77.81982421875
74.15771484375
78.7353515625
83.31298828125
82.3974609375
96.13037109375
99.79248046875
104.3701171875
108.0322265625
112.60986328125
113.525390625
116.27197265625
114.44091796875
112.60986328125
118.10302734375
134.58251953125
136.41357421875
141.90673828125
146.484375
153.80859375
161.1328125
167.54150390625
170.2880859375
169.37255859375
175.78125
184.02099609375
194.091796875
207.82470703125
216.064453125
220.64208984375
235.29052734375
238.037109375
233.45947265625
236.2060546875
255.43212890625
270.08056640625
279.23583984375
290.22216796875
296.630859375
308.53271484375
316.7724609375
327.7587890625
335.99853515625
346.0693359375
335.99853515625
356.14013671875
376.28173828125
384.521484375
391.845703125
398.25439453125
409.24072265625
408.3251953125
402.83203125
402.83203125
416.56494140625
426.6357421875
428.466796875
434.87548828125
440.36865234375
440.36865234375
430.2978515625
430.2978515625
424.8046875
420.22705078125
410.15625
405.57861328125
402.83203125
392.76123046875
364.3798828125
354.30908203125
324.0966796875
311.279296875
288.39111328125
259.09423828125
247.1923828125
227.96630859375
201.416015625
188.5986328125
173.03466796875
147.39990234375
137.3291015625
117.1875
94.29931640625
80.56640625
58.59375
49.4384765625
49.4384765625
48.52294921875
29.296875
16.4794921875
9.1552734375
7.32421875
-6.40869140625
-14.6484375
-11.90185546875
-11.90185546875
-21.97265625
-26.55029296875
-22.88818359375
-26.55029296875
-31.1279296875
-34.7900390625
-43.9453125
-41.19873046875
-43.9453125
-39.36767578125
-38.4521484375
-33.87451171875
-31.1279296875
-40.283203125
-42.1142578125
-43.02978515625
-45.7763671875
-46.69189453125
-50.35400390625
-45.7763671875
-39.36767578125
-37.53662109375
-34.7900390625
-42.1142578125
-43.02978515625
-41.19873046875
-42.1142578125
-41.19873046875
-39.36767578125
-43.02978515625
-36.62109375
-35.70556640625
-24.71923828125
-25.634765625
-36.62109375
-43.9453125
-31.1279296875
-40.283203125
-29.296875
-28.38134765625
-21.97265625
-20.1416015625
-32.958984375
-24.71923828125
-30.21240234375
-32.958984375
-31.1279296875
-32.958984375
-33.87451171875
-29.296875
-33.87451171875
-24.71923828125
-26.55029296875
-25.634765625
-24.71923828125
-30.21240234375
-32.04345703125
-29.296875
-30.21240234375
-36.62109375
-32.04345703125
-14.6484375
-18.310546875
-29.296875
-21.05712890625
-22.88818359375
-33.87451171875
-30.21240234375
-35.70556640625
-34.7900390625
-25.634765625
-24.71923828125
-25.634765625
-29.296875
-31.1279296875
-29.296875
-32.04345703125
-41.19873046875
-32.958984375
-32.958984375
-32.04345703125
-38.4521484375
-39.36767578125
-32.958984375
-30.21240234375
-32.958984375
-44.86083984375
-36.62109375
-41.19873046875
-39.36767578125
-39.36767578125
-40.283203125
-38.4521484375
-41.19873046875
-32.04345703125
-40.283203125
-46.69189453125
-42.1142578125
-45.7763671875
-41.19873046875
-43.9453125
-39.36767578125
-39.36767578125
-43.9453125
-43.02978515625
-51.26953125
-47.607421875
-47.607421875
-50.35400390625
-54.931640625
-47.607421875
-45.7763671875
-39.36767578125
-39.36767578125
-43.9453125
-39.36767578125
-37.53662109375
-46.69189453125
-54.931640625
-58.59375
-44.86083984375
-43.9453125
-37.53662109375
-43.02978515625
-39.36767578125
-44.86083984375
-29.296875
-32.04345703125
-32.958984375
-33.87451171875
-22.88818359375
-36.62109375
-44.86083984375
-44.86083984375
-53.1005859375
-55.84716796875
-55.84716796875
-63.17138671875
-70.49560546875
-67.7490234375
-57.67822265625
-54.01611328125
-53.1005859375
-52.18505859375
-50.35400390625
-58.59375
-57.67822265625
-48.52294921875
-50.35400390625
-48.52294921875
-40.283203125
-32.04345703125
-39.36767578125
-40.283203125
-32.958984375
-33.87451171875
-43.02978515625
-56.7626953125
-55.84716796875
-49.4384765625
-49.4384765625
-39.36767578125
-31.1279296875
-44.86083984375
-43.9453125
-30.21240234375
-37.53662109375
-47.607421875
-60.4248046875
-42.1142578125
-35.70556640625
-43.02978515625
-41.19873046875
-44.86083984375
-48.52294921875
-48.52294921875
-44.86083984375
-32.958984375
-43.02978515625
-36.62109375
-43.9453125
-40.283203125
-35.70556640625
-31.1279296875
-25.634765625
-22.88818359375
-8.23974609375
-4.57763671875
-4.57763671875
-7.32421875
0
-0.91552734375
-1.8310546875
5.4931640625
12.8173828125
12.8173828125
20.1416015625
21.97265625
18.310546875
36.62109375
34.7900390625
41.19873046875
54.01611328125
56.7626953125
48.52294921875
52.18505859375
46.69189453125
43.9453125
46.69189453125
51.26953125
53.1005859375
43.9453125
37.53662109375
25.634765625
10.07080078125
-8.23974609375
-8.23974609375
-3.662109375
-9.1552734375
-14.6484375
-21.05712890625
-18.310546875
-24.71923828125
-34.7900390625
-26.55029296875
-24.71923828125
-31.1279296875
-32.04345703125
-48.52294921875
-47.607421875
-40.283203125
-39.36767578125
-40.283203125
-50.35400390625
-64.0869140625
-64.0869140625
-44.86083984375
-50.35400390625
-60.4248046875
-61.34033203125
-51.26953125
-52.18505859375
-66.83349609375
-71.4111328125
-75.0732421875
-73.2421875
-70.49560546875
-66.83349609375
-53.1005859375
-44.86083984375
-52.18505859375
-69.580078125
-72.32666015625
-67.7490234375
-54.931640625
-48.52294921875
-54.01611328125
-57.67822265625
-54.01611328125
-58.59375
-60.4248046875
-68.66455078125
-64.0869140625
-63.17138671875
-43.02978515625
-27.4658203125
-17.39501953125
10.07080078125
40.283203125
73.2421875
135.498046875
209.65576171875
295.71533203125
425.72021484375
568.54248046875
658.26416015625
758.056640625
870.66650390625
932.92236328125
961.3037109375
934.75341796875
818.4814453125
644.53125
414.73388671875
150.146484375
-69.580078125
-166.6259765625
-228.8818359375
-291.1376953125
-325.927734375
-329.58984375
-328.67431640625
-310.36376953125
-269.1650390625
-238.037109375
-195.00732421875
-153.80859375
-121.76513671875
-90.63720703125
-73.2421875
-44.86083984375
-18.310546875
3.662109375
21.05712890625
18.310546875
29.296875
21.05712890625
19.22607421875
13.73291015625
14.6484375
32.04345703125
48.52294921875
58.59375
63.17138671875
44.86083984375
38.4521484375
32.958984375
42.1142578125
44.86083984375
29.296875
20.1416015625
31.1279296875
42.1142578125
39.36767578125
43.9453125
48.52294921875
48.52294921875
55.84716796875
59.50927734375
62.255859375
66.83349609375
68.66455078125
63.17138671875
75.98876953125
75.0732421875
75.98876953125
77.81982421875
74.15771484375
74.15771484375
81.48193359375
89.7216796875
95.21484375
99.79248046875
107.11669921875
110.77880859375
113.525390625
117.1875
116.27197265625
117.1875
122.6806640625
125.42724609375
124.51171875
137.3291015625
147.39990234375
133.6669921875
122.6806640625
140.9912109375
143.73779296875
128.173828125
141.90673828125
159.3017578125
160.21728515625
169.37255859375
181.2744140625
188.5986328125
187.68310546875
194.091796875
195.00732421875
215.14892578125
229.79736328125
231.62841796875
217.8955078125
225.2197265625
226.13525390625
228.8818359375
226.13525390625
234.375
250.8544921875
268.24951171875
276.4892578125
284.72900390625
294.7998046875
312.19482421875
323.18115234375
325.927734375
335.0830078125
351.5625
359.80224609375
368.0419921875
383.60595703125
396.42333984375
406.494140625
420.22705078125
420.22705078125
426.6357421875
436.70654296875
437.6220703125
453.18603515625
455.9326171875
461.42578125
462.34130859375
455.01708984375
451.35498046875
451.35498046875
454.1015625
459.5947265625
459.5947265625
442.19970703125
420.22705078125
419.3115234375
412.90283203125
421.142578125
412.90283203125
395.5078125
376.28173828125
347.900390625
320.4345703125
303.03955078125
286.56005859375
271.91162109375
254.5166015625
238.037109375
216.064453125
188.5986328125
173.9501953125
143.73779296875
123.59619140625
107.11669921875
91.552734375
85.14404296875
71.4111328125
58.59375
48.52294921875
43.02978515625
40.283203125
30.21240234375
10.07080078125
-2.74658203125
-4.57763671875
0.91552734375
1.8310546875
-3.662109375
-5.4931640625
-13.73291015625
-17.39501953125
-19.22607421875
-20.1416015625
-27.4658203125
-24.71923828125
-25.634765625
-25.634765625
-19.22607421875
-18.310546875
-26.55029296875
-22.88818359375
-23.8037109375
-25.634765625
-27.4658203125
-36.62109375
-25.634765625
-20.1416015625
-16.4794921875
-11.90185546875
-3.662109375
-19.22607421875
-18.310546875
-34.7900390625
-28.38134765625
-18.310546875
-16.4794921875
-18.310546875
-12.8173828125
-12.8173828125
-8.23974609375
-10.07080078125
-5.4931640625
-8.23974609375
-22.88818359375
-12.8173828125
-1.8310546875
-10.07080078125
-10.07080078125
-1.8310546875
-0.91552734375
-2.74658203125
-4.57763671875
-8.23974609375
-11.90185546875
-7.32421875
-11.90185546875
-5.4931640625
-2.74658203125
-7.32421875
6.40869140625
10.07080078125
-7.32421875
-7.32421875
-10.07080078125
-0.91552734375
0
-2.74658203125
-2.74658203125
3.662109375
-1.8310546875
5.4931640625
0.91552734375
-11.90185546875
-21.05712890625
-14.6484375
-10.986328125
-6.40869140625
-2.74658203125
11.90185546875
21.05712890625
0.91552734375
-23.8037109375
-22.88818359375
-29.296875
-24.71923828125
-18.310546875
-14.6484375
-8.23974609375
-8.23974609375
-12.8173828125
-12.8173828125
-3.662109375
-14.6484375
-19.22607421875
-25.634765625
-24.71923828125
-10.986328125
-13.73291015625
-23.8037109375
-25.634765625
-19.22607421875
-30.21240234375
-31.1279296875
-28.38134765625
-30.21240234375
-21.97265625
-25.634765625
-22.88818359375
-15.56396484375
-13.73291015625
-23.8037109375
-34.7900390625
-34.7900390625
-37.53662109375
-43.02978515625
-41.19873046875
-34.7900390625
-29.296875
-27.4658203125
-27.4658203125
-32.958984375
-32.04345703125
-34.7900390625
-43.02978515625
-43.02978515625
-30.21240234375
-31.1279296875
-35.70556640625
-27.4658203125
-32.04345703125
-39.36767578125
-34.7900390625
-27.4658203125
-35.70556640625
-38.4521484375
-33.87451171875
-23.8037109375
-27.4658203125
-28.38134765625
-32.04345703125
-24.71923828125
-36.62109375
-41.19873046875
-41.19873046875
-39.36767578125
-44.86083984375
-39.36767578125
-29.296875
-29.296875
-38.4521484375
-35.70556640625
-41.19873046875
-30.21240234375
-44.86083984375
-55.84716796875
-43.02978515625
-37.53662109375
-34.7900390625
-42.1142578125
-44.86083984375
-46.69189453125
-34.7900390625
-31.1279296875
-42.1142578125
-45.7763671875
-39.36767578125
-30.21240234375
-39.36767578125
-35.70556640625
-32.958984375
-34.7900390625
-36.62109375
-50.35400390625
-50.35400390625
-45.7763671875
-40.283203125
-36.62109375
-37.53662109375
-30.21240234375
-43.02978515625
-50.35400390625
-44.86083984375
-41.19873046875
-43.9453125
-43.9453125
-30.21240234375
-37.53662109375
-36.62109375
-44.86083984375
-31.1279296875
-35.70556640625
-28.38134765625
-25.634765625
-19.22607421875
-10.07080078125
-3.662109375
5.4931640625
14.6484375
12.8173828125
4.57763671875
5.4931640625
9.1552734375
10.986328125
5.4931640625
13.73291015625
32.04345703125
41.19873046875
48.52294921875
47.607421875
53.1005859375
55.84716796875
61.34033203125
59.50927734375
67.7490234375
46.69189453125
51.26953125
63.17138671875
65.91796875
63.17138671875
59.50927734375
55.84716796875
50.35400390625
32.04345703125
21.97265625
13.73291015625
14.6484375
10.07080078125
16.4794921875
-0.91552734375
-10.07080078125
-18.310546875
-23.8037109375
-21.97265625
-34.7900390625
-39.36767578125
-43.02978515625
-39.36767578125
-32.958984375
-40.283203125
-41.19873046875
-43.9453125
-53.1005859375
-47.607421875
-51.26953125
-54.01611328125
-48.52294921875
-56.7626953125
-54.01611328125
-59.50927734375
-54.01611328125
-53.1005859375
-54.01611328125
-55.84716796875
-58.59375
-65.91796875
-54.931640625
-54.931640625
-54.931640625
-54.931640625
-56.7626953125
-47.607421875
-60.4248046875
-69.580078125
-63.17138671875
-63.17138671875
-72.32666015625
-70.49560546875
-62.255859375
-62.255859375
-72.32666015625
-76.904296875
-69.580078125
-63.17138671875
-69.580078125
-51.26953125
-19.22607421875
1.8310546875
10.07080078125
44.86083984375
104.3701171875
163.87939453125
247.1923828125
375.3662109375
518.1884765625
641.78466796875
750.732421875
867.00439453125
959.47265625
991.51611328125
959.47265625
824.89013671875
644.53125
407.40966796875
141.90673828125
-77.81982421875
-189.51416015625
-240.78369140625
-304.87060546875
-342.4072265625
-351.5625
-352.47802734375
-327.7587890625
-303.03955078125
-271.91162109375
-227.96630859375
-184.02099609375
-134.58251953125
-95.21484375
-77.81982421875
-65.00244140625
-38.4521484375
-21.05712890625
-13.73291015625
-3.662109375
-3.662109375
0.91552734375
4.57763671875
11.90185546875
13.73291015625
21.97265625
12.8173828125
13.73291015625
16.4794921875
12.8173828125
25.634765625
16.4794921875
20.1416015625
28.38134765625
27.4658203125
30.21240234375
40.283203125
37.53662109375
34.7900390625
23.8037109375
32.958984375
43.9453125
47.607421875
53.1005859375
57.67822265625
45.7763671875
44.86083984375
53.1005859375
54.01611328125
54.01611328125
62.255859375
55.84716796875
63.17138671875
74.15771484375
75.0732421875
67.7490234375
69.580078125
73.2421875
77.81982421875
78.7353515625
87.890625
92.46826171875
95.21484375
90.63720703125
96.13037109375
98.876953125
103.45458984375
100.7080078125
109.86328125
119.93408203125
104.3701171875
114.44091796875
130.0048828125
132.75146484375
138.24462890625
141.90673828125
140.07568359375
137.3291015625
152.89306640625
145.56884765625
151.06201171875
165.71044921875
172.119140625
188.5986328125
196.83837890625
192.2607421875
200.50048828125
205.99365234375
207.82470703125
214.2333984375
225.2197265625
233.45947265625
237.12158203125
254.5166015625
272.8271484375
280.1513671875
281.06689453125
283.8134765625
292.05322265625
309.4482421875
308.53271484375
315.85693359375
335.99853515625
356.14013671875
365.29541015625
348.81591796875
363.46435546875
379.94384765625
386.3525390625
382.6904296875
379.94384765625
405.57861328125
422.9736328125
421.142578125
422.05810546875
422.9736328125
420.22705078125
433.04443359375
437.6220703125
429.38232421875
433.9599609375
442.19970703125
443.115234375
437.6220703125
433.9599609375
411.9873046875
404.6630859375
395.5078125
375.3662109375
355.224609375
327.7587890625
316.7724609375
298.4619140625
283.8134765625
266.41845703125
242.61474609375
228.8818359375
199.5849609375
173.9501953125
159.3017578125
130.0048828125
121.76513671875
109.86328125
93.3837890625
79.65087890625
72.32666015625
50.35400390625
32.958984375
32.04345703125
17.39501953125
12.8173828125
7.32421875
-12.8173828125
-9.1552734375
-6.40869140625
-8.23974609375
-13.73291015625
-21.97265625
-28.38134765625
-31.1279296875
-43.9453125
-41.19873046875
-34.7900390625
-30.21240234375
-27.4658203125
-39.36767578125
-44.86083984375
-49.4384765625
-44.86083984375
-42.1142578125
-37.53662109375
-34.7900390625
-47.607421875
-36.62109375
-34.7900390625
-34.7900390625
-46.69189453125
-44.86083984375
-39.36767578125
-48.52294921875
-45.7763671875
-48.52294921875
-46.69189453125
-43.02978515625
-38.4521484375
-35.70556640625
-37.53662109375
-43.9453125
-43.9453125
-45.7763671875
-50.35400390625
-43.9453125
-31.1279296875
-28.38134765625
-25.634765625
-29.296875
-30.21240234375
-37.53662109375
-39.36767578125
-41.19873046875
-35.70556640625
-45.7763671875
-32.04345703125
-32.958984375
-30.21240234375
-28.38134765625
-26.55029296875
-33.87451171875
-31.1279296875
-28.38134765625
-40.283203125
-36.62109375
-31.1279296875
-27.4658203125
-25.634765625
-31.1279296875
-28.38134765625
-28.38134765625
-22.88818359375
-35.70556640625
-42.1142578125
-24.71923828125
-38.4521484375
-34.7900390625
-24.71923828125
-27.4658203125
-25.634765625
-26.55029296875
-27.4658203125
-46.69189453125
-46.69189453125
-43.9453125
-35.70556640625
-34.7900390625
-33.87451171875
-25.634765625
-25.634765625
-35.70556640625
-49.4384765625
-41.19873046875
-53.1005859375
-48.52294921875
-40.283203125
-30.21240234375
-44.86083984375
-32.958984375
-47.607421875
-45.7763671875
-50.35400390625
-49.4384765625
-55.84716796875
-41.19873046875
-45.7763671875
-32.04345703125
-28.38134765625
-39.36767578125
-41.19873046875
-39.36767578125
-44.86083984375
-45.7763671875
-57.67822265625
-47.607421875
-40.283203125
-46.69189453125
-54.931640625
-49.4384765625
-53.1005859375
-51.26953125
-54.931640625
-58.59375
-54.931640625
-51.26953125
-54.01611328125
-43.02978515625
-43.9453125
-54.931640625
-53.1005859375
-54.01611328125
-60.4248046875
-65.00244140625
-65.91796875
-64.0869140625
-44.86083984375
-47.607421875
-35.70556640625
-43.9453125
-47.607421875
-46.69189453125
-52.18505859375
-66.83349609375
-65.00244140625
-57.67822265625
-57.67822265625
-54.01611328125
-43.02978515625
-44.86083984375
-48.52294921875
-52.18505859375
-53.1005859375
-55.84716796875
-56.7626953125
-42.1142578125
-46.69189453125
-57.67822265625
-53.1005859375
-49.4384765625
-51.26953125
-54.01611328125
-59.50927734375
-54.01611328125
-53.1005859375
-61.34033203125
-56.7626953125
-41.19873046875
-47.607421875
-40.283203125
-44.86083984375
-56.7626953125
-60.4248046875
-59.50927734375
-49.4384765625
-46.69189453125
-52.18505859375
-50.35400390625
-39.36767578125
-34.7900390625
-31.1279296875
-41.19873046875
-32.958984375
-31.1279296875
-17.39501953125
-11.90185546875
-12.8173828125
-11.90185546875
-19.22607421875
-9.1552734375
-13.73291015625
-14.6484375
1.8310546875
8.23974609375
15.56396484375
17.39501953125
27.4658203125
41.19873046875
49.4384765625
58.59375
62.255859375
49.4384765625
36.62109375
38.4521484375
43.02978515625
54.01611328125
51.26953125
48.52294921875
54.931640625
47.607421875
39.36767578125
15.56396484375
4.57763671875
1.8310546875
-16.4794921875
-10.07080078125
-9.1552734375
-5.4931640625
-17.39501953125
-38.4521484375
-37.53662109375
-41.19873046875
-43.02978515625
-50.35400390625
-48.52294921875
-54.01611328125
-62.255859375
-49.4384765625
-51.26953125
-56.7626953125
-54.931640625
-65.00244140625
-59.50927734375
-64.0869140625
-67.7490234375
-65.91796875
-65.91796875
-65.00244140625
-60.4248046875
-54.01611328125
-56.7626953125
-62.255859375
-63.17138671875
-70.49560546875
-73.2421875
-71.4111328125
-62.255859375
-72.32666015625
-65.00244140625
-62.255859375
-51.26953125
-58.59375
-62.255859375
-66.83349609375
-55.84716796875
-58.59375
-75.0732421875
-73.2421875
-72.32666015625
-62.255859375
-67.7490234375
-54.931640625
-53.1005859375
-43.9453125
-20.1416015625
15.56396484375
15.56396484375
63.17138671875
147.39990234375
211.48681640625
297.54638671875
439.453125
570.37353515625
699.462890625
807.4951171875
907.28759765625
958.55712890625
971.37451171875
922.8515625
792.8466796875
601.50146484375
361.63330078125
107.11669921875
-75.98876953125
-165.71044921875
-222.47314453125
-284.72900390625
-300.29296875
-307.6171875
-303.03955078125
-280.1513671875
-260.92529296875
-230.712890625
-199.5849609375
-163.87939453125
-129.08935546875
-92.46826171875
-60.4248046875
-41.19873046875
-25.634765625
-11.90185546875
-1.8310546875
5.4931640625
15.56396484375
7.32421875
12.8173828125
15.56396484375
24.71923828125
29.296875
31.1279296875
36.62109375
32.958984375
32.958984375
24.71923828125
27.4658203125
29.296875
40.283203125
51.26953125
49.4384765625
40.283203125
46.69189453125
45.7763671875
47.607421875
63.17138671875
57.67822265625
47.607421875
54.931640625
65.00244140625
65.91796875
71.4111328125
65.91796875
63.17138671875
68.66455078125
76.904296875
84.228515625
78.7353515625
72.32666015625
88.80615234375
99.79248046875
94.29931640625
93.3837890625
86.97509765625
87.890625
90.63720703125
100.7080078125
103.45458984375
110.77880859375
112.60986328125
129.08935546875
132.75146484375
125.42724609375
126.3427734375
130.92041015625
131.8359375
130.0048828125
140.07568359375
151.9775390625
157.470703125
159.3017578125
162.04833984375
162.9638671875
170.2880859375
175.78125
173.03466796875
179.443359375
189.51416015625
202.33154296875
205.078125
221.5576171875
225.2197265625
225.2197265625
227.05078125
238.037109375
245.361328125
251.77001953125
270.08056640625
280.1513671875
282.89794921875
291.1376953125
304.87060546875
303.03955078125
308.53271484375
329.58984375
334.16748046875
346.98486328125
357.97119140625
360.7177734375
369.873046875
391.845703125
395.5078125
405.57861328125
401.91650390625
416.56494140625
410.15625
420.22705078125
433.04443359375
441.2841796875
438.53759765625
444.9462890625
447.69287109375
453.18603515625
462.34130859375
457.763671875
455.9326171875
444.03076171875
441.2841796875
439.453125
434.87548828125
423.88916015625
406.494140625
397.3388671875
385.43701171875
354.30908203125
332.33642578125
323.18115234375
296.630859375
284.72900390625
263.671875
253.60107421875
220.64208984375
197.75390625
173.9501953125
144.6533203125
134.58251953125
114.44091796875
102.5390625
87.890625
75.98876953125
76.904296875
63.17138671875
48.52294921875
39.36767578125
36.62109375
9.1552734375
0
2.74658203125
3.662109375
-5.4931640625
-6.40869140625
-7.32421875
-23.8037109375
-14.6484375
-12.8173828125
-9.1552734375
-17.39501953125
-30.21240234375
-26.55029296875
-21.97265625
-17.39501953125
-19.22607421875
-22.88818359375
-13.73291015625
-12.8173828125
-26.55029296875
-38.4521484375
-26.55029296875
-22.88818359375
-26.55029296875
-24.71923828125
-10.986328125
-16.4794921875
-27.4658203125
-23.8037109375
-22.88818359375
-23.8037109375
-26.55029296875
-20.1416015625
-12.8173828125
-3.662109375
-4.57763671875
-10.07080078125
-11.90185546875
-10.986328125
-21.05712890625
-13.73291015625
-3.662109375
-6.40869140625
0.91552734375
0
-4.57763671875
-2.74658203125
-10.07080078125
-8.23974609375
-10.986328125
-7.32421875
-4.57763671875
0.91552734375
-6.40869140625
-5.4931640625
-1.8310546875
-0.91552734375
6.40869140625
-4.57763671875
-6.40869140625
-0.91552734375
-3.662109375
0
12.8173828125
6.40869140625
7.32421875
-2.74658203125
0.91552734375
0.91552734375
4.57763671875
6.40869140625
-1.8310546875
2.74658203125
5.4931640625
10.07080078125
3.662109375
0
3.662109375
-8.23974609375
-10.986328125
-4.57763671875
-10.07080078125
0
1.8310546875
0.91552734375
-0.91552734375
0
-7.32421875
-4.57763671875
-4.57763671875
-9.1552734375
-8.23974609375
-10.986328125
-2.74658203125
-5.4931640625
-2.74658203125
-10.986328125
-10.986328125
-7.32421875
-6.40869140625
-15.56396484375
-20.1416015625
-12.8173828125
-13.73291015625
-11.90185546875
-10.986328125
-13.73291015625
-21.05712890625
-10.07080078125
-14.6484375
-14.6484375
-17.39501953125
-19.22607421875
-21.05712890625
-10.07080078125
-12.8173828125
-5.4931640625
-2.74658203125
-21.05712890625
-24.71923828125
-26.55029296875
-21.97265625
-14.6484375
-22.88818359375
-16.4794921875
-10.07080078125
-13.73291015625
-22.88818359375
-29.296875
-19.22607421875
-21.05712890625
-36.62109375
-33.87451171875
-10.07080078125
-7.32421875
-17.39501953125
-22.88818359375
-29.296875
-29.296875
-19.22607421875
-27.4658203125
-32.958984375
-31.1279296875
-16.4794921875
-21.97265625
-26.55029296875
-26.55029296875
-23.8037109375
-21.05712890625
-17.39501953125
-34.7900390625
-30.21240234375
-22.88818359375
-22.88818359375
-16.4794921875
-26.55029296875
-13.73291015625
-6.40869140625
-10.07080078125
-14.6484375
-10.986328125
-3.662109375
0.91552734375
12.8173828125
14.6484375
23.8037109375
14.6484375
15.56396484375
11.90185546875
10.986328125
18.310546875
26.55029296875
46.69189453125
61.34033203125
61.34033203125
53.1005859375
56.7626953125
61.34033203125
72.32666015625
77.81982421875
66.83349609375
60.4248046875
62.255859375
72.32666015625
79.65087890625
85.14404296875
76.904296875
64.0869140625
58.59375
43.9453125
31.1279296875
24.71923828125
26.55029296875
14.6484375
11.90185546875
2.74658203125
-7.32421875
-5.4931640625
-14.6484375
-20.1416015625
-24.71923828125
-23.8037109375
-22.88818359375
-30.21240234375
-29.296875
-29.296875
-33.87451171875
-35.70556640625
-47.607421875
-51.26953125
-47.607421875
-43.9453125
-43.9453125
-48.52294921875
-41.19873046875
-46.69189453125
-40.283203125
-42.1142578125
-51.26953125
-52.18505859375
-67.7490234375
-61.34033203125
-50.35400390625
-44.86083984375
-52.18505859375
-51.26953125
-54.931640625
-58.59375
-52.18505859375
-54.01611328125
-68.66455078125
-59.50927734375
-58.59375
-59.50927734375
-56.7626953125
-55.84716796875
-59.50927734375
-74.15771484375
-74.15771484375
-61.34033203125
-54.931640625
-43.02978515625
-23.8037109375
-3.662109375
16.4794921875
65.91796875
115.3564453125
173.03466796875
274.658203125
396.42333984375
531.92138671875
655.517578125
770.8740234375
873.4130859375
944.82421875
953.06396484375
913.6962890625
802.91748046875
625.30517578125
389.09912109375
140.07568359375
-72.32666015625
-170.2880859375
-226.13525390625
-288.39111328125
-325.01220703125
-329.58984375
-333.251953125
-311.279296875
-284.72900390625
-252.685546875
-214.2333984375
-184.02099609375
-148.3154296875
-101.62353515625
-80.56640625
-59.50927734375
-40.283203125
-30.21240234375
-10.07080078125
-5.4931640625
-6.40869140625
-1.8310546875
5.4931640625
10.07080078125
9.1552734375
10.07080078125
5.4931640625
2.74658203125
12.8173828125
4.57763671875
11.90185546875
13.73291015625
25.634765625
23.8037109375
19.22607421875
27.4658203125
32.958984375
22.88818359375
29.296875
39.36767578125
32.04345703125
38.4521484375
41.19873046875
44.86083984375
41.19873046875
45.7763671875
43.02978515625
34.7900390625
47.607421875
43.9453125
55.84716796875
61.34033203125
47.607421875
60.4248046875
68.66455078125
75.98876953125
71.4111328125
71.4111328125
71.4111328125
80.56640625
85.14404296875
74.15771484375
82.3974609375
91.552734375
93.3837890625
92.46826171875
100.7080078125
99.79248046875
103.45458984375
110.77880859375
111.6943359375
112.60986328125
120.849609375
128.173828125
130.0048828125
130.0048828125
143.73779296875
136.41357421875
143.73779296875
142.822265625
152.89306640625
161.1328125
170.2880859375
179.443359375
188.5986328125
193.17626953125
195.9228515625
197.75390625
208.740234375
202.33154296875
209.65576171875
232.5439453125
238.95263671875
238.95263671875
249.93896484375
270.08056640625
266.41845703125
271.91162109375
292.05322265625
306.70166015625
312.19482421875
314.02587890625
330.50537109375
350.64697265625
354.30908203125
356.14013671875
354.30908203125
370.78857421875
382.6904296875
378.11279296875
390.93017578125
391.845703125
406.494140625
411.07177734375
415.6494140625
420.22705078125
424.8046875
422.9736328125
422.05810546875
414.73388671875
420.22705078125
432.12890625
420.22705078125
414.73388671875
411.07177734375
391.845703125
376.28173828125
361.63330078125
339.66064453125
315.85693359375
297.54638671875
281.06689453125
261.8408203125
244.44580078125
227.96630859375
206.9091796875
178.52783203125
163.87939453125
141.90673828125
114.44091796875
97.0458984375
84.228515625
72.32666015625
62.255859375
43.9453125
28.38134765625
17.39501953125
-2.74658203125
-8.23974609375
-16.4794921875
-26.55029296875
-32.04345703125
-35.70556640625
-32.04345703125
-37.53662109375
-46.69189453125
-45.7763671875
-56.7626953125
-56.7626953125
-62.255859375
-60.4248046875
-62.255859375
-64.0869140625
-58.59375
-58.59375
-63.17138671875
-67.7490234375
-72.32666015625
-65.91796875
-78.7353515625
-82.3974609375
-77.81982421875
-65.00244140625
-66.83349609375
-68.66455078125
-60.4248046875
-66.83349609375
-71.4111328125
-66.83349609375
-78.7353515625
-74.15771484375
-70.49560546875
-60.4248046875
-65.00244140625
-62.255859375
-58.59375
-75.98876953125
-66.83349609375
-75.0732421875
-74.15771484375
-68.66455078125
-65.00244140625
-63.17138671875
-64.0869140625
-54.01611328125
-55.84716796875
-54.931640625
-55.84716796875
-50.35400390625
-61.34033203125
-68.66455078125
-65.91796875
-55.84716796875
-55.84716796875
-61.34033203125
-59.50927734375
-57.67822265625
-66.83349609375
-55.84716796875
-60.4248046875
-65.91796875
-55.84716796875
-52.18505859375
-52.18505859375
-54.931640625
-58.59375
-62.255859375
-60.4248046875
-62.255859375
-56.7626953125
-57.67822265625
-59.50927734375
-59.50927734375
-56.7626953125
-56.7626953125
-52.18505859375
-64.0869140625
-68.66455078125
-51.26953125
-55.84716796875
-74.15771484375
-69.580078125
-67.7490234375
-60.4248046875
-66.83349609375
-58.59375
-62.255859375
-73.2421875
-75.0732421875
-71.4111328125
-72.32666015625
-69.580078125
-56.7626953125
-59.50927734375
-57.67822265625
-72.32666015625
-70.49560546875
-70.49560546875
-79.65087890625
-84.228515625
-75.98876953125
-70.49560546875
-72.32666015625
-72.32666015625
-68.66455078125
-80.56640625
-69.580078125
-75.98876953125
-79.65087890625
-84.228515625
-85.14404296875
-76.904296875
-75.98876953125
-72.32666015625
-69.580078125
-76.904296875
-76.904296875
-77.81982421875
-86.0595703125
-96.13037109375
-95.21484375
-85.14404296875
-77.81982421875
-77.81982421875
-78.7353515625
-81.48193359375
-81.48193359375
-71.4111328125
-71.4111328125
-86.97509765625
-88.80615234375
-93.3837890625
-88.80615234375
-79.65087890625
-75.98876953125
-84.228515625
-84.228515625
-77.81982421875
-87.890625
-91.552734375
-87.890625
-89.7216796875
-91.552734375
-80.56640625
-80.56640625
-86.0595703125
-79.65087890625
-89.7216796875
-87.890625
-88.80615234375
-87.890625
-91.552734375
-85.14404296875
-80.56640625
-78.7353515625
-86.97509765625
-78.7353515625
-90.63720703125
-92.46826171875
-88.80615234375
-98.876953125
-99.79248046875
-86.97509765625
-80.56640625
-84.228515625
-92.46826171875
-101.62353515625
-98.876953125
-85.14404296875
-89.7216796875
-95.21484375
-90.63720703125
-87.890625
-80.56640625
-79.65087890625
-91.552734375
-82.3974609375
-77.81982421875
-84.228515625
-87.890625
-85.14404296875
-74.15771484375
-59.50927734375
-48.52294921875
-47.607421875
-43.9453125
-41.19873046875
-42.1142578125
-54.01611328125
-56.7626953125
-46.69189453125
-49.4384765625
-25.634765625
-13.73291015625
-0.91552734375
-10.07080078125
-7.32421875
-6.40869140625
0.91552734375
1.8310546875
0
6.40869140625
2.74658203125
9.1552734375
17.39501953125
32.958984375
27.4658203125
-0.91552734375
-10.07080078125
-10.07080078125
-21.97265625
-26.55029296875
-31.1279296875
-30.21240234375
-39.36767578125
-49.4384765625
-45.7763671875
-57.67822265625
-77.81982421875
-85.14404296875
-86.97509765625
-84.228515625
-87.890625
-86.97509765625
-95.21484375
-91.552734375
-91.552734375
-97.0458984375
-101.62353515625
-115.3564453125
-107.11669921875
-103.45458984375
-98.876953125
-108.0322265625
-101.62353515625
-103.45458984375
-105.28564453125
-108.0322265625
-106.201171875
-111.6943359375
-113.525390625
-111.6943359375
-102.5390625
-101.62353515625
-101.62353515625
-105.28564453125
-107.11669921875
-118.10302734375
-123.59619140625
-114.44091796875
-113.525390625
-108.94775390625
-101.62353515625
-102.5390625
-108.94775390625
-109.86328125
-110.77880859375
-107.11669921875
-115.3564453125
-119.0185546875
-113.525390625
-99.79248046875
-72.32666015625
-64.0869140625
-44.86083984375
-29.296875
-14.6484375
30.21240234375
96.13037109375
159.3017578125
266.41845703125
406.494140625
541.9921875
671.9970703125
785.5224609375
874.32861328125
934.75341796875
944.82421875
871.58203125
716.85791015625
515.44189453125
266.41845703125
22.88818359375
-157.470703125
-246.27685546875
-303.955078125
-365.29541015625
-394.59228515625
-392.76123046875
-375.3662109375
-355.224609375
-322.265625
-273.74267578125
-230.712890625
-187.68310546875
-145.56884765625
-128.173828125
-98.876953125
-84.228515625
-75.0732421875
-55.84716796875
-31.1279296875
-24.71923828125
-26.55029296875
-24.71923828125
-26.55029296875
-28.38134765625
-21.05712890625
-25.634765625
-29.296875
-28.38134765625
-24.71923828125
-16.4794921875
-6.40869140625
0
-6.40869140625
-8.23974609375
-7.32421875
9.1552734375
-4.57763671875
-7.32421875
-12.8173828125
-0.91552734375
6.40869140625
4.57763671875
3.662109375
11.90185546875
10.07080078125
22.88818359375
17.39501953125
3.662109375
12.8173828125
21.05712890625
29.296875
30.21240234375
29.296875
32.958984375
39.36767578125
44.86083984375
35.70556640625
33.87451171875
35.70556640625
50.35400390625
45.7763671875
48.52294921875
54.01611328125
63.17138671875
61.34033203125
65.91796875
66.83349609375
74.15771484375
77.81982421875
72.32666015625
84.228515625
90.63720703125
86.97509765625
91.552734375
97.96142578125
108.94775390625
117.1875
101.62353515625
105.28564453125
119.93408203125
128.173828125
131.8359375
138.24462890625
144.6533203125
146.484375
151.06201171875
151.06201171875
151.9775390625
172.119140625
181.2744140625
188.5986328125
196.83837890625
211.48681640625
227.96630859375
226.13525390625
233.45947265625
245.361328125
247.1923828125
258.1787109375
276.4892578125
292.05322265625
292.05322265625
304.87060546875
316.7724609375
310.36376953125
321.35009765625
331.4208984375
329.58984375
343.32275390625
351.5625
371.7041015625
373.53515625
366.2109375
371.7041015625
379.94384765625
385.43701171875
387.26806640625
386.3525390625
390.93017578125
405.57861328125
396.42333984375
391.845703125
390.0146484375
379.0283203125
374.45068359375
369.873046875
350.64697265625
333.251953125
315.85693359375
307.6171875
289.306640625
270.99609375
244.44580078125
227.96630859375
203.2470703125
174.86572265625
148.3154296875
127.25830078125
108.94775390625
99.79248046875
97.96142578125
71.4111328125
49.4384765625
33.87451171875
34.7900390625
7.32421875
-9.1552734375
-18.310546875
-33.87451171875
-36.62109375
-35.70556640625
-40.283203125
-39.36767578125
-47.607421875
-65.00244140625
-65.00244140625
-72.32666015625
-72.32666015625
-75.98876953125
-78.7353515625
-69.580078125
-73.2421875
-79.65087890625
-83.31298828125
-83.31298828125
-97.0458984375
-99.79248046875
-95.21484375
-78.7353515625
-87.890625
-93.3837890625
-86.0595703125
-92.46826171875
-100.7080078125
-99.79248046875
-89.7216796875
-92.46826171875
-86.0595703125
-79.65087890625
-85.14404296875
-86.0595703125
-81.48193359375
-94.29931640625
-93.3837890625
-89.7216796875
-87.890625
-80.56640625
-93.3837890625
-103.45458984375
-92.46826171875
-83.31298828125
-87.890625
-86.0595703125
-85.14404296875
-86.97509765625
-86.97509765625
-81.48193359375
-90.63720703125
-91.552734375
-80.56640625
-73.2421875
-77.81982421875
-86.0595703125
-75.0732421875
-80.56640625
-90.63720703125
-92.46826171875
-86.97509765625
-86.97509765625
-80.56640625
-72.32666015625
-75.0732421875
-87.890625
-85.14404296875
-86.97509765625
-84.228515625
-89.7216796875
-91.552734375
-87.890625
-77.81982421875
-75.0732421875
-79.65087890625
-70.49560546875
-71.4111328125
-89.7216796875
-91.552734375
-92.46826171875
-94.29931640625
-85.14404296875
-90.63720703125
-80.56640625
-85.14404296875
-92.46826171875
-84.228515625
-86.97509765625
-94.29931640625
-95.21484375
-100.7080078125
-92.46826171875
-97.0458984375
-91.552734375
-89.7216796875
-87.890625
-92.46826171875
-89.7216796875
-95.21484375
-106.201171875
-104.3701171875
-95.21484375
-97.96142578125
-92.46826171875
-93.3837890625
-105.28564453125
-103.45458984375
-99.79248046875
-106.201171875
-109.86328125
-110.77880859375
-111.6943359375
-110.77880859375
-100.7080078125
-107.11669921875
-105.28564453125
-106.201171875
-109.86328125
-96.13037109375
-106.201171875
-111.6943359375
-110.77880859375
-112.60986328125
-102.5390625
-96.13037109375
-101.62353515625
-106.201171875
-108.0322265625
-115.3564453125
-118.10302734375
-115.3564453125
-113.525390625
-109.86328125
-99.79248046875
-96.13037109375
-109.86328125
-110.77880859375
-108.94775390625
-111.6943359375
-111.6943359375
-108.0322265625
-112.60986328125
-108.94775390625
-105.28564453125
-105.28564453125
-105.28564453125
-104.3701171875
-119.0185546875
-119.0185546875
-119.93408203125
-120.849609375
-117.1875
-110.77880859375
-105.28564453125
-98.876953125
-100.7080078125
-100.7080078125
-114.44091796875
-114.44091796875
-119.0185546875
-115.3564453125
-107.11669921875
-115.3564453125
-118.10302734375
-115.3564453125
-112.60986328125
-115.3564453125
-110.77880859375
-110.77880859375
-113.525390625
-119.0185546875
-118.10302734375
-111.6943359375
-106.201171875
-111.6943359375
-108.0322265625
-99.79248046875
-113.525390625
-116.27197265625
-115.3564453125
-120.849609375
-111.6943359375
-102.5390625
-108.94775390625
-111.6943359375
-115.3564453125
-109.86328125
-110.77880859375
-112.60986328125
-119.93408203125
-120.849609375
-120.849609375
-109.86328125
-115.3564453125
-116.27197265625
-111.6943359375
-106.201171875
-107.11669921875
-112.60986328125
-119.0185546875
-119.93408203125
-124.51171875
-111.6943359375
-109.86328125
-112.60986328125
-113.525390625
-101.62353515625
-107.11669921875
-116.27197265625
-116.27197265625
-120.849609375
-108.94775390625
-110.77880859375
-106.201171875
-90.63720703125
-96.13037109375
-97.0458984375
-86.97509765625
-85.14404296875
-84.228515625
-85.14404296875
-76.904296875
-75.0732421875
-65.00244140625
-67.7490234375
-66.83349609375
-64.0869140625
-60.4248046875
-63.17138671875
-59.50927734375
-50.35400390625
-43.9453125
-31.1279296875
-30.21240234375
-28.38134765625
-12.8173828125
-9.1552734375
-8.23974609375
-21.05712890625
-12.8173828125
-14.6484375
-27.4658203125
-16.4794921875
-12.8173828125
-23.8037109375
-37.53662109375
-43.9453125
-50.35400390625
-54.931640625
-69.580078125
-74.15771484375
-72.32666015625
-87.890625
-87.890625
-81.48193359375
-104.3701171875
-99.79248046875
-104.3701171875
-113.525390625
-119.93408203125
-119.0185546875
-116.27197265625
-111.6943359375
-117.1875
-119.93408203125
-113.525390625
-117.1875
-124.51171875
-128.173828125
-128.173828125
-129.08935546875
-127.25830078125
-130.92041015625
-124.51171875
-124.51171875
-124.51171875
-126.3427734375
-132.75146484375
-137.3291015625
-141.90673828125
-129.08935546875
-131.8359375
-127.25830078125
-120.849609375
-124.51171875
-121.76513671875
-120.849609375
-128.173828125
-131.8359375
-143.73779296875
-138.24462890625
-132.75146484375
-136.41357421875
-126.3427734375
-130.92041015625
-132.75146484375
-137.3291015625
-135.498046875
-122.6806640625
-99.79248046875
-86.0595703125
-61.34033203125
-44.86083984375
-17.39501953125
47.607421875
108.0322265625
200.50048828125
314.02587890625
448.6083984375
572.20458984375
690.3076171875
802.91748046875
893.5546875
955.810546875
922.8515625
806.57958984375
629.8828125
384.521484375
132.75146484375
-116.27197265625
-253.60107421875
-308.53271484375
-375.3662109375
-426.6357421875
-422.05810546875
-418.39599609375
-396.42333984375
-360.7177734375
-320.4345703125
-276.4892578125
-235.29052734375
-188.5986328125
-149.23095703125
-121.76513671875
-98.876953125
-86.0595703125
-63.17138671875
-58.59375
-53.1005859375
-54.01611328125
-54.931640625
-56.7626953125
-50.35400390625
-47.607421875
-36.62109375
-41.19873046875
-49.4384765625
-45.7763671875
-40.283203125
-41.19873046875
-42.1142578125
-43.9453125
-35.70556640625
-25.634765625
-21.97265625
-19.22607421875
-24.71923828125
-19.22607421875
-21.97265625
-30.21240234375
-30.21240234375
-20.1416015625
-18.310546875
-3.662109375
-7.32421875
-5.4931640625
-5.4931640625
-7.32421875
-0.91552734375
3.662109375
-0.91552734375
4.57763671875
10.986328125
14.6484375
23.8037109375
6.40869140625
22.88818359375
21.05712890625
20.1416015625
19.22607421875
