ECG
85.14404296875
149.23095703125
220.64208984375
330.50537109375
472.412109375
592.34619140625
697.6318359375
794.677734375
877.0751953125
904.541015625
870.66650390625
751.64794921875
581.35986328125
355.224609375
102.5390625
-118.10302734375
-218.81103515625
-279.23583984375
-349.7314453125
-377.197265625
-368.95751953125
-370.78857421875
-346.98486328125
-310.36376953125
-269.1650390625
-230.712890625
-187.68310546875
-154.72412109375
-119.0185546875
-92.46826171875
-69.580078125
-41.19873046875
-26.55029296875
-22.88818359375
-13.73291015625
-11.90185546875
-16.4794921875
-12.8173828125
-12.8173828125
-5.4931640625
11.90185546875
6.40869140625
10.07080078125
9.1552734375
9.1552734375
10.986328125
8.23974609375
9.1552734375
16.4794921875
25.634765625
28.38134765625
22.88818359375
28.38134765625
30.21240234375
25.634765625
35.70556640625
39.36767578125
41.19873046875
35.70556640625
38.4521484375
54.931640625
57.67822265625
54.931640625
55.84716796875
57.67822265625
58.59375
59.50927734375
63.17138671875
68.66455078125
71.4111328125
79.65087890625
82.3974609375
89.7216796875
89.7216796875
92.46826171875
95.21484375
97.96142578125
103.45458984375
92.46826171875
104.3701171875
117.1875
119.93408203125
115.3564453125
110.77880859375
118.10302734375
125.42724609375
131.8359375
136.41357421875
140.9912109375
145.56884765625
154.72412109375
155.6396484375
162.04833984375
173.9501953125
178.52783203125
179.443359375
181.2744140625
189.51416015625
203.2470703125
209.65576171875
214.2333984375
227.05078125
236.2060546875
244.44580078125
244.44580078125
253.60107421875
264.58740234375
270.08056640625
274.658203125
289.306640625
300.29296875
311.279296875
319.51904296875
327.7587890625
340.576171875
347.900390625
351.5625
364.3798828125
381.77490234375
390.93017578125
392.76123046875
392.76123046875
399.169921875
409.24072265625
411.9873046875
415.6494140625
417.48046875
418.39599609375
430.2978515625
438.53759765625
443.115234375
434.87548828125
434.87548828125
439.453125
426.6357421875
432.12890625
411.9873046875
385.43701171875
381.77490234375
374.45068359375
356.14013671875
344.23828125
318.603515625
301.20849609375
282.89794921875
254.5166015625
232.5439453125
217.8955078125
192.2607421875
163.87939453125
143.73779296875
130.0048828125
108.0322265625
98.876953125
75.98876953125
54.931640625
42.1142578125
38.4521484375
30.21240234375
15.56396484375
8.23974609375
1.8310546875
-8.23974609375
-14.6484375
-21.97265625
-21.05712890625
-30.21240234375
-40.283203125
-44.86083984375
-41.19873046875
-39.36767578125
-43.9453125
-40.283203125
-43.02978515625
-44.86083984375
-50.35400390625
-57.67822265625
-61.34033203125
-66.83349609375
-60.4248046875
-52.18505859375
-65.00244140625
-58.59375
-60.4248046875
-66.83349609375
-59.50927734375
-64.0869140625
-61.34033203125
-63.17138671875
-63.17138671875
-59.50927734375
-55.84716796875
-59.50927734375
-63.17138671875
-70.49560546875
-65.91796875
-63.17138671875
-70.49560546875
-70.49560546875
-67.7490234375
-66.83349609375
-59.50927734375
-57.67822265625
-54.931640625
-63.17138671875
-60.4248046875
-64.0869140625
-64.0869140625
-62.255859375
-63.17138671875
-55.84716796875
-59.50927734375
-54.01611328125
-57.67822265625
-66.83349609375
-74.15771484375
-65.00244140625
-50.35400390625
-53.1005859375
-56.7626953125
-48.52294921875
-53.1005859375
-58.59375
-60.4248046875
-64.0869140625
-57.67822265625
-60.4248046875
-63.17138671875
-61.34033203125
-55.84716796875
-54.931640625
-49.4384765625
-56.7626953125
-61.34033203125
-62.255859375
-57.67822265625
-55.84716796875
-65.00244140625
-70.49560546875
-67.7490234375
-64.0869140625
-69.580078125
-65.00244140625
-57.67822265625
-56.7626953125
-52.18505859375
-71.4111328125
-73.2421875
-75.0732421875
-72.32666015625
-62.255859375
-64.0869140625
-65.00244140625
-61.34033203125
-70.49560546875
-73.2421875
-72.32666015625
-73.2421875
-75.0732421875
-70.49560546875
-70.49560546875
-63.17138671875
-66.83349609375
-69.580078125
-78.7353515625
-75.0732421875
-74.15771484375
-77.81982421875
-81.48193359375
-65.91796875
-65.00244140625
-68.66455078125
-73.2421875
-75.0732421875
-76.904296875
-76.904296875
-83.31298828125
-84.228515625
-88.80615234375
-81.48193359375
-72.32666015625
-73.2421875
-73.2421875
-77.81982421875
-82.3974609375
-82.3974609375
-84.228515625
-91.552734375
-87.890625
-86.97509765625
-75.98876953125
-74.15771484375
-80.56640625
-77.81982421875
-77.81982421875
-76.904296875
-75.98876953125
-82.3974609375
-78.7353515625
-79.65087890625
-70.49560546875
-76.904296875
-78.7353515625
-87.890625
-85.14404296875
-80.56640625
-86.0595703125
-80.56640625
-81.48193359375
-82.3974609375
-79.65087890625
-68.66455078125
-73.2421875
-84.228515625
-83.31298828125
-81.48193359375
-83.31298828125
-85.14404296875
-92.46826171875
-92.46826171875
-84.228515625
-74.15771484375
-78.7353515625
-77.81982421875
-77.81982421875
-77.81982421875
-80.56640625
-77.81982421875
-72.32666015625
-62.255859375
-52.18505859375
-50.35400390625
-47.607421875
-35.70556640625
-23.8037109375
-28.38134765625
-44.86083984375
-48.52294921875
-41.19873046875
-41.19873046875
-29.296875
-3.662109375
-3.662109375
-7.32421875
0
7.32421875
10.07080078125
18.310546875
23.8037109375
21.97265625
22.88818359375
14.6484375
18.310546875
33.87451171875
32.04345703125
21.97265625
22.88818359375
1.8310546875
0.91552734375
-13.73291015625
-18.310546875
-19.22607421875
-22.88818359375
-30.21240234375
-42.1142578125
-54.931640625
-54.931640625
-68.66455078125
-57.67822265625
-65.91796875
-79.65087890625
-80.56640625
-83.31298828125
-84.228515625
-84.228515625
-81.48193359375
-89.7216796875
-99.79248046875
-94.29931640625
-97.96142578125
-89.7216796875
-85.14404296875
-83.31298828125
-88.80615234375
-96.13037109375
-96.13037109375
-103.45458984375
-110.77880859375
-113.525390625
-101.62353515625
-103.45458984375
-99.79248046875
-97.0458984375
-95.21484375
-97.0458984375
-98.876953125
-101.62353515625
-103.45458984375
-101.62353515625
-104.3701171875
-101.62353515625
-94.29931640625
-102.5390625
-101.62353515625
-104.3701171875
-112.60986328125
-118.10302734375
-121.76513671875
-118.10302734375
-103.45458984375
-91.552734375
-74.15771484375
-50.35400390625
-31.1279296875
-17.39501953125
21.05712890625
77.81982421875
137.3291015625
232.5439453125
359.80224609375
509.033203125
631.7138671875
722.35107421875
824.89013671875
897.216796875
899.0478515625
836.7919921875
678.40576171875
493.46923828125
251.77001953125
0
-181.2744140625
-268.24951171875
-328.67431640625
-389.09912109375
-397.3388671875
-399.169921875
-398.25439453125
-354.30908203125
-311.279296875
-270.08056640625
-219.7265625
-181.2744140625
-138.24462890625
-102.5390625
-93.3837890625
-81.48193359375
-59.50927734375
-37.53662109375
-23.8037109375
-11.90185546875
-4.57763671875
-7.32421875
-3.662109375
-8.23974609375
-8.23974609375
-2.74658203125
-2.74658203125
-5.4931640625
-10.07080078125
6.40869140625
10.07080078125
5.4931640625
19.22607421875
4.57763671875
7.32421875
7.32421875
15.56396484375
19.22607421875
18.310546875
21.97265625
29.296875
26.55029296875
32.958984375
26.55029296875
30.21240234375
31.1279296875
24.71923828125
30.21240234375
34.7900390625
42.1142578125
50.35400390625
51.26953125
54.01611328125
58.59375
57.67822265625
54.01611328125
54.01611328125
59.50927734375
65.91796875
80.56640625
77.81982421875
80.56640625
86.0595703125
85.14404296875
78.7353515625
89.7216796875
93.3837890625
99.79248046875
112.60986328125
120.849609375
119.93408203125
122.6806640625
122.6806640625
119.93408203125
123.59619140625
129.08935546875
138.24462890625
143.73779296875
156.55517578125
169.37255859375
178.52783203125
178.52783203125
185.85205078125
189.51416015625
190.4296875
192.2607421875
207.82470703125
215.14892578125
216.97998046875
241.69921875
256.34765625
249.0234375
261.8408203125
278.3203125
281.06689453125
285.64453125
294.7998046875
305.7861328125
320.4345703125
326.84326171875
342.4072265625
348.81591796875
357.97119140625
363.46435546875
369.873046875
380.859375
379.0283203125
390.0146484375
400.08544921875
408.3251953125
412.90283203125
417.48046875
420.22705078125
419.3115234375
421.142578125
416.56494140625
416.56494140625
419.3115234375
422.05810546875
422.05810546875
418.39599609375
406.494140625
392.76123046875
368.95751953125
349.7314453125
331.4208984375
316.7724609375
303.955078125
279.23583984375
262.75634765625
238.95263671875
213.31787109375
192.2607421875
173.9501953125
147.39990234375
132.75146484375
112.60986328125
80.56640625
75.0732421875
68.66455078125
57.67822265625
28.38134765625
15.56396484375
9.1552734375
-4.57763671875
-15.56396484375
-20.1416015625
-25.634765625
-36.62109375
-35.70556640625
-36.62109375
-47.607421875
-50.35400390625
-55.84716796875
-54.931640625
-56.7626953125
-65.00244140625
-69.580078125
-62.255859375
-65.00244140625
-65.91796875
-59.50927734375
-59.50927734375
-72.32666015625
-75.98876953125
-75.0732421875
-65.91796875
-73.2421875
-72.32666015625
-66.83349609375
-72.32666015625
-66.83349609375
-68.66455078125
-71.4111328125
-78.7353515625
-76.904296875
-70.49560546875
-69.580078125
-71.4111328125
-64.0869140625
-63.17138671875
-69.580078125
-68.66455078125
-61.34033203125
-69.580078125
-71.4111328125
-72.32666015625
-64.0869140625
-61.34033203125
-63.17138671875
-64.0869140625
-60.4248046875
-64.0869140625
-57.67822265625
-46.69189453125
-52.18505859375
-67.7490234375
-61.34033203125
-57.67822265625
-59.50927734375
-65.91796875
-62.255859375
-47.607421875
-55.84716796875
-65.91796875
-68.66455078125
-66.83349609375
-59.50927734375
-53.1005859375
-54.931640625
-57.67822265625
-52.18505859375
-56.7626953125
-69.580078125
-68.66455078125
-68.66455078125
-69.580078125
-69.580078125
-55.84716796875
-56.7626953125
-56.7626953125
-62.255859375
-62.255859375
-64.0869140625
-71.4111328125
-73.2421875
-75.98876953125
-66.83349609375
-62.255859375
-58.59375
-60.4248046875
-67.7490234375
-73.2421875
-76.904296875
-78.7353515625
-76.904296875
-85.14404296875
-79.65087890625
-71.4111328125
-78.7353515625
-81.48193359375
-75.0732421875
-75.98876953125
-75.0732421875
-76.904296875
-86.97509765625
-89.7216796875
-87.890625
-76.904296875
-85.14404296875
-90.63720703125
-85.14404296875
-85.14404296875
-88.80615234375
-80.56640625
-92.46826171875
-92.46826171875
-85.14404296875
-90.63720703125
-87.890625
-83.31298828125
-92.46826171875
-89.7216796875
-86.0595703125
-88.80615234375
-90.63720703125
-97.0458984375
-97.0458984375
-89.7216796875
-94.29931640625
-92.46826171875
-86.97509765625
-85.14404296875
-97.96142578125
-91.552734375
-93.3837890625
-101.62353515625
-89.7216796875
-90.63720703125
-86.97509765625
-88.80615234375
-91.552734375
-98.876953125
-100.7080078125
-93.3837890625
-88.80615234375
-99.79248046875
-93.3837890625
-97.0458984375
-89.7216796875
-81.48193359375
-86.0595703125
-95.21484375
-98.876953125
-97.0458984375
-94.29931640625
-103.45458984375
-108.94775390625
-97.0458984375
-93.3837890625
-89.7216796875
-88.80615234375
-90.63720703125
-97.96142578125
-102.5390625
-100.7080078125
-95.21484375
-92.46826171875
-91.552734375
-93.3837890625
-90.63720703125
-90.63720703125
-91.552734375
-87.890625
-80.56640625
-82.3974609375
-72.32666015625
-66.83349609375
-57.67822265625
-58.59375
-47.607421875
-44.86083984375
-51.26953125
-53.1005859375
-47.607421875
-54.01611328125
-56.7626953125
-41.19873046875
-21.97265625
-15.56396484375
-8.23974609375
-2.74658203125
6.40869140625
10.986328125
0
6.40869140625
4.57763671875
0.91552734375
4.57763671875
17.39501953125
21.97265625
14.6484375
12.8173828125
4.57763671875
-6.40869140625
-24.71923828125
-32.958984375
-32.04345703125
-33.87451171875
-35.70556640625
-42.1142578125
-64.0869140625
-65.91796875
-64.0869140625
-74.15771484375
-81.48193359375
-83.31298828125
-105.28564453125
-108.94775390625
-96.13037109375
-97.96142578125
-95.21484375
-97.0458984375
-98.876953125
-107.11669921875
-113.525390625
-110.77880859375
-113.525390625
-108.94775390625
-98.876953125
-102.5390625
-107.11669921875
-103.45458984375
-106.201171875
-123.59619140625
-122.6806640625
-115.3564453125
-110.77880859375
-110.77880859375
-110.77880859375
-111.6943359375
-109.86328125
-102.5390625
-100.7080078125
-111.6943359375
-121.76513671875
-125.42724609375
-114.44091796875
-114.44091796875
-99.79248046875
-111.6943359375
-127.25830078125
-124.51171875
-135.498046875
-131.8359375
-121.76513671875
-98.876953125
-86.0595703125
-68.66455078125
-45.7763671875
-34.7900390625
-2.74658203125
70.49560546875
129.08935546875
204.16259765625
327.7587890625
465.087890625
595.0927734375
698.54736328125
812.98828125
889.892578125
888.97705078125
836.7919921875
687.56103515625
509.033203125
265.5029296875
10.07080078125
-176.69677734375
-257.26318359375
-324.0966796875
-396.42333984375
-419.3115234375
-414.73388671875
-412.90283203125
-379.94384765625
-350.64697265625
-305.7861328125
-261.8408203125
-205.99365234375
-161.1328125
-119.0185546875
-93.3837890625
-74.15771484375
-53.1005859375
-34.7900390625
-38.4521484375
-33.87451171875
-27.4658203125
-24.71923828125
-17.39501953125
-8.23974609375
3.662109375
-0.91552734375
-16.4794921875
-22.88818359375
-24.71923828125
-22.88818359375
-17.39501953125
2.74658203125
-0.91552734375
4.57763671875
6.40869140625
11.90185546875
14.6484375
8.23974609375
7.32421875
14.6484375
13.73291015625
7.32421875
18.310546875
16.4794921875
20.1416015625
19.22607421875
24.71923828125
29.296875
16.4794921875
21.97265625
32.04345703125
44.86083984375
61.34033203125
54.931640625
44.86083984375
58.59375
62.255859375
54.931640625
60.4248046875
59.50927734375
72.32666015625
65.00244140625
74.15771484375
88.80615234375
84.228515625
86.0595703125
88.80615234375
93.3837890625
97.0458984375
95.21484375
103.45458984375
114.44091796875
117.1875
118.10302734375
123.59619140625
132.75146484375
130.0048828125
136.41357421875
146.484375
150.146484375
154.72412109375
160.21728515625
157.470703125
165.71044921875
182.18994140625
191.34521484375
199.5849609375
189.51416015625
209.65576171875
221.5576171875
224.30419921875
236.2060546875
251.77001953125
257.26318359375
276.4892578125
288.39111328125
288.39111328125
297.54638671875
309.4482421875
312.19482421875
326.84326171875
342.4072265625
350.64697265625
374.45068359375
385.43701171875
379.94384765625
391.845703125
390.93017578125
381.77490234375
390.93017578125
382.6904296875
393.6767578125
417.48046875
422.05810546875
417.48046875
403.74755859375
409.24072265625
405.57861328125
395.5078125
394.59228515625
394.59228515625
379.94384765625
379.0283203125
365.29541015625
355.224609375
349.7314453125
320.4345703125
307.6171875
289.306640625
251.77001953125
221.5576171875
214.2333984375
200.50048828125
169.37255859375
142.822265625
119.93408203125
93.3837890625
77.81982421875
56.7626953125
28.38134765625
18.310546875
9.1552734375
-9.1552734375
-8.23974609375
-21.05712890625
-31.1279296875
-27.4658203125
-28.38134765625
-37.53662109375
-42.1142578125
-55.84716796875
-52.18505859375
-49.4384765625
-53.1005859375
-48.52294921875
-61.34033203125
-75.98876953125
-72.32666015625
-78.7353515625
-74.15771484375
-65.00244140625
-72.32666015625
-75.98876953125
-80.56640625
-73.2421875
-77.81982421875
-89.7216796875
-90.63720703125
-89.7216796875
-86.97509765625
-85.14404296875
-79.65087890625
-78.7353515625
-89.7216796875
-97.96142578125
-86.97509765625
-75.98876953125
-79.65087890625
-92.46826171875
-107.11669921875
-102.5390625
-90.63720703125
-91.552734375
-72.32666015625
-62.255859375
-53.1005859375
-57.67822265625
-68.66455078125
-70.49560546875
-65.91796875
-63.17138671875
-71.4111328125
-69.580078125
-64.0869140625
-56.7626953125
-48.52294921875
-63.17138671875
-58.59375
-55.84716796875
-74.15771484375
-70.49560546875
-66.83349609375
-73.2421875
-71.4111328125
-82.3974609375
-95.21484375
-86.0595703125
-67.7490234375
-66.83349609375
-53.1005859375
-51.26953125
-57.67822265625
-75.0732421875
-79.65087890625
-59.50927734375
-59.50927734375
-67.7490234375
-59.50927734375
-60.4248046875
-71.4111328125
-75.0732421875
-68.66455078125
-65.91796875
-71.4111328125
-71.4111328125
-66.83349609375
-59.50927734375
-58.59375
-59.50927734375
-58.59375
-62.255859375
-59.50927734375
-68.66455078125
-77.81982421875
-77.81982421875
-72.32666015625
-86.0595703125
-83.31298828125
-86.97509765625
-88.80615234375
-80.56640625
-74.15771484375
-76.904296875
-67.7490234375
-64.0869140625
-61.34033203125
-57.67822265625
-69.580078125
-78.7353515625
-103.45458984375
-102.5390625
-86.0595703125
-70.49560546875
-74.15771484375
-86.0595703125
-78.7353515625
-75.0732421875
-76.904296875
-86.97509765625
-90.63720703125
-92.46826171875
-95.21484375
-88.80615234375
-79.65087890625
-103.45458984375
-97.96142578125
-86.0595703125
-92.46826171875
-86.0595703125
-94.29931640625
-95.21484375
-90.63720703125
-107.11669921875
-89.7216796875
-74.15771484375
-75.0732421875
-74.15771484375
-89.7216796875
-91.552734375
-93.3837890625
-102.5390625
-101.62353515625
-87.890625
-75.98876953125
-85.14404296875
-86.97509765625
-106.201171875
-100.7080078125
-101.62353515625
-111.6943359375
-103.45458984375
-89.7216796875
-92.46826171875
-82.3974609375
-78.7353515625
-87.890625
-102.5390625
-100.7080078125
-97.96142578125
-96.13037109375
-84.228515625
-75.98876953125
-82.3974609375
-70.49560546875
-67.7490234375
-52.18505859375
-53.1005859375
-38.4521484375
-37.53662109375
-65.00244140625
-82.3974609375
-71.4111328125
-53.1005859375
-29.296875
-25.634765625
-16.4794921875
-12.8173828125
-6.40869140625
8.23974609375
12.8173828125
29.296875
17.39501953125
10.986328125
-0.91552734375
-1.8310546875
18.310546875
16.4794921875
1.8310546875
-2.74658203125
-13.73291015625
-32.04345703125
-20.1416015625
-17.39501953125
-31.1279296875
-50.35400390625
-53.1005859375
-67.7490234375
-78.7353515625
-99.79248046875
-110.77880859375
-92.46826171875
-75.0732421875
-89.7216796875
-99.79248046875
-108.94775390625
-89.7216796875
-95.21484375
-93.3837890625
-99.79248046875
-119.93408203125
-110.77880859375
-100.7080078125
-99.79248046875
-100.7080078125
-112.60986328125
-113.525390625
-117.1875
-124.51171875
-124.51171875
-123.59619140625
-119.0185546875
-117.1875
-106.201171875
-110.77880859375
-113.525390625
-107.11669921875
-105.28564453125
-105.28564453125
-117.1875
-119.0185546875
-132.75146484375
-122.6806640625
-119.93408203125
-111.6943359375
-101.62353515625
-107.11669921875
-119.93408203125
-118.10302734375
-130.92041015625
-135.498046875
-139.16015625
-126.3427734375
-102.5390625
-72.32666015625
-61.34033203125
-42.1142578125
-14.6484375
17.39501953125
76.904296875
139.16015625
238.037109375
390.0146484375
529.1748046875
636.29150390625
741.5771484375
845.03173828125
909.11865234375
888.0615234375
805.6640625
640.869140625
433.04443359375
171.20361328125
-79.65087890625
-233.45947265625
-290.22216796875
-355.224609375
-397.3388671875
-417.48046875
-427.55126953125
-415.6494140625
-366.2109375
-321.35009765625
-272.8271484375
-231.62841796875
-170.2880859375
-140.07568359375
-119.0185546875
-112.60986328125
-89.7216796875
-79.65087890625
-44.86083984375
-13.73291015625
2.74658203125
2.74658203125
-6.40869140625
-15.56396484375
-17.39501953125
-38.4521484375
-30.21240234375
-24.71923828125
-20.1416015625
-23.8037109375
-5.4931640625
-10.07080078125
14.6484375
15.56396484375
2.74658203125
-2.74658203125
3.662109375
16.4794921875
15.56396484375
12.8173828125
18.310546875
31.1279296875
23.8037109375
10.07080078125
5.4931640625
12.8173828125
24.71923828125
28.38134765625
37.53662109375
41.19873046875
38.4521484375
44.86083984375
47.607421875
43.02978515625
35.70556640625
41.19873046875
54.931640625
52.18505859375
61.34033203125
64.0869140625
83.31298828125
86.0595703125
85.14404296875
74.15771484375
83.31298828125
77.81982421875
79.65087890625
85.14404296875
107.11669921875
111.6943359375
120.849609375
125.42724609375
112.60986328125
117.1875
129.08935546875
129.08935546875
131.8359375
136.41357421875
149.23095703125
157.470703125
167.54150390625
173.9501953125
181.2744140625
174.86572265625
178.52783203125
184.02099609375
199.5849609375
217.8955078125
223.388671875
219.7265625
227.05078125
259.09423828125
271.91162109375
269.1650390625
278.3203125
292.96875
290.22216796875
290.22216796875
310.36376953125
325.01220703125
330.50537109375
345.15380859375
361.63330078125
361.63330078125
364.3798828125
381.77490234375
390.93017578125
390.0146484375
404.6630859375
404.6630859375
425.72021484375
419.3115234375
423.88916015625
433.9599609375
427.55126953125
414.73388671875
409.24072265625
429.38232421875
424.8046875
423.88916015625
416.56494140625
403.74755859375
402.83203125
390.93017578125
360.7177734375
336.9140625
305.7861328125
278.3203125
266.41845703125
255.43212890625
237.12158203125
216.064453125
185.85205078125
184.02099609375
159.3017578125
126.3427734375
106.201171875
86.0595703125
71.4111328125
46.69189453125
49.4384765625
45.7763671875
35.70556640625
20.1416015625
9.1552734375
-21.97265625
-37.53662109375
-37.53662109375
-35.70556640625
-34.7900390625
-27.4658203125
-24.71923828125
-45.7763671875
-60.4248046875
-63.17138671875
-74.15771484375
-78.7353515625
-73.2421875
-67.7490234375
-76.904296875
-72.32666015625
-63.17138671875
-67.7490234375
-53.1005859375
-58.59375
-62.255859375
-76.904296875
-83.31298828125
-84.228515625
-75.98876953125
-73.2421875
-76.904296875
-71.4111328125
-63.17138671875
-64.0869140625
-62.255859375
-62.255859375
-75.0732421875
-77.81982421875
-61.34033203125
-66.83349609375
-76.904296875
-78.7353515625
-58.59375
-64.0869140625
-74.15771484375
-81.48193359375
-75.0732421875
-58.59375
-54.931640625
-61.34033203125
-55.84716796875
-75.98876953125
-68.66455078125
-67.7490234375
-69.580078125
-61.34033203125
-54.01611328125
-65.91796875
-67.7490234375
-61.34033203125
-65.00244140625
-77.81982421875
-73.2421875
-66.83349609375
-69.580078125
-51.26953125
-54.931640625
-55.84716796875
-63.17138671875
-58.59375
-54.931640625
-63.17138671875
-75.0732421875
-71.4111328125
-65.91796875
-54.01611328125
-53.1005859375
-56.7626953125
-50.35400390625
-51.26953125
-70.49560546875
-70.49560546875
-54.931640625
-54.01611328125
-58.59375
-64.0869140625
-77.81982421875
-76.904296875
-64.0869140625
-57.67822265625
-50.35400390625
-58.59375
-74.15771484375
-75.0732421875
-79.65087890625
-79.65087890625
-87.890625
-86.97509765625
-78.7353515625
-61.34033203125
-49.4384765625
-45.7763671875
-51.26953125
-63.17138671875
-75.0732421875
-93.3837890625
-89.7216796875
-86.0595703125
-78.7353515625
-65.00244140625
-70.49560546875
-83.31298828125
-70.49560546875
-65.91796875
-72.32666015625
-78.7353515625
-88.80615234375
-86.0595703125
-65.00244140625
-71.4111328125
-79.65087890625
-91.552734375
-84.228515625
-76.904296875
-74.15771484375
-70.49560546875
-79.65087890625
-78.7353515625
-79.65087890625
-75.0732421875
-82.3974609375
-73.2421875
-69.580078125
-71.4111328125
-65.91796875
-73.2421875
-86.0595703125
-88.80615234375
-82.3974609375
-66.83349609375
-65.91796875
-56.7626953125
-65.00244140625
-69.580078125
-65.00244140625
-54.931640625
-49.4384765625
-37.53662109375
-23.8037109375
-21.05712890625
-26.55029296875
-36.62109375
-29.296875
-39.36767578125
-44.86083984375
-46.69189453125
-27.4658203125
-2.74658203125
10.986328125
14.6484375
18.310546875
21.97265625
32.04345703125
36.62109375
36.62109375
20.1416015625
10.986328125
14.6484375
43.02978515625
42.1142578125
39.36767578125
47.607421875
43.9453125
29.296875
10.07080078125
1.8310546875
-6.40869140625
-15.56396484375
-18.310546875
-23.8037109375
-42.1142578125
-54.931640625
-56.7626953125
-43.02978515625
-54.931640625
-69.580078125
-82.3974609375
-80.56640625
-81.48193359375
-75.98876953125
-77.81982421875
-72.32666015625
-69.580078125
-67.7490234375
-71.4111328125
-86.97509765625
-87.890625
-80.56640625
-78.7353515625
-85.14404296875
-94.29931640625
-104.3701171875
-106.201171875
-98.876953125
-79.65087890625
-70.49560546875
-70.49560546875
-86.0595703125
-83.31298828125
-80.56640625
-73.2421875
-87.890625
-86.0595703125
-80.56640625
-85.14404296875
-82.3974609375
-92.46826171875
-87.890625
-89.7216796875
-97.96142578125
-80.56640625
-86.0595703125
-95.21484375
-94.29931640625
-101.62353515625
-90.63720703125
-86.0595703125
-58.59375
-32.04345703125
-1.8310546875
29.296875
93.3837890625
164.794921875
235.29052734375
353.3935546875
480.65185546875
604.248046875
725.09765625
834.04541015625
899.96337890625
930.17578125
879.82177734375
755.31005859375
575.86669921875
342.4072265625
83.31298828125
-123.59619140625
-205.99365234375
-255.43212890625
-314.02587890625
-335.99853515625
-342.4072265625
-353.3935546875
-339.66064453125
-295.71533203125
-271.91162109375
-242.61474609375
-201.416015625
-155.6396484375
-116.27197265625
-86.97509765625
-79.65087890625
-54.931640625
-29.296875
-14.6484375
-6.40869140625
-20.1416015625
-15.56396484375
-0.91552734375
18.310546875
17.39501953125
20.1416015625
23.8037109375
21.97265625
9.1552734375
20.1416015625
14.6484375
18.310546875
19.22607421875
32.04345703125
21.05712890625
36.62109375
29.296875
31.1279296875
28.38134765625
35.70556640625
46.69189453125
52.18505859375
43.02978515625
38.4521484375
43.02978515625
38.4521484375
49.4384765625
56.7626953125
54.931640625
49.4384765625
54.931640625
62.255859375
75.0732421875
69.580078125
86.97509765625
77.81982421875
70.49560546875
72.32666015625
82.3974609375
89.7216796875
86.0595703125
92.46826171875
97.96142578125
106.201171875
114.44091796875
108.0322265625
119.0185546875
124.51171875
128.173828125
123.59619140625
124.51171875
123.59619140625
134.58251953125
151.9775390625
143.73779296875
156.55517578125
163.87939453125
160.21728515625
165.71044921875
171.20361328125
189.51416015625
194.091796875
199.5849609375
213.31787109375
231.62841796875
230.712890625
240.78369140625
239.8681640625
243.5302734375
251.77001953125
257.26318359375
274.658203125
288.39111328125
304.87060546875
312.19482421875
324.0966796875
326.84326171875
334.16748046875
327.7587890625
351.5625
363.46435546875
370.78857421875
385.43701171875
389.09912109375
398.25439453125
405.57861328125
411.9873046875
413.818359375
428.466796875
434.87548828125
436.70654296875
444.9462890625
453.18603515625
455.9326171875
445.86181640625
447.69287109375
442.19970703125
429.38232421875
441.2841796875
435.791015625
413.818359375
410.15625
390.0146484375
376.28173828125
350.64697265625
331.4208984375
313.1103515625
285.64453125
263.671875
238.95263671875
227.96630859375
211.48681640625
201.416015625
171.20361328125
151.06201171875
126.3427734375
103.45458984375
86.0595703125
70.49560546875
61.34033203125
57.67822265625
48.52294921875
40.283203125
38.4521484375
26.55029296875
5.4931640625
-12.8173828125
-20.1416015625
-20.1416015625
-21.05712890625
-25.634765625
-25.634765625
-24.71923828125
-28.38134765625
-44.86083984375
-36.62109375
-43.02978515625
-38.4521484375
-39.36767578125
-49.4384765625
-56.7626953125
-54.931640625
-60.4248046875
-60.4248046875
-40.283203125
-34.7900390625
-44.86083984375
-56.7626953125
-57.67822265625
-60.4248046875
-56.7626953125
-53.1005859375
-39.36767578125
-43.9453125
-36.62109375
-21.05712890625
-43.02978515625
-47.607421875
-39.36767578125
-43.02978515625
-54.931640625
-53.1005859375
-43.02978515625
-41.19873046875
-36.62109375
-47.607421875
-54.931640625
-41.19873046875
-39.36767578125
-50.35400390625
-52.18505859375
-48.52294921875
-44.86083984375
-44.86083984375
-33.87451171875
-33.87451171875
-34.7900390625
-45.7763671875
-39.36767578125
-31.1279296875
-36.62109375
-47.607421875
-21.97265625
-26.55029296875
-32.04345703125
-32.04345703125
-38.4521484375
-39.36767578125
-45.7763671875
-47.607421875
-47.607421875
-44.86083984375
-29.296875
-15.56396484375
-23.8037109375
-32.04345703125
-25.634765625
-25.634765625
-43.02978515625
-52.18505859375
-52.18505859375
-56.7626953125
-47.607421875
-31.1279296875
-32.04345703125
-40.283203125
-42.1142578125
-39.36767578125
-38.4521484375
-54.01611328125
-37.53662109375
-43.9453125
-47.607421875
-37.53662109375
-28.38134765625
-30.21240234375
-42.1142578125
-55.84716796875
-71.4111328125
-70.49560546875
-63.17138671875
-54.01611328125
-44.86083984375
-43.02978515625
-43.02978515625
-46.69189453125
-59.50927734375
-64.0869140625
-61.34033203125
-54.931640625
-59.50927734375
-47.607421875
-52.18505859375
-44.86083984375
-46.69189453125
-40.283203125
-61.34033203125
-69.580078125
-65.00244140625
-73.2421875
-74.15771484375
-65.00244140625
-62.255859375
-50.35400390625
-47.607421875
-48.52294921875
-53.1005859375
-76.904296875
-83.31298828125
-75.0732421875
-65.91796875
-60.4248046875
-52.18505859375
-54.931640625
-58.59375
-59.50927734375
-61.34033203125
-65.00244140625
-63.17138671875
-74.15771484375
-61.34033203125
-54.931640625
-50.35400390625
-52.18505859375
-69.580078125
-65.91796875
-64.0869140625
-49.4384765625
-49.4384765625
-43.02978515625
-30.21240234375
-32.04345703125
-18.310546875
-10.986328125
-10.986328125
-13.73291015625
-17.39501953125
-24.71923828125
-30.21240234375
-22.88818359375
-14.6484375
-2.74658203125
13.73291015625
23.8037109375
26.55029296875
26.55029296875
26.55029296875
37.53662109375
43.02978515625
43.02978515625
40.283203125
26.55029296875
36.62109375
63.17138671875
78.7353515625
73.2421875
62.255859375
42.1142578125
24.71923828125
16.4794921875
11.90185546875
8.23974609375
-3.662109375
2.74658203125
-2.74658203125
-16.4794921875
-26.55029296875
-34.7900390625
-33.87451171875
-47.607421875
-57.67822265625
-68.66455078125
-61.34033203125
-59.50927734375
-52.18505859375
-52.18505859375
-54.01611328125
-58.59375
-65.00244140625
-72.32666015625
-72.32666015625
-74.15771484375
-63.17138671875
-62.255859375
-71.4111328125
-70.49560546875
-77.81982421875
-86.0595703125
-89.7216796875
-72.32666015625
-58.59375
-57.67822265625
-60.4248046875
-65.91796875
-59.50927734375
-70.49560546875
-75.98876953125
-83.31298828125
-75.98876953125
-78.7353515625
-72.32666015625
-64.0869140625
-62.255859375
-59.50927734375
-62.255859375
-66.83349609375
-70.49560546875
-85.14404296875
-82.3974609375
-67.7490234375
-43.9453125
-32.958984375
-14.6484375
4.57763671875
5.4931640625
46.69189453125
122.6806640625
197.75390625
282.89794921875
411.9873046875
537.41455078125
649.10888671875
765.380859375
852.35595703125
922.8515625
925.59814453125
871.58203125
723.2666015625
530.09033203125
280.1513671875
51.26953125
-130.92041015625
-220.64208984375
-262.75634765625
-322.265625
-343.32275390625
-337.82958984375
-352.47802734375
-333.251953125
-296.630859375
-254.5166015625
-201.416015625
-159.3017578125
-120.849609375
-82.3974609375
-73.2421875
-45.7763671875
-20.1416015625
-12.8173828125
-9.1552734375
1.8310546875
-0.91552734375
16.4794921875
36.62109375
37.53662109375
29.296875
22.88818359375
25.634765625
20.1416015625
22.88818359375
17.39501953125
35.70556640625
37.53662109375
47.607421875
45.7763671875
33.87451171875
28.38134765625
38.4521484375
38.4521484375
38.4521484375
47.607421875
50.35400390625
50.35400390625
54.931640625
54.01611328125
55.84716796875
66.83349609375
60.4248046875
52.18505859375
60.4248046875
75.0732421875
74.15771484375
77.81982421875
81.48193359375
79.65087890625
104.3701171875
107.11669921875
95.21484375
80.56640625
86.97509765625
98.876953125
102.5390625
103.45458984375
99.79248046875
112.60986328125
115.3564453125
118.10302734375
126.3427734375
130.92041015625
130.0048828125
134.58251953125
145.56884765625
154.72412109375
141.90673828125
150.146484375
154.72412109375
161.1328125
174.86572265625
174.86572265625
189.51416015625
184.9365234375
192.2607421875
200.50048828125
211.48681640625
213.31787109375
225.2197265625
241.69921875
241.69921875
244.44580078125
265.5029296875
264.58740234375
266.41845703125
277.40478515625
303.03955078125
311.279296875
325.927734375
324.0966796875
337.82958984375
339.66064453125
353.3935546875
370.78857421875
377.197265625
380.859375
398.25439453125
403.74755859375
406.494140625
410.15625
414.73388671875
427.55126953125
429.38232421875
435.791015625
443.115234375
446.77734375
466.9189453125
472.412109375
458.67919921875
458.67919921875
455.01708984375
438.53759765625
444.03076171875
432.12890625
435.791015625
422.9736328125
400.08544921875
395.5078125
379.94384765625
339.66064453125
311.279296875
291.1376953125
279.23583984375
256.34765625
245.361328125
225.2197265625
186.767578125
170.2880859375
154.72412109375
127.25830078125
103.45458984375
85.14404296875
64.0869140625
67.7490234375
55.84716796875
40.283203125
44.86083984375
37.53662109375
24.71923828125
8.23974609375
0
-20.1416015625
-27.4658203125
-27.4658203125
-37.53662109375
-33.87451171875
-20.1416015625
-38.4521484375
-28.38134765625
-25.634765625
-42.1142578125
-49.4384765625
-59.50927734375
-56.7626953125
-59.50927734375
-50.35400390625
-45.7763671875
-38.4521484375
-50.35400390625
-47.607421875
-51.26953125
-58.59375
-63.17138671875
-64.0869140625
-57.67822265625
-53.1005859375
-54.931640625
-63.17138671875
-59.50927734375
-63.17138671875
-67.7490234375
-65.00244140625
-52.18505859375
-42.1142578125
-43.02978515625
-44.86083984375
-32.04345703125
-43.9453125
-61.34033203125
-43.02978515625
-32.04345703125
-40.283203125
-75.98876953125
-63.17138671875
-51.26953125
-42.1142578125
-30.21240234375
-37.53662109375
-43.02978515625
-51.26953125
-48.52294921875
-49.4384765625
-38.4521484375
-48.52294921875
-47.607421875
-47.607421875
-47.607421875
-41.19873046875
-36.62109375
-43.9453125
-40.283203125
-44.86083984375
-51.26953125
-51.26953125
-51.26953125
-30.21240234375
-38.4521484375
-38.4521484375
-50.35400390625
-61.34033203125
-45.7763671875
-44.86083984375
-43.02978515625
-35.70556640625
-33.87451171875
-32.958984375
-32.958984375
-40.283203125
-52.18505859375
-54.931640625
-40.283203125
-42.1142578125
-59.50927734375
-64.0869140625
-52.18505859375
-44.86083984375
-48.52294921875
-38.4521484375
-54.01611328125
-50.35400390625
-47.607421875
-59.50927734375
-67.7490234375
-71.4111328125
-65.91796875
-65.91796875
-58.59375
-54.931640625
-39.36767578125
-45.7763671875
-55.84716796875
-58.59375
-67.7490234375
-68.66455078125
-57.67822265625
-54.931640625
-54.01611328125
-50.35400390625
-65.91796875
-53.1005859375
-55.84716796875
-60.4248046875
-65.00244140625
-74.15771484375
-69.580078125
-76.904296875
-71.4111328125
-54.931640625
-51.26953125
-56.7626953125
-64.0869140625
-74.15771484375
-77.81982421875
-74.15771484375
-74.15771484375
-81.48193359375
-75.0732421875
-59.50927734375
-43.9453125
-53.1005859375
-66.83349609375
-62.255859375
-58.59375
-73.2421875
-75.98876953125
-66.83349609375
-62.255859375
-56.7626953125
-62.255859375
-57.67822265625
-59.50927734375
-50.35400390625
-34.7900390625
-31.1279296875
-34.7900390625
-24.71923828125
-13.73291015625
-19.22607421875
-13.73291015625
-16.4794921875
-22.88818359375
-31.1279296875
-17.39501953125
-21.05712890625
-6.40869140625
4.57763671875
12.8173828125
12.8173828125
10.986328125
32.04345703125
32.958984375
28.38134765625
27.4658203125
32.958984375
32.04345703125
46.69189453125
44.86083984375
28.38134765625
27.4658203125
26.55029296875
21.97265625
19.22607421875
22.88818359375
2.74658203125
-13.73291015625
-11.90185546875
-29.296875
-32.958984375
-43.02978515625
-40.283203125
-43.9453125
-65.00244140625
-62.255859375
-72.32666015625
-73.2421875
-58.59375
-54.01611328125
-59.50927734375
-76.904296875
-92.46826171875
-87.890625
-76.904296875
-77.81982421875
-83.31298828125
-93.3837890625
-80.56640625
-81.48193359375
-83.31298828125
-96.13037109375
-84.228515625
-81.48193359375
-75.98876953125
-80.56640625
-80.56640625
-79.65087890625
-89.7216796875
-89.7216796875
-83.31298828125
-75.98876953125
-88.80615234375
-80.56640625
-83.31298828125
-92.46826171875
-90.63720703125
-93.3837890625
-82.3974609375
-78.7353515625
-82.3974609375
-86.0595703125
-94.29931640625
-94.29931640625
-97.0458984375
-93.3837890625
-81.48193359375
-65.91796875
-43.9453125
-25.634765625
-3.662109375
32.958984375
95.21484375
166.6259765625
252.685546875
364.3798828125
502.62451171875
628.96728515625
742.49267578125
842.28515625
910.94970703125
914.61181640625
861.51123046875
703.125
496.2158203125
245.361328125
5.4931640625
-184.02099609375
-244.44580078125
-303.955078125
-371.7041015625
-380.859375
-378.11279296875
-371.7041015625
-346.98486328125
-315.85693359375
-268.24951171875
-216.064453125
-188.5986328125
-134.58251953125
-106.201171875
-76.904296875
-49.4384765625
-31.1279296875
-26.55029296875
-16.4794921875
-6.40869140625
3.662109375
11.90185546875
19.22607421875
6.40869140625
3.662109375
11.90185546875
8.23974609375
8.23974609375
10.07080078125
15.56396484375
21.97265625
21.97265625
23.8037109375
35.70556640625
32.04345703125
20.1416015625
23.8037109375
26.55029296875
23.8037109375
27.4658203125
34.7900390625
43.9453125
46.69189453125
48.52294921875
51.26953125
54.01611328125
54.931640625
67.7490234375
58.59375
64.0869140625
64.0869140625
67.7490234375
86.0595703125
76.904296875
75.0732421875
83.31298828125
74.15771484375
72.32666015625
72.32666015625
78.7353515625
88.80615234375
97.96142578125
101.62353515625
108.94775390625
106.201171875
105.28564453125
117.1875
126.3427734375
115.3564453125
116.27197265625
126.3427734375
140.07568359375
146.484375
140.9912109375
150.146484375
159.3017578125
158.38623046875
166.6259765625
168.45703125
178.52783203125
181.2744140625
190.4296875
208.740234375
219.7265625
218.81103515625
222.47314453125
233.45947265625
237.12158203125
250.8544921875
255.43212890625
259.09423828125
275.57373046875
288.39111328125
293.88427734375
309.4482421875
315.85693359375
327.7587890625
339.66064453125
328.67431640625
347.900390625
367.12646484375
380.859375
390.93017578125
403.74755859375
405.57861328125
412.90283203125
420.22705078125
419.3115234375
419.3115234375
429.38232421875
442.19970703125
447.69287109375
461.42578125
458.67919921875
460.51025390625
445.86181640625
444.9462890625
439.453125
434.87548828125
422.05810546875
416.56494140625
407.40966796875
409.24072265625
390.93017578125
360.7177734375
346.98486328125
316.7724609375
289.306640625
260.92529296875
235.29052734375
217.8955078125
206.9091796875
195.00732421875
158.38623046875
140.9912109375
120.849609375
104.3701171875
83.31298828125
65.00244140625
43.9453125
27.4658203125
28.38134765625
27.4658203125
29.296875
7.32421875
-8.23974609375
-18.310546875
-23.8037109375
-30.21240234375
-36.62109375
-34.7900390625
-27.4658203125
-31.1279296875
-46.69189453125
-38.4521484375
-54.01611328125
-64.0869140625
-64.0869140625
-62.255859375
-62.255859375
-54.931640625
-54.01611328125
-43.02978515625
-47.607421875
-56.7626953125
-53.1005859375
-50.35400390625
-58.59375
-66.83349609375
-72.32666015625
-63.17138671875
-63.17138671875
-64.0869140625
-60.4248046875
-65.00244140625
-67.7490234375
-75.98876953125
-77.81982421875
-67.7490234375
-62.255859375
-58.59375
-53.1005859375
-59.50927734375
-62.255859375
-68.66455078125
-57.67822265625
-65.91796875
-67.7490234375
-63.17138671875
-64.0869140625
-60.4248046875
-50.35400390625
-49.4384765625
-52.18505859375
-57.67822265625
-54.01611328125
-65.00244140625
-65.91796875
-61.34033203125
-53.1005859375
-44.86083984375
-43.02978515625
-49.4384765625
-61.34033203125
-51.26953125
-57.67822265625
-62.255859375
-57.67822265625
-66.83349609375
-56.7626953125
-43.9453125
-39.36767578125
-42.1142578125
-46.69189453125
-54.931640625
-53.1005859375
-54.01611328125
-58.59375
-62.255859375
-54.931640625
-31.1279296875
-43.02978515625
-54.01611328125
-46.69189453125
-52.18505859375
-71.4111328125
-73.2421875
-63.17138671875
-65.91796875
-63.17138671875
-56.7626953125
-51.26953125
-61.34033203125
-73.2421875
-68.66455078125
-63.17138671875
-48.52294921875
-66.83349609375
-71.4111328125
-65.00244140625
-69.580078125
-75.98876953125
-65.91796875
-65.00244140625
-65.91796875
-66.83349609375
-59.50927734375
-68.66455078125
-72.32666015625
-78.7353515625
-84.228515625
-75.98876953125
-67.7490234375
-66.83349609375
-60.4248046875
-64.0869140625
-80.56640625
-93.3837890625
-92.46826171875
-83.31298828125
-75.98876953125
-71.4111328125
-59.50927734375
-57.67822265625
-70.49560546875
-66.83349609375
-62.255859375
-75.98876953125
-80.56640625
-78.7353515625
-76.904296875
-69.580078125
-71.4111328125
-86.97509765625
-90.63720703125
-79.65087890625
-75.98876953125
-75.0732421875
-75.0732421875
-76.904296875
-86.97509765625
-74.15771484375
-80.56640625
-88.80615234375
-83.31298828125
-70.49560546875
-76.904296875
-75.98876953125
-74.15771484375
-86.0595703125
-89.7216796875
-76.904296875
-68.66455078125
-69.580078125
-44.86083984375
-47.607421875
-56.7626953125
-58.59375
-53.1005859375
-46.69189453125
-34.7900390625
-42.1142578125
-42.1142578125
-37.53662109375
-33.87451171875
-36.62109375
-25.634765625
-10.07080078125
-10.07080078125
-21.05712890625
-5.4931640625
2.74658203125
11.90185546875
16.4794921875
30.21240234375
23.8037109375
11.90185546875
1.8310546875
1.8310546875
8.23974609375
27.4658203125
30.21240234375
35.70556640625
43.02978515625
28.38134765625
11.90185546875
-12.8173828125
-32.04345703125
-30.21240234375
-36.62109375
-45.7763671875
-60.4248046875
-65.91796875
-56.7626953125
-57.67822265625
-63.17138671875
-73.2421875
-78.7353515625
-92.46826171875
-93.3837890625
-99.79248046875
-93.3837890625
-86.97509765625
-78.7353515625
-84.228515625
-97.96142578125
-102.5390625
-96.13037109375
-100.7080078125
-101.62353515625
-96.13037109375
-89.7216796875
-99.79248046875
-98.876953125
-83.31298828125
-86.97509765625
-94.29931640625
-98.876953125
-108.94775390625
-111.6943359375
-111.6943359375
-85.14404296875
-73.2421875
-84.228515625
-79.65087890625
-85.14404296875
-96.13037109375
-99.79248046875
-103.45458984375
-90.63720703125
-97.96142578125
-89.7216796875
-88.80615234375
-92.46826171875
-94.29931640625
-94.29931640625
-100.7080078125
-86.0595703125
-73.2421875
-40.283203125
-10.986328125
7.32421875
42.1142578125
112.60986328125
174.86572265625
270.99609375
409.24072265625
532.8369140625
653.6865234375
769.95849609375
867.00439453125
930.17578125
923.76708984375
838.623046875
675.6591796875
460.51025390625
207.82470703125
-22.88818359375
-198.66943359375
-282.89794921875
-333.251953125
-382.6904296875
-379.94384765625
-372.61962890625
-360.7177734375
-315.85693359375
-281.06689453125
-250.8544921875
-227.05078125
-183.10546875
-124.51171875
-95.21484375
-62.255859375
-29.296875
-16.4794921875
-5.4931640625
3.662109375
-6.40869140625
-6.40869140625
-2.74658203125
5.4931640625
5.4931640625
19.22607421875
22.88818359375
21.97265625
21.97265625
21.97265625
25.634765625
16.4794921875
29.296875
46.69189453125
34.7900390625
33.87451171875
35.70556640625
46.69189453125
40.283203125
30.21240234375
39.36767578125
52.18505859375
54.01611328125
54.931640625
73.2421875
75.0732421875
73.2421875
61.34033203125
59.50927734375
56.7626953125
68.66455078125
67.7490234375
76.904296875
85.14404296875
91.552734375
91.552734375
88.80615234375
95.21484375
98.876953125
93.3837890625
94.29931640625
93.3837890625
99.79248046875
112.60986328125
107.11669921875
117.1875
130.92041015625
141.90673828125
139.16015625
135.498046875
131.8359375
139.16015625
149.23095703125
151.06201171875
162.04833984375
172.119140625
177.6123046875
172.119140625
180.35888671875
168.45703125
190.4296875
187.68310546875
190.4296875
205.99365234375
219.7265625
232.5439453125
232.5439453125
237.12158203125
253.60107421875
267.333984375
277.40478515625
293.88427734375
304.87060546875
300.29296875
321.35009765625
329.58984375
327.7587890625
344.23828125
352.47802734375
368.95751953125
383.60595703125
378.11279296875
380.859375
392.76123046875
414.73388671875
420.22705078125
422.9736328125
436.70654296875
445.86181640625
443.115234375
441.2841796875
449.52392578125
442.19970703125
449.52392578125
463.2568359375
471.49658203125
465.087890625
458.67919921875
448.6083984375
437.6220703125
432.12890625
435.791015625
427.55126953125
407.40966796875
380.859375
365.29541015625
337.82958984375
317.68798828125
290.22216796875
276.4892578125
264.58740234375
227.05078125
195.9228515625
182.18994140625
180.35888671875
156.55517578125
137.3291015625
115.3564453125
88.80615234375
54.931640625
48.52294921875
44.86083984375
28.38134765625
25.634765625
24.71923828125
22.88818359375
5.4931640625
4.57763671875
-6.40869140625
-16.4794921875
-31.1279296875
-36.62109375
-33.87451171875
-54.931640625
-49.4384765625
-34.7900390625
-35.70556640625
-38.4521484375
-54.931640625
-48.52294921875
-44.86083984375
-53.1005859375
-58.59375
-53.1005859375
-49.4384765625
-49.4384765625
-52.18505859375
-43.02978515625
-54.01611328125
-54.01611328125
-57.67822265625
-66.83349609375
-54.931640625
-56.7626953125
-57.67822265625
-65.00244140625
-65.91796875
-41.19873046875
-36.62109375
-44.86083984375
-59.50927734375
-56.7626953125
-52.18505859375
-54.931640625
-54.01611328125
-44.86083984375
-41.19873046875
-33.87451171875
-50.35400390625
-53.1005859375
-45.7763671875
-50.35400390625
-52.18505859375
-47.607421875
-48.52294921875
-44.86083984375
-46.69189453125
-47.607421875
-46.69189453125
-47.607421875
-40.283203125
-47.607421875
-54.01611328125
-40.283203125
-44.86083984375
-43.02978515625
-47.607421875
-48.52294921875
-45.7763671875
-43.02978515625
-32.958984375
-35.70556640625
-47.607421875
-51.26953125
-43.02978515625
-34.7900390625
-43.02978515625
-25.634765625
-35.70556640625
-55.84716796875
-52.18505859375
-55.84716796875
-59.50927734375
-48.52294921875
-43.02978515625
-53.1005859375
-56.7626953125
-52.18505859375
-40.283203125
-49.4384765625
-55.84716796875
-54.931640625
-53.1005859375
-49.4384765625
-47.607421875
-53.1005859375
-53.1005859375
-57.67822265625
-54.01611328125
-49.4384765625
-55.84716796875
-61.34033203125
-66.83349609375
-61.34033203125
-47.607421875
-43.02978515625
-57.67822265625
-58.59375
-68.66455078125
-58.59375
-58.59375
-66.83349609375
-68.66455078125
-66.83349609375
-60.4248046875
-53.1005859375
-62.255859375
-57.67822265625
-63.17138671875
-65.91796875
-69.580078125
-72.32666015625
-69.580078125
-66.83349609375
-65.00244140625
-68.66455078125
-67.7490234375
-64.0869140625
-71.4111328125
-72.32666015625
-66.83349609375
-79.65087890625
-86.0595703125
-81.48193359375
-72.32666015625
-67.7490234375
-68.66455078125
-77.81982421875
-86.97509765625
-75.0732421875
-69.580078125
-68.66455078125
-79.65087890625
-74.15771484375
-75.98876953125
-75.0732421875
-78.7353515625
-60.4248046875
-86.97509765625
-81.48193359375
-76.904296875
-76.904296875
-79.65087890625
-75.0732421875
-76.904296875
-85.14404296875
-75.98876953125
-70.49560546875
-71.4111328125
-68.66455078125
-56.7626953125
-55.84716796875
-53.1005859375
-44.86083984375
-42.1142578125
-41.19873046875
-33.87451171875
-33.87451171875
-37.53662109375
-39.36767578125
-44.86083984375
-43.02978515625
-25.634765625
-21.97265625
-8.23974609375
2.74658203125
4.57763671875
9.1552734375
10.07080078125
21.05712890625
15.56396484375
10.07080078125
11.90185546875
15.56396484375
15.56396484375
12.8173828125
34.7900390625
35.70556640625
25.634765625
21.05712890625
-6.40869140625
-16.4794921875
-21.97265625
-29.296875
-30.21240234375
-32.958984375
-45.7763671875
-58.59375
-56.7626953125
-60.4248046875
-64.0869140625
-68.66455078125
-86.0595703125
-86.97509765625
-86.97509765625
-81.48193359375
-79.65087890625
-75.98876953125
-89.7216796875
-92.46826171875
-95.21484375
-91.552734375
-88.80615234375
-83.31298828125
-80.56640625
-85.14404296875
-86.97509765625
-92.46826171875
-97.96142578125
-104.3701171875
-98.876953125
-101.62353515625
-94.29931640625
-86.97509765625
-95.21484375
-81.48193359375
-77.81982421875
-85.14404296875
-89.7216796875
-99.79248046875
-93.3837890625
-81.48193359375
-101.62353515625
-92.46826171875
-90.63720703125
-96.13037109375
-99.79248046875
-99.79248046875
-96.13037109375
-100.7080078125
-97.0458984375
-94.29931640625
-85.14404296875
-67.7490234375
-30.21240234375
-0.91552734375
4.57763671875
26.55029296875
97.0458984375
163.87939453125
258.1787109375
386.3525390625
511.77978515625
654.60205078125
770.8740234375
861.51123046875
924.6826171875
922.8515625
849.609375
693.05419921875
498.046875
253.60107421875
-1.8310546875
-174.86572265625
-243.5302734375
-306.70166015625
-360.7177734375
-370.78857421875
-374.45068359375
-365.29541015625
-331.4208984375
-303.955078125
-270.99609375
-223.388671875
-172.119140625
-127.25830078125
-104.3701171875
-86.97509765625
-67.7490234375
-49.4384765625
-39.36767578125
-16.4794921875
-17.39501953125
-10.07080078125
-7.32421875
-8.23974609375
-3.662109375
-3.662109375
-2.74658203125
-6.40869140625
-6.40869140625
10.07080078125
2.74658203125
-3.662109375
11.90185546875
10.986328125
8.23974609375
20.1416015625
18.310546875
19.22607421875
6.40869140625
15.56396484375
32.04345703125
23.8037109375
21.05712890625
21.97265625
25.634765625
34.7900390625
44.86083984375
45.7763671875
40.283203125
43.9453125
51.26953125
66.83349609375
65.91796875
63.17138671875
49.4384765625
56.7626953125
50.35400390625
49.4384765625
60.4248046875
56.7626953125
70.49560546875
73.2421875
72.32666015625
89.7216796875
80.56640625
91.552734375
99.79248046875
95.21484375
99.79248046875
108.0322265625
108.94775390625
130.0048828125
146.484375
140.07568359375
140.9912109375
145.56884765625
142.822265625
144.6533203125
152.89306640625
151.9775390625
163.87939453125
173.9501953125
189.51416015625
196.83837890625
198.66943359375
205.99365234375
205.99365234375
208.740234375
221.5576171875
234.375
253.60107421875
259.09423828125
262.75634765625
284.72900390625
292.05322265625
292.96875
296.630859375
312.19482421875
319.51904296875
330.50537109375
343.32275390625
350.64697265625
362.548828125
374.45068359375
383.60595703125
389.09912109375
399.169921875
404.6630859375
410.15625
407.40966796875
416.56494140625
425.72021484375
429.38232421875
444.03076171875
447.69287109375
440.36865234375
431.21337890625
431.21337890625
431.21337890625
430.2978515625
426.6357421875
427.55126953125
411.07177734375
390.0146484375
372.61962890625
345.15380859375
325.927734375
314.94140625
286.56005859375
256.34765625
237.12158203125
215.14892578125
198.66943359375
179.443359375
155.6396484375
135.498046875
112.60986328125
91.552734375
79.65087890625
58.59375
51.26953125
29.296875
18.310546875
9.1552734375
0
-6.40869140625
-21.05712890625
-24.71923828125
-39.36767578125
-43.02978515625
-41.19873046875
-46.69189453125
-48.52294921875
-47.607421875
-46.69189453125
-47.607421875
-59.50927734375
-63.17138671875
-65.00244140625
-67.7490234375
-66.83349609375
-61.34033203125
-71.4111328125
-66.83349609375
-67.7490234375
-70.49560546875
-64.0869140625
-67.7490234375
-73.2421875
-83.31298828125
-84.228515625
-73.2421875
-63.17138671875
-70.49560546875
-72.32666015625
-79.65087890625
-74.15771484375
-66.83349609375
-72.32666015625
-75.98876953125
-69.580078125
-64.0869140625
-71.4111328125
-64.0869140625
-68.66455078125
-64.0869140625
-62.255859375
-65.00244140625
-59.50927734375
-67.7490234375
-72.32666015625
-61.34033203125
-58.59375
-64.0869140625
-66.83349609375
-66.83349609375
-69.580078125
-71.4111328125
-55.84716796875
-74.15771484375
-76.904296875
-65.00244140625
-56.7626953125
-54.01611328125
-50.35400390625
-59.50927734375
-50.35400390625
-62.255859375
-62.255859375
-64.0869140625
-63.17138671875
-71.4111328125
-57.67822265625
-56.7626953125
-54.931640625
-71.4111328125
-57.67822265625
-52.18505859375
-63.17138671875
-67.7490234375
-72.32666015625
-56.7626953125
-56.7626953125
-61.34033203125
-53.1005859375
-49.4384765625
-62.255859375
-70.49560546875
-62.255859375
-70.49560546875
-75.98876953125
-75.98876953125
-65.91796875
-64.0869140625
-67.7490234375
-65.91796875
-63.17138671875
-60.4248046875
-74.15771484375
-66.83349609375
-66.83349609375
-79.65087890625
-75.98876953125
-60.4248046875
-56.7626953125
-72.32666015625
-75.0732421875
-73.2421875
-85.14404296875
-86.97509765625
-83.31298828125
-78.7353515625
-83.31298828125
-71.4111328125
-66.83349609375
-79.65087890625
-74.15771484375
-85.14404296875
-93.3837890625
-89.7216796875
-87.890625
-75.0732421875
-84.228515625
-80.56640625
-74.15771484375
-79.65087890625
-81.48193359375
-88.80615234375
-89.7216796875
-86.97509765625
-92.46826171875
-89.7216796875
-88.80615234375
-84.228515625
-94.29931640625
-83.31298828125
-87.890625
-84.228515625
-92.46826171875
-89.7216796875
-77.81982421875
-80.56640625
-89.7216796875
-77.81982421875
-89.7216796875
-87.890625
-86.97509765625
-79.65087890625
-79.65087890625
-74.15771484375
-83.31298828125
-86.0595703125
-83.31298828125
-75.0732421875
-66.83349609375
-50.35400390625
-59.50927734375
-70.49560546875
-64.0869140625
-64.0869140625
-56.7626953125
-60.4248046875
-53.1005859375
-57.67822265625
-47.607421875
-42.1142578125
-41.19873046875
-31.1279296875
-28.38134765625
-19.22607421875
-21.05712890625
-15.56396484375
3.662109375
9.1552734375
2.74658203125
8.23974609375
17.39501953125
2.74658203125
2.74658203125
6.40869140625
-4.57763671875
4.57763671875
11.90185546875
0.91552734375
-28.38134765625
-22.88818359375
-28.38134765625
-47.607421875
-46.69189453125
-48.52294921875
-66.83349609375
-68.66455078125
-62.255859375
-67.7490234375
-75.98876953125
-72.32666015625
-75.98876953125
-83.31298828125
-98.876953125
-105.28564453125
-92.46826171875
-97.96142578125
-103.45458984375
-100.7080078125
-107.11669921875
-100.7080078125
-110.77880859375
-99.79248046875
-106.201171875
-119.93408203125
-115.3564453125
-105.28564453125
-103.45458984375
-105.28564453125
-94.29931640625
-107.11669921875
-106.201171875
-106.201171875
-116.27197265625
-112.60986328125
-107.11669921875
-109.86328125
-97.96142578125
-97.96142578125
-106.201171875
-97.0458984375
-116.27197265625
-97.96142578125
-108.94775390625
-107.11669921875
-105.28564453125
-111.6943359375
-112.60986328125
-108.0322265625
-105.28564453125
-101.62353515625
-100.7080078125
-75.98876953125
-55.84716796875
-42.1142578125
-25.634765625
1.8310546875
65.00244140625
141.90673828125
220.64208984375
333.251953125
481.5673828125
593.26171875
704.9560546875
801.08642578125
880.7373046875
885.31494140625
848.69384765625
732.421875
559.38720703125
332.33642578125
84.228515625
-126.3427734375
-213.31787109375
-278.3203125
-326.84326171875
-351.5625
-366.2109375
-368.0419921875
-350.64697265625
-309.4482421875
-275.57373046875
-246.27685546875
-203.2470703125
-168.45703125
-126.3427734375
-105.28564453125
-77.81982421875
-50.35400390625
-43.9453125
-32.04345703125
-18.310546875
-14.6484375
-21.97265625
-21.97265625
-27.4658203125
-16.4794921875
-10.07080078125
-8.23974609375
-12.8173828125
-4.57763671875
4.57763671875
-2.74658203125
-0.91552734375
10.07080078125
9.1552734375
0
10.07080078125
15.56396484375
20.1416015625
16.4794921875
21.05712890625
27.4658203125
21.97265625
24.71923828125
14.6484375
21.05712890625
32.04345703125
40.283203125
31.1279296875
37.53662109375
41.19873046875
52.18505859375
37.53662109375
47.607421875
38.4521484375
38.4521484375
62.255859375
64.0869140625
62.255859375
68.66455078125
67.7490234375
75.0732421875
75.98876953125
74.15771484375
70.49560546875
83.31298828125
91.552734375
107.11669921875
101.62353515625
112.60986328125
114.44091796875
108.94775390625
114.44091796875
116.27197265625
114.44091796875
125.42724609375
130.92041015625
152.89306640625
151.06201171875
153.80859375
166.6259765625
169.37255859375
175.78125
180.35888671875
185.85205078125
185.85205078125
184.9365234375
209.65576171875
232.5439453125
225.2197265625
221.5576171875
241.69921875
252.685546875
258.1787109375
273.74267578125
291.1376953125
304.87060546875
316.7724609375
324.0966796875
326.84326171875
329.58984375
342.4072265625
350.64697265625
350.64697265625
361.63330078125
369.873046875
381.77490234375
390.93017578125
399.169921875
413.818359375
408.3251953125
410.15625
422.05810546875
412.90283203125
422.9736328125
435.791015625
432.12890625
441.2841796875
428.466796875
434.87548828125
410.15625
402.83203125
389.09912109375
369.873046875
353.3935546875
338.7451171875
315.85693359375
300.29296875
283.8134765625
247.1923828125
226.13525390625
208.740234375
175.78125
170.2880859375
150.146484375
129.08935546875
110.77880859375
96.13037109375
74.15771484375
49.4384765625
38.4521484375
28.38134765625
13.73291015625
3.662109375
-11.90185546875
-24.71923828125
-24.71923828125
-30.21240234375
-35.70556640625
-38.4521484375
-46.69189453125
-60.4248046875
-67.7490234375
-63.17138671875
-60.4248046875
-59.50927734375
-53.1005859375
-69.580078125
-77.81982421875
-65.91796875
-62.255859375
-73.2421875
-70.49560546875
-79.65087890625
-91.552734375
-80.56640625
-75.0732421875
-84.228515625
-73.2421875
-58.59375
-79.65087890625
-82.3974609375
-82.3974609375
-70.49560546875
-73.2421875
-74.15771484375
-74.15771484375
-63.17138671875
-75.0732421875
-58.59375
-86.97509765625
-89.7216796875
-68.66455078125
-81.48193359375
-88.80615234375
-84.228515625
-79.65087890625
-74.15771484375
-75.0732421875
-71.4111328125
-75.98876953125
-77.81982421875
-82.3974609375
-75.0732421875
-68.66455078125
-74.15771484375
-76.904296875
-68.66455078125
-64.0869140625
-64.0869140625
-77.81982421875
-73.2421875
-69.580078125
-62.255859375
-64.0869140625
-72.32666015625
-73.2421875
-65.91796875
-51.26953125
-61.34033203125
-68.66455078125
-70.49560546875
-85.14404296875
-79.65087890625
-68.66455078125
-77.81982421875
-65.00244140625
-60.4248046875
-59.50927734375
-74.15771484375
-74.15771484375
-70.49560546875
-77.81982421875
-77.81982421875
-69.580078125
-63.17138671875
-70.49560546875
-66.83349609375
-70.49560546875
-73.2421875
-76.904296875
-85.14404296875
-80.56640625
-74.15771484375
-79.65087890625
-86.97509765625
-81.48193359375
-69.580078125
-75.98876953125
-75.98876953125
-84.228515625
-78.7353515625
-80.56640625
-73.2421875
-95.21484375
-88.80615234375
-78.7353515625
-88.80615234375
-88.80615234375
-80.56640625
-86.97509765625
-87.890625
-88.80615234375
-100.7080078125
-103.45458984375
-82.3974609375
-91.552734375
-85.14404296875
-75.98876953125
-93.3837890625
-87.890625
-86.97509765625
-96.13037109375
-88.80615234375
-89.7216796875
-98.876953125
-93.3837890625
-85.14404296875
-87.890625
-99.79248046875
-90.63720703125
-93.3837890625
-101.62353515625
-96.13037109375
-96.13037109375
-102.5390625
-98.876953125
-85.14404296875
-79.65087890625
-85.14404296875
-84.228515625
-86.97509765625
-97.96142578125
-98.876953125
-97.0458984375
-103.45458984375
-93.3837890625
-98.876953125
-99.79248046875
-83.31298828125
-84.228515625
-99.79248046875
-100.7080078125
-87.890625
-77.81982421875
-79.65087890625
-83.31298828125
-58.59375
-52.18505859375
-64.0869140625
-50.35400390625
-56.7626953125
-55.84716796875
-61.34033203125
-54.931640625
-50.35400390625
-55.84716796875
-43.02978515625
-19.22607421875
-13.73291015625
-14.6484375
-22.88818359375
-25.634765625
-11.90185546875
-15.56396484375
-18.310546875
-6.40869140625
-11.90185546875
-5.4931640625
-0.91552734375
-4.57763671875
1.8310546875
-2.74658203125
-13.73291015625
-20.1416015625
-30.21240234375
-21.97265625
-27.4658203125
-37.53662109375
-43.02978515625
-44.86083984375
-66.83349609375
-68.66455078125
-74.15771484375
-75.98876953125
-78.7353515625
-85.14404296875
-82.3974609375
-91.552734375
-93.3837890625
-93.3837890625
-87.890625
-89.7216796875
-99.79248046875
-97.0458984375
-97.96142578125
-97.96142578125
-87.890625
-97.0458984375
-100.7080078125
-106.201171875
-98.876953125
-118.10302734375
-109.86328125
-107.11669921875
-109.86328125
-112.60986328125
-95.21484375
-88.80615234375
-95.21484375
-97.96142578125
-103.45458984375
-111.6943359375
-121.76513671875
-124.51171875
-108.94775390625
-119.0185546875
-106.201171875
-103.45458984375
-102.5390625
-99.79248046875
-97.96142578125
-110.77880859375
-117.1875
-107.11669921875
-105.28564453125
-102.5390625
-88.80615234375
-73.2421875
-45.7763671875
-23.8037109375
-1.8310546875
28.38134765625
94.29931640625
143.73779296875
233.45947265625
379.0283203125
510.8642578125
633.544921875
742.49267578125
821.22802734375
863.34228515625
871.58203125
818.4814453125
694.88525390625
520.01953125
290.22216796875
65.91796875
-118.10302734375
-192.2607421875
-242.61474609375
-312.19482421875
-344.23828125
-340.576171875
-345.15380859375
-324.0966796875
-292.05322265625
-264.58740234375
-230.712890625
-195.9228515625
-164.794921875
-136.41357421875
-108.94775390625
-91.552734375
-65.91796875
-51.26953125
-37.53662109375
-23.8037109375
-21.05712890625
-9.1552734375
-6.40869140625
-7.32421875
-11.90185546875
-19.22607421875
-8.23974609375
-10.986328125
-4.57763671875
5.4931640625
1.8310546875
10.07080078125
11.90185546875
6.40869140625
-4.57763671875
6.40869140625
9.1552734375
1.8310546875
11.90185546875
20.1416015625
25.634765625
26.55029296875
29.296875
26.55029296875
32.04345703125
26.55029296875
29.296875
29.296875
39.36767578125
52.18505859375
54.01611328125
43.02978515625
36.62109375
39.36767578125
54.01611328125
55.84716796875
53.1005859375
52.18505859375
61.34033203125
65.91796875
73.2421875
79.65087890625
81.48193359375
81.48193359375
83.31298828125
87.890625
87.890625
95.21484375
99.79248046875
103.45458984375
110.77880859375
125.42724609375
123.59619140625
115.3564453125
124.51171875
129.08935546875
126.3427734375
138.24462890625
145.56884765625
158.38623046875
169.37255859375
167.54150390625
170.2880859375
175.78125
196.83837890625
191.34521484375
191.34521484375
212.40234375
223.388671875
235.29052734375
243.5302734375
257.26318359375
270.08056640625
271.91162109375
276.4892578125
282.89794921875
300.29296875
311.279296875
316.7724609375
331.4208984375
336.9140625
353.3935546875
361.63330078125
369.873046875
368.95751953125
380.859375
388.18359375
398.25439453125
403.74755859375
411.07177734375
412.90283203125
420.22705078125
422.9736328125
418.39599609375
434.87548828125
424.8046875
419.3115234375
418.39599609375
416.56494140625
411.9873046875
411.07177734375
392.76123046875
377.197265625
356.14013671875
325.927734375
305.7861328125
290.22216796875
266.41845703125
246.27685546875
220.64208984375
197.75390625
190.4296875
161.1328125
134.58251953125
128.173828125
107.11669921875
87.890625
69.580078125
53.1005859375
41.19873046875
33.87451171875
22.88818359375
-7.32421875
-16.4794921875
-24.71923828125
-30.21240234375
-31.1279296875
-26.55029296875
-37.53662109375
-46.69189453125
-49.4384765625
-55.84716796875
-57.67822265625
-59.50927734375
-64.0869140625
-73.2421875
-73.2421875
-69.580078125
-79.65087890625
-75.0732421875
-75.0732421875
-67.7490234375
-64.0869140625
-79.65087890625
-83.31298828125
-81.48193359375
-85.14404296875
-72.32666015625
-78.7353515625
-89.7216796875
-87.890625
-84.228515625
-85.14404296875
-69.580078125
-80.56640625
-74.15771484375
-76.904296875
-77.81982421875
-76.904296875
-77.81982421875
-75.98876953125
-80.56640625
-76.904296875
-82.3974609375
-75.0732421875
-73.2421875
-75.98876953125
-74.15771484375
-64.0869140625
-75.98876953125
-82.3974609375
-81.48193359375
-76.904296875
-77.81982421875
-84.228515625
-72.32666015625
-65.91796875
-71.4111328125
-73.2421875
-62.255859375
-64.0869140625
-72.32666015625
-70.49560546875
-66.83349609375
-66.83349609375
-72.32666015625
-78.7353515625
-73.2421875
-71.4111328125
-67.7490234375
-69.580078125
-65.91796875
-79.65087890625
-68.66455078125
-70.49560546875
-82.3974609375
-84.228515625
-70.49560546875
-62.255859375
-80.56640625
-79.65087890625
-71.4111328125
-75.98876953125
-75.98876953125
-88.80615234375
-86.0595703125
-80.56640625
-79.65087890625
-80.56640625
-76.904296875
-77.81982421875
-72.32666015625
-86.97509765625
-81.48193359375
-87.890625
-94.29931640625
-89.7216796875
-92.46826171875
-88.80615234375
-88.80615234375
-89.7216796875
-87.890625
-86.97509765625
-92.46826171875
-98.876953125
-100.7080078125
-87.890625
-91.552734375
-80.56640625
-80.56640625
-98.876953125
-95.21484375
-83.31298828125
-89.7216796875
-88.80615234375
-96.13037109375
-103.45458984375
-99.79248046875
-94.29931640625
-98.876953125
-100.7080078125
-97.96142578125
-91.552734375
-102.5390625
-109.86328125
-112.60986328125
-104.3701171875
-97.96142578125
-102.5390625
-103.45458984375
-98.876953125
-105.28564453125
-109.86328125
-111.6943359375
-110.77880859375
-112.60986328125
-105.28564453125
-103.45458984375
-99.79248046875
-86.0595703125
-99.79248046875
-100.7080078125
-103.45458984375
-106.201171875
-105.28564453125
-108.94775390625
-99.79248046875
-92.46826171875
-75.98876953125
-73.2421875
-70.49560546875
-56.7626953125
-62.255859375
-60.4248046875
-62.255859375
-78.7353515625
-74.15771484375
-59.50927734375
-43.9453125
-32.958984375
-29.296875
-23.8037109375
-19.22607421875
-28.38134765625
-27.4658203125
-15.56396484375
-4.57763671875
8.23974609375
4.57763671875
-7.32421875
-20.1416015625
-14.6484375
-9.1552734375
-10.07080078125
-16.4794921875
-18.310546875
-26.55029296875
-32.04345703125
-37.53662109375
-43.9453125
-53.1005859375
-57.67822265625
-64.0869140625
-87.890625
-83.31298828125
-86.97509765625
-86.97509765625
-89.7216796875
-93.3837890625
-93.3837890625
-110.77880859375
-100.7080078125
-106.201171875
-114.44091796875
-121.76513671875
-123.59619140625
-121.76513671875
-126.3427734375
-121.76513671875
-131.8359375
-126.3427734375
-118.10302734375
-120.849609375
-136.41357421875
-130.92041015625
-129.08935546875
-129.08935546875
-127.25830078125
-120.849609375
-114.44091796875
-120.849609375
-118.10302734375
-119.0185546875
-131.8359375
-134.58251953125
-129.08935546875
-131.8359375
-130.0048828125
-124.51171875
-118.10302734375
-121.76513671875
-125.42724609375
-123.59619140625
-132.75146484375
-135.498046875
-130.0048828125
-137.3291015625
-127.25830078125
-105.28564453125
-85.14404296875
-58.59375
-41.19873046875
-22.88818359375
9.1552734375
73.2421875
154.72412109375
246.27685546875
385.43701171875
526.42822265625
646.3623046875
745.2392578125
820.3125
884.3994140625
880.7373046875
801.08642578125
648.193359375
440.36865234375
202.33154296875
-32.04345703125
-188.5986328125
-249.93896484375
-314.02587890625
-376.28173828125
-398.25439453125
-404.6630859375
-399.169921875
-365.29541015625
-326.84326171875
-287.4755859375
-245.361328125
-211.48681640625
-164.794921875
-140.07568359375
-115.3564453125
-96.13037109375
-73.2421875
-63.17138671875
-48.52294921875
-40.283203125
-34.7900390625
-30.21240234375
-21.97265625
-31.1279296875
-41.19873046875
-33.87451171875
-51.26953125
-38.4521484375
-24.71923828125
-23.8037109375
-13.73291015625
-15.56396484375
-10.986328125
-19.22607421875
-21.05712890625
-12.8173828125
-1.8310546875
-6.40869140625
-17.39501953125
-10.986328125
-1.8310546875
4.57763671875
3.662109375
7.32421875
2.74658203125
-1.8310546875
16.4794921875
7.32421875
16.4794921875
16.4794921875
16.4794921875
21.05712890625
31.1279296875
26.55029296875
25.634765625
37.53662109375
39.36767578125
32.958984375
45.7763671875
51.26953125
62.255859375
60.4248046875
61.34033203125
59.50927734375
53.1005859375
66.83349609375
75.98876953125
74.15771484375
77.81982421875
89.7216796875
102.5390625
112.60986328125
110.77880859375
97.0458984375
104.3701171875
110.77880859375
119.0185546875
129.08935546875
134.58251953125
146.484375
155.6396484375
161.1328125
161.1328125
173.9501953125
171.20361328125
174.86572265625
188.5986328125
194.091796875
204.16259765625
221.5576171875
235.29052734375
250.8544921875
253.60107421875
261.8408203125
267.333984375
278.3203125
284.72900390625
298.4619140625
309.4482421875
322.265625
335.0830078125
330.50537109375
345.15380859375
350.64697265625
362.548828125
371.7041015625
376.28173828125
376.28173828125
390.0146484375
401.0009765625
408.3251953125
407.40966796875
402.83203125
401.91650390625
407.40966796875
421.142578125
402.83203125
407.40966796875
404.6630859375
400.08544921875
388.18359375
374.45068359375
357.97119140625
341.49169921875
325.927734375
301.20849609375
260.92529296875
240.78369140625
226.13525390625
206.9091796875
186.767578125
170.2880859375
147.39990234375
130.92041015625
107.11669921875
90.63720703125
67.7490234375
52.18505859375
37.53662109375
30.21240234375
13.73291015625
-1.8310546875
-10.986328125
-30.21240234375
-39.36767578125
-46.69189453125
-55.84716796875
-54.931640625
-50.35400390625
-59.50927734375
-75.0732421875
-75.0732421875
-75.0732421875
-74.15771484375
-81.48193359375
-82.3974609375
-98.876953125
-90.63720703125
-82.3974609375
-82.3974609375
-91.552734375
-93.3837890625
-93.3837890625
-91.552734375
-89.7216796875
-90.63720703125
-103.45458984375
-101.62353515625
-93.3837890625
-94.29931640625
-92.46826171875
-94.29931640625
-93.3837890625
-94.29931640625
-91.552734375
-96.13037109375
-95.21484375
-97.0458984375
-87.890625
-92.46826171875
-83.31298828125
-85.14404296875
-91.552734375
-93.3837890625
-88.80615234375
-98.876953125
-96.13037109375
-86.0595703125
-90.63720703125
-83.31298828125
-80.56640625
-86.0595703125
-86.97509765625
-83.31298828125
-78.7353515625
-89.7216796875
-94.29931640625
-77.81982421875
-85.14404296875
-83.31298828125
-84.228515625
-90.63720703125
-81.48193359375
-90.63720703125
-82.3974609375
-91.552734375
-92.46826171875
-98.876953125
-92.46826171875
-83.31298828125
-83.31298828125
-89.7216796875
-75.0732421875
-68.66455078125
-79.65087890625
-91.552734375
-94.29931640625
-90.63720703125
-86.97509765625
-75.98876953125
-86.97509765625
-89.7216796875
-83.31298828125
-86.0595703125
-94.29931640625
-87.890625
-96.13037109375
-95.21484375
-91.552734375
-87.890625
-77.81982421875
-82.3974609375
-96.13037109375
-92.46826171875
-97.0458984375
-106.201171875
-101.62353515625
-108.94775390625
-93.3837890625
-96.13037109375
-95.21484375
-100.7080078125
-96.13037109375
-100.7080078125
-99.79248046875
-98.876953125
-104.3701171875
-100.7080078125
-107.11669921875
-102.5390625
-100.7080078125
-96.13037109375
-94.29931640625
-100.7080078125
-112.60986328125
-110.77880859375
-108.0322265625
-108.94775390625
-103.45458984375
-107.11669921875
-103.45458984375
-106.201171875
-104.3701171875
-108.0322265625
-112.60986328125
-110.77880859375
-112.60986328125
-105.28564453125
-100.7080078125
-105.28564453125
-105.28564453125
-105.28564453125
-111.6943359375
-113.525390625
-113.525390625
-109.86328125
-114.44091796875
-119.0185546875
-106.201171875
-101.62353515625
-109.86328125
-115.3564453125
-109.86328125
-119.93408203125
-115.3564453125
-110.77880859375
-108.94775390625
-108.0322265625
-103.45458984375
-108.94775390625
-104.3701171875
-116.27197265625
-118.10302734375
-119.93408203125
-108.94775390625
-110.77880859375
-125.42724609375
-125.42724609375
-114.44091796875
-101.62353515625
-104.3701171875
-106.201171875
-108.94775390625
-117.1875
-110.77880859375
-118.10302734375
-114.44091796875
-111.6943359375
-117.1875
-110.77880859375
-112.60986328125
-125.42724609375
-113.525390625
-111.6943359375
-114.44091796875
-111.6943359375
-101.62353515625
-94.29931640625
-89.7216796875
-83.31298828125
-79.65087890625
-67.7490234375
-74.15771484375
-75.98876953125
-71.4111328125
-74.15771484375
-76.904296875
-72.32666015625
-63.17138671875
-63.17138671875
-49.4384765625
-44.86083984375
-35.70556640625
-31.1279296875
-35.70556640625
-29.296875
-27.4658203125
-29.296875
-22.88818359375
-15.56396484375
-15.56396484375
-15.56396484375
-17.39501953125
-14.6484375
-13.73291015625
-14.6484375
-21.05712890625
-37.53662109375
-41.19873046875
-43.9453125
-45.7763671875
-47.607421875
-57.67822265625
-67.7490234375
-75.98876953125
-77.81982421875
-86.97509765625
-96.13037109375
-99.79248046875
-103.45458984375
-97.96142578125
-111.6943359375
-108.94775390625
-104.3701171875
-108.94775390625
-123.59619140625
-135.498046875
-131.8359375
-120.849609375
-124.51171875
-129.08935546875
-119.93408203125
-119.0185546875
-121.76513671875
-121.76513671875
-132.75146484375
-135.498046875
-131.8359375
-123.59619140625
-126.3427734375
-118.10302734375
-127.25830078125
-134.58251953125
-127.25830078125
-132.75146484375
-134.58251953125
-137.3291015625
-130.92041015625
-130.0048828125
-121.76513671875
-118.10302734375
-123.59619140625
-124.51171875
-124.51171875
-127.25830078125
-120.849609375
-130.0048828125
-135.498046875
-132.75146484375
-123.59619140625
-112.60986328125
-96.13037109375
-80.56640625
-47.607421875
-38.4521484375
-22.88818359375
28.38134765625
103.45458984375
184.02099609375
292.05322265625
439.453125
563.96484375
675.6591796875
778.1982421875
858.7646484375
899.0478515625
864.2578125
769.04296875
598.7548828125
383.60595703125
119.93408203125
-108.0322265625
-239.8681640625
-301.20849609375
-367.12646484375
-412.90283203125
-422.9736328125
-409.24072265625
-387.26806640625
-344.23828125
-305.7861328125
-279.23583984375
-230.712890625
-186.767578125
-152.89306640625
-126.3427734375
-105.28564453125
-88.80615234375
-67.7490234375
-41.19873046875
-34.7900390625
-40.283203125
-38.4521484375
-33.87451171875
-32.958984375
-32.04345703125
-36.62109375
-37.53662109375
-28.38134765625
-21.97265625
-11.90185546875
-14.6484375
-26.55029296875
-28.38134765625
-21.97265625
-18.310546875
-13.73291015625
-11.90185546875
-10.986328125
-6.40869140625
-7.32421875
-5.4931640625
2.74658203125
3.662109375
0.91552734375
0
-9.1552734375
0.91552734375
19.22607421875
20.1416015625
9.1552734375
19.22607421875
27.4658203125
19.22607421875
25.634765625
25.634765625
22.88818359375
28.38134765625
36.62109375
39.36767578125
47.607421875
50.35400390625
49.4384765625
47.607421875
54.01611328125
61.34033203125
56.7626953125
64.0869140625
71.4111328125
83.31298828125
85.14404296875
82.3974609375
84.228515625
91.552734375
93.3837890625
91.552734375
103.45458984375
103.45458984375
110.77880859375
113.525390625
127.25830078125
136.41357421875
140.07568359375
141.90673828125
149.23095703125
150.146484375
150.146484375
165.71044921875
190.4296875
194.091796875
205.078125
207.82470703125
217.8955078125
218.81103515625
227.05078125
238.95263671875
245.361328125
260.009765625
271.91162109375
284.72900390625
301.20849609375
313.1103515625
309.4482421875
319.51904296875
327.7587890625
335.0830078125
345.15380859375
360.7177734375
357.97119140625
371.7041015625
382.6904296875
390.93017578125
388.18359375
394.59228515625
387.26806640625
397.3388671875
402.83203125
395.5078125
405.57861328125
415.6494140625
406.494140625
399.169921875
399.169921875
389.09912109375
361.63330078125
337.82958984375
329.58984375
309.4482421875
288.39111328125
263.671875
249.93896484375
227.96630859375
203.2470703125
175.78125
161.1328125
134.58251953125
116.27197265625
86.97509765625
75.0732421875
65.91796875
43.9453125
28.38134765625
19.22607421875
6.40869140625
-9.1552734375
-25.634765625
-40.283203125
-43.9453125
-47.607421875
-54.01611328125
-57.67822265625
-62.255859375
-65.91796875
-78.7353515625
-86.0595703125
-91.552734375
-87.890625
-89.7216796875
-90.63720703125
-86.0595703125
-86.97509765625
-88.80615234375
-98.876953125
-85.14404296875
-102.5390625
-113.525390625
-103.45458984375
-95.21484375
-100.7080078125
-102.5390625
-101.62353515625
-99.79248046875
-96.13037109375
-96.13037109375
-97.96142578125
-98.876953125
-106.201171875
-98.876953125
-96.13037109375
-98.876953125
-89.7216796875
-91.552734375
-89.7216796875
-87.890625
-96.13037109375
-104.3701171875
-100.7080078125
-106.201171875
-97.0458984375
-92.46826171875
-87.890625
-87.890625
-87.890625
-86.97509765625
-88.80615234375
-95.21484375
-91.552734375
-89.7216796875
-86.97509765625
-87.890625
-86.0595703125
-79.65087890625
-94.29931640625
-94.29931640625
-97.0458984375
-96.13037109375
-94.29931640625
-98.876953125
-95.21484375
-92.46826171875
-93.3837890625
-96.13037109375
-100.7080078125
-98.876953125
-94.29931640625
-94.29931640625
-94.29931640625
-95.21484375
-84.228515625
-94.29931640625
-97.96142578125
-97.0458984375
-88.80615234375
-95.21484375
-94.29931640625
-106.201171875
-111.6943359375
-102.5390625
-91.552734375
-96.13037109375
-95.21484375
-93.3837890625
-97.96142578125
-107.11669921875
-106.201171875
-106.201171875
-105.28564453125
-111.6943359375
-116.27197265625
-100.7080078125
-97.96142578125
-105.28564453125
-110.77880859375
-110.77880859375
-112.60986328125
-105.28564453125
-107.11669921875
-119.0185546875
-113.525390625
-119.0185546875
-120.849609375
-112.60986328125
-109.86328125
-117.1875
-108.0322265625
-107.11669921875
-122.6806640625
-123.59619140625
-115.3564453125
-112.60986328125
-112.60986328125
-118.10302734375
-111.6943359375
-111.6943359375
-119.0185546875
-120.849609375
-119.93408203125
-117.1875
-111.6943359375
-120.849609375
-115.3564453125
-115.3564453125
-119.0185546875
-117.1875
-124.51171875
-130.92041015625
-129.08935546875
-120.849609375
-112.60986328125
-117.1875
-126.3427734375
-121.76513671875
-119.0185546875
-128.173828125
-121.76513671875
-130.92041015625
-131.8359375
-126.3427734375
-114.44091796875
-115.3564453125
-117.1875
-119.93408203125
-125.42724609375
-133.6669921875
-122.6806640625
-120.849609375
-124.51171875
-125.42724609375
-123.59619140625
-119.93408203125
-122.6806640625
-129.08935546875
-130.92041015625
-123.59619140625
-124.51171875
-131.8359375
-126.3427734375
-127.25830078125
-121.76513671875
-129.08935546875
-126.3427734375
-121.76513671875
-125.42724609375
-131.8359375
-124.51171875
-132.75146484375
-133.6669921875
-124.51171875
-117.1875
-116.27197265625
-129.08935546875
-135.498046875
-122.6806640625
-119.93408203125
-132.75146484375
-130.92041015625
-131.8359375
-135.498046875
-131.8359375
-124.51171875
-125.42724609375
-129.08935546875
-125.42724609375
-115.3564453125
-117.1875
-114.44091796875
-114.44091796875
-106.201171875
-94.29931640625
-91.552734375
-86.0595703125
-82.3974609375
-83.31298828125
-85.14404296875
-80.56640625
-91.552734375
-99.79248046875
-85.14404296875
-75.98876953125
-61.34033203125
-50.35400390625
-49.4384765625
-46.69189453125
-44.86083984375
-42.1142578125
-41.19873046875
-38.4521484375
-33.87451171875
-36.62109375
-32.04345703125
-25.634765625
-24.71923828125
-31.1279296875
-22.88818359375
-28.38134765625
-43.9453125
-55.84716796875
-67.7490234375
-75.98876953125
-75.0732421875
-77.81982421875
-80.56640625
-92.46826171875
-96.13037109375
-102.5390625
-113.525390625
-109.86328125
-115.3564453125
-124.51171875
-121.76513671875
-126.3427734375
-125.42724609375
-129.08935546875
-138.24462890625
-139.16015625
-136.41357421875
-135.498046875
-140.07568359375
-139.16015625
-133.6669921875
-135.498046875
-138.24462890625
-142.822265625
-143.73779296875
-149.23095703125
-151.9775390625
-155.6396484375
-140.9912109375
-143.73779296875
-148.3154296875
-142.822265625
-139.16015625
-134.58251953125
-137.3291015625
-142.822265625
-145.56884765625
-154.72412109375
-140.07568359375
-140.07568359375
-140.07568359375
-131.8359375
-138.24462890625
-143.73779296875
-140.07568359375
-146.484375
-153.80859375
-151.06201171875
-139.16015625
-139.16015625
-116.27197265625
-97.96142578125
-72.32666015625
-64.0869140625
-52.18505859375
0.91552734375
66.83349609375
137.3291015625
235.29052734375
381.77490234375
509.94873046875
627.13623046875
743.408203125
839.53857421875
891.7236328125
881.65283203125
798.33984375
634.46044921875
429.38232421875
168.45703125
-78.7353515625
-244.44580078125
-314.02587890625
-379.0283203125
-435.791015625
-439.453125
-435.791015625
-426.6357421875
-388.18359375
-340.576171875
-297.54638671875
-250.8544921875
-197.75390625
-166.6259765625
-143.73779296875
-124.51171875
-104.3701171875
-88.80615234375
-78.7353515625
-58.59375
-45.7763671875
-43.9453125
-45.7763671875
-38.4521484375
-44.86083984375
-54.01611328125
-59.50927734375
-56.7626953125
-46.69189453125
-45.7763671875
-32.958984375
-22.88818359375
-21.97265625
-34.7900390625
-34.7900390625
-31.1279296875
-21.97265625
-28.38134765625
-22.88818359375
-17.39501953125
-15.56396484375
-1.8310546875
-8.23974609375
-11.90185546875
-10.986328125
-9.1552734375
-10.986328125
-10.986328125
-4.57763671875
-1.8310546875
18.310546875
11.90185546875
8.23974609375
21.05712890625
21.97265625
21.97265625
23.8037109375
22.88818359375
25.634765625
41.19873046875
42.1142578125
44.86083984375
52.18505859375
49.4384765625
55.84716796875
58.59375
57.67822265625
52.18505859375
64.0869140625
73.2421875
79.65087890625
93.3837890625
91.552734375
86.97509765625
96.13037109375
97.0458984375
99.79248046875
102.5390625
111.6943359375
127.25830078125
131.8359375
145.56884765625
145.56884765625
151.9775390625
155.6396484375
165.71044921875
159.3017578125
162.04833984375
182.18994140625
197.75390625
205.078125
209.65576171875
216.064453125
234.375
250.8544921875
259.09423828125
261.8408203125
258.1787109375
269.1650390625
291.1376953125
307.6171875
314.02587890625
328.67431640625
325.927734375
341.49169921875
353.3935546875
353.3935546875
357.0556640625
368.0419921875
378.11279296875
388.18359375
388.18359375
391.845703125
401.0009765625
398.25439453125
399.169921875
401.0009765625
405.57861328125
409.24072265625
413.818359375
410.15625
401.91650390625
395.5078125
376.28173828125
352.47802734375
349.7314453125
326.84326171875
294.7998046875
278.3203125
258.1787109375
242.61474609375
216.97998046875
201.416015625
175.78125
159.3017578125
129.08935546875
101.62353515625
88.80615234375
72.32666015625
54.931640625
47.607421875
26.55029296875
-0.91552734375
-5.4931640625
-8.23974609375
-32.958984375
-44.86083984375
-57.67822265625
-62.255859375
-64.0869140625
-64.0869140625
-61.34033203125
-72.32666015625
-81.48193359375
-88.80615234375
-90.63720703125
-85.14404296875
-95.21484375
-93.3837890625
-97.0458984375
-108.94775390625
-97.0458984375
-95.21484375
-104.3701171875
-108.0322265625
-109.86328125
-106.201171875
-109.86328125
-113.525390625
-102.5390625
-107.11669921875
-108.0322265625
-108.94775390625
-102.5390625
-103.45458984375
-108.94775390625
-113.525390625
-104.3701171875
-110.77880859375
-118.10302734375
-109.86328125
-86.97509765625
-100.7080078125
-104.3701171875
-111.6943359375
-117.1875
-112.60986328125
-102.5390625
-105.28564453125
-104.3701171875
-100.7080078125
-94.29931640625
-98.876953125
-98.876953125
-94.29931640625
-101.62353515625
-106.201171875
-109.86328125
-108.0322265625
-99.79248046875
-99.79248046875
-101.62353515625
-97.0458984375
-99.79248046875
-94.29931640625
-103.45458984375
-109.86328125
-107.11669921875
-105.28564453125
-99.79248046875
-93.3837890625
-91.552734375
-98.876953125
-97.0458984375
-94.29931640625
-98.876953125
-110.77880859375
-123.59619140625
-113.525390625
-103.45458984375
-107.11669921875
-104.3701171875
-102.5390625
-109.86328125
-113.525390625
-115.3564453125
-109.86328125
-106.201171875
-111.6943359375
-113.525390625
-112.60986328125
-120.849609375
-109.86328125
-109.86328125
-113.525390625
-123.59619140625
-117.1875
-109.86328125
-110.77880859375
-121.76513671875
-119.93408203125
-111.6943359375
-124.51171875
-119.0185546875
-124.51171875
-125.42724609375
-123.59619140625
-123.59619140625
-119.93408203125
-122.6806640625
-123.59619140625
-120.849609375
-123.59619140625
-119.0185546875
-128.173828125
-126.3427734375
-125.42724609375
-127.25830078125
-125.42724609375
-119.0185546875
-124.51171875
-118.10302734375
-134.58251953125
-135.498046875
-128.173828125
-120.849609375
-130.0048828125
-138.24462890625
-131.8359375
-126.3427734375
-119.93408203125
-123.59619140625
-127.25830078125
-131.8359375
-127.25830078125
-131.8359375
-135.498046875
-136.41357421875
-140.07568359375
-142.822265625
-127.25830078125
-128.173828125
-137.3291015625
-136.41357421875
-130.0048828125
-135.498046875
-142.822265625
-140.9912109375
-130.92041015625
-131.8359375
-127.25830078125
-128.173828125
-131.8359375
-142.822265625
-139.16015625
-135.498046875
-142.822265625
-143.73779296875
-141.90673828125
-132.75146484375
-129.08935546875
-139.16015625
-142.822265625
-136.41357421875
-132.75146484375
-134.58251953125
-132.75146484375
-129.08935546875
-135.498046875
-131.8359375
-130.92041015625
-150.146484375
-139.16015625
-137.3291015625
-138.24462890625
-143.73779296875
-140.9912109375
-131.8359375
-140.9912109375
-144.6533203125
-134.58251953125
-130.0048828125
-133.6669921875
-140.07568359375
-136.41357421875
-136.41357421875
-135.498046875
-131.8359375
-126.3427734375
-115.3564453125
-114.44091796875
-111.6943359375
-108.94775390625
-88.80615234375
-100.7080078125
-110.77880859375
-105.28564453125
-107.11669921875
-102.5390625
-100.7080078125
-96.13037109375
-82.3974609375
-79.65087890625
-71.4111328125
-72.32666015625
-67.7490234375
-54.931640625
-56.7626953125
-58.59375
-50.35400390625
-44.86083984375
-34.7900390625
-32.958984375
-45.7763671875
-44.86083984375
-38.4521484375
-40.283203125
-46.69189453125
-47.607421875
-50.35400390625
-65.00244140625
-76.904296875
-80.56640625
-87.890625
-85.14404296875
-91.552734375
-100.7080078125
-113.525390625
-117.1875
-117.1875
-131.8359375
-119.93408203125
-127.25830078125
-142.822265625
-140.07568359375
-138.24462890625
-145.56884765625
-144.6533203125
-145.56884765625
-143.73779296875
-137.3291015625
-144.6533203125
-146.484375
-149.23095703125
-157.470703125
-162.9638671875
-159.3017578125
-164.794921875
-162.9638671875
-154.72412109375
-143.73779296875
-149.23095703125
-147.39990234375
-144.6533203125
-149.23095703125
-160.21728515625
-154.72412109375
-156.55517578125
-160.21728515625
-150.146484375
-142.822265625
-137.3291015625
-143.73779296875
-147.39990234375
-151.9775390625
-148.3154296875
-156.55517578125
-159.3017578125
-153.80859375
-147.39990234375
-149.23095703125
-143.73779296875
-134.58251953125
-127.25830078125
-95.21484375
-82.3974609375
-75.0732421875
-31.1279296875
35.70556640625
105.28564453125
198.66943359375
337.82958984375
482.48291015625
601.50146484375
718.68896484375
804.74853515625
865.17333984375
868.83544921875
814.8193359375
689.39208984375
500.79345703125
246.27685546875
-3.662109375
-200.50048828125
-281.982421875
-338.7451171875
-399.169921875
-421.142578125
-425.72021484375
-417.48046875
-373.53515625
-336.9140625
-305.7861328125
-271.91162109375
-232.5439453125
-199.5849609375
-169.37255859375
-147.39990234375
-114.44091796875
-86.97509765625
-70.49560546875
-67.7490234375
-57.67822265625
-55.84716796875
-51.26953125
-49.4384765625
-52.18505859375
-53.1005859375
-63.17138671875
-44.86083984375
-41.19873046875
-38.4521484375
-44.86083984375
-43.9453125
-46.69189453125
-53.1005859375
-27.4658203125
-44.86083984375
-32.958984375
-17.39501953125
-22.88818359375
-21.97265625
-23.8037109375
-17.39501953125
-16.4794921875
-13.73291015625
-14.6484375
-10.986328125
-10.986328125
-7.32421875
-0.91552734375
0.91552734375
4.57763671875
10.07080078125
-0.91552734375
5.4931640625
8.23974609375
3.662109375
10.986328125
28.38134765625
38.4521484375
38.4521484375
31.1279296875
34.7900390625
45.7763671875
47.607421875
42.1142578125
36.62109375
46.69189453125
53.1005859375
67.7490234375
67.7490234375
69.580078125
69.580078125
79.65087890625
95.21484375
94.29931640625
70.49560546875
92.46826171875
99.79248046875
114.44091796875
123.59619140625
119.0185546875
126.3427734375
130.0048828125
140.07568359375
145.56884765625
160.21728515625
171.20361328125
166.6259765625
177.6123046875
190.4296875
189.51416015625
211.48681640625
213.31787109375
220.64208984375
233.45947265625
230.712890625
245.361328125
264.58740234375
276.4892578125
288.39111328125
302.1240234375
303.955078125
309.4482421875
317.68798828125
335.99853515625
338.7451171875
336.9140625
341.49169921875
362.548828125
369.873046875
377.197265625
380.859375
392.76123046875
383.60595703125
390.0146484375
387.26806640625
397.3388671875
401.91650390625
406.494140625
406.494140625
397.3388671875
383.60595703125
377.197265625
368.0419921875
346.98486328125
340.576171875
318.603515625
297.54638671875
281.06689453125
266.41845703125
242.61474609375
214.2333984375
184.02099609375
164.794921875
133.6669921875
120.849609375
105.28564453125
76.904296875
66.83349609375
55.84716796875
37.53662109375
28.38134765625
12.8173828125
-10.986328125
-27.4658203125
-41.19873046875
-47.607421875
-53.1005859375
-55.84716796875
-60.4248046875
-65.91796875
-73.2421875
-77.81982421875
-83.31298828125
-86.97509765625
-105.28564453125
-105.28564453125
-97.0458984375
-102.5390625
-102.5390625
-97.96142578125
-94.29931640625
-100.7080078125
-109.86328125
-108.94775390625
-119.93408203125
-107.11669921875
-96.13037109375
-102.5390625
-109.86328125
-108.0322265625
-102.5390625
-108.0322265625
-110.77880859375
-115.3564453125
-120.849609375
-112.60986328125
-108.0322265625
-114.44091796875
-108.0322265625
-104.3701171875
-111.6943359375
-118.10302734375
-108.94775390625
-122.6806640625
-113.525390625
-108.0322265625
-108.94775390625
-103.45458984375
-102.5390625
-109.86328125
-115.3564453125
-112.60986328125
-109.86328125
-113.525390625
-108.0322265625
-108.0322265625
-108.0322265625
-108.94775390625
-98.876953125
-103.45458984375
-112.60986328125
-105.28564453125
-100.7080078125
-116.27197265625
-113.525390625
-104.3701171875
-105.28564453125
-107.11669921875
-101.62353515625
-104.3701171875
-103.45458984375
-109.86328125
-109.86328125
-102.5390625
-108.94775390625
-110.77880859375
-123.59619140625
-113.525390625
-104.3701171875
-98.876953125
-106.201171875
-105.28564453125
-116.27197265625
-121.76513671875
-109.86328125
-113.525390625
-104.3701171875
-102.5390625
-106.201171875
-108.94775390625
-119.93408203125
-112.60986328125
-110.77880859375
-112.60986328125
-121.76513671875
-113.525390625
-116.27197265625
-108.94775390625
-114.44091796875
-115.3564453125
-107.11669921875
-111.6943359375
-108.94775390625
-112.60986328125
-130.92041015625
-135.498046875
-119.0185546875
-107.11669921875
-126.3427734375
-124.51171875
-114.44091796875
-114.44091796875
-117.1875
-133.6669921875
-130.0048828125
-120.849609375
-123.59619140625
-122.6806640625
-121.76513671875
-118.10302734375
-122.6806640625
-129.08935546875
-128.173828125
-116.27197265625
-119.0185546875
-109.86328125
-121.76513671875
-121.76513671875
-125.42724609375
-120.849609375
-135.498046875
-139.16015625
-129.08935546875
-135.498046875
-126.3427734375
-132.75146484375
-123.59619140625
-122.6806640625
-124.51171875
-119.0185546875
-119.93408203125
-120.849609375
-128.173828125
-128.173828125
-134.58251953125
-123.59619140625
-125.42724609375
-117.1875
-120.849609375
-122.6806640625
-130.92041015625
-132.75146484375
-124.51171875
-137.3291015625
-129.08935546875
-123.59619140625
-123.59619140625
-123.59619140625
-123.59619140625
-118.10302734375
-109.86328125
-106.201171875
-111.6943359375
-97.96142578125
-104.3701171875
-101.62353515625
-96.13037109375
-82.3974609375
-85.14404296875
-85.14404296875
-81.48193359375
-76.904296875
-75.0732421875
-75.0732421875
-71.4111328125
-68.66455078125
-45.7763671875
-51.26953125
-47.607421875
-45.7763671875
-39.36767578125
-31.1279296875
-32.958984375
-24.71923828125
-23.8037109375
-39.36767578125
-31.1279296875
-22.88818359375
-19.22607421875
-13.73291015625
-24.71923828125
-39.36767578125
-47.607421875
-59.50927734375
-66.83349609375
-80.56640625
-73.2421875
-83.31298828125
-86.97509765625
-96.13037109375
-104.3701171875
-108.0322265625
-103.45458984375
-119.93408203125
-122.6806640625
-127.25830078125
-123.59619140625
-122.6806640625
-122.6806640625
-117.1875
-119.93408203125
-128.173828125
-135.498046875
-143.73779296875
-143.73779296875
-129.08935546875
-139.16015625
-140.07568359375
-140.07568359375
-141.90673828125
-135.498046875
-154.72412109375
-157.470703125
-147.39990234375
-147.39990234375
-149.23095703125
-134.58251953125
-136.41357421875
-138.24462890625
-133.6669921875
-132.75146484375
-142.822265625
-144.6533203125
-146.484375
-143.73779296875
-141.90673828125
-135.498046875
-133.6669921875
-139.16015625
-142.822265625
-146.484375
-135.498046875
-140.9912109375
-143.73779296875
-138.24462890625
-126.3427734375
-85.14404296875
-64.0869140625
-57.67822265625
-36.62109375
10.986328125
73.2421875
150.146484375
258.1787109375
388.18359375
520.93505859375
646.3623046875
753.47900390625
826.72119140625
860.595703125
845.947265625
766.29638671875
603.33251953125
390.0146484375
133.6669921875
-89.7216796875
-210.5712890625
-267.333984375
-330.50537109375
-373.53515625
-373.53515625
-379.0283203125
-378.11279296875
-354.30908203125
-323.18115234375
-288.39111328125
-243.5302734375
-199.5849609375
-176.69677734375
-146.484375
-116.27197265625
-106.201171875
-83.31298828125
-68.66455078125
-58.59375
-45.7763671875
-37.53662109375
-48.52294921875
-47.607421875
-29.296875
-31.1279296875
-43.02978515625
-41.19873046875
-38.4521484375
-31.1279296875
-31.1279296875
-32.04345703125
-27.4658203125
-11.90185546875
-10.986328125
-20.1416015625
-10.07080078125
-7.32421875
-20.1416015625
-15.56396484375
-8.23974609375
0
2.74658203125
-1.8310546875
-4.57763671875
4.57763671875
13.73291015625
12.8173828125
5.4931640625
19.22607421875
8.23974609375
4.57763671875
20.1416015625
22.88818359375
14.6484375
15.56396484375
32.04345703125
36.62109375
35.70556640625
49.4384765625
43.02978515625
54.01611328125
53.1005859375
52.18505859375
57.67822265625
46.69189453125
58.59375
54.931640625
59.50927734375
52.18505859375
69.580078125
79.65087890625
77.81982421875
86.97509765625
87.890625
91.552734375
95.21484375
109.86328125
109.86328125
107.11669921875
112.60986328125
125.42724609375
131.8359375
131.8359375
130.92041015625
156.55517578125
173.03466796875
168.45703125
174.86572265625
179.443359375
194.091796875
210.5712890625
220.64208984375
226.13525390625
236.2060546875
250.8544921875
258.1787109375
255.43212890625
272.8271484375
282.89794921875
292.05322265625
308.53271484375
306.70166015625
318.603515625
327.7587890625
335.99853515625
336.9140625
345.15380859375
363.46435546875
360.7177734375
375.3662109375
384.521484375
392.76123046875
398.25439453125
404.6630859375
399.169921875
396.42333984375
393.6767578125
378.11279296875
366.2109375
367.12646484375
352.47802734375
343.32275390625
337.82958984375
325.01220703125
308.53271484375
278.3203125
262.75634765625
238.95263671875
223.388671875
192.2607421875
172.119140625
160.21728515625
130.92041015625
116.27197265625
100.7080078125
75.98876953125
62.255859375
40.283203125
28.38134765625
0
-11.90185546875
-17.39501953125
-22.88818359375
-36.62109375
-59.50927734375
-59.50927734375
-65.91796875
-77.81982421875
-83.31298828125
-81.48193359375
-77.81982421875
-78.7353515625
-88.80615234375
-97.0458984375
-103.45458984375
-113.525390625
-107.11669921875
-116.27197265625
-111.6943359375
-113.525390625
-109.86328125
-105.28564453125
-86.0595703125
-97.0458984375
-101.62353515625
-119.0185546875
-103.45458984375
-108.94775390625
-116.27197265625
-114.44091796875
-106.201171875
-100.7080078125
-105.28564453125
-100.7080078125
-98.876953125
-102.5390625
-122.6806640625
-119.93408203125
-105.28564453125
-104.3701171875
-105.28564453125
-108.94775390625
-106.201171875
-97.0458984375
-99.79248046875
-102.5390625
-101.62353515625
-98.876953125
-112.60986328125
-109.86328125
-101.62353515625
-94.29931640625
-101.62353515625
-105.28564453125
-116.27197265625
-101.62353515625
-95.21484375
-102.5390625
-106.201171875
-100.7080078125
-97.96142578125
-103.45458984375
-102.5390625
-104.3701171875
-109.86328125
-99.79248046875
-105.28564453125
-107.11669921875
-110.77880859375
-105.28564453125
-86.97509765625
-101.62353515625
-100.7080078125
-110.77880859375
-106.201171875
-109.86328125
-108.94775390625
-108.0322265625
-114.44091796875
-110.77880859375
-116.27197265625
-116.27197265625
-103.45458984375
-102.5390625
-115.3564453125
-118.10302734375
-118.10302734375
-123.59619140625
-131.8359375
-130.0048828125
-115.3564453125
-107.11669921875
-112.60986328125
-109.86328125
-119.0185546875
-117.1875
-120.849609375
-130.0048828125
-146.484375
-130.92041015625
-113.525390625
-112.60986328125
-116.27197265625
-123.59619140625
-104.3701171875
-127.25830078125
-136.41357421875
-140.9912109375
-141.90673828125
-121.76513671875
-120.849609375
-125.42724609375
-119.93408203125
-121.76513671875
-132.75146484375
-138.24462890625
-138.24462890625
-130.0048828125
-151.06201171875
-140.07568359375
-138.24462890625
-133.6669921875
-119.93408203125
-132.75146484375
-140.07568359375
-138.24462890625
-137.3291015625
-150.146484375
-145.56884765625
-139.16015625
-139.16015625
-127.25830078125
-132.75146484375
-122.6806640625
-129.08935546875
-145.56884765625
-150.146484375
-164.794921875
-146.484375
-148.3154296875
-139.16015625
-136.41357421875
-126.3427734375
-130.92041015625
-142.822265625
-144.6533203125
-146.484375
-153.80859375
-151.06201171875
-148.3154296875
-147.39990234375
-130.0048828125
-128.173828125
-131.8359375
-130.0048828125
-127.25830078125
-121.76513671875
-119.0185546875
-108.0322265625
-109.86328125
-101.62353515625
-91.552734375
-91.552734375
-106.201171875
-108.0322265625
-108.0322265625
-100.7080078125
-92.46826171875
-77.81982421875
-67.7490234375
-59.50927734375
-52.18505859375
-63.17138671875
-60.4248046875
-46.69189453125
-53.1005859375
-61.34033203125
-55.84716796875
-54.931640625
-54.01611328125
-38.4521484375
-43.02978515625
-45.7763671875
-61.34033203125
-61.34033203125
-79.65087890625
-86.0595703125
-92.46826171875
-108.94775390625
-108.0322265625
-109.86328125
-119.93408203125
-117.1875
-128.173828125
-141.90673828125
-136.41357421875
-143.73779296875
-158.38623046875
-163.87939453125
-165.71044921875
-164.794921875
-161.1328125
-162.9638671875
-163.87939453125
-157.470703125
-161.1328125
-167.54150390625
-180.35888671875
-179.443359375
-172.119140625
-178.52783203125
-160.21728515625
-174.86572265625
-185.85205078125
-182.18994140625
-183.10546875
-181.2744140625
-184.9365234375
-166.6259765625
-164.794921875
-172.119140625
-173.03466796875
-163.87939453125
-164.794921875
-174.86572265625
-180.35888671875
-176.69677734375
-169.37255859375
-171.20361328125
-164.794921875
-179.443359375
-173.03466796875
-175.78125
-165.71044921875
-176.69677734375
-183.10546875
-162.04833984375
-137.3291015625
-125.42724609375
-106.201171875
-81.48193359375
-43.9453125
18.310546875
106.201171875
196.83837890625
309.4482421875
447.69287109375
562.1337890625
661.0107421875
756.2255859375
827.63671875
834.04541015625
779.11376953125
628.0517578125
444.9462890625
192.2607421875
-54.931640625
-252.685546875
-328.67431640625
-379.94384765625
-434.87548828125
-441.2841796875
-438.53759765625
-451.35498046875
-415.6494140625
-385.43701171875
-347.900390625
-305.7861328125
-278.3203125
-215.14892578125
-177.6123046875
-155.6396484375
-129.08935546875
-120.849609375
-98.876953125
-82.3974609375
-84.228515625
-77.81982421875
-89.7216796875
-80.56640625
-74.15771484375
-62.255859375
-65.00244140625
-78.7353515625
-67.7490234375
-59.50927734375
-72.32666015625
-61.34033203125
-61.34033203125
-66.83349609375
-52.18505859375
-39.36767578125
-46.69189453125
-44.86083984375
-45.7763671875
-41.19873046875
-37.53662109375
-41.19873046875
-61.34033203125
-50.35400390625
-37.53662109375
-28.38134765625
-28.38134765625
-21.05712890625
-13.73291015625
-14.6484375
-21.05712890625
-32.958984375
-26.55029296875
-21.97265625
-13.73291015625
0
4.57763671875
7.32421875
10.07080078125
-2.74658203125
3.662109375
14.6484375
11.90185546875
11.90185546875
22.88818359375
27.4658203125
31.1279296875
32.958984375
37.53662109375
39.36767578125
50.35400390625
45.7763671875
54.01611328125
66.83349609375
70.49560546875
79.65087890625
85.14404296875
93.3837890625
89.7216796875
85.14404296875
87.890625
93.3837890625
104.3701171875
111.6943359375
128.173828125
144.6533203125
143.73779296875
148.3154296875
162.04833984375
168.45703125
180.35888671875
184.02099609375
177.6123046875
195.00732421875
219.7265625
222.47314453125
235.29052734375
252.685546875
258.1787109375
262.75634765625
268.24951171875
272.8271484375
284.72900390625
302.1240234375
310.36376953125
325.927734375
338.7451171875
343.32275390625
333.251953125
339.66064453125
341.49169921875
349.7314453125
362.548828125
361.63330078125
369.873046875
366.2109375
382.6904296875
401.0009765625
385.43701171875
360.7177734375
352.47802734375
345.15380859375
332.33642578125
323.18115234375
330.50537109375
312.19482421875
293.88427734375
265.5029296875
243.5302734375
214.2333984375
188.5986328125
167.54150390625
141.90673828125
115.3564453125
99.79248046875
93.3837890625
79.65087890625
56.7626953125
31.1279296875
6.40869140625
-8.23974609375
-21.05712890625
-58.59375
-54.931640625
-57.67822265625
-64.0869140625
-56.7626953125
-75.98876953125
-95.21484375
-102.5390625
-110.77880859375
-121.76513671875
-126.3427734375
-124.51171875
-122.6806640625
-119.0185546875
-116.27197265625
-119.93408203125
-126.3427734375
-134.58251953125
-136.41357421875
-141.90673828125
-146.484375
-145.56884765625
-137.3291015625
-132.75146484375
-139.16015625
-137.3291015625
-139.16015625
-149.23095703125
-147.39990234375
-151.06201171875
-151.9775390625
-151.9775390625
-141.90673828125
-134.58251953125
-122.6806640625
-121.76513671875
-130.92041015625
-144.6533203125
-146.484375
-140.07568359375
-153.80859375
-156.55517578125
-131.8359375
-133.6669921875
-125.42724609375
-118.10302734375
-126.3427734375
-136.41357421875
-130.0048828125
-138.24462890625
-140.07568359375
-134.58251953125
-128.173828125
-116.27197265625
-114.44091796875
-126.3427734375
-140.07568359375
-138.24462890625
-136.41357421875
-150.146484375
-139.16015625
-135.498046875
-125.42724609375
-115.3564453125
-115.3564453125
-124.51171875
-120.849609375
-130.92041015625
-134.58251953125
-128.173828125
-138.24462890625
-134.58251953125
-128.173828125
-109.86328125
-122.6806640625
-134.58251953125
-134.58251953125
-130.0048828125
-130.0048828125
-130.92041015625
-140.07568359375
-136.41357421875
-134.58251953125
-132.75146484375
-129.08935546875
-128.173828125
-131.8359375
-140.07568359375
-152.89306640625
-147.39990234375
-140.07568359375
-149.23095703125
-143.73779296875
-137.3291015625
-125.42724609375
-126.3427734375
-135.498046875
-144.6533203125
-148.3154296875
-149.23095703125
-149.23095703125
-146.484375
-131.8359375
-128.173828125
-135.498046875
-133.6669921875
-127.25830078125
-144.6533203125
-145.56884765625
-153.80859375
-145.56884765625
-141.90673828125
-150.146484375
-138.24462890625
-129.08935546875
-128.173828125
-137.3291015625
-152.89306640625
-160.21728515625
-139.16015625
-158.38623046875
-142.822265625
-134.58251953125
-155.6396484375
-158.38623046875
-153.80859375
-135.498046875
-140.07568359375
-141.90673828125
-134.58251953125
-145.56884765625
-159.3017578125
-157.470703125
-149.23095703125
-120.849609375
-131.8359375
-133.6669921875
-138.24462890625
-140.9912109375
-160.21728515625
-161.1328125
-119.0185546875
-114.44091796875
-108.0322265625
-106.201171875
-125.42724609375
-119.93408203125
-124.51171875
-100.7080078125
-99.79248046875
-93.3837890625
-94.29931640625
-86.97509765625
-77.81982421875
-65.00244140625
-75.98876953125
-74.15771484375
-67.7490234375
-55.84716796875
-32.958984375
-35.70556640625
-34.7900390625
-31.1279296875
-18.310546875
-11.90185546875
-12.8173828125
-17.39501953125
-39.36767578125
-27.4658203125
-10.07080078125
-8.23974609375
-27.4658203125
-38.4521484375
-22.88818359375
-19.22607421875
-10.986328125
-42.1142578125
-67.7490234375
-75.98876953125
-79.65087890625
-100.7080078125
-109.86328125
-88.80615234375
-90.63720703125
-93.3837890625
-103.45458984375
-108.0322265625
-125.42724609375
-136.41357421875
-134.58251953125
-137.3291015625
-137.3291015625
-130.92041015625
-137.3291015625
-139.16015625
-141.90673828125
-131.8359375
-137.3291015625
-143.73779296875
-137.3291015625
-140.07568359375
-146.484375
-147.39990234375
-133.6669921875
-117.1875
-126.3427734375
-128.173828125
-125.42724609375
-129.08935546875
-141.90673828125
-140.07568359375
-150.146484375
-141.90673828125
-125.42724609375
-125.42724609375
-125.42724609375
-119.0185546875
-128.173828125
-124.51171875
-128.173828125
-128.173828125
-143.73779296875
-144.6533203125
-126.3427734375
-108.0322265625
-110.77880859375
-106.201171875
-80.56640625
-65.91796875
-56.7626953125
-36.62109375
32.04345703125
100.7080078125
176.69677734375
298.4619140625
446.77734375
576.7822265625
666.50390625
748.9013671875
815.73486328125
859.68017578125
844.1162109375
714.111328125
535.58349609375
319.51904296875
66.83349609375
-164.794921875
-286.56005859375
-348.81591796875
-422.05810546875
-460.51025390625
-470.5810546875
-458.67919921875
-430.2978515625
-393.6767578125
-355.224609375
-302.1240234375
-256.34765625
-205.99365234375
-169.37255859375
-144.6533203125
-127.25830078125
-104.3701171875
-75.0732421875
-54.01611328125
-46.69189453125
-27.4658203125
-42.1142578125
-75.0732421875
-81.48193359375
-78.7353515625
-84.228515625
-69.580078125
-43.9453125
-29.296875
-43.9453125
-67.7490234375
-56.7626953125
-64.0869140625
-65.91796875
-58.59375
-61.34033203125
-50.35400390625
-47.607421875
-31.1279296875
-2.74658203125
-14.6484375
-20.1416015625
-53.1005859375
-55.84716796875
-33.87451171875
-35.70556640625
-49.4384765625
-11.90185546875
-9.1552734375
2.74658203125
3.662109375
-21.97265625
-30.21240234375
-28.38134765625
1.8310546875
9.1552734375
-10.986328125
-8.23974609375
6.40869140625
13.73291015625
1.8310546875
10.986328125
16.4794921875
-13.73291015625
1.8310546875
21.97265625
23.8037109375
47.607421875
46.69189453125
58.59375
67.7490234375
54.01611328125
37.53662109375
18.310546875
19.22607421875
45.7763671875
85.14404296875
123.59619140625
104.3701171875
65.91796875
89.7216796875
88.80615234375
105.28564453125
108.0322265625
115.3564453125
129.08935546875
146.484375
150.146484375
162.9638671875
170.2880859375
184.9365234375
171.20361328125
178.52783203125
180.35888671875
204.16259765625
224.30419921875
216.064453125
238.037109375
243.5302734375
250.8544921875
249.0234375
290.22216796875
292.05322265625
292.05322265625
302.1240234375
315.85693359375
317.68798828125
307.6171875
326.84326171875
336.9140625
337.82958984375
343.32275390625
355.224609375
341.49169921875
326.84326171875
352.47802734375
346.0693359375
387.26806640625
372.61962890625
347.900390625
321.35009765625
303.03955078125
303.955078125
296.630859375
287.4755859375
258.1787109375
240.78369140625
239.8681640625
199.5849609375
167.54150390625
136.41357421875
115.3564453125
117.1875
100.7080078125
61.34033203125
10.986328125
-14.6484375
0.91552734375
-8.23974609375
-26.55029296875
-38.4521484375
-54.01611328125
-75.0732421875
-81.48193359375
-123.59619140625
-102.5390625
-96.13037109375
-112.60986328125
-111.6943359375
-114.44091796875
-119.93408203125
-122.6806640625
-112.60986328125
-140.07568359375
-179.443359375
-188.5986328125
-161.1328125
-143.73779296875
-141.90673828125
-128.173828125
-159.3017578125
-158.38623046875
-159.3017578125
-161.1328125
-180.35888671875
-173.9501953125
-168.45703125
-144.6533203125
-144.6533203125
-170.2880859375
-164.794921875
-135.498046875
-167.54150390625
-187.68310546875
-184.9365234375
-179.443359375
-154.72412109375
-154.72412109375
-152.89306640625
-142.822265625
-137.3291015625
-157.470703125
-162.04833984375
-174.86572265625
-174.86572265625
-172.119140625
-162.9638671875
-150.146484375
-145.56884765625
-152.89306640625
-142.822265625
-152.89306640625
-157.470703125
-160.21728515625
-155.6396484375
-163.87939453125
-150.146484375
-137.3291015625
-146.484375
-166.6259765625
-155.6396484375
-153.80859375
-170.2880859375
-186.767578125
-177.6123046875
-154.72412109375
-147.39990234375
-152.89306640625
-143.73779296875
-144.6533203125
-159.3017578125
-172.119140625
-167.54150390625
-170.2880859375
-165.71044921875
-157.470703125
-160.21728515625
-158.38623046875
-159.3017578125
-160.21728515625
-154.72412109375
-162.04833984375
-157.470703125
-169.37255859375
-180.35888671875
-178.52783203125
-173.03466796875
-156.55517578125
-146.484375
-156.55517578125
-161.1328125
-168.45703125
-179.443359375
-184.02099609375
-182.18994140625
-173.03466796875
-162.9638671875
-167.54150390625
-167.54150390625
-159.3017578125
-169.37255859375
-186.767578125
-184.9365234375
-187.68310546875
-191.34521484375
-172.119140625
-165.71044921875
-162.04833984375
-168.45703125
-176.69677734375
-182.18994140625
-195.00732421875
-191.34521484375
-201.416015625
-203.2470703125
-196.83837890625
-177.6123046875
-173.9501953125
-173.03466796875
-173.9501953125
-183.10546875
-186.767578125
-187.68310546875
-185.85205078125
-182.18994140625
-173.9501953125
-162.04833984375
-156.55517578125
-139.16015625
-132.75146484375
-130.92041015625
-138.24462890625
-149.23095703125
-162.9638671875
-164.794921875
-154.72412109375
-137.3291015625
-103.45458984375
-96.13037109375
-91.552734375
-86.0595703125
-95.21484375
-89.7216796875
-79.65087890625
-77.81982421875
-67.7490234375
-54.931640625
-58.59375
-59.50927734375
-52.18505859375
-47.607421875
-61.34033203125
-65.00244140625
-74.15771484375
-93.3837890625
-95.21484375
-86.97509765625
-95.21484375
-95.21484375
-109.86328125
-140.9912109375
-149.23095703125
-153.80859375
-161.1328125
-166.6259765625
-163.87939453125
-161.1328125
-165.71044921875
-170.2880859375
-171.20361328125
-179.443359375
-179.443359375
-187.68310546875
-199.5849609375
-194.091796875
-193.17626953125
-184.9365234375
-186.767578125
-189.51416015625
-194.091796875
-190.4296875
-199.5849609375
-202.33154296875
-205.99365234375
-206.9091796875
-204.16259765625
-195.9228515625
-193.17626953125
-191.34521484375
-198.66943359375
-199.5849609375
-200.50048828125
-205.078125
-205.99365234375
-203.2470703125
-201.416015625
-195.9228515625
-190.4296875
-185.85205078125
-189.51416015625
-190.4296875
-198.66943359375
-201.416015625
-215.14892578125
-212.40234375
-195.9228515625
-173.9501953125
-146.484375
-120.849609375
-116.27197265625
-75.0732421875
-14.6484375
51.26953125
133.6669921875
261.8408203125
401.0009765625
530.09033203125
642.7001953125
731.50634765625
799.25537109375
804.74853515625
736.083984375
580.4443359375
383.60595703125
131.8359375
-109.86328125
-299.37744140625
-380.859375
-427.55126953125
-485.2294921875
-508.11767578125
-519.10400390625
-515.44189453125
-484.31396484375
-438.53759765625
-385.43701171875
-340.576171875
-289.306640625
-234.375
-200.50048828125
-185.85205078125
-172.119140625
-149.23095703125
-133.6669921875
-124.51171875
-119.0185546875
-104.3701171875
-95.21484375
-91.552734375
-97.96142578125
-101.62353515625
-104.3701171875
-103.45458984375
-107.11669921875
-110.77880859375
-104.3701171875
-86.97509765625
-77.81982421875
-87.890625
-84.228515625
-75.0732421875
-85.14404296875
-91.552734375
-88.80615234375
-84.228515625
-81.48193359375
-69.580078125
-63.17138671875
-65.00244140625
-65.00244140625
-64.0869140625
-63.17138671875
-65.91796875
-69.580078125
-62.255859375
-59.50927734375
-46.69189453125
-31.1279296875
-22.88818359375
-37.53662109375
-40.283203125
-31.1279296875
-32.04345703125
-39.36767578125
-33.87451171875
-30.21240234375
-18.310546875
-7.32421875
-5.4931640625
1.8310546875
-0.91552734375
0.91552734375
0
-7.32421875
0
14.6484375
25.634765625
32.958984375
37.53662109375
34.7900390625
51.26953125
46.69189453125
48.52294921875
48.52294921875
56.7626953125
70.49560546875
86.97509765625
104.3701171875
101.62353515625
112.60986328125
98.876953125
114.44091796875
122.6806640625
108.0322265625
121.76513671875
139.16015625
159.3017578125
177.6123046875
198.66943359375
200.50048828125
207.82470703125
210.5712890625
209.65576171875
215.14892578125
221.5576171875
247.1923828125
271.91162109375
280.1513671875
284.72900390625
296.630859375
296.630859375
293.88427734375
295.71533203125
304.87060546875
314.94140625
323.18115234375
337.82958984375
348.81591796875
356.14013671875
364.3798828125
348.81591796875
340.576171875
335.99853515625
326.84326171875
327.7587890625
314.02587890625
316.7724609375
310.36376953125
296.630859375
264.58740234375
238.95263671875
221.5576171875
197.75390625
166.6259765625
152.89306640625
143.73779296875
129.08935546875
115.3564453125
92.46826171875
57.67822265625
40.283203125
20.1416015625
-14.6484375
-30.21240234375
-46.69189453125
-55.84716796875
-61.34033203125
-62.255859375
-75.98876953125
-87.890625
-98.876953125
-107.11669921875
-113.525390625
-126.3427734375
-136.41357421875
-142.822265625
-138.24462890625
-138.24462890625
-132.75146484375
-139.16015625
-144.6533203125
-151.06201171875
-148.3154296875
-160.21728515625
-169.37255859375
-155.6396484375
-151.06201171875
-148.3154296875
-154.72412109375
-163.87939453125
-160.21728515625
-166.6259765625
-162.9638671875
-162.9638671875
-168.45703125
-158.38623046875
-156.55517578125
-156.55517578125
-156.55517578125
-163.87939453125
-150.146484375
-157.470703125
-171.20361328125
-166.6259765625
-163.87939453125
-169.37255859375
-157.470703125
-151.06201171875
-150.146484375
-151.06201171875
-155.6396484375
-157.470703125
-154.72412109375
-156.55517578125
-155.6396484375
-162.9638671875
-147.39990234375
-131.8359375
-145.56884765625
-147.39990234375
-144.6533203125
-144.6533203125
-154.72412109375
-163.87939453125
-162.04833984375
-157.470703125
-146.484375
-140.9912109375
-131.8359375
-144.6533203125
-144.6533203125
-139.16015625
-137.3291015625
-155.6396484375
-156.55517578125
-149.23095703125
-145.56884765625
-137.3291015625
-131.8359375
-139.16015625
-145.56884765625
-149.23095703125
-146.484375
-154.72412109375
-154.72412109375
-150.146484375
-139.16015625
-135.498046875
-136.41357421875
-146.484375
-146.484375
-147.39990234375
-156.55517578125
-165.71044921875
-162.9638671875
-155.6396484375
-151.06201171875
-145.56884765625
-134.58251953125
-139.16015625
-157.470703125
-154.72412109375
-162.04833984375
-161.1328125
-162.9638671875
-165.71044921875
-154.72412109375
-151.06201171875
-141.90673828125
-136.41357421875
-140.07568359375
-145.56884765625
-138.24462890625
-134.58251953125
-127.25830078125
-114.44091796875
-104.3701171875
-97.0458984375
-95.21484375
-125.42724609375
-121.76513671875
-108.94775390625
-102.5390625
-95.21484375
-93.3837890625
-72.32666015625
-65.00244140625
-55.84716796875
-42.1142578125
-35.70556640625
-35.70556640625
-30.21240234375
-45.7763671875
-51.26953125
-54.01611328125
-45.7763671875
-32.958984375
-21.97265625
-32.958984375
-39.36767578125
-50.35400390625
-78.7353515625
-96.13037109375
-117.1875
-111.6943359375
-112.60986328125
-118.10302734375
-118.10302734375
-140.07568359375
-141.90673828125
-128.173828125
-140.9912109375
-158.38623046875
-164.794921875
-182.18994140625
-177.6123046875
-162.04833984375
-166.6259765625
-169.37255859375
-162.9638671875
-173.9501953125
-179.443359375
-183.10546875
-190.4296875
-185.85205078125
-186.767578125
-181.2744140625
-184.9365234375
-167.54150390625
-182.18994140625
-189.51416015625
-189.51416015625
-189.51416015625
-196.83837890625
-196.83837890625
-194.091796875
-185.85205078125
-177.6123046875
-181.2744140625
-182.18994140625
-179.443359375
-178.52783203125
-195.00732421875
-196.83837890625
-195.9228515625
-184.9365234375
-182.18994140625
-183.10546875
-182.18994140625
-177.6123046875
-183.10546875
-173.9501953125
-171.20361328125
-149.23095703125
-135.498046875
-119.93408203125
-71.4111328125
-7.32421875
60.4248046875
146.484375
274.658203125
407.40966796875
535.58349609375
636.29150390625
727.84423828125
808.41064453125
806.57958984375
749.81689453125
606.99462890625
408.3251953125
147.39990234375
-97.96142578125
-269.1650390625
-338.7451171875
-390.93017578125
-435.791015625
-444.03076171875
-452.2705078125
-449.52392578125
-426.6357421875
-396.42333984375
-360.7177734375
-326.84326171875
-285.64453125
-243.5302734375
-205.078125
-174.86572265625
-152.89306640625
-130.92041015625
-109.86328125
-94.29931640625
-101.62353515625
-99.79248046875
-102.5390625
-89.7216796875
-98.876953125
-83.31298828125
-76.904296875
-69.580078125
-67.7490234375
-72.32666015625
-80.56640625
-77.81982421875
-77.81982421875
-78.7353515625
-67.7490234375
-58.59375
-64.0869140625
-60.4248046875
-52.18505859375
-54.931640625
-54.931640625
-49.4384765625
-54.931640625
-54.931640625
-39.36767578125
-25.634765625
-31.1279296875
-20.1416015625
-26.55029296875
-29.296875
-36.62109375
-36.62109375
-32.04345703125
-32.04345703125
-20.1416015625
-14.6484375
-3.662109375
0.91552734375
5.4931640625
1.8310546875
-8.23974609375
-5.4931640625
-2.74658203125
-1.8310546875
23.8037109375
31.1279296875
31.1279296875
31.1279296875
29.296875
44.86083984375
41.19873046875
42.1142578125
54.931640625
59.50927734375
54.931640625
73.2421875
86.97509765625
88.80615234375
94.29931640625
98.876953125
97.96142578125
98.876953125
97.96142578125
108.94775390625
122.6806640625
146.484375
160.21728515625
165.71044921875
158.38623046875
171.20361328125
177.6123046875
175.78125
185.85205078125
205.078125
217.8955078125
237.12158203125
249.93896484375
260.92529296875
267.333984375
274.658203125
282.89794921875
289.306640625
287.4755859375
297.54638671875
303.955078125
322.265625
335.99853515625
337.82958984375
343.32275390625
353.3935546875
353.3935546875
346.98486328125
352.47802734375
356.14013671875
356.14013671875
367.12646484375
368.95751953125
368.95751953125
376.28173828125
342.4072265625
327.7587890625
315.85693359375
298.4619140625
272.8271484375
261.8408203125
240.78369140625
216.97998046875
204.16259765625
183.10546875
158.38623046875
130.0048828125
101.62353515625
87.890625
61.34033203125
47.607421875
37.53662109375
25.634765625
9.1552734375
-2.74658203125
-10.07080078125
-31.1279296875
-53.1005859375
-72.32666015625
-77.81982421875
-80.56640625
-84.228515625
-92.46826171875
-90.63720703125
-104.3701171875
-102.5390625
-119.0185546875
-129.08935546875
-128.173828125
-129.08935546875
-130.0048828125
-129.08935546875
-119.93408203125
-136.41357421875
-113.525390625
-115.3564453125
-132.75146484375
-151.06201171875
-155.6396484375
-151.9775390625
-139.16015625
-130.92041015625
-125.42724609375
-127.25830078125
-130.92041015625
-131.8359375
-142.822265625
-142.822265625
-140.9912109375
-141.90673828125
-140.07568359375
-125.42724609375
-123.59619140625
-131.8359375
-133.6669921875
-128.173828125
-137.3291015625
-143.73779296875
-133.6669921875
-126.3427734375
-141.90673828125
-131.8359375
-130.0048828125
-121.76513671875
-123.59619140625
-130.92041015625
-139.16015625
-140.07568359375
-140.9912109375
-139.16015625
-133.6669921875
-125.42724609375
-127.25830078125
-134.58251953125
-131.8359375
-134.58251953125
-132.75146484375
-131.8359375
-140.9912109375
-138.24462890625
-136.41357421875
-130.0048828125
-117.1875
-119.0185546875
-122.6806640625
-117.1875
-125.42724609375
-144.6533203125
-134.58251953125
-131.8359375
-128.173828125
-131.8359375
-136.41357421875
-131.8359375
-125.42724609375
-125.42724609375
-138.24462890625
-145.56884765625
-153.80859375
-146.484375
-139.16015625
-129.08935546875
-120.849609375
-126.3427734375
-121.76513671875
-126.3427734375
-131.8359375
-147.39990234375
-157.470703125
-151.06201171875
-146.484375
-143.73779296875
-130.92041015625
-133.6669921875
-137.3291015625
-145.56884765625
-151.06201171875
-158.38623046875
-156.55517578125
-158.38623046875
-145.56884765625
-135.498046875
-136.41357421875
-132.75146484375
-140.07568359375
-132.75146484375
-130.92041015625
-117.1875
-128.173828125
-120.849609375
-112.60986328125
-108.0322265625
-95.21484375
-95.21484375
-92.46826171875
-100.7080078125
-117.1875
-110.77880859375
-101.62353515625
-96.13037109375
-83.31298828125
-64.0869140625
-58.59375
-51.26953125
-32.04345703125
-31.1279296875
-36.62109375
-34.7900390625
-36.62109375
-41.19873046875
-37.53662109375
-37.53662109375
-26.55029296875
-32.958984375
-32.958984375
-34.7900390625
-42.1142578125
-59.50927734375
-83.31298828125
-91.552734375
-92.46826171875
-97.96142578125
-108.94775390625
-113.525390625
-132.75146484375
-139.16015625
-135.498046875
-142.822265625
-149.23095703125
-156.55517578125
-156.55517578125
-150.146484375
-143.73779296875
-147.39990234375
-153.80859375
-166.6259765625
-170.2880859375
-169.37255859375
-162.04833984375
-161.1328125
-166.6259765625
-168.45703125
-171.20361328125
-171.20361328125
-170.2880859375
-164.794921875
-175.78125
-173.9501953125
-178.52783203125
-172.119140625
-162.9638671875
-169.37255859375
-162.04833984375
-163.87939453125
-173.9501953125
-168.45703125
-169.37255859375
-165.71044921875
-176.69677734375
-166.6259765625
-159.3017578125
-155.6396484375
-157.470703125
-162.9638671875
-178.52783203125
-173.03466796875
-172.119140625
-170.2880859375
-151.06201171875
-140.9912109375
-122.6806640625
-100.7080078125
-68.66455078125
-4.57763671875
65.00244140625
144.6533203125
269.1650390625
406.494140625
531.005859375
641.78466796875
744.32373046875
832.21435546875
831.298828125
770.8740234375
641.78466796875
463.2568359375
