ECG
-3.662109375
7.32421875
14.6484375
21.97265625
21.05712890625
21.05712890625
32.958984375
35.70556640625
21.97265625
31.1279296875
57.67822265625
52.18505859375
46.69189453125
57.67822265625
50.35400390625
72.32666015625
84.228515625
86.0595703125
92.46826171875
100.7080078125
106.201171875
119.0185546875
119.0185546875
118.10302734375
128.173828125
142.822265625
143.73779296875
150.146484375
160.21728515625
159.3017578125
163.87939453125
176.69677734375
189.51416015625
184.02099609375
168.45703125
181.2744140625
183.10546875
196.83837890625
195.9228515625
205.078125
209.65576171875
217.8955078125
229.79736328125
222.47314453125
217.8955078125
225.2197265625
220.64208984375
205.078125
199.5849609375
196.83837890625
188.5986328125
195.9228515625
183.10546875
159.3017578125
156.55517578125
147.39990234375
140.9912109375
126.3427734375
110.77880859375
97.96142578125
94.29931640625
89.7216796875
81.48193359375
66.83349609375
30.21240234375
12.8173828125
11.90185546875
11.90185546875
9.1552734375
10.986328125
7.32421875
0
-13.73291015625
-30.21240234375
-39.36767578125
-34.7900390625
-39.36767578125
-44.86083984375
-51.26953125
-54.01611328125
-64.0869140625
-65.91796875
-49.4384765625
-42.1142578125
-56.7626953125
-62.255859375
-53.1005859375
-49.4384765625
-43.9453125
-54.931640625
-71.4111328125
-68.66455078125
-65.91796875
-65.91796875
-58.59375
-56.7626953125
-42.1142578125
-39.36767578125
-46.69189453125
-44.86083984375
-54.01611328125
-61.34033203125
-54.931640625
-52.18505859375
-60.4248046875
-55.84716796875
-72.32666015625
-65.00244140625
-55.84716796875
-46.69189453125
-50.35400390625
-57.67822265625
-57.67822265625
-52.18505859375
-52.18505859375
-54.01611328125
-61.34033203125
-77.81982421875
-53.1005859375
-46.69189453125
-33.87451171875
-33.87451171875
-37.53662109375
-38.4521484375
-32.958984375
-42.1142578125
-51.26953125
-57.67822265625
-51.26953125
-58.59375
-49.4384765625
-40.283203125
-40.283203125
-44.86083984375
-54.01611328125
-56.7626953125
-60.4248046875
-56.7626953125
-48.52294921875
-46.69189453125
-53.1005859375
-58.59375
-60.4248046875
-72.32666015625
-74.15771484375
-71.4111328125
-66.83349609375
-56.7626953125
-52.18505859375
-59.50927734375
-62.255859375
-69.580078125
-81.48193359375
-85.14404296875
-86.97509765625
-79.65087890625
-84.228515625
-77.81982421875
-75.0732421875
-67.7490234375
-72.32666015625
-75.98876953125
-65.91796875
-75.0732421875
-93.3837890625
-97.96142578125
-89.7216796875
-85.14404296875
-85.14404296875
-84.228515625
-92.46826171875
-89.7216796875
-92.46826171875
-76.904296875
-81.48193359375
-108.0322265625
-110.77880859375
-94.29931640625
-76.904296875
-92.46826171875
-91.552734375
-86.0595703125
-86.0595703125
-95.21484375
-100.7080078125
-94.29931640625
-86.97509765625
-95.21484375
-98.876953125
-94.29931640625
-98.876953125
-98.876953125
-99.79248046875
-113.525390625
-110.77880859375
-114.44091796875
-131.8359375
-128.173828125
-123.59619140625
-134.58251953125
-145.56884765625
-127.25830078125
-122.6806640625
-112.60986328125
-114.44091796875
-102.5390625
-106.201171875
-118.10302734375
-114.44091796875
-108.94775390625
-120.849609375
-136.41357421875
-130.0048828125
-124.51171875
-130.0048828125
-134.58251953125
-122.6806640625
-130.0048828125
-140.9912109375
-126.3427734375
-118.10302734375
-120.849609375
-118.10302734375
-126.3427734375
-140.9912109375
-132.75146484375
-134.58251953125
-142.822265625
-133.6669921875
-124.51171875
-132.75146484375
-135.498046875
-127.25830078125
-118.10302734375
-128.173828125
-129.08935546875
-114.44091796875
-97.0458984375
-89.7216796875
-88.80615234375
-104.3701171875
-102.5390625
-100.7080078125
-101.62353515625
-81.48193359375
-73.2421875
-59.50927734375
-68.66455078125
-75.98876953125
-59.50927734375
-56.7626953125
-55.84716796875
-38.4521484375
-13.73291015625
-27.4658203125
-25.634765625
-16.4794921875
-13.73291015625
-20.1416015625
-26.55029296875
-26.55029296875
-42.1142578125
-46.69189453125
-40.283203125
-42.1142578125
-36.62109375
-32.958984375
-30.21240234375
-30.21240234375
-39.36767578125
-66.83349609375
-93.3837890625
-86.0595703125
-93.3837890625
-117.1875
-118.10302734375
-132.75146484375
-129.08935546875
-121.76513671875
-127.25830078125
-135.498046875
-132.75146484375
-139.16015625
-155.6396484375
-157.470703125
-147.39990234375
-162.9638671875
-164.794921875
-159.3017578125
-169.37255859375
-175.78125
-174.86572265625
-167.54150390625
-164.794921875
-162.9638671875
-161.1328125
-150.146484375
-164.794921875
-177.6123046875
-163.87939453125
-165.71044921875
-168.45703125
-156.55517578125
-174.86572265625
-176.69677734375
-182.18994140625
-184.02099609375
-154.72412109375
-132.75146484375
-95.21484375
-38.4521484375
30.21240234375
89.7216796875
162.9638671875
258.1787109375
343.32275390625
429.38232421875
535.58349609375
634.46044921875
718.68896484375
791.015625
802.91748046875
752.5634765625
629.8828125
459.5947265625
234.375
18.310546875
-150.146484375
-249.93896484375
-306.70166015625
-351.5625
-392.76123046875
-401.91650390625
-364.3798828125
-302.1240234375
-245.361328125
-192.2607421875
-162.04833984375
-154.72412109375
-159.3017578125
-149.23095703125
-143.73779296875
-140.07568359375
-146.484375
-154.72412109375
-155.6396484375
-146.484375
-146.484375
-148.3154296875
-135.498046875
-128.173828125
-129.08935546875
-134.58251953125
-132.75146484375
-129.08935546875
-140.07568359375
-148.3154296875
-144.6533203125
-137.3291015625
-143.73779296875
-120.849609375
-126.3427734375
-131.8359375
-132.75146484375
-120.849609375
-124.51171875
-126.3427734375
-116.27197265625
-130.0048828125
-131.8359375
-120.849609375
-124.51171875
-113.525390625
-108.0322265625
-106.201171875
-109.86328125
-87.890625
-100.7080078125
-85.14404296875
-104.3701171875
-107.11669921875
-120.849609375
-109.86328125
-101.62353515625
-93.3837890625
-88.80615234375
-73.2421875
-56.7626953125
-62.255859375
-68.66455078125
-60.4248046875
-51.26953125
-61.34033203125
-47.607421875
-56.7626953125
-60.4248046875
-65.00244140625
-43.02978515625
-26.55029296875
-26.55029296875
-32.04345703125
-35.70556640625
-42.1142578125
-35.70556640625
-32.04345703125
-21.97265625
-21.97265625
-9.1552734375
-9.1552734375
-6.40869140625
0.91552734375
4.57763671875
21.05712890625
43.9453125
38.4521484375
43.9453125
45.7763671875
48.52294921875
54.931640625
65.00244140625
61.34033203125
64.0869140625
71.4111328125
81.48193359375
87.890625
118.10302734375
110.77880859375
103.45458984375
113.525390625
119.93408203125
129.08935546875
130.0048828125
134.58251953125
139.16015625
149.23095703125
158.38623046875
167.54150390625
156.55517578125
154.72412109375
174.86572265625
163.87939453125
148.3154296875
150.146484375
176.69677734375
166.6259765625
137.3291015625
126.3427734375
113.525390625
102.5390625
91.552734375
79.65087890625
77.81982421875
65.00244140625
45.7763671875
18.310546875
11.90185546875
5.4931640625
-5.4931640625
-15.56396484375
-24.71923828125
-34.7900390625
-55.84716796875
-51.26953125
-66.83349609375
-79.65087890625
-81.48193359375
-91.552734375
-86.0595703125
-87.890625
-105.28564453125
-109.86328125
-118.10302734375
-118.10302734375
-114.44091796875
-119.0185546875
-140.9912109375
-128.173828125
-129.08935546875
-127.25830078125
-131.8359375
-122.6806640625
-130.92041015625
-137.3291015625
-123.59619140625
-131.8359375
-151.06201171875
-139.16015625
-120.849609375
-127.25830078125
-125.42724609375
-128.173828125
-128.173828125
-134.58251953125
-123.59619140625
-140.9912109375
-145.56884765625
-149.23095703125
-142.822265625
-133.6669921875
-140.9912109375
-137.3291015625
-138.24462890625
-141.90673828125
-147.39990234375
-126.3427734375
-107.11669921875
-100.7080078125
-116.27197265625
-120.849609375
-112.60986328125
-109.86328125
-119.0185546875
-110.77880859375
-119.93408203125
-130.0048828125
-132.75146484375
-129.08935546875
-134.58251953125
-140.07568359375
-129.08935546875
-118.10302734375
-105.28564453125
-110.77880859375
-109.86328125
-129.08935546875
-127.25830078125
-107.11669921875
-126.3427734375
-136.41357421875
-139.16015625
-132.75146484375
-140.9912109375
-143.73779296875
-126.3427734375
-123.59619140625
-121.76513671875
-124.51171875
-123.59619140625
-138.24462890625
-138.24462890625
-137.3291015625
-126.3427734375
-116.27197265625
-119.0185546875
-116.27197265625
-128.173828125
-131.8359375
-137.3291015625
-146.484375
-137.3291015625
-128.173828125
-129.08935546875
-130.0048828125
-138.24462890625
-130.92041015625
-128.173828125
-145.56884765625
-153.80859375
-153.80859375
-159.3017578125
-151.9775390625
-140.07568359375
-147.39990234375
-158.38623046875
-147.39990234375
-148.3154296875
-147.39990234375
-148.3154296875
-144.6533203125
-151.9775390625
-154.72412109375
-151.06201171875
-163.87939453125
-167.54150390625
-171.20361328125
-157.470703125
-149.23095703125
-148.3154296875
-148.3154296875
-141.90673828125
-151.9775390625
-146.484375
-161.1328125
-174.86572265625
-164.794921875
-161.1328125
-179.443359375
-179.443359375
-165.71044921875
-155.6396484375
-151.06201171875
-160.21728515625
-150.146484375
-151.06201171875
-161.1328125
-167.54150390625
-171.20361328125
-163.87939453125
-154.72412109375
-158.38623046875
-163.87939453125
-159.3017578125
-166.6259765625
-153.80859375
-162.04833984375
-168.45703125
-163.87939453125
-156.55517578125
-152.89306640625
-148.3154296875
-151.9775390625
-141.90673828125
-133.6669921875
-112.60986328125
-116.27197265625
-115.3564453125
-116.27197265625
-120.849609375
-77.81982421875
-83.31298828125
-83.31298828125
-52.18505859375
-46.69189453125
-48.52294921875
-49.4384765625
-43.9453125
-43.9453125
-43.9453125
-52.18505859375
-58.59375
-66.83349609375
-82.3974609375
-82.3974609375
-77.81982421875
-75.0732421875
-65.00244140625
-70.49560546875
-68.66455078125
-82.3974609375
-88.80615234375
-104.3701171875
-123.59619140625
-135.498046875
-166.6259765625
-171.20361328125
-169.37255859375
-186.767578125
-192.2607421875
-177.6123046875
-174.86572265625
-167.54150390625
-172.119140625
-172.119140625
-173.03466796875
-189.51416015625
-198.66943359375
-206.9091796875
-202.33154296875
-205.078125
-198.66943359375
-212.40234375
-194.091796875
-203.2470703125
-201.416015625
-214.2333984375
-214.2333984375
-214.2333984375
-216.97998046875
-198.66943359375
-195.00732421875
-201.416015625
-213.31787109375
-218.81103515625
-213.31787109375
-217.8955078125
-226.13525390625
-194.091796875
-169.37255859375
-130.92041015625
-84.228515625
-8.23974609375
62.255859375
143.73779296875
249.93896484375
341.49169921875
418.39599609375
515.44189453125
612.48779296875
667.41943359375
730.5908203125
737.9150390625
680.23681640625
570.37353515625
422.9736328125
216.064453125
3.662109375
-173.03466796875
-278.3203125
-328.67431640625
-351.5625
-401.91650390625
-414.73388671875
-389.09912109375
-338.7451171875
-303.955078125
-266.41845703125
-234.375
-216.064453125
-218.81103515625
-212.40234375
-201.416015625
-184.02099609375
-175.78125
-174.86572265625
-166.6259765625
-164.794921875
-174.86572265625
-170.2880859375
-186.767578125
-184.02099609375
-174.86572265625
-162.04833984375
-174.86572265625
-172.119140625
-168.45703125
-170.2880859375
-174.86572265625
-170.2880859375
-176.69677734375
-176.69677734375
-165.71044921875
-161.1328125
-172.119140625
-176.69677734375
-173.9501953125
-173.9501953125
-166.6259765625
-140.9912109375
-134.58251953125
-144.6533203125
-125.42724609375
-131.8359375
-136.41357421875
-139.16015625
-144.6533203125
-133.6669921875
-134.58251953125
-125.42724609375
-118.10302734375
-119.0185546875
-128.173828125
-129.08935546875
-124.51171875
-110.77880859375
-112.60986328125
-122.6806640625
-111.6943359375
-119.0185546875
-101.62353515625
-105.28564453125
-108.0322265625
-103.45458984375
-94.29931640625
-83.31298828125
-87.890625
-65.91796875
-57.67822265625
-65.91796875
-62.255859375
-57.67822265625
-45.7763671875
-47.607421875
-59.50927734375
-58.59375
-45.7763671875
-51.26953125
-43.02978515625
-33.87451171875
-27.4658203125
-22.88818359375
-14.6484375
-17.39501953125
-4.57763671875
10.07080078125
29.296875
43.02978515625
37.53662109375
44.86083984375
56.7626953125
62.255859375
77.81982421875
70.49560546875
83.31298828125
87.890625
86.0595703125
96.13037109375
99.79248046875
101.62353515625
98.876953125
103.45458984375
101.62353515625
108.0322265625
113.525390625
115.3564453125
115.3564453125
116.27197265625
124.51171875
138.24462890625
142.822265625
128.173828125
128.173828125
124.51171875
129.08935546875
114.44091796875
97.0458984375
98.876953125
91.552734375
70.49560546875
64.0869140625
57.67822265625
42.1142578125
35.70556640625
10.07080078125
-2.74658203125
-10.986328125
-18.310546875
-25.634765625
-41.19873046875
-57.67822265625
-65.00244140625
-72.32666015625
-94.29931640625
-99.79248046875
-106.201171875
-93.3837890625
-108.0322265625
-117.1875
-113.525390625
-123.59619140625
-118.10302734375
-109.86328125
-128.173828125
-129.08935546875
-128.173828125
-143.73779296875
-139.16015625
-123.59619140625
-131.8359375
-141.90673828125
-147.39990234375
-140.9912109375
-140.07568359375
-152.89306640625
-134.58251953125
-135.498046875
-147.39990234375
-141.90673828125
-140.07568359375
-127.25830078125
-140.07568359375
-147.39990234375
-151.06201171875
-151.06201171875
-141.90673828125
-142.822265625
-134.58251953125
-129.08935546875
-138.24462890625
-128.173828125
-130.92041015625
-140.07568359375
-140.9912109375
-149.23095703125
-141.90673828125
-133.6669921875
-123.59619140625
-130.92041015625
-122.6806640625
-131.8359375
-130.0048828125
-120.849609375
-128.173828125
-147.39990234375
-144.6533203125
-142.822265625
-144.6533203125
-143.73779296875
-139.16015625
-119.0185546875
-131.8359375
-135.498046875
-144.6533203125
-140.9912109375
-138.24462890625
-148.3154296875
-131.8359375
-128.173828125
-138.24462890625
-139.16015625
-150.146484375
-140.9912109375
-140.07568359375
-135.498046875
-139.16015625
-152.89306640625
-142.822265625
-135.498046875
-141.90673828125
-135.498046875
-123.59619140625
-134.58251953125
-145.56884765625
-149.23095703125
-147.39990234375
-148.3154296875
-139.16015625
-128.173828125
-130.92041015625
-138.24462890625
-147.39990234375
-149.23095703125
-156.55517578125
-148.3154296875
-155.6396484375
-151.9775390625
-153.80859375
-161.1328125
-160.21728515625
-158.38623046875
-153.80859375
-150.146484375
-160.21728515625
-160.21728515625
-172.119140625
-173.9501953125
-158.38623046875
-158.38623046875
-163.87939453125
-165.71044921875
-164.794921875
-158.38623046875
-151.06201171875
-159.3017578125
-174.86572265625
-166.6259765625
-168.45703125
-165.71044921875
-160.21728515625
-163.87939453125
-160.21728515625
-161.1328125
-171.20361328125
-180.35888671875
-181.2744140625
-178.52783203125
-186.767578125
-181.2744140625
-173.9501953125
-171.20361328125
-162.9638671875
-165.71044921875
-170.2880859375
-168.45703125
-155.6396484375
-152.89306640625
-155.6396484375
-143.73779296875
-130.0048828125
-127.25830078125
-126.3427734375
-118.10302734375
-119.93408203125
-107.11669921875
-104.3701171875
-83.31298828125
-58.59375
-64.0869140625
-83.31298828125
-71.4111328125
-59.50927734375
-38.4521484375
-53.1005859375
-64.0869140625
-57.67822265625
-57.67822265625
-67.7490234375
-69.580078125
-72.32666015625
-79.65087890625
-73.2421875
-63.17138671875
-84.228515625
-95.21484375
-109.86328125
-115.3564453125
-131.8359375
-151.9775390625
-162.9638671875
-171.20361328125
-176.69677734375
-191.34521484375
-179.443359375
-183.10546875
-189.51416015625
-190.4296875
-202.33154296875
-217.8955078125
-205.99365234375
-199.5849609375
-209.65576171875
-200.50048828125
-193.17626953125
-213.31787109375
-203.2470703125
-196.83837890625
-203.2470703125
-207.82470703125
-198.66943359375
-188.5986328125
-206.9091796875
-220.64208984375
-209.65576171875
-207.82470703125
-207.82470703125
-208.740234375
-204.16259765625
-217.8955078125
-224.30419921875
-232.5439453125
-221.5576171875
-168.45703125
-137.3291015625
-86.97509765625
-32.958984375
25.634765625
89.7216796875
191.34521484375
292.05322265625
368.95751953125
459.5947265625
558.4716796875
643.61572265625
701.2939453125
737.9150390625
707.70263671875
618.896484375
478.82080078125
294.7998046875
80.56640625
-115.3564453125
-265.5029296875
-345.15380859375
-379.0283203125
-398.25439453125
-444.03076171875
-434.87548828125
-371.7041015625
-307.6171875
-259.09423828125
-228.8818359375
-204.16259765625
-196.83837890625
-198.66943359375
-180.35888671875
-168.45703125
-171.20361328125
-162.9638671875
-179.443359375
-180.35888671875
-181.2744140625
-180.35888671875
-181.2744140625
-185.85205078125
-179.443359375
-176.69677734375
-175.78125
-184.02099609375
-180.35888671875
-162.9638671875
-163.87939453125
-155.6396484375
-144.6533203125
-151.9775390625
-162.04833984375
-169.37255859375
-163.87939453125
-158.38623046875
-167.54150390625
-154.72412109375
-163.87939453125
-172.119140625
-153.80859375
-148.3154296875
-157.470703125
-151.06201171875
-162.9638671875
-151.06201171875
-135.498046875
-132.75146484375
-129.08935546875
-124.51171875
-130.92041015625
-128.173828125
-125.42724609375
-119.0185546875
-124.51171875
-117.1875
-125.42724609375
-128.173828125
-105.28564453125
-101.62353515625
-97.96142578125
-97.96142578125
-104.3701171875
-108.94775390625
-92.46826171875
-86.97509765625
-81.48193359375
-89.7216796875
-96.13037109375
-76.904296875
-77.81982421875
-77.81982421875
-59.50927734375
-55.84716796875
-60.4248046875
-45.7763671875
-43.02978515625
-44.86083984375
-44.86083984375
-32.04345703125
-33.87451171875
-21.97265625
-9.1552734375
2.74658203125
12.8173828125
18.310546875
21.05712890625
19.22607421875
38.4521484375
39.36767578125
44.86083984375
46.69189453125
52.18505859375
60.4248046875
81.48193359375
93.3837890625
76.904296875
83.31298828125
98.876953125
99.79248046875
108.0322265625
116.27197265625
119.0185546875
110.77880859375
128.173828125
129.08935546875
133.6669921875
136.41357421875
120.849609375
123.59619140625
131.8359375
127.25830078125
128.173828125
129.08935546875
125.42724609375
116.27197265625
122.6806640625
104.3701171875
89.7216796875
85.14404296875
70.49560546875
53.1005859375
39.36767578125
43.02978515625
26.55029296875
8.23974609375
-8.23974609375
-13.73291015625
-16.4794921875
-33.87451171875
-56.7626953125
-60.4248046875
-67.7490234375
-77.81982421875
-95.21484375
-98.876953125
-93.3837890625
-115.3564453125
-117.1875
-108.0322265625
-106.201171875
-129.08935546875
-123.59619140625
-121.76513671875
-130.92041015625
-129.08935546875
-117.1875
-134.58251953125
-148.3154296875
-137.3291015625
-140.9912109375
-140.9912109375
-142.822265625
-131.8359375
-140.9912109375
-140.07568359375
-130.92041015625
-135.498046875
-128.173828125
-135.498046875
-141.90673828125
-141.90673828125
-137.3291015625
-137.3291015625
-131.8359375
-131.8359375
-128.173828125
-137.3291015625
-145.56884765625
-133.6669921875
-136.41357421875
-130.0048828125
-128.173828125
-138.24462890625
-146.484375
-152.89306640625
-149.23095703125
-120.849609375
-118.10302734375
-122.6806640625
-137.3291015625
-148.3154296875
-146.484375
-134.58251953125
-141.90673828125
-136.41357421875
-126.3427734375
-115.3564453125
-109.86328125
-113.525390625
-110.77880859375
-115.3564453125
-114.44091796875
-124.51171875
-119.0185546875
-127.25830078125
-121.76513671875
-126.3427734375
-123.59619140625
-120.849609375
-119.93408203125
-122.6806640625
-122.6806640625
-135.498046875
-130.92041015625
-133.6669921875
-120.849609375
-129.08935546875
-137.3291015625
-136.41357421875
-133.6669921875
-139.16015625
-151.9775390625
-149.23095703125
-134.58251953125
-119.0185546875
-133.6669921875
-144.6533203125
-153.80859375
-149.23095703125
-134.58251953125
-132.75146484375
-134.58251953125
-135.498046875
-137.3291015625
-134.58251953125
-141.90673828125
-155.6396484375
-147.39990234375
-144.6533203125
-151.9775390625
-152.89306640625
-151.9775390625
-142.822265625
-138.24462890625
-152.89306640625
-154.72412109375
-157.470703125
-151.9775390625
-160.21728515625
-162.04833984375
-155.6396484375
-150.146484375
-156.55517578125
-156.55517578125
-168.45703125
-161.1328125
-158.38623046875
-155.6396484375
-160.21728515625
-173.9501953125
-168.45703125
-160.21728515625
-159.3017578125
-153.80859375
-160.21728515625
-172.119140625
-170.2880859375
-174.86572265625
-159.3017578125
-153.80859375
-160.21728515625
-166.6259765625
-176.69677734375
-173.9501953125
-157.470703125
-146.484375
-141.90673828125
-145.56884765625
-156.55517578125
-140.9912109375
-131.8359375
-130.92041015625
-119.93408203125
-115.3564453125
-119.0185546875
-115.3564453125
-105.28564453125
-103.45458984375
-110.77880859375
-99.79248046875
-85.14404296875
-74.15771484375
-53.1005859375
-31.1279296875
-32.04345703125
-23.8037109375
-40.283203125
-43.9453125
-28.38134765625
-32.958984375
-29.296875
-31.1279296875
-48.52294921875
-58.59375
-51.26953125
-62.255859375
-71.4111328125
-61.34033203125
-58.59375
-74.15771484375
-82.3974609375
-89.7216796875
-93.3837890625
-105.28564453125
-108.94775390625
-116.27197265625
-125.42724609375
-127.25830078125
-133.6669921875
-144.6533203125
-160.21728515625
-168.45703125
-161.1328125
-151.9775390625
-166.6259765625
-172.119140625
-173.9501953125
-172.119140625
-164.794921875
-176.69677734375
-166.6259765625
-166.6259765625
-168.45703125
-167.54150390625
-171.20361328125
-183.10546875
-178.52783203125
-173.03466796875
-158.38623046875
-180.35888671875
-186.767578125
-179.443359375
-165.71044921875
-176.69677734375
-184.9365234375
-185.85205078125
-184.9365234375
-186.767578125
-165.71044921875
-132.75146484375
-85.14404296875
-35.70556640625
19.22607421875
75.98876953125
142.822265625
258.1787109375
352.47802734375
424.8046875
526.42822265625
614.31884765625
684.814453125
730.5908203125
744.32373046875
713.19580078125
608.82568359375
450.439453125
224.30419921875
16.4794921875
-163.87939453125
-274.658203125
-347.900390625
-404.6630859375
-420.22705078125
-409.24072265625
-381.77490234375
-319.51904296875
-253.60107421875
-216.064453125
-198.66943359375
-195.00732421875
-178.52783203125
-155.6396484375
-147.39990234375
-146.484375
-148.3154296875
-162.9638671875
-159.3017578125
-164.794921875
-164.794921875
-166.6259765625
-160.21728515625
-163.87939453125
-151.9775390625
-145.56884765625
-139.16015625
-137.3291015625
-143.73779296875
-141.90673828125
-134.58251953125
-138.24462890625
-158.38623046875
-163.87939453125
-155.6396484375
-151.06201171875
-140.9912109375
-147.39990234375
-157.470703125
-154.72412109375
-151.06201171875
-125.42724609375
-131.8359375
-138.24462890625
-143.73779296875
-123.59619140625
-120.849609375
-116.27197265625
-116.27197265625
-119.93408203125
-117.1875
-113.525390625
-109.86328125
-108.0322265625
-108.0322265625
-99.79248046875
-87.890625
-102.5390625
-101.62353515625
-99.79248046875
-102.5390625
-93.3837890625
-97.96142578125
-88.80615234375
-82.3974609375
-69.580078125
-57.67822265625
-46.69189453125
-55.84716796875
-51.26953125
-44.86083984375
-45.7763671875
-34.7900390625
-35.70556640625
-33.87451171875
-30.21240234375
-25.634765625
-8.23974609375
5.4931640625
10.986328125
3.662109375
5.4931640625
11.90185546875
7.32421875
-2.74658203125
13.73291015625
23.8037109375
38.4521484375
62.255859375
75.98876953125
78.7353515625
71.4111328125
75.98876953125
82.3974609375
90.63720703125
96.13037109375
104.3701171875
114.44091796875
123.59619140625
128.173828125
119.93408203125
120.849609375
120.849609375
130.0048828125
131.8359375
139.16015625
151.06201171875
173.9501953125
165.71044921875
165.71044921875
175.78125
176.69677734375
157.470703125
152.89306640625
153.80859375
158.38623046875
162.04833984375
156.55517578125
141.90673828125
130.92041015625
129.08935546875
119.0185546875
102.5390625
86.97509765625
77.81982421875
59.50927734375
48.52294921875
32.958984375
27.4658203125
24.71923828125
21.97265625
3.662109375
-22.88818359375
-32.958984375
-45.7763671875
-45.7763671875
-41.19873046875
-45.7763671875
-52.18505859375
-60.4248046875
-68.66455078125
-69.580078125
-78.7353515625
-92.46826171875
-97.0458984375
-99.79248046875
-97.96142578125
-98.876953125
-102.5390625
-101.62353515625
-86.0595703125
-90.63720703125
-110.77880859375
-117.1875
-120.849609375
-95.21484375
-107.11669921875
-105.28564453125
-98.876953125
-108.0322265625
-103.45458984375
-116.27197265625
-121.76513671875
-109.86328125
-105.28564453125
-103.45458984375
-95.21484375
-94.29931640625
-98.876953125
-113.525390625
-101.62353515625
-94.29931640625
-91.552734375
-96.13037109375
-92.46826171875
-92.46826171875
-89.7216796875
-86.0595703125
-98.876953125
-95.21484375
-80.56640625
-79.65087890625
-91.552734375
-101.62353515625
-99.79248046875
-105.28564453125
-96.13037109375
-93.3837890625
-89.7216796875
-88.80615234375
-85.14404296875
-86.97509765625
-99.79248046875
-93.3837890625
-83.31298828125
-87.890625
-89.7216796875
-98.876953125
-86.0595703125
-84.228515625
-88.80615234375
-94.29931640625
-96.13037109375
-83.31298828125
-90.63720703125
-93.3837890625
-84.228515625
-79.65087890625
-86.0595703125
-88.80615234375
-90.63720703125
-97.0458984375
-86.97509765625
-88.80615234375
-91.552734375
-97.96142578125
-91.552734375
-98.876953125
-100.7080078125
-96.13037109375
-103.45458984375
-91.552734375
-89.7216796875
-91.552734375
-102.5390625
-108.0322265625
-109.86328125
-103.45458984375
-108.0322265625
-94.29931640625
-92.46826171875
-97.96142578125
-105.28564453125
-98.876953125
-114.44091796875
-108.94775390625
-95.21484375
-97.0458984375
-103.45458984375
-112.60986328125
-130.0048828125
-129.08935546875
-108.94775390625
-113.525390625
-119.0185546875
-117.1875
-114.44091796875
-112.60986328125
-105.28564453125
-95.21484375
-114.44091796875
-112.60986328125
-112.60986328125
-121.76513671875
-107.11669921875
-106.201171875
-104.3701171875
-106.201171875
-115.3564453125
-116.27197265625
-128.173828125
-122.6806640625
-114.44091796875
-108.0322265625
-113.525390625
-113.525390625
-119.93408203125
-123.59619140625
-117.1875
-124.51171875
-118.10302734375
-122.6806640625
-118.10302734375
-111.6943359375
-104.3701171875
-100.7080078125
-108.0322265625
-108.94775390625
-117.1875
-114.44091796875
-109.86328125
-105.28564453125
-105.28564453125
-111.6943359375
-111.6943359375
-108.94775390625
-121.76513671875
-121.76513671875
-133.6669921875
-129.08935546875
-114.44091796875
-100.7080078125
-100.7080078125
-100.7080078125
-93.3837890625
-83.31298828125
-70.49560546875
-63.17138671875
-67.7490234375
-56.7626953125
-51.26953125
-52.18505859375
-43.02978515625
-50.35400390625
-42.1142578125
-43.9453125
-32.958984375
-18.310546875
-0.91552734375
5.4931640625
-5.4931640625
-4.57763671875
0.91552734375
13.73291015625
20.1416015625
19.22607421875
10.986328125
6.40869140625
3.662109375
-6.40869140625
-6.40869140625
-12.8173828125
-0.91552734375
-6.40869140625
-3.662109375
-22.88818359375
-35.70556640625
-50.35400390625
-54.931640625
-54.931640625
-86.97509765625
-85.14404296875
-100.7080078125
-108.94775390625
-108.0322265625
-105.28564453125
-110.77880859375
-109.86328125
-136.41357421875
-141.90673828125
-138.24462890625
-134.58251953125
-125.42724609375
-131.8359375
-118.10302734375
-125.42724609375
-135.498046875
-140.9912109375
-137.3291015625
-127.25830078125
-127.25830078125
-122.6806640625
-124.51171875
-132.75146484375
-139.16015625
-132.75146484375
-126.3427734375
-135.498046875
-134.58251953125
-138.24462890625
-138.24462890625
-140.07568359375
-135.498046875
-109.86328125
-89.7216796875
-34.7900390625
34.7900390625
97.0458984375
144.6533203125
242.61474609375
346.0693359375
435.791015625
511.77978515625
612.48779296875
711.36474609375
764.46533203125
811.1572265625
807.4951171875
732.421875
589.599609375
387.26806640625
162.9638671875
-32.04345703125
-195.00732421875
-292.05322265625
-333.251953125
-369.873046875
-381.77490234375
-361.63330078125
-305.7861328125
-227.96630859375
-198.66943359375
-162.9638671875
-135.498046875
-131.8359375
-112.60986328125
-100.7080078125
-106.201171875
-96.13037109375
-100.7080078125
-110.77880859375
-107.11669921875
-109.86328125
-101.62353515625
-116.27197265625
-110.77880859375
-118.10302734375
-112.60986328125
-97.96142578125
-97.0458984375
-100.7080078125
-114.44091796875
-120.849609375
-94.29931640625
-96.13037109375
-94.29931640625
-95.21484375
-102.5390625
-110.77880859375
-97.0458984375
-96.13037109375
-104.3701171875
-103.45458984375
-91.552734375
-97.96142578125
-92.46826171875
-83.31298828125
-86.97509765625
-82.3974609375
-83.31298828125
-89.7216796875
-84.228515625
-75.98876953125
-78.7353515625
-83.31298828125
-68.66455078125
-65.91796875
-56.7626953125
-67.7490234375
-61.34033203125
-63.17138671875
-54.931640625
-52.18505859375
-58.59375
-53.1005859375
-36.62109375
-44.86083984375
-39.36767578125
-28.38134765625
-20.1416015625
-23.8037109375
-17.39501953125
-17.39501953125
-0.91552734375
-7.32421875
-8.23974609375
-9.1552734375
0.91552734375
3.662109375
-4.57763671875
3.662109375
10.07080078125
5.4931640625
21.05712890625
40.283203125
36.62109375
56.7626953125
59.50927734375
65.00244140625
69.580078125
64.0869140625
69.580078125
86.97509765625
94.29931640625
95.21484375
103.45458984375
108.94775390625
114.44091796875
119.0185546875
120.849609375
129.08935546875
130.92041015625
129.08935546875
132.75146484375
145.56884765625
162.9638671875
177.6123046875
173.03466796875
168.45703125
172.119140625
169.37255859375
175.78125
181.2744140625
169.37255859375
171.20361328125
176.69677734375
177.6123046875
189.51416015625
195.9228515625
184.02099609375
172.119140625
162.04833984375
151.9775390625
138.24462890625
124.51171875
134.58251953125
110.77880859375
91.552734375
86.0595703125
68.66455078125
44.86083984375
31.1279296875
17.39501953125
21.97265625
5.4931640625
-10.07080078125
0
-11.90185546875
-31.1279296875
-35.70556640625
-45.7763671875
-53.1005859375
-65.91796875
-75.98876953125
-76.904296875
-85.14404296875
-65.91796875
-69.580078125
-84.228515625
-83.31298828125
-91.552734375
-96.13037109375
-86.0595703125
-101.62353515625
-108.0322265625
-108.94775390625
-107.11669921875
-109.86328125
-106.201171875
-107.11669921875
-107.11669921875
-105.28564453125
-113.525390625
-108.94775390625
-109.86328125
-108.94775390625
-95.21484375
-98.876953125
-100.7080078125
-108.94775390625
-108.0322265625
-99.79248046875
-100.7080078125
-97.0458984375
-92.46826171875
-97.96142578125
-97.0458984375
-104.3701171875
-108.94775390625
-101.62353515625
-101.62353515625
-113.525390625
-117.1875
-116.27197265625
-111.6943359375
-103.45458984375
-86.97509765625
-93.3837890625
-82.3974609375
-75.0732421875
-79.65087890625
-83.31298828125
-99.79248046875
-93.3837890625
-92.46826171875
-91.552734375
-89.7216796875
-82.3974609375
-92.46826171875
-113.525390625
-117.1875
-89.7216796875
-85.14404296875
-98.876953125
-97.96142578125
-92.46826171875
-96.13037109375
-98.876953125
-111.6943359375
-103.45458984375
-100.7080078125
-91.552734375
-84.228515625
-89.7216796875
-103.45458984375
-102.5390625
-103.45458984375
-97.0458984375
-81.48193359375
-108.0322265625
-119.0185546875
-105.28564453125
-108.94775390625
-118.10302734375
-120.849609375
-113.525390625
-101.62353515625
-97.96142578125
-99.79248046875
-104.3701171875
-111.6943359375
-107.11669921875
-103.45458984375
-103.45458984375
-92.46826171875
-105.28564453125
-120.849609375
-108.94775390625
-120.849609375
-129.08935546875
-124.51171875
-121.76513671875
-135.498046875
-120.849609375
-124.51171875
-123.59619140625
-123.59619140625
-133.6669921875
-132.75146484375
-127.25830078125
-136.41357421875
-128.173828125
-133.6669921875
-138.24462890625
-130.0048828125
-134.58251953125
-133.6669921875
-130.0048828125
-136.41357421875
-136.41357421875
-131.8359375
-125.42724609375
-131.8359375
-137.3291015625
-141.90673828125
-142.822265625
-131.8359375
-132.75146484375
-142.822265625
-157.470703125
-146.484375
-140.07568359375
-141.90673828125
-143.73779296875
-141.90673828125
-137.3291015625
-132.75146484375
-139.16015625
-130.92041015625
-136.41357421875
-141.90673828125
-140.9912109375
-139.16015625
-155.6396484375
-142.822265625
-132.75146484375
-128.173828125
-143.73779296875
-153.80859375
-147.39990234375
-155.6396484375
-150.146484375
-151.06201171875
-154.72412109375
-151.06201171875
-153.80859375
-151.9775390625
-144.6533203125
-130.92041015625
-143.73779296875
-151.9775390625
-146.484375
-147.39990234375
-136.41357421875
-126.3427734375
-112.60986328125
-113.525390625
-109.86328125
-118.10302734375
-123.59619140625
-111.6943359375
-97.96142578125
-94.29931640625
-90.63720703125
-88.80615234375
-83.31298828125
-77.81982421875
-72.32666015625
-57.67822265625
-41.19873046875
-45.7763671875
-44.86083984375
-49.4384765625
-50.35400390625
-32.958984375
-29.296875
-40.283203125
-46.69189453125
-53.1005859375
-57.67822265625
-61.34033203125
-47.607421875
-44.86083984375
-51.26953125
-54.931640625
-64.0869140625
-73.2421875
-87.890625
-92.46826171875
-103.45458984375
-126.3427734375
-130.0048828125
-148.3154296875
-142.822265625
-157.470703125
-165.71044921875
-165.71044921875
-159.3017578125
-161.1328125
-164.794921875
-174.86572265625
-173.9501953125
-180.35888671875
-172.119140625
-173.9501953125
-179.443359375
-174.86572265625
-173.03466796875
-168.45703125
-180.35888671875
-186.767578125
-178.52783203125
-173.03466796875
-171.20361328125
-179.443359375
-188.5986328125
-196.83837890625
-184.9365234375
-184.02099609375
-191.34521484375
-196.83837890625
-194.091796875
-190.4296875
-162.9638671875
-133.6669921875
-119.93408203125
-66.83349609375
-11.90185546875
53.1005859375
130.92041015625
217.8955078125
324.0966796875
406.494140625
502.62451171875
612.48779296875
701.2939453125
745.2392578125
768.12744140625
725.09765625
610.65673828125
457.763671875
253.60107421875
42.1142578125
-145.56884765625
-282.89794921875
-345.15380859375
-366.2109375
-385.43701171875
-397.3388671875
-354.30908203125
-307.6171875
-268.24951171875
-230.712890625
-206.9091796875
-195.9228515625
-190.4296875
-173.03466796875
-161.1328125
-143.73779296875
-141.90673828125
-144.6533203125
-155.6396484375
-138.24462890625
-132.75146484375
-147.39990234375
-152.89306640625
-143.73779296875
-140.07568359375
-137.3291015625
-157.470703125
-170.2880859375
-162.04833984375
-140.9912109375
-133.6669921875
-141.90673828125
-158.38623046875
-151.06201171875
-140.07568359375
-140.9912109375
-136.41357421875
-136.41357421875
-134.58251953125
-135.498046875
-130.92041015625
-132.75146484375
-126.3427734375
-130.0048828125
-120.849609375
-123.59619140625
-139.16015625
-138.24462890625
-115.3564453125
-126.3427734375
-131.8359375
-123.59619140625
-112.60986328125
-107.11669921875
-95.21484375
-97.0458984375
-92.46826171875
-88.80615234375
-89.7216796875
-90.63720703125
-100.7080078125
-95.21484375
-83.31298828125
-68.66455078125
-73.2421875
-73.2421875
-52.18505859375
-65.91796875
-64.0869140625
-57.67822265625
-60.4248046875
-54.01611328125
-41.19873046875
-42.1142578125
-41.19873046875
-32.958984375
-20.1416015625
-28.38134765625
-30.21240234375
-13.73291015625
-4.57763671875
2.74658203125
9.1552734375
5.4931640625
7.32421875
26.55029296875
41.19873046875
43.9453125
51.26953125
49.4384765625
48.52294921875
56.7626953125
62.255859375
64.0869140625
65.91796875
75.0732421875
89.7216796875
100.7080078125
109.86328125
116.27197265625
108.0322265625
111.6943359375
118.10302734375
119.93408203125
127.25830078125
132.75146484375
136.41357421875
151.06201171875
140.07568359375
152.89306640625
162.04833984375
156.55517578125
152.89306640625
158.38623046875
162.04833984375
155.6396484375
162.9638671875
151.9775390625
130.0048828125
123.59619140625
119.0185546875
119.0185546875
104.3701171875
96.13037109375
91.552734375
72.32666015625
51.26953125
34.7900390625
19.22607421875
10.986328125
0.91552734375
-16.4794921875
-16.4794921875
-21.97265625
-43.02978515625
-56.7626953125
-57.67822265625
-75.0732421875
-87.890625
-89.7216796875
-97.0458984375
-87.890625
-108.94775390625
-103.45458984375
-107.11669921875
-100.7080078125
-99.79248046875
-106.201171875
-122.6806640625
-119.93408203125
-121.76513671875
-125.42724609375
-107.11669921875
-116.27197265625
-128.173828125
-113.525390625
-112.60986328125
-122.6806640625
-119.93408203125
-124.51171875
-138.24462890625
-140.9912109375
-129.08935546875
-119.0185546875
-109.86328125
-105.28564453125
-110.77880859375
-110.77880859375
-118.10302734375
-123.59619140625
-126.3427734375
-137.3291015625
-132.75146484375
-130.92041015625
-132.75146484375
-119.93408203125
-114.44091796875
-124.51171875
-130.92041015625
-124.51171875
-109.86328125
-108.94775390625
-117.1875
-119.0185546875
-117.1875
-108.0322265625
-108.94775390625
-108.0322265625
-106.201171875
-105.28564453125
-97.0458984375
-106.201171875
-118.10302734375
-108.0322265625
-108.94775390625
-123.59619140625
-117.1875
-116.27197265625
-113.525390625
-118.10302734375
-111.6943359375
-116.27197265625
-117.1875
-120.849609375
-123.59619140625
-116.27197265625
-126.3427734375
-127.25830078125
-132.75146484375
-129.08935546875
-134.58251953125
-127.25830078125
-130.92041015625
-130.0048828125
-112.60986328125
-112.60986328125
-106.201171875
-107.11669921875
-130.0048828125
-121.76513671875
-99.79248046875
-119.93408203125
-116.27197265625
-119.0185546875
-126.3427734375
-117.1875
-137.3291015625
-150.146484375
-146.484375
-153.80859375
-162.9638671875
-134.58251953125
-119.0185546875
-116.27197265625
-128.173828125
-137.3291015625
-142.822265625
-139.16015625
-144.6533203125
-152.89306640625
-147.39990234375
-141.90673828125
-158.38623046875
-148.3154296875
-150.146484375
-160.21728515625
-153.80859375
-148.3154296875
-148.3154296875
-145.56884765625
-137.3291015625
-140.9912109375
-148.3154296875
-149.23095703125
-141.90673828125
-145.56884765625
-157.470703125
-147.39990234375
-136.41357421875
-148.3154296875
-168.45703125
-160.21728515625
-146.484375
-145.56884765625
-153.80859375
-153.80859375
-136.41357421875
-151.9775390625
-152.89306640625
-154.72412109375
-158.38623046875
-166.6259765625
-164.794921875
-166.6259765625
-168.45703125
-165.71044921875
-166.6259765625
-175.78125
-168.45703125
-157.470703125
-150.146484375
-147.39990234375
-129.08935546875
-125.42724609375
-125.42724609375
-110.77880859375
-97.0458984375
-101.62353515625
-104.3701171875
-100.7080078125
-109.86328125
-108.94775390625
-98.876953125
-89.7216796875
-70.49560546875
-44.86083984375
-35.70556640625
-43.9453125
-47.607421875
-49.4384765625
-47.607421875
-46.69189453125
-42.1142578125
-54.931640625
-70.49560546875
-61.34033203125
-63.17138671875
-59.50927734375
-67.7490234375
-43.02978515625
-43.9453125
-54.01611328125
-73.2421875
-101.62353515625
-105.28564453125
-106.201171875
-133.6669921875
-142.822265625
-151.9775390625
-162.04833984375
-155.6396484375
-164.794921875
-167.54150390625
-173.9501953125
-174.86572265625
-172.119140625
-182.18994140625
-185.85205078125
-190.4296875
-175.78125
-184.02099609375
-200.50048828125
-198.66943359375
-190.4296875
-202.33154296875
-215.14892578125
-199.5849609375
-196.83837890625
-205.99365234375
-196.83837890625
-195.9228515625
-195.00732421875
-191.34521484375
-197.75390625
-191.34521484375
-204.16259765625
-212.40234375
-216.97998046875
-220.64208984375
-216.064453125
-181.2744140625
-147.39990234375
-96.13037109375
-24.71923828125
39.36767578125
118.10302734375
222.47314453125
335.0830078125
399.169921875
483.3984375
588.68408203125
665.58837890625
706.787109375
737.9150390625
726.01318359375
636.29150390625
498.96240234375
335.99853515625
119.0185546875
-105.28564453125
-239.8681640625
-313.1103515625
-356.14013671875
-390.93017578125
-404.6630859375
-394.59228515625
-350.64697265625
-292.96875
-265.5029296875
-227.05078125
-216.064453125
-221.5576171875
-205.078125
-187.68310546875
-172.119140625
-175.78125
-169.37255859375
-152.89306640625
-162.04833984375
-168.45703125
-154.72412109375
-164.794921875
-165.71044921875
-165.71044921875
-174.86572265625
-171.20361328125
-162.9638671875
-162.9638671875
-166.6259765625
-170.2880859375
-164.794921875
-177.6123046875
-163.87939453125
-155.6396484375
-172.119140625
-179.443359375
-167.54150390625
-157.470703125
-157.470703125
-152.89306640625
-156.55517578125
-153.80859375
-140.9912109375
-134.58251953125
-139.16015625
-127.25830078125
-130.92041015625
-141.90673828125
-138.24462890625
-134.58251953125
-136.41357421875
-132.75146484375
-120.849609375
-108.94775390625
-126.3427734375
-108.94775390625
-101.62353515625
-108.0322265625
-99.79248046875
-108.0322265625
-114.44091796875
-105.28564453125
-100.7080078125
-98.876953125
-81.48193359375
-75.98876953125
-93.3837890625
-81.48193359375
-72.32666015625
-77.81982421875
-66.83349609375
-60.4248046875
-50.35400390625
-50.35400390625
-46.69189453125
-43.9453125
-40.283203125
-21.05712890625
-16.4794921875
-24.71923828125
-18.310546875
-19.22607421875
-12.8173828125
0.91552734375
-4.57763671875
3.662109375
15.56396484375
19.22607421875
28.38134765625
42.1142578125
47.607421875
50.35400390625
62.255859375
56.7626953125
68.66455078125
75.98876953125
76.904296875
82.3974609375
87.890625
93.3837890625
119.0185546875
113.525390625
111.6943359375
131.8359375
144.6533203125
141.90673828125
137.3291015625
146.484375
151.06201171875
131.8359375
132.75146484375
151.9775390625
165.71044921875
161.1328125
133.6669921875
130.92041015625
128.173828125
120.849609375
114.44091796875
102.5390625
87.890625
83.31298828125
80.56640625
61.34033203125
45.7763671875
27.4658203125
16.4794921875
9.1552734375
-0.91552734375
-6.40869140625
-22.88818359375
-40.283203125
-48.52294921875
-63.17138671875
-48.52294921875
-54.01611328125
-75.98876953125
-94.29931640625
-110.77880859375
-114.44091796875
-119.93408203125
-127.25830078125
-100.7080078125
-108.94775390625
-119.93408203125
-112.60986328125
-113.525390625
-119.93408203125
-125.42724609375
-115.3564453125
-127.25830078125
-123.59619140625
-121.76513671875
-117.1875
-116.27197265625
-116.27197265625
-114.44091796875
-134.58251953125
-139.16015625
-135.498046875
-125.42724609375
-129.08935546875
-119.93408203125
-119.93408203125
-125.42724609375
-120.849609375
-121.76513671875
-127.25830078125
-130.92041015625
-141.90673828125
-124.51171875
-126.3427734375
-128.173828125
-134.58251953125
-129.08935546875
-122.6806640625
-124.51171875
-118.10302734375
-120.849609375
-118.10302734375
-118.10302734375
-132.75146484375
-112.60986328125
-107.11669921875
-106.201171875
-106.201171875
-103.45458984375
-93.3837890625
-109.86328125
-112.60986328125
-115.3564453125
-130.0048828125
-114.44091796875
-125.42724609375
-127.25830078125
-121.76513671875
-128.173828125
-111.6943359375
-113.525390625
-113.525390625
-118.10302734375
-111.6943359375
-108.94775390625
-117.1875
-114.44091796875
-105.28564453125
-97.96142578125
-109.86328125
-121.76513671875
-132.75146484375
-119.93408203125
-117.1875
-117.1875
-123.59619140625
-118.10302734375
-111.6943359375
-120.849609375
-116.27197265625
-120.849609375
-128.173828125
-142.822265625
-140.07568359375
-134.58251953125
-142.822265625
-147.39990234375
-134.58251953125
-129.08935546875
-121.76513671875
-129.08935546875
-133.6669921875
-125.42724609375
-124.51171875
-133.6669921875
-126.3427734375
-141.90673828125
-153.80859375
-140.07568359375
-131.8359375
-135.498046875
-140.07568359375
-148.3154296875
-145.56884765625
-137.3291015625
-143.73779296875
-149.23095703125
-144.6533203125
-138.24462890625
-138.24462890625
-145.56884765625
-151.9775390625
-137.3291015625
-133.6669921875
-138.24462890625
-144.6533203125
-140.07568359375
-146.484375
-149.23095703125
-144.6533203125
-137.3291015625
-148.3154296875
-140.07568359375
-144.6533203125
-158.38623046875
-149.23095703125
-146.484375
-132.75146484375
-130.0048828125
-156.55517578125
-156.55517578125
-138.24462890625
-128.173828125
-117.1875
-116.27197265625
-111.6943359375
-107.11669921875
-99.79248046875
-98.876953125
-95.21484375
-80.56640625
-90.63720703125
-86.97509765625
-61.34033203125
-57.67822265625
-43.02978515625
-18.310546875
-16.4794921875
-11.90185546875
-16.4794921875
-25.634765625
-18.310546875
-21.97265625
-37.53662109375
-34.7900390625
-37.53662109375
-46.69189453125
-49.4384765625
-49.4384765625
-42.1142578125
-40.283203125
-51.26953125
-56.7626953125
-78.7353515625
-94.29931640625
-98.876953125
-113.525390625
-130.92041015625
-136.41357421875
-124.51171875
-130.0048828125
-132.75146484375
-147.39990234375
-145.56884765625
-145.56884765625
-151.9775390625
-156.55517578125
-168.45703125
-166.6259765625
-174.86572265625
-177.6123046875
-176.69677734375
-177.6123046875
-167.54150390625
-157.470703125
-159.3017578125
-176.69677734375
-190.4296875
-188.5986328125
-178.52783203125
-173.03466796875
-182.18994140625
-187.68310546875
-183.10546875
-162.04833984375
-168.45703125
-180.35888671875
-179.443359375
-186.767578125
-184.9365234375
-178.52783203125
-154.72412109375
-120.849609375
-71.4111328125
-8.23974609375
66.83349609375
137.3291015625
236.2060546875
330.50537109375
411.9873046875
504.45556640625
606.99462890625
662.841796875
714.111328125
754.39453125
736.083984375
628.0517578125
495.30029296875
292.05322265625
57.67822265625
-130.92041015625
-262.75634765625
-334.16748046875
-373.53515625
-412.90283203125
-408.3251953125
-377.197265625
-329.58984375
-259.09423828125
-213.31787109375
-198.66943359375
-165.71044921875
-171.20361328125
-151.06201171875
-143.73779296875
-145.56884765625
-144.6533203125
-144.6533203125
-147.39990234375
-141.90673828125
-147.39990234375
-151.9775390625
-141.90673828125
-141.90673828125
-155.6396484375
-147.39990234375
-150.146484375
-157.470703125
-161.1328125
-158.38623046875
-156.55517578125
-154.72412109375
-157.470703125
-156.55517578125
-130.92041015625
-131.8359375
-128.173828125
-125.42724609375
-128.173828125
-128.173828125
-126.3427734375
-124.51171875
-124.51171875
-127.25830078125
-115.3564453125
-115.3564453125
-105.28564453125
-116.27197265625
-115.3564453125
-110.77880859375
-99.79248046875
-99.79248046875
-104.3701171875
-100.7080078125
-96.13037109375
-83.31298828125
-79.65087890625
-84.228515625
-73.2421875
-65.91796875
-63.17138671875
-54.01611328125
-55.84716796875
-55.84716796875
-60.4248046875
-60.4248046875
-60.4248046875
-46.69189453125
-58.59375
-61.34033203125
-40.283203125
-35.70556640625
-42.1142578125
-32.958984375
-18.310546875
-3.662109375
-8.23974609375
0.91552734375
-16.4794921875
-6.40869140625
-4.57763671875
15.56396484375
21.05712890625
26.55029296875
54.01611328125
51.26953125
43.9453125
47.607421875
67.7490234375
74.15771484375
73.2421875
82.3974609375
77.81982421875
84.228515625
93.3837890625
96.13037109375
112.60986328125
131.8359375
129.08935546875
119.93408203125
124.51171875
128.173828125
130.0048828125
130.92041015625
146.484375
140.9912109375
138.24462890625
153.80859375
164.794921875
161.1328125
166.6259765625
178.52783203125
186.767578125
181.2744140625
173.9501953125
172.119140625
161.1328125
150.146484375
149.23095703125
149.23095703125
135.498046875
119.93408203125
123.59619140625
116.27197265625
89.7216796875
69.580078125
65.00244140625
55.84716796875
40.283203125
25.634765625
18.310546875
8.23974609375
-7.32421875
-22.88818359375
-21.05712890625
-27.4658203125
-40.283203125
-36.62109375
-49.4384765625
-57.67822265625
-75.0732421875
-75.98876953125
-84.228515625
-85.14404296875
-87.890625
-75.98876953125
-81.48193359375
-88.80615234375
-103.45458984375
-113.525390625
-108.94775390625
-106.201171875
-107.11669921875
-99.79248046875
-78.7353515625
-97.96142578125
-108.94775390625
-104.3701171875
-100.7080078125
-96.13037109375
-99.79248046875
-104.3701171875
-103.45458984375
-99.79248046875
-111.6943359375
-102.5390625
-101.62353515625
-97.96142578125
-97.96142578125
-95.21484375
-88.80615234375
-82.3974609375
-82.3974609375
-93.3837890625
-98.876953125
-87.890625
-92.46826171875
-111.6943359375
-89.7216796875
-97.96142578125
-99.79248046875
-100.7080078125
-101.62353515625
-96.13037109375
-86.0595703125
-72.32666015625
-75.98876953125
-80.56640625
-81.48193359375
-87.890625
-86.97509765625
-78.7353515625
-71.4111328125
-75.0732421875
-84.228515625
-86.0595703125
-75.0732421875
-78.7353515625
-94.29931640625
-98.876953125
-93.3837890625
-77.81982421875
-75.98876953125
-75.98876953125
-75.0732421875
-85.14404296875
-86.97509765625
-91.552734375
-88.80615234375
-89.7216796875
-83.31298828125
-89.7216796875
-86.97509765625
-89.7216796875
-88.80615234375
-87.890625
-83.31298828125
-86.0595703125
-81.48193359375
-84.228515625
-98.876953125
-78.7353515625
-85.14404296875
-96.13037109375
-105.28564453125
-114.44091796875
-111.6943359375
-115.3564453125
-110.77880859375
-106.201171875
-85.14404296875
-80.56640625
-105.28564453125
-102.5390625
-91.552734375
-92.46826171875
-97.0458984375
-97.0458984375
-95.21484375
-96.13037109375
-106.201171875
-111.6943359375
-119.0185546875
-101.62353515625
-96.13037109375
-101.62353515625
-106.201171875
-92.46826171875
-106.201171875
-115.3564453125
-116.27197265625
-118.10302734375
-116.27197265625
-110.77880859375
-109.86328125
-95.21484375
-98.876953125
-108.0322265625
-119.93408203125
-111.6943359375
-99.79248046875
-108.94775390625
-105.28564453125
-117.1875
-117.1875
-130.0048828125
-126.3427734375
-122.6806640625
-109.86328125
-108.0322265625
-105.28564453125
-105.28564453125
-108.94775390625
-123.59619140625
-112.60986328125
-104.3701171875
-117.1875
-132.75146484375
-129.08935546875
-133.6669921875
-142.822265625
-137.3291015625
-120.849609375
-101.62353515625
-98.876953125
-106.201171875
-108.94775390625
-112.60986328125
-111.6943359375
-95.21484375
-93.3837890625
-95.21484375
-86.97509765625
-67.7490234375
-63.17138671875
-65.91796875
-61.34033203125
-46.69189453125
-52.18505859375
-69.580078125
-64.0869140625
-54.931640625
-32.958984375
-32.958984375
-21.97265625
5.4931640625
12.8173828125
1.8310546875
-4.57763671875
-10.986328125
-5.4931640625
9.1552734375
2.74658203125
0
-9.1552734375
-9.1552734375
-13.73291015625
-8.23974609375
4.57763671875
10.07080078125
6.40869140625
0
-21.05712890625
-39.36767578125
-56.7626953125
-57.67822265625
-74.15771484375
-92.46826171875
-97.96142578125
-112.60986328125
-108.94775390625
-118.10302734375
-113.525390625
-129.08935546875
-127.25830078125
-133.6669921875
-138.24462890625
-140.07568359375
-139.16015625
-133.6669921875
-134.58251953125
-132.75146484375
-147.39990234375
-142.822265625
-133.6669921875
-129.08935546875
-146.484375
-149.23095703125
-140.9912109375
-146.484375
-143.73779296875
-138.24462890625
-150.146484375
-158.38623046875
-142.822265625
-140.9912109375
-135.498046875
-138.24462890625
-145.56884765625
-129.08935546875
-99.79248046875
-78.7353515625
-32.04345703125
39.36767578125
118.10302734375
165.71044921875
267.333984375
369.873046875
448.6083984375
521.8505859375
615.234375
704.9560546875
764.46533203125
815.73486328125
804.74853515625
717.7734375
575.86669921875
370.78857421875
139.16015625
-66.83349609375
-218.81103515625
-294.7998046875
-342.4072265625
-379.94384765625
-383.60595703125
-353.3935546875
-296.630859375
-228.8818359375
-181.2744140625
-161.1328125
-139.16015625
-127.25830078125
-103.45458984375
-78.7353515625
-86.0595703125
-109.86328125
-109.86328125
-100.7080078125
-93.3837890625
-99.79248046875
-103.45458984375
-90.63720703125
-97.96142578125
-104.3701171875
-103.45458984375
-94.29931640625
-90.63720703125
-92.46826171875
-104.3701171875
-106.201171875
-92.46826171875
-85.14404296875
-86.97509765625
-108.0322265625
-109.86328125
-88.80615234375
-67.7490234375
-71.4111328125
-86.97509765625
-88.80615234375
-79.65087890625
-75.98876953125
-69.580078125
-72.32666015625
-69.580078125
-67.7490234375
-63.17138671875
-59.50927734375
-57.67822265625
-60.4248046875
-61.34033203125
-43.02978515625
-49.4384765625
-54.01611328125
-53.1005859375
-53.1005859375
-47.607421875
-42.1142578125
-35.70556640625
-41.19873046875
-25.634765625
-26.55029296875
-27.4658203125
-9.1552734375
-12.8173828125
-3.662109375
1.8310546875
2.74658203125
0
-0.91552734375
10.07080078125
20.1416015625
6.40869140625
21.97265625
37.53662109375
43.02978515625
49.4384765625
52.18505859375
56.7626953125
66.83349609375
70.49560546875
66.83349609375
68.66455078125
74.15771484375
93.3837890625
97.96142578125
97.0458984375
92.46826171875
99.79248046875
101.62353515625
116.27197265625
132.75146484375
145.56884765625
150.146484375
153.80859375
157.470703125
152.89306640625
163.87939453125
170.2880859375
170.2880859375
183.10546875
189.51416015625
191.34521484375
187.68310546875
192.2607421875
188.5986328125
210.5712890625
220.64208984375
227.05078125
237.12158203125
239.8681640625
244.44580078125
239.8681640625
227.05078125
220.64208984375
210.5712890625
215.14892578125
205.078125
199.5849609375
187.68310546875
189.51416015625
184.02099609375
160.21728515625
157.470703125
143.73779296875
127.25830078125
131.8359375
114.44091796875
85.14404296875
84.228515625
66.83349609375
42.1142578125
39.36767578125
31.1279296875
11.90185546875
27.4658203125
15.56396484375
3.662109375
-2.74658203125
-7.32421875
-5.4931640625
-12.8173828125
-22.88818359375
-31.1279296875
-28.38134765625
-29.296875
-37.53662109375
-46.69189453125
-49.4384765625
-41.19873046875
-46.69189453125
-54.01611328125
-38.4521484375
-32.958984375
-40.283203125
-36.62109375
-34.7900390625
-34.7900390625
-41.19873046875
-32.958984375
-43.9453125
-53.1005859375
-53.1005859375
-46.69189453125
-45.7763671875
-36.62109375
-34.7900390625
-41.19873046875
-50.35400390625
-36.62109375
-32.958984375
-43.9453125
-40.283203125
-25.634765625
-22.88818359375
-28.38134765625
-30.21240234375
-27.4658203125
-25.634765625
-30.21240234375
-30.21240234375
-42.1142578125
-43.9453125
-50.35400390625
-39.36767578125
-11.90185546875
-25.634765625
-31.1279296875
-30.21240234375
-21.97265625
-33.87451171875
-44.86083984375
-33.87451171875
-27.4658203125
-38.4521484375
-20.1416015625
-17.39501953125
-18.310546875
-34.7900390625
-28.38134765625
-20.1416015625
-27.4658203125
-34.7900390625
-30.21240234375
-22.88818359375
-15.56396484375
-12.8173828125
-8.23974609375
-12.8173828125
-27.4658203125
-23.8037109375
-26.55029296875
-32.958984375
-34.7900390625
-41.19873046875
-38.4521484375
-33.87451171875
-35.70556640625
-18.310546875
-20.1416015625
-25.634765625
-36.62109375
-44.86083984375
-50.35400390625
-44.86083984375
-26.55029296875
-40.283203125
-43.02978515625
-24.71923828125
-27.4658203125
-37.53662109375
-44.86083984375
-61.34033203125
-50.35400390625
-51.26953125
-46.69189453125
-41.19873046875
-17.39501953125
-45.7763671875
-49.4384765625
-54.01611328125
-46.69189453125
-34.7900390625
-28.38134765625
-31.1279296875
-46.69189453125
-41.19873046875
-35.70556640625
-31.1279296875
-43.02978515625
-50.35400390625
-41.19873046875
-54.931640625
-65.00244140625
-70.49560546875
-59.50927734375
-53.1005859375
-47.607421875
-45.7763671875
-51.26953125
-52.18505859375
-43.9453125
-45.7763671875
-36.62109375
-28.38134765625
-39.36767578125
-42.1142578125
-54.01611328125
-50.35400390625
-40.283203125
-51.26953125
-60.4248046875
-48.52294921875
-46.69189453125
-54.931640625
-47.607421875
-43.02978515625
-36.62109375
-42.1142578125
-56.7626953125
-58.59375
-53.1005859375
-48.52294921875
-48.52294921875
-53.1005859375
-54.01611328125
-51.26953125
-54.01611328125
-53.1005859375
-58.59375
-50.35400390625
-38.4521484375
-39.36767578125
-39.36767578125
-43.02978515625
-56.7626953125
-57.67822265625
-52.18505859375
-62.255859375
-61.34033203125
-47.607421875
-31.1279296875
-32.958984375
-45.7763671875
-43.02978515625
-53.1005859375
-49.4384765625
-48.52294921875
-50.35400390625
-42.1142578125
-51.26953125
-53.1005859375
-48.52294921875
-43.9453125
-28.38134765625
-16.4794921875
-14.6484375
-13.73291015625
-22.88818359375
-27.4658203125
-21.97265625
-4.57763671875
-2.74658203125
-10.07080078125
-13.73291015625
6.40869140625
6.40869140625
10.986328125
36.62109375
41.19873046875
50.35400390625
58.59375
61.34033203125
63.17138671875
59.50927734375
52.18505859375
59.50927734375
61.34033203125
63.17138671875
53.1005859375
49.4384765625
37.53662109375
53.1005859375
50.35400390625
55.84716796875
61.34033203125
56.7626953125
45.7763671875
28.38134765625
11.90185546875
-1.8310546875
-4.57763671875
-23.8037109375
-37.53662109375
-53.1005859375
-65.91796875
-72.32666015625
-81.48193359375
-72.32666015625
-59.50927734375
-59.50927734375
-54.01611328125
-45.7763671875
-50.35400390625
-62.255859375
-64.0869140625
-68.66455078125
-55.84716796875
-69.580078125
-72.32666015625
-79.65087890625
-82.3974609375
-68.66455078125
-85.14404296875
-65.00244140625
-76.904296875
-80.56640625
-71.4111328125
-84.228515625
-98.876953125
-94.29931640625
-92.46826171875
-97.0458984375
-90.63720703125
-97.0458984375
-78.7353515625
-32.958984375
7.32421875
68.66455078125
135.498046875
187.68310546875
261.8408203125
364.3798828125
436.70654296875
517.27294921875
628.96728515625
727.84423828125
816.650390625
888.0615234375
886.23046875
803.8330078125
678.40576171875
486.14501953125
252.685546875
36.62109375
-130.92041015625
-238.95263671875
-292.05322265625
-335.0830078125
-338.7451171875
-319.51904296875
-270.08056640625
-215.14892578125
-137.3291015625
-104.3701171875
-94.29931640625
-75.98876953125
-71.4111328125
-55.84716796875
-63.17138671875
-72.32666015625
-68.66455078125
-62.255859375
-63.17138671875
-65.00244140625
-55.84716796875
-60.4248046875
-65.00244140625
-67.7490234375
-71.4111328125
-71.4111328125
-69.580078125
-56.7626953125
-53.1005859375
-55.84716796875
-61.34033203125
-68.66455078125
-64.0869140625
-62.255859375
-59.50927734375
-59.50927734375
-68.66455078125
-66.83349609375
-43.02978515625
-40.283203125
-54.931640625
-50.35400390625
-47.607421875
-52.18505859375
-49.4384765625
-34.7900390625
-43.02978515625
-35.70556640625
-38.4521484375
-43.9453125
-38.4521484375
-23.8037109375
-17.39501953125
-16.4794921875
-12.8173828125
-19.22607421875
-19.22607421875
-18.310546875
-17.39501953125
-15.56396484375
-13.73291015625
-15.56396484375
-7.32421875
7.32421875
19.22607421875
13.73291015625
19.22607421875
26.55029296875
23.8037109375
21.05712890625
16.4794921875
19.22607421875
47.607421875
42.1142578125
43.02978515625
40.283203125
33.87451171875
49.4384765625
55.84716796875
70.49560546875
84.228515625
70.49560546875
84.228515625
91.552734375
94.29931640625
105.28564453125
99.79248046875
105.28564453125
114.44091796875
132.75146484375
140.9912109375
140.07568359375
139.16015625
148.3154296875
151.06201171875
140.9912109375
149.23095703125
151.9775390625
156.55517578125
161.1328125
176.69677734375
188.5986328125
195.9228515625
208.740234375
211.48681640625
208.740234375
208.740234375
216.064453125
215.14892578125
216.064453125
225.2197265625
232.5439453125
216.97998046875
216.064453125
208.740234375
195.00732421875
224.30419921875
225.2197265625
208.740234375
210.5712890625
198.66943359375
190.4296875
173.03466796875
153.80859375
130.92041015625
122.6806640625
107.11669921875
100.7080078125
105.28564453125
84.228515625
70.49560546875
49.4384765625
51.26953125
41.19873046875
32.04345703125
14.6484375
11.90185546875
10.986328125
-7.32421875
-17.39501953125
-16.4794921875
-19.22607421875
-37.53662109375
-29.296875
-38.4521484375
-35.70556640625
-40.283203125
-46.69189453125
-50.35400390625
-48.52294921875
-62.255859375
-56.7626953125
-43.02978515625
-60.4248046875
-71.4111328125
-65.00244140625
-69.580078125
-63.17138671875
-76.904296875
-68.66455078125
-57.67822265625
-54.01611328125
-58.59375
-54.01611328125
-62.255859375
-74.15771484375
-73.2421875
-70.49560546875
-74.15771484375
-72.32666015625
-55.84716796875
-49.4384765625
-60.4248046875
-64.0869140625
-54.01611328125
-63.17138671875
-54.931640625
-60.4248046875
-68.66455078125
-65.00244140625
-69.580078125
-70.49560546875
-67.7490234375
-71.4111328125
-39.36767578125
-36.62109375
-56.7626953125
-55.84716796875
-48.52294921875
-45.7763671875
-49.4384765625
-52.18505859375
-53.1005859375
-55.84716796875
-58.59375
-58.59375
-61.34033203125
-54.931640625
-38.4521484375
-50.35400390625
-66.83349609375
-55.84716796875
-56.7626953125
-70.49560546875
-67.7490234375
-64.0869140625
-58.59375
-71.4111328125
-72.32666015625
-51.26953125
-49.4384765625
-60.4248046875
-60.4248046875
-55.84716796875
-67.7490234375
-84.228515625
-86.0595703125
-75.0732421875
-80.56640625
-76.904296875
-69.580078125
-66.83349609375
-73.2421875
-75.98876953125
-89.7216796875
-84.228515625
-78.7353515625
-75.98876953125
-82.3974609375
-82.3974609375
-91.552734375
-87.890625
-85.14404296875
-75.98876953125
-85.14404296875
-81.48193359375
-88.80615234375
-109.86328125
-93.3837890625
-87.890625
-99.79248046875
-92.46826171875
-108.0322265625
-101.62353515625
-95.21484375
-101.62353515625
-98.876953125
-99.79248046875
-97.96142578125
-103.45458984375
-108.94775390625
-95.21484375
-97.0458984375
-103.45458984375
-102.5390625
-99.79248046875
-96.13037109375
-111.6943359375
-128.173828125
-122.6806640625
-91.552734375
-103.45458984375
-108.94775390625
-98.876953125
-90.63720703125
-100.7080078125
-98.876953125
-103.45458984375
-100.7080078125
-114.44091796875
-114.44091796875
-116.27197265625
-114.44091796875
-109.86328125
-104.3701171875
-113.525390625
-116.27197265625
-112.60986328125
-118.10302734375
-108.0322265625
-111.6943359375
-118.10302734375
-110.77880859375
-121.76513671875
-120.849609375
-119.0185546875
-127.25830078125
-128.173828125
-135.498046875
-131.8359375
-124.51171875
-122.6806640625
-124.51171875
-117.1875
-111.6943359375
-121.76513671875
-116.27197265625
-132.75146484375
-131.8359375
-132.75146484375
-145.56884765625
-143.73779296875
-135.498046875
-108.0322265625
-108.94775390625
-108.94775390625
-108.94775390625
-101.62353515625
-101.62353515625
-103.45458984375
-101.62353515625
-88.80615234375
-95.21484375
-90.63720703125
-81.48193359375
-72.32666015625
-56.7626953125
-62.255859375
-65.91796875
-68.66455078125
-66.83349609375
-45.7763671875
-14.6484375
-17.39501953125
-8.23974609375
4.57763671875
-11.90185546875
-23.8037109375
-32.958984375
-21.97265625
-3.662109375
-8.23974609375
-18.310546875
-15.56396484375
-3.662109375
-2.74658203125
-12.8173828125
-2.74658203125
-3.662109375
-8.23974609375
-12.8173828125
-33.87451171875
-62.255859375
-79.65087890625
-74.15771484375
-65.91796875
-95.21484375
-117.1875
-110.77880859375
-104.3701171875
-122.6806640625
-136.41357421875
-129.08935546875
-113.525390625
-112.60986328125
-119.0185546875
-134.58251953125
-137.3291015625
-140.9912109375
-135.498046875
-134.58251953125
-135.498046875
-136.41357421875
-141.90673828125
-154.72412109375
-154.72412109375
-138.24462890625
-145.56884765625
-155.6396484375
-142.822265625
-135.498046875
-139.16015625
-147.39990234375
-152.89306640625
-147.39990234375
-166.6259765625
-177.6123046875
-174.86572265625
-139.16015625
-111.6943359375
-100.7080078125
-48.52294921875
23.8037109375
87.890625
152.89306640625
249.93896484375
357.0556640625
441.2841796875
531.92138671875
629.8828125
706.787109375
772.705078125
793.76220703125
759.8876953125
647.27783203125
496.2158203125
304.87060546875
68.66455078125
-122.6806640625
-230.712890625
-286.56005859375
-323.18115234375
-346.0693359375
-366.2109375
-340.576171875
-276.4892578125
-239.8681640625
-200.50048828125
-172.119140625
-154.72412109375
-160.21728515625
-151.9775390625
-139.16015625
-126.3427734375
-120.849609375
-119.0185546875
-134.58251953125
-115.3564453125
-116.27197265625
-122.6806640625
-116.27197265625
-117.1875
-120.849609375
-127.25830078125
-125.42724609375
-125.42724609375
-121.76513671875
-128.173828125
-129.08935546875
-119.0185546875
-122.6806640625
-129.08935546875
-126.3427734375
-115.3564453125
-108.94775390625
-109.86328125
-106.201171875
-104.3701171875
-102.5390625
-115.3564453125
-113.525390625
-113.525390625
-108.94775390625
-95.21484375
-99.79248046875
-101.62353515625
-91.552734375
-92.46826171875
-91.552734375
-93.3837890625
-91.552734375
-79.65087890625
-79.65087890625
-83.31298828125
-102.5390625
-103.45458984375
-88.80615234375
-62.255859375
-58.59375
-55.84716796875
-45.7763671875
-45.7763671875
-56.7626953125
-43.02978515625
-32.958984375
-27.4658203125
-26.55029296875
-30.21240234375
-37.53662109375
-32.04345703125
-32.958984375
-16.4794921875
-17.39501953125
-8.23974609375
-12.8173828125
-11.90185546875
6.40869140625
5.4931640625
24.71923828125
31.1279296875
27.4658203125
36.62109375
32.04345703125
25.634765625
36.62109375
47.607421875
61.34033203125
62.255859375
60.4248046875
64.0869140625
65.91796875
76.904296875
96.13037109375
95.21484375
93.3837890625
103.45458984375
125.42724609375
142.822265625
138.24462890625
134.58251953125
140.9912109375
150.146484375
173.9501953125
165.71044921875
161.1328125
169.37255859375
170.2880859375
162.9638671875
162.9638671875
165.71044921875
184.02099609375
191.34521484375
185.85205078125
165.71044921875
176.69677734375
158.38623046875
130.0048828125
124.51171875
133.6669921875
135.498046875
119.0185546875
119.93408203125
102.5390625
78.7353515625
72.32666015625
68.66455078125
47.607421875
32.04345703125
19.22607421875
5.4931640625
-5.4931640625
-33.87451171875
-44.86083984375
-60.4248046875
-47.607421875
-58.59375
-56.7626953125
-62.255859375
-61.34033203125
-59.50927734375
-67.7490234375
-69.580078125
-73.2421875
-83.31298828125
-92.46826171875
-92.46826171875
-86.97509765625
-99.79248046875
-108.94775390625
-104.3701171875
-115.3564453125
-98.876953125
-97.96142578125
-116.27197265625
-114.44091796875
-105.28564453125
-97.96142578125
-97.0458984375
-103.45458984375
-110.77880859375
-110.77880859375
-124.51171875
-122.6806640625
-116.27197265625
-109.86328125
-110.77880859375
-114.44091796875
-123.59619140625
-119.93408203125
-111.6943359375
-108.94775390625
-108.94775390625
-103.45458984375
-84.228515625
-86.97509765625
-95.21484375
-86.0595703125
-102.5390625
-96.13037109375
-98.876953125
-93.3837890625
-85.14404296875
-97.96142578125
-103.45458984375
-110.77880859375
-105.28564453125
-117.1875
-96.13037109375
-108.0322265625
-104.3701171875
-89.7216796875
-91.552734375
-99.79248046875
-109.86328125
-107.11669921875
-97.0458984375
-101.62353515625
-99.79248046875
-108.0322265625
-111.6943359375
-109.86328125
-106.201171875
-104.3701171875
-103.45458984375
-107.11669921875
-103.45458984375
-118.10302734375
-117.1875
-106.201171875
-107.11669921875
-103.45458984375
-110.77880859375
-111.6943359375
-115.3564453125
-105.28564453125
-109.86328125
-108.0322265625
-111.6943359375
-128.173828125
-130.92041015625
-128.173828125
-121.76513671875
-123.59619140625
-116.27197265625
-119.93408203125
-130.92041015625
-137.3291015625
-140.9912109375
-133.6669921875
-133.6669921875
-134.58251953125
-123.59619140625
-119.0185546875
-121.76513671875
-135.498046875
-148.3154296875
-140.9912109375
-143.73779296875
-132.75146484375
-136.41357421875
-136.41357421875
-146.484375
-136.41357421875
-139.16015625
-157.470703125
-156.55517578125
-149.23095703125
-146.484375
-144.6533203125
-150.146484375
-146.484375
-157.470703125
-152.89306640625
-145.56884765625
-128.173828125
-135.498046875
-138.24462890625
-142.822265625
-147.39990234375
-142.822265625
-147.39990234375
-165.71044921875
-164.794921875
-167.54150390625
-162.9638671875
-154.72412109375
-144.6533203125
-161.1328125
-167.54150390625
-154.72412109375
-144.6533203125
-140.9912109375
-151.9775390625
-149.23095703125
-149.23095703125
-148.3154296875
-152.89306640625
-126.3427734375
-126.3427734375
-124.51171875
-112.60986328125
-114.44091796875
-119.93408203125
-109.86328125
-97.0458984375
-106.201171875
-113.525390625
-95.21484375
-73.2421875
-52.18505859375
-38.4521484375
-42.1142578125
-43.02978515625
-54.01611328125
-55.84716796875
-58.59375
-37.53662109375
-19.22607421875
-34.7900390625
-34.7900390625
-45.7763671875
-44.86083984375
-54.931640625
-54.01611328125
-46.69189453125
-41.19873046875
-46.69189453125
-49.4384765625
-82.3974609375
-98.876953125
-101.62353515625
-112.60986328125
-135.498046875
-144.6533203125
-150.146484375
-165.71044921875
-173.03466796875
-176.69677734375
-173.9501953125
-179.443359375
-197.75390625
-191.34521484375
-179.443359375
-174.86572265625
-180.35888671875
-189.51416015625
-186.767578125
-191.34521484375
-184.9365234375
-173.03466796875
-195.9228515625
-211.48681640625
-195.00732421875
-196.83837890625
-206.9091796875
-205.078125
-193.17626953125
-194.091796875
-193.17626953125
-207.82470703125
-207.82470703125
-187.68310546875
-186.767578125
-196.83837890625
-200.50048828125
-175.78125
-152.89306640625
-124.51171875
-67.7490234375
-6.40869140625
54.01611328125
134.58251953125
244.44580078125
349.7314453125
438.53759765625
533.75244140625
620.7275390625
684.814453125
726.9287109375
726.01318359375
682.9833984375
577.69775390625
422.9736328125
231.62841796875
29.296875
-145.56884765625
-281.982421875
-340.576171875
-378.11279296875
-404.6630859375
-413.818359375
-392.76123046875
-330.50537109375
-274.658203125
-243.5302734375
-211.48681640625
-198.66943359375
-185.85205078125
-175.78125
-172.119140625
-166.6259765625
-175.78125
-183.10546875
-180.35888671875
-189.51416015625
-190.4296875
-169.37255859375
-173.03466796875
-173.9501953125
-168.45703125
-152.89306640625
-151.9775390625
-158.38623046875
-159.3017578125
-164.794921875
-170.2880859375
-172.119140625
-176.69677734375
-173.03466796875
-169.37255859375
-152.89306640625
-149.23095703125
-140.07568359375
-146.484375
-147.39990234375
-141.90673828125
-141.90673828125
-140.9912109375
-138.24462890625
-139.16015625
-147.39990234375
-154.72412109375
-146.484375
-134.58251953125
-140.07568359375
-136.41357421875
-133.6669921875
-136.41357421875
-139.16015625
-126.3427734375
-130.92041015625
-128.173828125
-118.10302734375
-102.5390625
-104.3701171875
-86.97509765625
-90.63720703125
-103.45458984375
-101.62353515625
-96.13037109375
-97.96142578125
-78.7353515625
-69.580078125
-87.890625
-86.0595703125
-75.98876953125
-59.50927734375
-63.17138671875
-58.59375
-53.1005859375
-26.55029296875
-17.39501953125
-31.1279296875
-29.296875
-16.4794921875
3.662109375
-15.56396484375
-19.22607421875
-0.91552734375
12.8173828125
12.8173828125
9.1552734375
24.71923828125
42.1142578125
44.86083984375
39.36767578125
54.931640625
72.32666015625
62.255859375
63.17138671875
76.904296875
70.49560546875
81.48193359375
87.890625
97.0458984375
116.27197265625
118.10302734375
109.86328125
119.0185546875
134.58251953125
140.9912109375
144.6533203125
155.6396484375
150.146484375
141.90673828125
135.498046875
146.484375
157.470703125
150.146484375
150.146484375
147.39990234375
129.08935546875
119.0185546875
108.94775390625
105.28564453125
92.46826171875
101.62353515625
86.0595703125
65.91796875
45.7763671875
38.4521484375
27.4658203125
15.56396484375
1.8310546875
-17.39501953125
-32.04345703125
-42.1142578125
-57.67822265625
-57.67822265625
-73.2421875
-72.32666015625
-82.3974609375
-81.48193359375
-92.46826171875
-105.28564453125
-99.79248046875
-99.79248046875
-115.3564453125
-104.3701171875
-117.1875
-119.93408203125
-125.42724609375
-136.41357421875
-135.498046875
-127.25830078125
-119.0185546875
-128.173828125
-122.6806640625
-121.76513671875
-119.0185546875
-119.93408203125
-117.1875
-115.3564453125
-117.1875
-120.849609375
-135.498046875
-130.0048828125
-130.0048828125
-115.3564453125
-121.76513671875
-133.6669921875
-143.73779296875
-133.6669921875
-135.498046875
-140.07568359375
-130.92041015625
-135.498046875
-140.9912109375
-131.8359375
-135.498046875
-124.51171875
-99.79248046875
-112.60986328125
-131.8359375
-127.25830078125
-115.3564453125
-120.849609375
-125.42724609375
-112.60986328125
-121.76513671875
-124.51171875
-113.525390625
-109.86328125
-115.3564453125
-125.42724609375
-126.3427734375
-119.93408203125
-119.0185546875
-124.51171875
-120.849609375
-115.3564453125
-122.6806640625
-120.849609375
-118.10302734375
-104.3701171875
-103.45458984375
-110.77880859375
-116.27197265625
-124.51171875
-124.51171875
-131.8359375
-120.849609375
-108.0322265625
-120.849609375
-125.42724609375
-120.849609375
-103.45458984375
-112.60986328125
-116.27197265625
-116.27197265625
-107.11669921875
-119.93408203125
-129.08935546875
-136.41357421875
-140.9912109375
-127.25830078125
-124.51171875
-122.6806640625
-135.498046875
-136.41357421875
-118.10302734375
-131.8359375
-132.75146484375
-139.16015625
-145.56884765625
-152.89306640625
-140.07568359375
-151.9775390625
-150.146484375
-120.849609375
-135.498046875
-133.6669921875
-132.75146484375
-123.59619140625
-137.3291015625
-147.39990234375
-143.73779296875
-136.41357421875
-147.39990234375
-154.72412109375
-136.41357421875
-139.16015625
-132.75146484375
-140.07568359375
-149.23095703125
-140.9912109375
-141.90673828125
-145.56884765625
-149.23095703125
-140.9912109375
-141.90673828125
-140.9912109375
-146.484375
-154.72412109375
-155.6396484375
-158.38623046875
-147.39990234375
-141.90673828125
-140.07568359375
-154.72412109375
-157.470703125
-143.73779296875
-138.24462890625
-136.41357421875
-127.25830078125
-119.0185546875
-119.0185546875
-109.86328125
-113.525390625
-89.7216796875
-94.29931640625
-101.62353515625
-94.29931640625
-79.65087890625
-65.91796875
-65.00244140625
-54.01611328125
-36.62109375
-43.02978515625
-39.36767578125
-41.19873046875
-29.296875
-17.39501953125
-27.4658203125
-29.296875
-41.19873046875
-35.70556640625
-46.69189453125
-50.35400390625
-45.7763671875
-48.52294921875
-45.7763671875
-53.1005859375
-54.01611328125
-62.255859375
-86.97509765625
-99.79248046875
-97.96142578125
-116.27197265625
-132.75146484375
-140.07568359375
-145.56884765625
-144.6533203125
-141.90673828125
-149.23095703125
-161.1328125
-150.146484375
-176.69677734375
-184.9365234375
-172.119140625
-180.35888671875
-194.091796875
-202.33154296875
-195.00732421875
-189.51416015625
-189.51416015625
-188.5986328125
-174.86572265625
-171.20361328125
-171.20361328125
-167.54150390625
-179.443359375
-186.767578125
-183.10546875
-184.9365234375
-182.18994140625
-178.52783203125
-184.9365234375
-196.83837890625
-201.416015625
-212.40234375
-190.4296875
-143.73779296875
-113.525390625
-83.31298828125
-27.4658203125
39.36767578125
100.7080078125
195.9228515625
322.265625
397.3388671875
480.65185546875
582.275390625
669.25048828125
720.52001953125
745.2392578125
738.83056640625
645.44677734375
484.31396484375
300.29296875
77.81982421875
-118.10302734375
-250.8544921875
-325.01220703125
-370.78857421875
-406.494140625
-421.142578125
-403.74755859375
-354.30908203125
-283.8134765625
-241.69921875
-212.40234375
-194.091796875
-192.2607421875
-181.2744140625
-162.04833984375
-141.90673828125
-148.3154296875
-155.6396484375
-162.9638671875
-167.54150390625
-170.2880859375
-162.9638671875
-157.470703125
-159.3017578125
-162.9638671875
-161.1328125
-156.55517578125
-150.146484375
-157.470703125
-142.822265625
-140.07568359375
-152.89306640625
-150.146484375
-146.484375
-146.484375
-145.56884765625
-151.9775390625
-152.89306640625
-138.24462890625
-145.56884765625
-158.38623046875
-151.9775390625
-141.90673828125
-139.16015625
-133.6669921875
-130.92041015625
-124.51171875
-126.3427734375
-128.173828125
-118.10302734375
-123.59619140625
-105.28564453125
-105.28564453125
-108.0322265625
-105.28564453125
-110.77880859375
-109.86328125
-109.86328125
-108.0322265625
-110.77880859375
-100.7080078125
-89.7216796875
-78.7353515625
-75.0732421875
-72.32666015625
-57.67822265625
-46.69189453125
-37.53662109375
-43.02978515625
-43.02978515625
-39.36767578125
-37.53662109375
-28.38134765625
-32.958984375
-28.38134765625
-38.4521484375
-29.296875
-23.8037109375
-12.8173828125
-9.1552734375
0
9.1552734375
7.32421875
11.90185546875
19.22607421875
32.958984375
36.62109375
48.52294921875
59.50927734375
56.7626953125
55.84716796875
59.50927734375
73.2421875
75.0732421875
84.228515625
88.80615234375
93.3837890625
115.3564453125
120.849609375
116.27197265625
108.94775390625
122.6806640625
137.3291015625
147.39990234375
152.89306640625
148.3154296875
157.470703125
148.3154296875
167.54150390625
174.86572265625
163.87939453125
141.90673828125
151.06201171875
168.45703125
153.80859375
140.07568359375
142.822265625
142.822265625
134.58251953125
135.498046875
108.0322265625
98.876953125
94.29931640625
71.4111328125
52.18505859375
42.1142578125
22.88818359375
13.73291015625
0
-15.56396484375
-31.1279296875
-29.296875
-35.70556640625
-57.67822265625
-65.00244140625
-60.4248046875
-43.02978515625
-46.69189453125
-46.69189453125
-59.50927734375
-70.49560546875
-97.0458984375
-102.5390625
-100.7080078125
-119.93408203125
-108.0322265625
-134.58251953125
-164.794921875
-137.3291015625
-119.93408203125
-112.60986328125
-130.92041015625
-130.92041015625
-120.849609375
-108.0322265625
-105.28564453125
-108.0322265625
-105.28564453125
-100.7080078125
-118.10302734375
-119.93408203125
-107.11669921875
-100.7080078125
-121.76513671875
-134.58251953125
-119.0185546875
-122.6806640625
-139.16015625
-111.6943359375
-72.32666015625
-73.2421875
-69.580078125
-68.66455078125
-73.2421875
-79.65087890625
-85.14404296875
-89.7216796875
-92.46826171875
-93.3837890625
-68.66455078125
-52.18505859375
-52.18505859375
-70.49560546875
-96.13037109375
-113.525390625
-132.75146484375
-154.72412109375
-140.9912109375
-141.90673828125
-144.6533203125
-121.76513671875
-115.3564453125
-97.0458984375
-88.80615234375
-69.580078125
-59.50927734375
-53.1005859375
-52.18505859375
-65.00244140625
-73.2421875
-66.83349609375
-65.00244140625
-74.15771484375
-84.228515625
-83.31298828125
-79.65087890625
-76.904296875
-72.32666015625
-70.49560546875
-72.32666015625
-74.15771484375
-69.580078125
-83.31298828125
-95.21484375
-104.3701171875
-92.46826171875
-83.31298828125
-107.11669921875
-93.3837890625
-85.14404296875
-86.97509765625
-100.7080078125
-102.5390625
-91.552734375
-101.62353515625
-99.79248046875
-102.5390625
-114.44091796875
-113.525390625
-116.27197265625
-108.94775390625
-108.0322265625
-107.11669921875
-96.13037109375
-108.0322265625
-103.45458984375
-112.60986328125
-119.93408203125
-117.1875
-112.60986328125
-128.173828125
-126.3427734375
-122.6806640625
-101.62353515625
-85.14404296875
-104.3701171875
-126.3427734375
-130.0048828125
-137.3291015625
-131.8359375
-118.10302734375
-97.96142578125
-94.29931640625
-116.27197265625
-121.76513671875
-114.44091796875
-110.77880859375
-106.201171875
-123.59619140625
-112.60986328125
-113.525390625
-120.849609375
-128.173828125
-120.849609375
-118.10302734375
-116.27197265625
-114.44091796875
-112.60986328125
-106.201171875
-113.525390625
-127.25830078125
-122.6806640625
-127.25830078125
-139.16015625
-116.27197265625
-127.25830078125
-127.25830078125
-131.8359375
-138.24462890625
-130.0048828125
-130.92041015625
-122.6806640625
-102.5390625
-116.27197265625
-116.27197265625
-119.0185546875
-108.94775390625
-126.3427734375
-122.6806640625
-108.0322265625
-112.60986328125
-110.77880859375
-95.21484375
-79.65087890625
-75.98876953125
-83.31298828125
-76.904296875
-87.890625
-61.34033203125
-55.84716796875
-57.67822265625
-68.66455078125
-65.91796875
-54.931640625
-21.97265625
2.74658203125
19.22607421875
24.71923828125
12.8173828125
0
3.662109375
10.07080078125
8.23974609375
-4.57763671875
13.73291015625
15.56396484375
-10.986328125
-17.39501953125
-10.07080078125
-13.73291015625
-17.39501953125
-4.57763671875
-4.57763671875
-23.8037109375
-43.02978515625
-58.59375
-59.50927734375
-61.34033203125
-75.0732421875
-91.552734375
-95.21484375
-97.0458984375
-106.201171875
-106.201171875
-122.6806640625
-126.3427734375
-138.24462890625
-137.3291015625
-144.6533203125
-143.73779296875
-132.75146484375
-142.822265625
-145.56884765625
-151.06201171875
-154.72412109375
-143.73779296875
-141.90673828125
-134.58251953125
-140.9912109375
-139.16015625
-149.23095703125
-157.470703125
-154.72412109375
-146.484375
-154.72412109375
-157.470703125
-181.2744140625
-184.9365234375
-173.03466796875
-158.38623046875
-131.8359375
-98.876953125
-70.49560546875
-36.62109375
21.97265625
90.63720703125
140.07568359375
233.45947265625
346.0693359375
425.72021484375
503.5400390625
609.7412109375
699.462890625
757.14111328125
796.5087890625
780.94482421875
694.88525390625
539.24560546875
357.97119140625
149.23095703125
-43.02978515625
-193.17626953125
-283.8134765625
-326.84326171875
-364.3798828125
-379.0283203125
-368.0419921875
-303.955078125
-231.62841796875
-180.35888671875
-147.39990234375
-137.3291015625
-119.93408203125
-109.86328125
-114.44091796875
-117.1875
-121.76513671875
-112.60986328125
-119.0185546875
-114.44091796875
-130.92041015625
-140.9912109375
-131.8359375
-129.08935546875
-119.93408203125
-119.0185546875
-134.58251953125
-111.6943359375
-105.28564453125
-98.876953125
-100.7080078125
-90.63720703125
-101.62353515625
-108.0322265625
-109.86328125
-108.94775390625
-92.46826171875
-99.79248046875
-87.890625
-86.0595703125
-95.21484375
-95.21484375
-97.0458984375
-91.552734375
-86.97509765625
-61.34033203125
-73.2421875
-93.3837890625
-83.31298828125
-55.84716796875
-56.7626953125
-65.00244140625
-69.580078125
-62.255859375
-54.01611328125
-49.4384765625
-45.7763671875
-46.69189453125
-48.52294921875
-45.7763671875
-59.50927734375
-62.255859375
-32.958984375
-26.55029296875
-26.55029296875
-18.310546875
-15.56396484375
-8.23974609375
11.90185546875
-4.57763671875
-0.91552734375
5.4931640625
4.57763671875
-17.39501953125
-12.8173828125
-12.8173828125
-5.4931640625
5.4931640625
7.32421875
-0.91552734375
0.91552734375
51.26953125
92.46826171875
109.86328125
123.59619140625
130.92041015625
120.849609375
115.3564453125
118.10302734375
132.75146484375
140.9912109375
133.6669921875
122.6806640625
124.51171875
139.16015625
154.72412109375
157.470703125
172.119140625
182.18994140625
176.69677734375
171.20361328125
179.443359375
163.87939453125
174.86572265625
177.6123046875
194.091796875
181.2744140625
166.6259765625
197.75390625
203.2470703125
204.16259765625
217.8955078125
203.2470703125
224.30419921875
244.44580078125
235.29052734375
222.47314453125
229.79736328125
238.037109375
223.388671875
210.5712890625
197.75390625
181.2744140625
160.21728515625
156.55517578125
152.89306640625
124.51171875
100.7080078125
104.3701171875
78.7353515625
75.0732421875
69.580078125
45.7763671875
29.296875
28.38134765625
30.21240234375
25.634765625
19.22607421875
2.74658203125
-0.91552734375
11.90185546875
-11.90185546875
-21.97265625
-32.04345703125
-46.69189453125
-51.26953125
-39.36767578125
-52.18505859375
-54.931640625
-64.0869140625
-61.34033203125
-65.00244140625
-41.19873046875
-40.283203125
-26.55029296875
-30.21240234375
-28.38134765625
-25.634765625
-38.4521484375
-40.283203125
-46.69189453125
-31.1279296875
-43.9453125
-45.7763671875
-54.931640625
-60.4248046875
-54.01611328125
-55.84716796875
-38.4521484375
-32.958984375
-38.4521484375
-41.19873046875
-44.86083984375
-43.02978515625
-55.84716796875
-53.1005859375
-41.19873046875
-50.35400390625
-55.84716796875
-56.7626953125
-48.52294921875
-41.19873046875
-39.36767578125
-45.7763671875
-59.50927734375
-43.02978515625
-40.283203125
-35.70556640625
-40.283203125
-45.7763671875
-51.26953125
-42.1142578125
-43.9453125
-25.634765625
-23.8037109375
-16.4794921875
-10.986328125
5.4931640625
8.23974609375
0
-4.57763671875
-6.40869140625
-5.4931640625
-10.986328125
-14.6484375
-22.88818359375
-15.56396484375
-25.634765625
-28.38134765625
-30.21240234375
-22.88818359375
-26.55029296875
-16.4794921875
-21.05712890625
-20.1416015625
-36.62109375
-44.86083984375
-34.7900390625
-44.86083984375
-58.59375
-56.7626953125
-59.50927734375
-57.67822265625
-49.4384765625
-44.86083984375
-31.1279296875
-28.38134765625
-37.53662109375
-32.04345703125
-31.1279296875
-39.36767578125
-36.62109375
-45.7763671875
-50.35400390625
-39.36767578125
-40.283203125
-29.296875
-36.62109375
-43.9453125
-31.1279296875
-50.35400390625
-44.86083984375
-34.7900390625
-33.87451171875
-41.19873046875
-34.7900390625
-33.87451171875
-36.62109375
-48.52294921875
-46.69189453125
-47.607421875
-55.84716796875
-63.17138671875
-64.0869140625
-52.18505859375
-50.35400390625
-69.580078125
-67.7490234375
-46.69189453125
-44.86083984375
-48.52294921875
-57.67822265625
-60.4248046875
-60.4248046875
-57.67822265625
-60.4248046875
-60.4248046875
-60.4248046875
-47.607421875
-53.1005859375
-44.86083984375
-31.1279296875
-37.53662109375
-59.50927734375
-56.7626953125
-66.83349609375
-64.0869140625
-58.59375
-64.0869140625
-47.607421875
-41.19873046875
-44.86083984375
-47.607421875
-45.7763671875
-35.70556640625
-32.958984375
-38.4521484375
-43.02978515625
-33.87451171875
-41.19873046875
-41.19873046875
-43.02978515625
-51.26953125
-55.84716796875
-47.607421875
-53.1005859375
-47.607421875
-32.04345703125
-40.283203125
-40.283203125
-52.18505859375
-49.4384765625
-53.1005859375
-59.50927734375
-59.50927734375
-47.607421875
-47.607421875
-56.7626953125
-61.34033203125
-66.83349609375
-69.580078125
-62.255859375
-32.04345703125
-30.21240234375
-44.86083984375
-50.35400390625
-51.26953125
-32.04345703125
-11.90185546875
-21.05712890625
3.662109375
18.310546875
21.05712890625
32.958984375
36.62109375
14.6484375
11.90185546875
-1.8310546875
9.1552734375
24.71923828125
41.19873046875
77.81982421875
86.97509765625
73.2421875
51.26953125
57.67822265625
66.83349609375
70.49560546875
81.48193359375
87.890625
80.56640625
68.66455078125
61.34033203125
60.4248046875
67.7490234375
72.32666015625
59.50927734375
47.607421875
32.958984375
27.4658203125
13.73291015625
9.1552734375
4.57763671875
-19.22607421875
-26.55029296875
-35.70556640625
-45.7763671875
-49.4384765625
-59.50927734375
-60.4248046875
-59.50927734375
-64.0869140625
-58.59375
-67.7490234375
-63.17138671875
-57.67822265625
-61.34033203125
-45.7763671875
-47.607421875
-52.18505859375
-53.1005859375
-52.18505859375
-57.67822265625
-66.83349609375
-48.52294921875
-36.62109375
-56.7626953125
-59.50927734375
-57.67822265625
-67.7490234375
-63.17138671875
-69.580078125
-71.4111328125
-72.32666015625
-68.66455078125
-43.9453125
-25.634765625
-15.56396484375
40.283203125
122.6806640625
178.52783203125
238.037109375
345.15380859375
427.55126953125
498.046875
596.00830078125
715.9423828125
799.25537109375
859.68017578125
904.541015625
865.17333984375
764.46533203125
610.65673828125
388.18359375
167.54150390625
-21.97265625
-152.89306640625
-232.5439453125
-277.40478515625
-316.7724609375
-299.37744140625
-271.91162109375
-219.7265625
-153.80859375
-116.27197265625
-85.14404296875
-64.0869140625
-68.66455078125
-48.52294921875
-52.18505859375
-58.59375
-50.35400390625
-40.283203125
-22.88818359375
-32.04345703125
-46.69189453125
-38.4521484375
-38.4521484375
-36.62109375
-39.36767578125
-42.1142578125
-43.02978515625
-53.1005859375
-56.7626953125
-38.4521484375
-31.1279296875
-30.21240234375
-39.36767578125
-25.634765625
-21.97265625
-39.36767578125
-43.9453125
-32.04345703125
-39.36767578125
-38.4521484375
-32.04345703125
-27.4658203125
-24.71923828125
-11.90185546875
-13.73291015625
-17.39501953125
-10.07080078125
-19.22607421875
-9.1552734375
-8.23974609375
-6.40869140625
-1.8310546875
1.8310546875
10.07080078125
9.1552734375
10.986328125
-3.662109375
-2.74658203125
-11.90185546875
11.90185546875
10.07080078125
2.74658203125
14.6484375
28.38134765625
39.36767578125
34.7900390625
38.4521484375
31.1279296875
35.70556640625
49.4384765625
47.607421875
45.7763671875
45.7763671875
42.1142578125
53.1005859375
54.01611328125
66.83349609375
76.904296875
78.7353515625
76.904296875
85.14404296875
87.890625
90.63720703125
103.45458984375
108.94775390625
122.6806640625
158.38623046875
138.24462890625
137.3291015625
149.23095703125
138.24462890625
150.146484375
153.80859375
169.37255859375
174.86572265625
165.71044921875
181.2744140625
188.5986328125
184.02099609375
177.6123046875
181.2744140625
187.68310546875
193.17626953125
201.416015625
211.48681640625
205.99365234375
210.5712890625
226.13525390625
242.61474609375
243.5302734375
233.45947265625
230.712890625
225.2197265625
230.712890625
231.62841796875
213.31787109375
216.064453125
202.33154296875
213.31787109375
208.740234375
205.078125
195.9228515625
202.33154296875
173.03466796875
160.21728515625
136.41357421875
125.42724609375
120.849609375
103.45458984375
93.3837890625
86.0595703125
67.7490234375
55.84716796875
58.59375
35.70556640625
23.8037109375
23.8037109375
15.56396484375
-3.662109375
0
-1.8310546875
-32.958984375
-37.53662109375
-32.958984375
-32.958984375
-29.296875
-34.7900390625
-35.70556640625
-45.7763671875
-52.18505859375
-64.0869140625
-67.7490234375
-66.83349609375
-60.4248046875
-75.0732421875
-82.3974609375
-59.50927734375
-55.84716796875
-64.0869140625
-67.7490234375
-78.7353515625
-81.48193359375
-65.91796875
-67.7490234375
-54.01611328125
-44.86083984375
-46.69189453125
-46.69189453125
-52.18505859375
-50.35400390625
-62.255859375
-77.81982421875
-79.65087890625
-76.904296875
-67.7490234375
-69.580078125
-78.7353515625
-67.7490234375
-59.50927734375
-52.18505859375
-59.50927734375
-74.15771484375
-65.91796875
-66.83349609375
-75.98876953125
-72.32666015625
-49.4384765625
-50.35400390625
-56.7626953125
-62.255859375
-56.7626953125
-67.7490234375
-80.56640625
-82.3974609375
-84.228515625
-75.0732421875
-71.4111328125
-79.65087890625
-82.3974609375
-81.48193359375
-76.904296875
-80.56640625
-72.32666015625
-54.01611328125
-55.84716796875
-56.7626953125
-57.67822265625
-64.0869140625
-62.255859375
-60.4248046875
-69.580078125
-77.81982421875
-82.3974609375
-79.65087890625
-75.0732421875
-60.4248046875
-56.7626953125
-79.65087890625
-66.83349609375
-60.4248046875
-75.0732421875
-85.14404296875
-88.80615234375
-95.21484375
-80.56640625
-98.876953125
-96.13037109375
-76.904296875
-86.0595703125
-90.63720703125
-90.63720703125
-104.3701171875
-109.86328125
-102.5390625
-107.11669921875
-108.0322265625
-90.63720703125
-95.21484375
-100.7080078125
-101.62353515625
-98.876953125
-104.3701171875
-98.876953125
-97.96142578125
-102.5390625
-121.76513671875
-119.93408203125
-121.76513671875
-116.27197265625
-119.93408203125
-120.849609375
-130.0048828125
-129.08935546875
-131.8359375
-125.42724609375
-127.25830078125
-115.3564453125
-106.201171875
-110.77880859375
-111.6943359375
-115.3564453125
-126.3427734375
-119.93408203125
-135.498046875
-122.6806640625
-125.42724609375
-130.0048828125
-133.6669921875
-142.822265625
-142.822265625
-140.07568359375
-146.484375
-147.39990234375
-134.58251953125
-141.90673828125
-146.484375
-151.9775390625
-146.484375
-153.80859375
-164.794921875
-154.72412109375
-141.90673828125
-144.6533203125
-136.41357421875
-136.41357421875
-117.1875
-126.3427734375
-130.0048828125
-117.1875
-133.6669921875
-131.8359375
-139.16015625
-149.23095703125
-151.9775390625
-144.6533203125
-146.484375
-138.24462890625
-134.58251953125
-125.42724609375
-130.0048828125
-136.41357421875
-126.3427734375
-119.0185546875
-104.3701171875
-98.876953125
-105.28564453125
-91.552734375
-92.46826171875
-94.29931640625
-100.7080078125
-80.56640625
-56.7626953125
-49.4384765625
-37.53662109375
-20.1416015625
-23.8037109375
-40.283203125
-39.36767578125
-40.283203125
-35.70556640625
-39.36767578125
-53.1005859375
-47.607421875
-44.86083984375
-43.9453125
-32.04345703125
-35.70556640625
-52.18505859375
-31.1279296875
-33.87451171875
-56.7626953125
-76.904296875
-109.86328125
-108.0322265625
-98.876953125
-115.3564453125
-132.75146484375
-128.173828125
-139.16015625
-139.16015625
-133.6669921875
-147.39990234375
-169.37255859375
-169.37255859375
-161.1328125
-159.3017578125
-156.55517578125
-154.72412109375
-172.119140625
-172.119140625
-175.78125
-179.443359375
-195.9228515625
-177.6123046875
-184.02099609375
-193.17626953125
-178.52783203125
-177.6123046875
-173.03466796875
-172.119140625
-179.443359375
-184.02099609375
-190.4296875
-190.4296875
-191.34521484375
-203.2470703125
-224.30419921875
-205.078125
-173.9501953125
-157.470703125
-145.56884765625
-81.48193359375
-1.8310546875
53.1005859375
151.9775390625
259.09423828125
354.30908203125
433.04443359375
540.1611328125
637.20703125
696.71630859375
734.2529296875
737.9150390625
702.20947265625
585.9375
429.38232421875
231.62841796875
20.1416015625
-164.794921875
-270.99609375
-325.927734375
-369.873046875
-410.15625
-396.42333984375
-347.900390625
-299.37744140625
-248.10791015625
-221.5576171875
-202.33154296875
-199.5849609375
-194.091796875
-190.4296875
-181.2744140625
-167.54150390625
-167.54150390625
-175.78125
-190.4296875
-185.85205078125
-186.767578125
-173.9501953125
-163.87939453125
-175.78125
-150.146484375
-143.73779296875
-154.72412109375
-160.21728515625
-165.71044921875
-173.9501953125
-169.37255859375
-170.2880859375
-169.37255859375
-169.37255859375
-177.6123046875
-164.794921875
-160.21728515625
-152.89306640625
-145.56884765625
-143.73779296875
-140.9912109375
-147.39990234375
-143.73779296875
-151.06201171875
-153.80859375
-145.56884765625
-140.07568359375
-140.07568359375
-131.8359375
-129.08935546875
-132.75146484375
-127.25830078125
-133.6669921875
-127.25830078125
-119.93408203125
-132.75146484375
-126.3427734375
-121.76513671875
-112.60986328125
-111.6943359375
-108.94775390625
-98.876953125
-94.29931640625
-105.28564453125
-110.77880859375
-99.79248046875
-88.80615234375
-66.83349609375
-75.98876953125
-97.96142578125
-99.79248046875
-84.228515625
-71.4111328125
-70.49560546875
-80.56640625
-68.66455078125
-57.67822265625
-55.84716796875
-33.87451171875
-14.6484375
-14.6484375
-16.4794921875
-22.88818359375
-25.634765625
-8.23974609375
2.74658203125
4.57763671875
3.662109375
6.40869140625
10.986328125
25.634765625
43.9453125
48.52294921875
34.7900390625
45.7763671875
59.50927734375
52.18505859375
65.91796875
82.3974609375
87.890625
91.552734375
94.29931640625
88.80615234375
85.14404296875
97.96142578125
107.11669921875
105.28564453125
110.77880859375
109.86328125
113.525390625
128.173828125
131.8359375
131.8359375
138.24462890625
133.6669921875
135.498046875
127.25830078125
123.59619140625
113.525390625
112.60986328125
84.228515625
75.0732421875
58.59375
41.19873046875
36.62109375
20.1416015625
-7.32421875
-8.23974609375
-9.1552734375
-27.4658203125
-43.9453125
-54.01611328125
-77.81982421875
-89.7216796875
-97.96142578125
-90.63720703125
-99.79248046875
-108.0322265625
-116.27197265625
-101.62353515625
-107.11669921875
-119.93408203125
-137.3291015625
-151.9775390625
-152.89306640625
-159.3017578125
-171.20361328125
-167.54150390625
-162.9638671875
-133.6669921875
-130.92041015625
-138.24462890625
-142.822265625
-171.20361328125
-156.55517578125
-158.38623046875
-166.6259765625
-162.9638671875
-163.87939453125
-147.39990234375
-153.80859375
-155.6396484375
-162.9638671875
-153.80859375
-159.3017578125
-152.89306640625
-161.1328125
-155.6396484375
-140.07568359375
-146.484375
-152.89306640625
-145.56884765625
-144.6533203125
-153.80859375
-152.89306640625
-150.146484375
-162.04833984375
-166.6259765625
-170.2880859375
-166.6259765625
-166.6259765625
-164.794921875
-150.146484375
-145.56884765625
-151.06201171875
-151.9775390625
-155.6396484375
-154.72412109375
-146.484375
-156.55517578125
-156.55517578125
-152.89306640625
-160.21728515625
-166.6259765625
-169.37255859375
-163.87939453125
-160.21728515625
-158.38623046875
-162.04833984375
-160.21728515625
-162.9638671875
-159.3017578125
-151.9775390625
-167.54150390625
-183.10546875
-180.35888671875
-162.9638671875
-148.3154296875
-148.3154296875
-151.06201171875
-140.9912109375
-145.56884765625
-155.6396484375
-162.04833984375
-152.89306640625
-138.24462890625
-148.3154296875
-154.72412109375
-156.55517578125
-152.89306640625
-165.71044921875
-165.71044921875
-161.1328125
-179.443359375
-173.9501953125
-170.2880859375
-156.55517578125
-158.38623046875
-165.71044921875
-173.9501953125
-164.794921875
-162.9638671875
-171.20361328125
-180.35888671875
-174.86572265625
-175.78125
-179.443359375
-190.4296875
-182.18994140625
-185.85205078125
-192.2607421875
-182.18994140625
-194.091796875
-201.416015625
-191.34521484375
-160.21728515625
-160.21728515625
-178.52783203125
-173.03466796875
-167.54150390625
-174.86572265625
-178.52783203125
-171.20361328125
-176.69677734375
-193.17626953125
-194.091796875
-184.9365234375
-181.2744140625
-195.00732421875
-205.078125
-195.9228515625
-207.82470703125
-197.75390625
-195.9228515625
-199.5849609375
-183.10546875
-185.85205078125
-179.443359375
-166.6259765625
-180.35888671875
-195.00732421875
-184.02099609375
-181.2744140625
-175.78125
-164.794921875
-153.80859375
-160.21728515625
-161.1328125
-145.56884765625
-134.58251953125
-164.794921875
-143.73779296875
-113.525390625
-108.0322265625
-97.96142578125
-83.31298828125
-67.7490234375
-65.00244140625
-77.81982421875
-65.00244140625
-57.67822265625
-43.02978515625
-43.02978515625
-58.59375
-70.49560546875
-63.17138671875
-77.81982421875
-92.46826171875
-90.63720703125
-87.890625
-97.0458984375
-77.81982421875
-84.228515625
-103.45458984375
-126.3427734375
-136.41357421875
-141.90673828125
-151.06201171875
-152.89306640625
-153.80859375
-164.794921875
-178.52783203125
-184.02099609375
-192.2607421875
-194.091796875
-199.5849609375
-200.50048828125
-204.16259765625
-205.078125
-196.83837890625
-192.2607421875
-203.2470703125
-211.48681640625
-218.81103515625
-220.64208984375
-213.31787109375
-199.5849609375
-201.416015625
-201.416015625
-218.81103515625
-228.8818359375
-201.416015625
-201.416015625
-225.2197265625
-216.064453125
-220.64208984375
-231.62841796875
-222.47314453125
-225.2197265625
-240.78369140625
-230.712890625
-184.9365234375
-161.1328125
-114.44091796875
-46.69189453125
21.97265625
108.94775390625
216.064453125
330.50537109375
409.24072265625
498.046875
595.0927734375
670.166015625
700.37841796875
714.111328125
675.6591796875
580.4443359375
438.53759765625
255.43212890625
36.62109375
-157.470703125
-286.56005859375
-336.9140625
-358.88671875
-392.76123046875
-418.39599609375
-389.09912109375
-328.67431640625
-281.06689453125
-250.8544921875
-229.79736328125
-219.7265625
-235.29052734375
-226.13525390625
-215.14892578125
-210.5712890625
-205.078125
-195.9228515625
-195.00732421875
-206.9091796875
-200.50048828125
-179.443359375
-197.75390625
-202.33154296875
-195.9228515625
-197.75390625
-186.767578125
-179.443359375
-166.6259765625
-163.87939453125
-173.9501953125
-174.86572265625
-173.03466796875
-175.78125
-186.767578125
-180.35888671875
-183.10546875
-169.37255859375
-149.23095703125
-153.80859375
-165.71044921875
-159.3017578125
-165.71044921875
-163.87939453125
-159.3017578125
-175.78125
-171.20361328125
-149.23095703125
-140.07568359375
-132.75146484375
-139.16015625
-144.6533203125
-143.73779296875
-133.6669921875
-140.9912109375
-142.822265625
-138.24462890625
-127.25830078125
-108.94775390625
-114.44091796875
-113.525390625
-119.0185546875
-130.0048828125
-116.27197265625
-122.6806640625
-111.6943359375
-97.0458984375
-97.0458984375
-86.97509765625
-71.4111328125
-66.83349609375
-79.65087890625
-76.904296875
-84.228515625
-77.81982421875
-60.4248046875
-54.931640625
-51.26953125
-41.19873046875
-35.70556640625
-32.04345703125
-4.57763671875
3.662109375
2.74658203125
1.8310546875
7.32421875
6.40869140625
19.22607421875
39.36767578125
31.1279296875
25.634765625
39.36767578125
35.70556640625
48.52294921875
49.4384765625
56.7626953125
70.49560546875
78.7353515625
86.97509765625
74.15771484375
90.63720703125
105.28564453125
99.79248046875
103.45458984375
104.3701171875
108.94775390625
103.45458984375
109.86328125
114.44091796875
110.77880859375
108.94775390625
117.1875
122.6806640625
111.6943359375
117.1875
97.96142578125
100.7080078125
99.79248046875
100.7080078125
97.96142578125
75.0732421875
65.00244140625
67.7490234375
61.34033203125
34.7900390625
28.38134765625
8.23974609375
-4.57763671875
-12.8173828125
-21.97265625
-28.38134765625
-42.1142578125
-53.1005859375
-71.4111328125
-90.63720703125
-90.63720703125
-105.28564453125
-97.0458984375
-108.94775390625
-112.60986328125
-124.51171875
-108.94775390625
-124.51171875
-138.24462890625
-140.9912109375
-131.8359375
-122.6806640625
-136.41357421875
-128.173828125
-133.6669921875
-143.73779296875
-142.822265625
-140.9912109375
-140.07568359375
-144.6533203125
-152.89306640625
-149.23095703125
-138.24462890625
-142.822265625
-140.07568359375
-151.9775390625
-138.24462890625
-139.16015625
-146.484375
-146.484375
-137.3291015625
-141.90673828125
-147.39990234375
-157.470703125
-149.23095703125
-139.16015625
-130.92041015625
-133.6669921875
-143.73779296875
-140.9912109375
-137.3291015625
-135.498046875
-122.6806640625
-123.59619140625
-139.16015625
-130.92041015625
-128.173828125
-130.0048828125
-134.58251953125
-135.498046875
-128.173828125
-123.59619140625
-125.42724609375
-122.6806640625
-134.58251953125
-127.25830078125
-129.08935546875
-125.42724609375
-133.6669921875
-144.6533203125
-131.8359375
-128.173828125
-137.3291015625
-136.41357421875
-130.92041015625
-126.3427734375
-132.75146484375
-134.58251953125
-132.75146484375
-132.75146484375
-119.93408203125
-108.94775390625
-111.6943359375
-122.6806640625
-123.59619140625
-129.08935546875
-137.3291015625
-134.58251953125
-130.0048828125
-130.92041015625
-122.6806640625
-127.25830078125
-126.3427734375
-135.498046875
-137.3291015625
-139.16015625
-140.9912109375
-133.6669921875
-137.3291015625
-141.90673828125
-150.146484375
-153.80859375
-147.39990234375
-139.16015625
-131.8359375
-137.3291015625
-146.484375
-163.87939453125
-162.9638671875
-160.21728515625
-160.21728515625
-167.54150390625
-152.89306640625
-134.58251953125
-138.24462890625
-131.8359375
-138.24462890625
-143.73779296875
-147.39990234375
-163.87939453125
-159.3017578125
-165.71044921875
-163.87939453125
-157.470703125
-164.794921875
-156.55517578125
-161.1328125
-163.87939453125
-151.9775390625
-135.498046875
-127.25830078125
-137.3291015625
-144.6533203125
-143.73779296875
-148.3154296875
-148.3154296875
-155.6396484375
-160.21728515625
-161.1328125
-162.9638671875
-161.1328125
-153.80859375
-156.55517578125
-149.23095703125
-147.39990234375
-152.89306640625
-153.80859375
-154.72412109375
-148.3154296875
-140.9912109375
-140.9912109375
-120.849609375
-107.11669921875
-102.5390625
-118.10302734375
-122.6806640625
-117.1875
-107.11669921875
-98.876953125
-97.0458984375
-68.66455078125
-39.36767578125
-36.62109375
-41.19873046875
-41.19873046875
-42.1142578125
-44.86083984375
-38.4521484375
-52.18505859375
-58.59375
-58.59375
-56.7626953125
-66.83349609375
-58.59375
-61.34033203125
-57.67822265625
-87.890625
-83.31298828125
-85.14404296875
-97.0458984375
-105.28564453125
-113.525390625
-123.59619140625
-133.6669921875
-150.146484375
-157.470703125
-151.9775390625
-162.9638671875
-175.78125
-180.35888671875
-179.443359375
-170.2880859375
-174.86572265625
-176.69677734375
-180.35888671875
-183.10546875
-176.69677734375
-188.5986328125
-206.9091796875
-195.9228515625
-185.85205078125
-195.9228515625
-176.69677734375
-172.119140625
-192.2607421875
-199.5849609375
-197.75390625
-182.18994140625
-189.51416015625
-190.4296875
-197.75390625
-205.078125
-203.2470703125
-208.740234375
-212.40234375
-183.10546875
-154.72412109375
-129.08935546875
-82.3974609375
-19.22607421875
49.4384765625
119.0185546875
219.7265625
323.18115234375
378.11279296875
472.412109375
578.61328125
665.58837890625
715.9423828125
743.408203125
730.5908203125
637.20703125
488.8916015625
306.70166015625
91.552734375
-120.849609375
-284.72900390625
-341.49169921875
-385.43701171875
-397.3388671875
-404.6630859375
-398.25439453125
-344.23828125
-286.56005859375
-235.29052734375
-195.00732421875
-167.54150390625
-169.37255859375
-154.72412109375
-140.07568359375
-153.80859375
-161.1328125
-155.6396484375
-151.06201171875
-162.9638671875
-166.6259765625
-166.6259765625
-162.9638671875
-162.04833984375
-163.87939453125
-152.89306640625
-149.23095703125
-146.484375
-139.16015625
-135.498046875
-134.58251953125
-130.92041015625
-138.24462890625
-135.498046875
-142.822265625
-144.6533203125
-151.9775390625
-134.58251953125
-132.75146484375
-129.08935546875
-149.23095703125
-155.6396484375
-147.39990234375
-145.56884765625
-130.92041015625
-128.173828125
-135.498046875
-108.94775390625
-102.5390625
-108.94775390625
-102.5390625
-95.21484375
-93.3837890625
-109.86328125
-100.7080078125
-92.46826171875
-87.890625
-88.80615234375
-86.0595703125
-90.63720703125
-81.48193359375
-71.4111328125
-67.7490234375
-65.91796875
-66.83349609375
-83.31298828125
-74.15771484375
-51.26953125
-45.7763671875
-50.35400390625
-33.87451171875
-23.8037109375
-13.73291015625
-12.8173828125
-10.986328125
-21.05712890625
-15.56396484375
-16.4794921875
-5.4931640625
8.23974609375
-8.23974609375
0.91552734375
20.1416015625
19.22607421875
16.4794921875
35.70556640625
47.607421875
52.18505859375
62.255859375
71.4111328125
69.580078125
72.32666015625
74.15771484375
78.7353515625
75.0732421875
81.48193359375
101.62353515625
113.525390625
124.51171875
132.75146484375
120.849609375
129.08935546875
130.92041015625
136.41357421875
145.56884765625
148.3154296875
155.6396484375
160.21728515625
165.71044921875
161.1328125
159.3017578125
164.794921875
163.87939453125
159.3017578125
159.3017578125
153.80859375
157.470703125
160.21728515625
141.90673828125
105.28564453125
105.28564453125
106.201171875
93.3837890625
87.890625
82.3974609375
76.904296875
73.2421875
54.931640625
18.310546875
18.310546875
4.57763671875
4.57763671875
8.23974609375
-20.1416015625
-43.02978515625
-46.69189453125
-48.52294921875
-52.18505859375
-62.255859375
-75.0732421875
-73.2421875
-73.2421875
-81.48193359375
-79.65087890625
-86.0595703125
-81.48193359375
-74.15771484375
-76.904296875
-87.890625
-86.97509765625
-107.11669921875
-94.29931640625
-91.552734375
-98.876953125
-107.11669921875
-104.3701171875
-102.5390625
-103.45458984375
-104.3701171875
-104.3701171875
-108.0322265625
-114.44091796875
-106.201171875
-108.0322265625
-106.201171875
-119.93408203125
-124.51171875
-121.76513671875
-107.11669921875
-110.77880859375
-105.28564453125
-103.45458984375
-99.79248046875
-96.13037109375
-93.3837890625
-93.3837890625
-91.552734375
-98.876953125
-104.3701171875
-101.62353515625
-99.79248046875
-103.45458984375
-99.79248046875
-102.5390625
-107.11669921875
-105.28564453125
-102.5390625
-97.96142578125
-95.21484375
-100.7080078125
-96.13037109375
-84.228515625
-79.65087890625
-78.7353515625
-74.15771484375
-77.81982421875
-76.904296875
-81.48193359375
-79.65087890625
-86.97509765625
-93.3837890625
-75.0732421875
-72.32666015625
-75.0732421875
-81.48193359375
-81.48193359375
-81.48193359375
-79.65087890625
-85.14404296875
-75.0732421875
-67.7490234375
-90.63720703125
-82.3974609375
-76.904296875
-63.17138671875
-66.83349609375
-62.255859375
-78.7353515625
-76.904296875
-96.13037109375
-106.201171875
-98.876953125
-100.7080078125
-106.201171875
-107.11669921875
-96.13037109375
-84.228515625
-82.3974609375
-85.14404296875
-80.56640625
-90.63720703125
-86.0595703125
-93.3837890625
-99.79248046875
-105.28564453125
-103.45458984375
-94.29931640625
-93.3837890625
-87.890625
-95.21484375
-102.5390625
-84.228515625
-72.32666015625
-89.7216796875
-89.7216796875
-78.7353515625
-79.65087890625
-87.890625
-84.228515625
-97.96142578125
-90.63720703125
-92.46826171875
-95.21484375
-93.3837890625
-96.13037109375
-98.876953125
-100.7080078125
-99.79248046875
-109.86328125
-111.6943359375
-109.86328125
-124.51171875
-117.1875
-97.96142578125
-96.13037109375
-97.0458984375
-99.79248046875
-98.876953125
-86.0595703125
-93.3837890625
-95.21484375
-89.7216796875
-97.96142578125
-102.5390625
-109.86328125
-118.10302734375
-113.525390625
-101.62353515625
-94.29931640625
-92.46826171875
-91.552734375
-86.0595703125
-96.13037109375
-91.552734375
-82.3974609375
-99.79248046875
-105.28564453125
-96.13037109375
-92.46826171875
-86.0595703125
-89.7216796875
-74.15771484375
-62.255859375
-68.66455078125
-51.26953125
-22.88818359375
-14.6484375
-21.97265625
-24.71923828125
-21.97265625
-19.22607421875
-10.986328125
1.8310546875
32.958984375
33.87451171875
31.1279296875
17.39501953125
14.6484375
28.38134765625
38.4521484375
20.1416015625
26.55029296875
21.97265625
14.6484375
6.40869140625
6.40869140625
6.40869140625
11.90185546875
3.662109375
9.1552734375
10.07080078125
-10.07080078125
-12.8173828125
-25.634765625
-48.52294921875
-53.1005859375
-77.81982421875
-87.890625
-91.552734375
-108.94775390625
-120.849609375
-115.3564453125
-95.21484375
-97.0458984375
-108.94775390625
-104.3701171875
-99.79248046875
-108.94775390625
-100.7080078125
-91.552734375
-93.3837890625
-98.876953125
-91.552734375
-93.3837890625
-96.13037109375
-98.876953125
-110.77880859375
-107.11669921875
-106.201171875
-112.60986328125
-121.76513671875
-116.27197265625
-109.86328125
-111.6943359375
-108.94775390625
-117.1875
-119.0185546875
-129.08935546875
-131.8359375
-86.0595703125
-60.4248046875
-27.4658203125
24.71923828125
97.0458984375
160.21728515625
236.2060546875
333.251953125
420.22705078125
498.046875
588.68408203125
688.4765625
760.80322265625
824.89013671875
833.1298828125
771.78955078125
650.0244140625
488.8916015625
272.8271484375
58.59375
-125.42724609375
-240.78369140625
-293.88427734375
-330.50537109375
-357.0556640625
-351.5625
-303.955078125
-238.95263671875
-176.69677734375
-142.822265625
-127.25830078125
-123.59619140625
-98.876953125
-78.7353515625
-87.890625
-95.21484375
-108.94775390625
-108.0322265625
-106.201171875
-108.0322265625
-103.45458984375
-99.79248046875
-97.0458984375
-92.46826171875
-78.7353515625
-79.65087890625
-78.7353515625
-81.48193359375
-79.65087890625
-92.46826171875
-95.21484375
-88.80615234375
-87.890625
-89.7216796875
-96.13037109375
-80.56640625
-58.59375
-57.67822265625
-66.83349609375
-58.59375
-65.00244140625
-62.255859375
-60.4248046875
-49.4384765625
-48.52294921875
-57.67822265625
-68.66455078125
-48.52294921875
-36.62109375
-43.02978515625
-41.19873046875
-33.87451171875
-39.36767578125
-47.607421875
-33.87451171875
-10.986328125
-23.8037109375
-20.1416015625
-18.310546875
-15.56396484375
-17.39501953125
-11.90185546875
-9.1552734375
-15.56396484375
-10.986328125
0.91552734375
11.90185546875
11.90185546875
-3.662109375
3.662109375
31.1279296875
29.296875
13.73291015625
38.4521484375
45.7763671875
42.1142578125
33.87451171875
36.62109375
53.1005859375
72.32666015625
74.15771484375
69.580078125
70.49560546875
65.91796875
65.91796875
85.14404296875
104.3701171875
119.93408203125
140.07568359375
132.75146484375
129.08935546875
136.41357421875
152.89306640625
149.23095703125
155.6396484375
164.794921875
176.69677734375
192.2607421875
195.9228515625
202.33154296875
213.31787109375
210.5712890625
191.34521484375
203.2470703125
207.82470703125
218.81103515625
226.13525390625
212.40234375
208.740234375
226.13525390625
224.30419921875
226.13525390625
225.2197265625
225.2197265625
225.2197265625
228.8818359375
218.81103515625
205.99365234375
205.99365234375
191.34521484375
178.52783203125
149.23095703125
125.42724609375
134.58251953125
109.86328125
96.13037109375
78.7353515625
63.17138671875
60.4248046875
41.19873046875
42.1142578125
36.62109375
20.1416015625
9.1552734375
-5.4931640625
-7.32421875
-10.986328125
-18.310546875
-20.1416015625
-19.22607421875
-28.38134765625
-33.87451171875
-34.7900390625
-51.26953125
-52.18505859375
-43.02978515625
-53.1005859375
-63.17138671875
-66.83349609375
-65.00244140625
-73.2421875
-78.7353515625
-66.83349609375
-54.01611328125
-64.0869140625
-66.83349609375
-76.904296875
-77.81982421875
-84.228515625
-74.15771484375
-77.81982421875
-83.31298828125
-83.31298828125
-75.98876953125
-85.14404296875
-81.48193359375
-66.83349609375
-67.7490234375
-76.904296875
-77.81982421875
-82.3974609375
-76.904296875
-75.0732421875
-73.2421875
-68.66455078125
-78.7353515625
-76.904296875
-79.65087890625
-85.14404296875
-90.63720703125
-90.63720703125
-75.98876953125
-68.66455078125
-77.81982421875
-70.49560546875
-71.4111328125
-72.32666015625
-77.81982421875
-89.7216796875
-81.48193359375
-67.7490234375
-78.7353515625
-74.15771484375
-77.81982421875
-77.81982421875
-67.7490234375
-57.67822265625
-50.35400390625
-64.0869140625
-61.34033203125
-69.580078125
-66.83349609375
-72.32666015625
-67.7490234375
-72.32666015625
-78.7353515625
-83.31298828125
-68.66455078125
-58.59375
-59.50927734375
-74.15771484375
-70.49560546875
-65.00244140625
-83.31298828125
-95.21484375
-84.228515625
-89.7216796875
-84.228515625
-89.7216796875
-110.77880859375
-104.3701171875
-79.65087890625
-75.98876953125
-72.32666015625
-86.0595703125
-97.0458984375
-91.552734375
-84.228515625
-86.0595703125
-97.0458984375
-94.29931640625
-103.45458984375
-92.46826171875
-86.97509765625
-94.29931640625
-97.96142578125
-111.6943359375
-108.0322265625
-92.46826171875
-97.0458984375
-107.11669921875
-112.60986328125
-112.60986328125
-119.0185546875
-108.94775390625
-116.27197265625
-125.42724609375
-116.27197265625
-107.11669921875
-108.0322265625
-102.5390625
-101.62353515625
-99.79248046875
-108.94775390625
-110.77880859375
-101.62353515625
-102.5390625
-111.6943359375
-119.0185546875
-106.201171875
-108.0322265625
-118.10302734375
-120.849609375
-121.76513671875
-121.76513671875
-131.8359375
-122.6806640625
-103.45458984375
-112.60986328125
-119.0185546875
-119.93408203125
-115.3564453125
-105.28564453125
-100.7080078125
-116.27197265625
-118.10302734375
-106.201171875
-98.876953125
-106.201171875
-99.79248046875
-109.86328125
-127.25830078125
-133.6669921875
-130.0048828125
-119.93408203125
-117.1875
-119.93408203125
-125.42724609375
-125.42724609375
-118.10302734375
-124.51171875
-133.6669921875
-128.173828125
-138.24462890625
-126.3427734375
-130.0048828125
-119.0185546875
-116.27197265625
-118.10302734375
-97.96142578125
-99.79248046875
-117.1875
-100.7080078125
-101.62353515625
-103.45458984375
-85.14404296875
-72.32666015625
-62.255859375
-61.34033203125
-55.84716796875
-61.34033203125
-73.2421875
-69.580078125
-55.84716796875
-47.607421875
-22.88818359375
-16.4794921875
-6.40869140625
-10.986328125
-17.39501953125
-15.56396484375
-3.662109375
-6.40869140625
-15.56396484375
-32.04345703125
-29.296875
-35.70556640625
-37.53662109375
-48.52294921875
-35.70556640625
-5.4931640625
-5.4931640625
-11.90185546875
-24.71923828125
-54.01611328125
-69.580078125
-76.904296875
-80.56640625
-85.14404296875
-103.45458984375
-131.8359375
-122.6806640625
-125.42724609375
-129.08935546875
-140.9912109375
-142.822265625
-137.3291015625
-132.75146484375
-135.498046875
-136.41357421875
-139.16015625
-144.6533203125
-140.07568359375
-142.822265625
-155.6396484375
-145.56884765625
-132.75146484375
-142.822265625
-153.80859375
-151.9775390625
-166.6259765625
-167.54150390625
-162.9638671875
-168.45703125
-160.21728515625
-149.23095703125
-153.80859375
-155.6396484375
-151.06201171875
-152.89306640625
-155.6396484375
-139.16015625
-111.6943359375
-61.34033203125
-6.40869140625
56.7626953125
112.60986328125
217.8955078125
323.18115234375
409.24072265625
499.8779296875
599.67041015625
695.80078125
751.64794921875
790.10009765625
801.08642578125
719.6044921875
594.17724609375
433.04443359375
210.5712890625
-12.8173828125
-162.04833984375
-251.77001953125
-307.6171875
-355.224609375
-383.60595703125
-374.45068359375
-325.927734375
-276.4892578125
-221.5576171875
-178.52783203125
-165.71044921875
-172.119140625
-156.55517578125
-141.90673828125
-136.41357421875
-132.75146484375
-123.59619140625
-116.27197265625
-133.6669921875
-142.822265625
-144.6533203125
-144.6533203125
-149.23095703125
-131.8359375
-127.25830078125
-139.16015625
-127.25830078125
-119.93408203125
-119.0185546875
-125.42724609375
-136.41357421875
-138.24462890625
-127.25830078125
-124.51171875
-136.41357421875
-133.6669921875
-124.51171875
-113.525390625
-120.849609375
-102.5390625
-120.849609375
-118.10302734375
-115.3564453125
-117.1875
-103.45458984375
-89.7216796875
-86.0595703125
-95.21484375
-97.96142578125
-85.14404296875
-79.65087890625
-77.81982421875
-90.63720703125
-83.31298828125
-80.56640625
-93.3837890625
-86.97509765625
-68.66455078125
-85.14404296875
-82.3974609375
-85.14404296875
-77.81982421875
-80.56640625
-70.49560546875
-74.15771484375
-57.67822265625
-42.1142578125
-47.607421875
-40.283203125
-50.35400390625
-54.931640625
-30.21240234375
-24.71923828125
-32.04345703125
-28.38134765625
-21.05712890625
-8.23974609375
10.07080078125
8.23974609375
10.07080078125
22.88818359375
29.296875
33.87451171875
21.97265625
14.6484375
33.87451171875
48.52294921875
60.4248046875
67.7490234375
68.66455078125
85.14404296875
86.97509765625
85.14404296875
98.876953125
106.201171875
115.3564453125
113.525390625
119.0185546875
129.08935546875
117.1875
118.10302734375
119.0185546875
133.6669921875
132.75146484375
135.498046875
160.21728515625
169.37255859375
177.6123046875
195.9228515625
182.18994140625
175.78125
187.68310546875
187.68310546875
184.02099609375
190.4296875
177.6123046875
173.9501953125
164.794921875
155.6396484375
138.24462890625
124.51171875
114.44091796875
97.96142578125
75.98876953125
65.91796875
54.01611328125
40.283203125
19.22607421875
4.57763671875
-4.57763671875
-17.39501953125
-32.958984375
-39.36767578125
-44.86083984375
-57.67822265625
-61.34033203125
-67.7490234375
-67.7490234375
-74.15771484375
-84.228515625
-83.31298828125
-96.13037109375
-91.552734375
-113.525390625
-117.1875
-112.60986328125
-102.5390625
-111.6943359375
-112.60986328125
-126.3427734375
-135.498046875
-139.16015625
-145.56884765625
-134.58251953125
-129.08935546875
-115.3564453125
-129.08935546875
-123.59619140625
-131.8359375
-123.59619140625
-118.10302734375
-119.93408203125
-115.3564453125
-103.45458984375
-108.94775390625
-103.45458984375
-108.94775390625
-113.525390625
-105.28564453125
-116.27197265625
-120.849609375
-131.8359375
-135.498046875
-140.07568359375
-129.08935546875
-140.9912109375
-140.9912109375
-132.75146484375
-128.173828125
-121.76513671875
-125.42724609375
-109.86328125
-121.76513671875
-143.73779296875
-135.498046875
-135.498046875
-137.3291015625
-112.60986328125
-102.5390625
-99.79248046875
-106.201171875
-117.1875
-126.3427734375
-137.3291015625
-124.51171875
-113.525390625
-98.876953125
-110.77880859375
-119.0185546875
-107.11669921875
-112.60986328125
-131.8359375
-130.92041015625
-142.822265625
-131.8359375
-118.10302734375
-129.08935546875
-129.08935546875
-118.10302734375
-130.92041015625
-127.25830078125
-129.08935546875
-141.90673828125
-151.9775390625
-149.23095703125
-157.470703125
-137.3291015625
-117.1875
-116.27197265625
-122.6806640625
-127.25830078125
-119.93408203125
-116.27197265625
-130.0048828125
-137.3291015625
-144.6533203125
-132.75146484375
-130.0048828125
-122.6806640625
-114.44091796875
-118.10302734375
-123.59619140625
-140.07568359375
-132.75146484375
-137.3291015625
-143.73779296875
-149.23095703125
-140.9912109375
-137.3291015625
-138.24462890625
-138.24462890625
-150.146484375
-154.72412109375
-145.56884765625
-145.56884765625
-154.72412109375
-163.87939453125
-176.69677734375
-160.21728515625
-148.3154296875
-155.6396484375
-164.794921875
-152.89306640625
-132.75146484375
-157.470703125
-151.9775390625
-148.3154296875
-150.146484375
-144.6533203125
-156.55517578125
-162.04833984375
-169.37255859375
-153.80859375
-150.146484375
-172.119140625
-167.54150390625
-140.9912109375
-130.92041015625
-137.3291015625
-147.39990234375
-152.89306640625
-167.54150390625
-163.87939453125
-166.6259765625
-157.470703125
-160.21728515625
-152.89306640625
-162.04833984375
-159.3017578125
-169.37255859375
-174.86572265625
-156.55517578125
-148.3154296875
-151.9775390625
-136.41357421875
-117.1875
-109.86328125
-121.76513671875
-136.41357421875
-130.0048828125
-119.93408203125
-99.79248046875
-113.525390625
-123.59619140625
-119.93408203125
-104.3701171875
-83.31298828125
-57.67822265625
-50.35400390625
-42.1142578125
-43.9453125
-55.84716796875
-62.255859375
-65.91796875
-56.7626953125
-53.1005859375
-51.26953125
-46.69189453125
-65.00244140625
-72.32666015625
-82.3974609375
-75.0732421875
-58.59375
-70.49560546875
-54.931640625
-60.4248046875
-70.49560546875
-100.7080078125
-115.3564453125
-106.201171875
-119.93408203125
-155.6396484375
-154.72412109375
-154.72412109375
-165.71044921875
-169.37255859375
-171.20361328125
-187.68310546875
-175.78125
-170.2880859375
-179.443359375
-183.10546875
-187.68310546875
