ECG
-54.931640625
-50.35400390625
-54.01611328125
-47.607421875
-50.35400390625
-44.86083984375
-35.70556640625
-41.19873046875
-38.4521484375
-32.04345703125
-31.1279296875
-32.04345703125
-31.1279296875
-23.8037109375
-17.39501953125
-17.39501953125
-14.6484375
-14.6484375
-6.40869140625
-3.662109375
-0.91552734375
0
3.662109375
7.32421875
11.90185546875
13.73291015625
18.310546875
21.97265625
27.4658203125
33.87451171875
40.283203125
42.1142578125
43.9453125
51.26953125
62.255859375
66.83349609375
73.2421875
74.15771484375
84.228515625
94.29931640625
100.7080078125
104.3701171875
108.94775390625
123.59619140625
129.08935546875
140.9912109375
144.6533203125
151.06201171875
160.21728515625
170.2880859375
174.86572265625
178.52783203125
181.2744140625
188.5986328125
195.9228515625
199.5849609375
207.82470703125
207.82470703125
214.2333984375
218.81103515625
219.7265625
227.96630859375
232.5439453125
235.29052734375
242.61474609375
244.44580078125
243.5302734375
238.037109375
239.8681640625
244.44580078125
239.8681640625
233.45947265625
227.05078125
223.388671875
216.064453125
207.82470703125
196.83837890625
183.10546875
173.9501953125
161.1328125
148.3154296875
136.41357421875
119.93408203125
104.3701171875
90.63720703125
75.98876953125
65.91796875
53.1005859375
40.283203125
30.21240234375
18.310546875
7.32421875
-0.91552734375
-9.1552734375
-20.1416015625
-25.634765625
-32.04345703125
-45.7763671875
-44.86083984375
-47.607421875
-54.931640625
-60.4248046875
-70.49560546875
-68.66455078125
-64.0869140625
-65.91796875
-68.66455078125
-76.904296875
-74.15771484375
-71.4111328125
-76.904296875
-81.48193359375
-86.0595703125
-84.228515625
-75.98876953125
-81.48193359375
-84.228515625
-82.3974609375
-85.14404296875
-83.31298828125
-83.31298828125
-82.3974609375
-84.228515625
-82.3974609375
-76.904296875
-79.65087890625
-78.7353515625
-82.3974609375
-80.56640625
-77.81982421875
-75.0732421875
-81.48193359375
-78.7353515625
-77.81982421875
-75.98876953125
-75.98876953125
-76.904296875
-81.48193359375
-83.31298828125
-72.32666015625
-65.91796875
-78.7353515625
-81.48193359375
-77.81982421875
-75.0732421875
-75.0732421875
-81.48193359375
-81.48193359375
-78.7353515625
-77.81982421875
-80.56640625
-80.56640625
-77.81982421875
-78.7353515625
-76.904296875
-80.56640625
-80.56640625
-78.7353515625
-84.228515625
-77.81982421875
-80.56640625
-86.0595703125
-81.48193359375
-82.3974609375
-79.65087890625
-76.904296875
-81.48193359375
-87.890625
-86.97509765625
-85.14404296875
-85.14404296875
-87.890625
-86.97509765625
-87.890625
-88.80615234375
-86.97509765625
-88.80615234375
-92.46826171875
-90.63720703125
-87.890625
-86.97509765625
-90.63720703125
-94.29931640625
-92.46826171875
-95.21484375
-94.29931640625
-92.46826171875
-91.552734375
-95.21484375
-101.62353515625
-99.79248046875
-97.0458984375
-98.876953125
-98.876953125
-97.96142578125
-98.876953125
-97.96142578125
-98.876953125
-103.45458984375
-102.5390625
-103.45458984375
-105.28564453125
-102.5390625
-102.5390625
-101.62353515625
-108.0322265625
-103.45458984375
-108.94775390625
-109.86328125
-104.3701171875
-108.94775390625
-112.60986328125
-108.0322265625
-109.86328125
-108.0322265625
-109.86328125
-113.525390625
-109.86328125
-110.77880859375
-111.6943359375
-110.77880859375
-105.28564453125
-105.28564453125
-107.11669921875
-102.5390625
-107.11669921875
-116.27197265625
-111.6943359375
-107.11669921875
-108.94775390625
-104.3701171875
-108.0322265625
-111.6943359375
-111.6943359375
-109.86328125
-103.45458984375
-106.201171875
-109.86328125
-115.3564453125
-109.86328125
-107.11669921875
-109.86328125
-109.86328125
-111.6943359375
-111.6943359375
-107.11669921875
-110.77880859375
-115.3564453125
-112.60986328125
-112.60986328125
-115.3564453125
-113.525390625
-115.3564453125
-115.3564453125
-113.525390625
-113.525390625
-113.525390625
-113.525390625
-110.77880859375
-110.77880859375
-109.86328125
-110.77880859375
-112.60986328125
-118.10302734375
-118.10302734375
-117.1875
-117.1875
-114.44091796875
-111.6943359375
-104.3701171875
-104.3701171875
-109.86328125
-96.13037109375
-98.876953125
-91.552734375
-86.97509765625
-89.7216796875
-84.228515625
-78.7353515625
-71.4111328125
-71.4111328125
-78.7353515625
-75.98876953125
-77.81982421875
-67.7490234375
-63.17138671875
-63.17138671875
-62.255859375
-59.50927734375
-54.931640625
-54.01611328125
-51.26953125
-44.86083984375
-36.62109375
-31.1279296875
-29.296875
-27.4658203125
-29.296875
-30.21240234375
-30.21240234375
-31.1279296875
-27.4658203125
-40.283203125
-43.9453125
-50.35400390625
-44.86083984375
-43.9453125
-56.7626953125
-61.34033203125
-65.00244140625
-73.2421875
-75.0732421875
-75.98876953125
-82.3974609375
-94.29931640625
-102.5390625
-111.6943359375
-118.10302734375
-114.44091796875
-115.3564453125
-123.59619140625
-125.42724609375
-130.92041015625
-127.25830078125
-123.59619140625
-122.6806640625
-123.59619140625
-129.08935546875
-130.0048828125
-132.75146484375
-131.8359375
-135.498046875
-138.24462890625
-136.41357421875
-137.3291015625
-139.16015625
-136.41357421875
-140.07568359375
-140.9912109375
-145.56884765625
-141.90673828125
-140.9912109375
-141.90673828125
-135.498046875
-132.75146484375
-132.75146484375
-140.07568359375
-138.24462890625
-140.07568359375
-160.21728515625
-177.6123046875
-193.17626953125
-206.9091796875
-200.50048828125
-184.9365234375
-172.119140625
-149.23095703125
-120.849609375
-75.98876953125
-0.91552734375
104.3701171875
215.14892578125
338.7451171875
465.087890625
611.572265625
736.083984375
834.04541015625
909.11865234375
915.52734375
896.30126953125
852.35595703125
768.12744140625
639.95361328125
434.87548828125
276.4892578125
160.21728515625
46.69189453125
-44.86083984375
-119.93408203125
-175.78125
-216.97998046875
-249.93896484375
-247.1923828125
-224.30419921875
-186.767578125
-145.56884765625
-120.849609375
-100.7080078125
-93.3837890625
-84.228515625
-83.31298828125
-88.80615234375
-92.46826171875
-93.3837890625
-95.21484375
-94.29931640625
-97.96142578125
-94.29931640625
-102.5390625
-94.29931640625
-97.96142578125
-108.0322265625
-108.0322265625
-102.5390625
-97.96142578125
-101.62353515625
-97.0458984375
-93.3837890625
-97.96142578125
-98.876953125
-93.3837890625
-90.63720703125
-87.890625
-92.46826171875
-87.890625
-83.31298828125
-84.228515625
-86.97509765625
-86.0595703125
-77.81982421875
-78.7353515625
-77.81982421875
-80.56640625
-76.904296875
-70.49560546875
-58.59375
-66.83349609375
-67.7490234375
-60.4248046875
-59.50927734375
-62.255859375
-57.67822265625
-54.01611328125
-53.1005859375
-50.35400390625
-47.607421875
-47.607421875
-42.1142578125
-41.19873046875
-43.9453125
-37.53662109375
-37.53662109375
-35.70556640625
-32.958984375
-33.87451171875
-26.55029296875
-23.8037109375
-23.8037109375
-21.97265625
-18.310546875
-10.986328125
-14.6484375
-9.1552734375
-7.32421875
2.74658203125
3.662109375
7.32421875
13.73291015625
10.986328125
15.56396484375
23.8037109375
31.1279296875
32.04345703125
33.87451171875
43.9453125
56.7626953125
57.67822265625
58.59375
66.83349609375
75.0732421875
80.56640625
85.14404296875
85.14404296875
99.79248046875
110.77880859375
115.3564453125
127.25830078125
137.3291015625
137.3291015625
145.56884765625
154.72412109375
162.9638671875
163.87939453125
169.37255859375
172.119140625
179.443359375
184.02099609375
190.4296875
197.75390625
198.66943359375
212.40234375
216.97998046875
219.7265625
227.96630859375
227.96630859375
232.5439453125
235.29052734375
249.93896484375
248.10791015625
245.361328125
251.77001953125
249.0234375
249.93896484375
254.5166015625
247.1923828125
248.10791015625
238.95263671875
238.95263671875
226.13525390625
213.31787109375
206.9091796875
197.75390625
188.5986328125
180.35888671875
165.71044921875
144.6533203125
137.3291015625
119.0185546875
106.201171875
94.29931640625
79.65087890625
68.66455078125
54.01611328125
44.86083984375
38.4521484375
25.634765625
16.4794921875
6.40869140625
-0.91552734375
-5.4931640625
-18.310546875
-22.88818359375
-30.21240234375
-33.87451171875
-39.36767578125
-41.19873046875
-42.1142578125
-46.69189453125
-54.931640625
-50.35400390625
-50.35400390625
-59.50927734375
-65.91796875
-60.4248046875
-63.17138671875
-61.34033203125
-62.255859375
-65.00244140625
-65.00244140625
-64.0869140625
-67.7490234375
-69.580078125
-69.580078125
-70.49560546875
-68.66455078125
-65.91796875
-65.00244140625
-65.91796875
-61.34033203125
-62.255859375
-59.50927734375
-58.59375
-63.17138671875
-63.17138671875
-55.84716796875
-61.34033203125
-61.34033203125
-58.59375
-60.4248046875
-56.7626953125
-55.84716796875
-60.4248046875
-56.7626953125
-56.7626953125
-58.59375
-57.67822265625
-60.4248046875
-59.50927734375
-64.0869140625
-65.00244140625
-62.255859375
-63.17138671875
-57.67822265625
-59.50927734375
-56.7626953125
-50.35400390625
-53.1005859375
-58.59375
-56.7626953125
-58.59375
-52.18505859375
-54.01611328125
-56.7626953125
-54.931640625
-60.4248046875
-60.4248046875
-63.17138671875
-62.255859375
-64.0869140625
-58.59375
-58.59375
-63.17138671875
-63.17138671875
-58.59375
-57.67822265625
-55.84716796875
-59.50927734375
-60.4248046875
-57.67822265625
-65.00244140625
-62.255859375
-64.0869140625
-68.66455078125
-58.59375
-64.0869140625
-66.83349609375
-69.580078125
-71.4111328125
-76.904296875
-73.2421875
-68.66455078125
-65.00244140625
-65.91796875
-66.83349609375
-69.580078125
-68.66455078125
-70.49560546875
-74.15771484375
-76.904296875
-78.7353515625
-75.98876953125
-71.4111328125
-74.15771484375
-75.98876953125
-74.15771484375
-75.0732421875
-72.32666015625
-69.580078125
-80.56640625
-72.32666015625
-69.580078125
-79.65087890625
-80.56640625
-81.48193359375
-78.7353515625
-74.15771484375
-74.15771484375
-74.15771484375
-75.0732421875
-74.15771484375
-75.98876953125
-81.48193359375
-82.3974609375
-83.31298828125
-84.228515625
-82.3974609375
-84.228515625
-81.48193359375
-83.31298828125
-77.81982421875
-75.0732421875
-74.15771484375
-74.15771484375
-80.56640625
-79.65087890625
-75.98876953125
-78.7353515625
-79.65087890625
-77.81982421875
-77.81982421875
-78.7353515625
-75.98876953125
-79.65087890625
-83.31298828125
-80.56640625
-75.98876953125
-79.65087890625
-82.3974609375
-74.15771484375
-70.49560546875
-73.2421875
-66.83349609375
-61.34033203125
-61.34033203125
-57.67822265625
-46.69189453125
-45.7763671875
-42.1142578125
-50.35400390625
-42.1142578125
-42.1142578125
-51.26953125
-46.69189453125
-27.4658203125
-28.38134765625
-30.21240234375
-25.634765625
-22.88818359375
-15.56396484375
-10.07080078125
-5.4931640625
-4.57763671875
0
-0.91552734375
7.32421875
8.23974609375
4.57763671875
7.32421875
8.23974609375
2.74658203125
0.91552734375
-5.4931640625
-9.1552734375
-18.310546875
-24.71923828125
-23.8037109375
-31.1279296875
-32.04345703125
-33.87451171875
-33.87451171875
-49.4384765625
-65.00244140625
-72.32666015625
-75.98876953125
-84.228515625
-86.0595703125
-82.3974609375
-84.228515625
-88.80615234375
-86.0595703125
-87.890625
-84.228515625
-86.97509765625
-91.552734375
-91.552734375
-94.29931640625
-100.7080078125
-99.79248046875
-102.5390625
-95.21484375
-97.0458984375
-95.21484375
-94.29931640625
-100.7080078125
-95.21484375
-98.876953125
-99.79248046875
-99.79248046875
-103.45458984375
-97.96142578125
-97.0458984375
-92.46826171875
-96.13037109375
-98.876953125
-105.28564453125
-100.7080078125
-111.6943359375
-133.6669921875
-152.89306640625
-162.9638671875
-155.6396484375
-145.56884765625
-129.08935546875
-104.3701171875
-81.48193359375
-27.4658203125
38.4521484375
134.58251953125
245.361328125
353.3935546875
480.65185546875
618.896484375
738.83056640625
812.07275390625
877.0751953125
867.919921875
834.9609375
782.77587890625
693.05419921875
557.55615234375
374.45068359375
237.12158203125
150.146484375
63.17138671875
-18.310546875
-81.48193359375
-134.58251953125
-173.03466796875
-201.416015625
-205.078125
-195.00732421875
-181.2744140625
-172.119140625
-154.72412109375
-132.75146484375
-110.77880859375
-86.0595703125
-75.0732421875
-71.4111328125
-68.66455078125
-62.255859375
-68.66455078125
-71.4111328125
-67.7490234375
-68.66455078125
-70.49560546875
-67.7490234375
-68.66455078125
-70.49560546875
-63.17138671875
-63.17138671875
-66.83349609375
-66.83349609375
-64.0869140625
-60.4248046875
-60.4248046875
-64.0869140625
-65.00244140625
-60.4248046875
-60.4248046875
-56.7626953125
-58.59375
-56.7626953125
-51.26953125
-51.26953125
-55.84716796875
-43.9453125
-43.9453125
-45.7763671875
-42.1142578125
-42.1142578125
-38.4521484375
-38.4521484375
-40.283203125
-38.4521484375
-35.70556640625
-32.958984375
-31.1279296875
-26.55029296875
-17.39501953125
-19.22607421875
-21.97265625
-20.1416015625
-15.56396484375
-15.56396484375
-13.73291015625
-4.57763671875
-5.4931640625
-6.40869140625
4.57763671875
3.662109375
2.74658203125
2.74658203125
6.40869140625
10.986328125
16.4794921875
18.310546875
21.97265625
25.634765625
28.38134765625
31.1279296875
34.7900390625
32.04345703125
39.36767578125
44.86083984375
53.1005859375
55.84716796875
57.67822265625
54.01611328125
58.59375
61.34033203125
72.32666015625
79.65087890625
86.0595703125
92.46826171875
96.13037109375
104.3701171875
106.201171875
110.77880859375
113.525390625
120.849609375
130.0048828125
140.07568359375
142.822265625
151.9775390625
159.3017578125
167.54150390625
170.2880859375
173.03466796875
184.02099609375
186.767578125
191.34521484375
195.9228515625
203.2470703125
211.48681640625
216.97998046875
219.7265625
227.05078125
233.45947265625
239.8681640625
243.5302734375
245.361328125
250.8544921875
251.77001953125
258.1787109375
260.009765625
258.1787109375
260.009765625
263.671875
262.75634765625
265.5029296875
254.5166015625
245.361328125
238.95263671875
236.2060546875
225.2197265625
216.97998046875
203.2470703125
192.2607421875
183.10546875
170.2880859375
160.21728515625
142.822265625
135.498046875
124.51171875
113.525390625
101.62353515625
87.890625
71.4111328125
64.0869140625
53.1005859375
45.7763671875
40.283203125
30.21240234375
18.310546875
14.6484375
5.4931640625
-2.74658203125
-10.986328125
-10.07080078125
-10.07080078125
-15.56396484375
-27.4658203125
-32.958984375
-31.1279296875
-32.04345703125
-38.4521484375
-41.19873046875
-41.19873046875
-38.4521484375
-37.53662109375
-35.70556640625
-43.9453125
-45.7763671875
-42.1142578125
-44.86083984375
-45.7763671875
-46.69189453125
-51.26953125
-45.7763671875
-37.53662109375
-41.19873046875
-44.86083984375
-46.69189453125
-43.9453125
-44.86083984375
-44.86083984375
-52.18505859375
-45.7763671875
-48.52294921875
-46.69189453125
-37.53662109375
-38.4521484375
-39.36767578125
-42.1142578125
-37.53662109375
-43.9453125
-43.02978515625
-36.62109375
-32.04345703125
-38.4521484375
-35.70556640625
-32.958984375
-43.02978515625
-43.02978515625
-43.9453125
-45.7763671875
-43.02978515625
-40.283203125
-40.283203125
-40.283203125
-41.19873046875
-44.86083984375
-42.1142578125
-42.1142578125
-43.9453125
-43.02978515625
-51.26953125
-47.607421875
-42.1142578125
-46.69189453125
-46.69189453125
-49.4384765625
-47.607421875
-49.4384765625
-54.01611328125
-54.01611328125
-48.52294921875
-47.607421875
-54.01611328125
-57.67822265625
-53.1005859375
-55.84716796875
-60.4248046875
-56.7626953125
-54.931640625
-60.4248046875
-64.0869140625
-61.34033203125
-67.7490234375
-62.255859375
-59.50927734375
-65.00244140625
-73.2421875
-64.0869140625
-71.4111328125
-63.17138671875
-78.7353515625
-79.65087890625
-72.32666015625
-68.66455078125
-68.66455078125
-71.4111328125
-68.66455078125
-71.4111328125
-74.15771484375
-73.2421875
-79.65087890625
-74.15771484375
-70.49560546875
-68.66455078125
-77.81982421875
-74.15771484375
-75.0732421875
-74.15771484375
-79.65087890625
-78.7353515625
-83.31298828125
-86.0595703125
-81.48193359375
-76.904296875
-81.48193359375
-86.0595703125
-79.65087890625
-82.3974609375
-80.56640625
-83.31298828125
-87.890625
-82.3974609375
-82.3974609375
-84.228515625
-83.31298828125
-86.97509765625
-87.890625
-88.80615234375
-82.3974609375
-84.228515625
-86.0595703125
-88.80615234375
-90.63720703125
-91.552734375
-87.890625
-93.3837890625
-95.21484375
-83.31298828125
-84.228515625
-91.552734375
-93.3837890625
-93.3837890625
-92.46826171875
-90.63720703125
-86.97509765625
-86.97509765625
-89.7216796875
-91.552734375
-85.14404296875
-90.63720703125
-96.13037109375
-92.46826171875
-90.63720703125
-88.80615234375
-89.7216796875
-89.7216796875
-93.3837890625
-86.97509765625
-74.15771484375
-77.81982421875
-77.81982421875
-66.83349609375
-58.59375
-53.1005859375
-53.1005859375
-59.50927734375
-62.255859375
-54.931640625
-56.7626953125
-53.1005859375
-50.35400390625
-48.52294921875
-42.1142578125
-41.19873046875
-43.02978515625
-49.4384765625
-41.19873046875
-25.634765625
-25.634765625
-21.97265625
-17.39501953125
-16.4794921875
-13.73291015625
-10.07080078125
-10.07080078125
-15.56396484375
-14.6484375
-17.39501953125
-21.05712890625
-24.71923828125
-27.4658203125
-34.7900390625
-45.7763671875
-46.69189453125
-55.84716796875
-65.91796875
-63.17138671875
-62.255859375
-71.4111328125
-86.0595703125
-89.7216796875
-95.21484375
-102.5390625
-99.79248046875
-101.62353515625
-111.6943359375
-113.525390625
-118.10302734375
-119.93408203125
-119.0185546875
-125.42724609375
-118.10302734375
-119.0185546875
-126.3427734375
-124.51171875
-123.59619140625
-127.25830078125
-127.25830078125
-125.42724609375
-127.25830078125
-127.25830078125
-133.6669921875
-128.173828125
-129.08935546875
-130.92041015625
-125.42724609375
-133.6669921875
-132.75146484375
-130.92041015625
-135.498046875
-130.0048828125
-134.58251953125
-140.9912109375
-149.23095703125
-155.6396484375
-175.78125
-194.091796875
-202.33154296875
-192.2607421875
-175.78125
-161.1328125
-138.24462890625
-107.11669921875
-55.84716796875
20.1416015625
134.58251953125
247.1923828125
361.63330078125
494.384765625
648.193359375
765.380859375
857.84912109375
923.76708984375
928.3447265625
902.7099609375
845.03173828125
758.056640625
618.896484375
412.90283203125
270.08056640625
157.470703125
48.52294921875
-49.4384765625
-135.498046875
-190.4296875
-226.13525390625
-252.685546875
-250.8544921875
-227.96630859375
-199.5849609375
-163.87939453125
-141.90673828125
-112.60986328125
-96.13037109375
-92.46826171875
-93.3837890625
-97.0458984375
-113.525390625
-110.77880859375
-100.7080078125
-108.94775390625
-111.6943359375
-112.60986328125
-103.45458984375
-108.0322265625
-112.60986328125
-114.44091796875
-109.86328125
-101.62353515625
-104.3701171875
-105.28564453125
-105.28564453125
-100.7080078125
-98.876953125
-99.79248046875
-100.7080078125
-96.13037109375
-96.13037109375
-96.13037109375
-96.13037109375
-92.46826171875
-93.3837890625
-95.21484375
-89.7216796875
-84.228515625
-89.7216796875
-86.97509765625
-78.7353515625
-76.904296875
-79.65087890625
-80.56640625
-81.48193359375
-76.904296875
-75.98876953125
-75.0732421875
-72.32666015625
-73.2421875
-65.91796875
-62.255859375
-57.67822265625
-59.50927734375
-64.0869140625
-54.931640625
-49.4384765625
-50.35400390625
-51.26953125
-48.52294921875
-47.607421875
-48.52294921875
-38.4521484375
-40.283203125
-39.36767578125
-30.21240234375
-24.71923828125
-23.8037109375
-26.55029296875
-24.71923828125
-18.310546875
-10.07080078125
-8.23974609375
-6.40869140625
-0.91552734375
0.91552734375
4.57763671875
14.6484375
9.1552734375
17.39501953125
20.1416015625
30.21240234375
33.87451171875
39.36767578125
38.4521484375
43.02978515625
55.84716796875
68.66455078125
69.580078125
76.904296875
82.3974609375
87.890625
97.0458984375
103.45458984375
107.11669921875
114.44091796875
121.76513671875
129.08935546875
140.07568359375
142.822265625
151.06201171875
157.470703125
157.470703125
162.04833984375
171.20361328125
179.443359375
187.68310546875
188.5986328125
189.51416015625
193.17626953125
201.416015625
208.740234375
214.2333984375
215.14892578125
215.14892578125
216.064453125
221.5576171875
229.79736328125
233.45947265625
229.79736328125
226.13525390625
227.96630859375
224.30419921875
213.31787109375
205.078125
204.16259765625
197.75390625
190.4296875
176.69677734375
162.9638671875
149.23095703125
140.9912109375
133.6669921875
115.3564453125
101.62353515625
88.80615234375
74.15771484375
63.17138671875
48.52294921875
34.7900390625
25.634765625
17.39501953125
6.40869140625
-5.4931640625
-21.97265625
-34.7900390625
-34.7900390625
-41.19873046875
-48.52294921875
-54.01611328125
-53.1005859375
-62.255859375
-70.49560546875
-73.2421875
-79.65087890625
-85.14404296875
-76.904296875
-76.904296875
-77.81982421875
-88.80615234375
-87.890625
-88.80615234375
-84.228515625
-88.80615234375
-88.80615234375
-87.890625
-89.7216796875
-90.63720703125
-93.3837890625
-90.63720703125
-93.3837890625
-88.80615234375
-86.0595703125
-89.7216796875
-89.7216796875
-88.80615234375
-85.14404296875
-86.97509765625
-91.552734375
-87.890625
-86.97509765625
-82.3974609375
-82.3974609375
-84.228515625
-87.890625
-86.97509765625
-87.890625
-86.0595703125
-83.31298828125
-86.97509765625
-86.0595703125
-84.228515625
-84.228515625
-83.31298828125
-86.97509765625
-86.0595703125
-77.81982421875
-81.48193359375
-87.890625
-89.7216796875
-85.14404296875
-82.3974609375
-83.31298828125
-83.31298828125
-83.31298828125
-86.97509765625
-88.80615234375
-82.3974609375
-87.890625
-89.7216796875
-89.7216796875
-84.228515625
-89.7216796875
-95.21484375
-92.46826171875
-94.29931640625
-92.46826171875
-99.79248046875
-99.79248046875
-97.96142578125
-94.29931640625
-92.46826171875
-96.13037109375
-92.46826171875
-95.21484375
-97.0458984375
-92.46826171875
-103.45458984375
-100.7080078125
-100.7080078125
-96.13037109375
-100.7080078125
-105.28564453125
-105.28564453125
-105.28564453125
-104.3701171875
-104.3701171875
-108.94775390625
-111.6943359375
-108.94775390625
-111.6943359375
-105.28564453125
-104.3701171875
-112.60986328125
-115.3564453125
-114.44091796875
-114.44091796875
-113.525390625
-118.10302734375
-119.93408203125
-119.93408203125
-114.44091796875
-114.44091796875
-117.1875
-117.1875
-119.0185546875
-116.27197265625
-115.3564453125
-117.1875
-119.0185546875
-119.0185546875
-122.6806640625
-117.1875
-119.0185546875
-119.93408203125
-122.6806640625
-116.27197265625
-112.60986328125
-111.6943359375
-118.10302734375
-123.59619140625
-121.76513671875
-117.1875
-120.849609375
-122.6806640625
-123.59619140625
-117.1875
-113.525390625
-119.93408203125
-122.6806640625
-125.42724609375
-125.42724609375
-119.0185546875
-119.0185546875
-124.51171875
-120.849609375
-119.0185546875
-121.76513671875
-124.51171875
-123.59619140625
-124.51171875
-121.76513671875
-123.59619140625
-121.76513671875
-128.173828125
-127.25830078125
-120.849609375
-122.6806640625
-125.42724609375
-128.173828125
-125.42724609375
-122.6806640625
-122.6806640625
-123.59619140625
-121.76513671875
-124.51171875
-128.173828125
-121.76513671875
-119.93408203125
-127.25830078125
-131.8359375
-125.42724609375
-123.59619140625
-123.59619140625
-127.25830078125
-127.25830078125
-118.10302734375
-120.849609375
-122.6806640625
-124.51171875
-125.42724609375
-123.59619140625
-122.6806640625
-120.849609375
-125.42724609375
-122.6806640625
-121.76513671875
-120.849609375
-124.51171875
-122.6806640625
-115.3564453125
-107.11669921875
-106.201171875
-102.5390625
-101.62353515625
-89.7216796875
-89.7216796875
-88.80615234375
-80.56640625
-86.0595703125
-88.80615234375
-86.97509765625
-86.0595703125
-76.904296875
-71.4111328125
-70.49560546875
-69.580078125
-72.32666015625
-69.580078125
-61.34033203125
-57.67822265625
-53.1005859375
-48.52294921875
-40.283203125
-47.607421875
-40.283203125
-27.4658203125
-21.97265625
-35.70556640625
-44.86083984375
-44.86083984375
-48.52294921875
-58.59375
-57.67822265625
-61.34033203125
-66.83349609375
-67.7490234375
-77.81982421875
-82.3974609375
-84.228515625
-86.97509765625
-91.552734375
-98.876953125
-111.6943359375
-121.76513671875
-128.173828125
-125.42724609375
-131.8359375
-138.24462890625
-136.41357421875
-137.3291015625
-134.58251953125
-138.24462890625
-138.24462890625
-146.484375
-147.39990234375
-145.56884765625
-144.6533203125
-148.3154296875
-148.3154296875
-148.3154296875
-149.23095703125
-148.3154296875
-148.3154296875
-149.23095703125
-146.484375
-142.822265625
-146.484375
-150.146484375
-151.9775390625
-151.06201171875
-151.9775390625
-153.80859375
-156.55517578125
-151.9775390625
-154.72412109375
-159.3017578125
-178.52783203125
-193.17626953125
-213.31787109375
-219.7265625
-212.40234375
-196.83837890625
-177.6123046875
-157.470703125
-130.0048828125
-78.7353515625
-1.8310546875
108.0322265625
226.13525390625
346.98486328125
481.5673828125
635.3759765625
763.5498046875
869.7509765625
936.58447265625
946.6552734375
921.0205078125
867.00439453125
776.3671875
631.7138671875
427.55126953125
269.1650390625
153.80859375
40.283203125
-58.59375
-135.498046875
-194.091796875
-238.037109375
-269.1650390625
-260.009765625
-227.96630859375
-194.091796875
-158.38623046875
-133.6669921875
-109.86328125
-100.7080078125
-101.62353515625
-107.11669921875
-115.3564453125
-117.1875
-113.525390625
-109.86328125
-119.0185546875
-130.0048828125
-125.42724609375
-119.0185546875
-116.27197265625
-119.93408203125
-119.0185546875
-116.27197265625
-120.849609375
-113.525390625
-110.77880859375
-113.525390625
-113.525390625
-118.10302734375
-110.77880859375
-108.94775390625
-107.11669921875
-107.11669921875
-109.86328125
-106.201171875
-106.201171875
-105.28564453125
-102.5390625
-102.5390625
-100.7080078125
-97.0458984375
-97.96142578125
-99.79248046875
-93.3837890625
-90.63720703125
-88.80615234375
-85.14404296875
-84.228515625
-85.14404296875
-82.3974609375
-75.0732421875
-78.7353515625
-81.48193359375
-79.65087890625
-75.98876953125
-65.91796875
-59.50927734375
-59.50927734375
-57.67822265625
-56.7626953125
-63.17138671875
-59.50927734375
-52.18505859375
-50.35400390625
-49.4384765625
-42.1142578125
-41.19873046875
-42.1142578125
-35.70556640625
-28.38134765625
-32.04345703125
-31.1279296875
-25.634765625
-28.38134765625
-16.4794921875
-13.73291015625
-11.90185546875
-5.4931640625
2.74658203125
6.40869140625
9.1552734375
12.8173828125
16.4794921875
21.97265625
32.04345703125
35.70556640625
36.62109375
43.9453125
49.4384765625
54.931640625
62.255859375
68.66455078125
73.2421875
83.31298828125
86.97509765625
91.552734375
101.62353515625
109.86328125
124.51171875
127.25830078125
126.3427734375
140.9912109375
151.06201171875
156.55517578125
162.9638671875
173.03466796875
172.119140625
176.69677734375
180.35888671875
186.767578125
189.51416015625
195.00732421875
203.2470703125
209.65576171875
217.8955078125
218.81103515625
227.05078125
226.13525390625
229.79736328125
236.2060546875
238.95263671875
238.037109375
237.12158203125
238.037109375
238.037109375
228.8818359375
225.2197265625
223.388671875
215.14892578125
200.50048828125
191.34521484375
180.35888671875
165.71044921875
155.6396484375
139.16015625
129.08935546875
117.1875
100.7080078125
85.14404296875
75.0732421875
61.34033203125
45.7763671875
30.21240234375
24.71923828125
18.310546875
0
-12.8173828125
-16.4794921875
-23.8037109375
-35.70556640625
-37.53662109375
-41.19873046875
-49.4384765625
-56.7626953125
-63.17138671875
-61.34033203125
-65.00244140625
-73.2421875
-74.15771484375
-73.2421875
-73.2421875
-79.65087890625
-81.48193359375
-83.31298828125
-81.48193359375
-81.48193359375
-86.97509765625
-90.63720703125
-89.7216796875
-84.228515625
-85.14404296875
-86.97509765625
-86.0595703125
-86.0595703125
-83.31298828125
-84.228515625
-84.228515625
-89.7216796875
-83.31298828125
-74.15771484375
-79.65087890625
-79.65087890625
-79.65087890625
-72.32666015625
-77.81982421875
-79.65087890625
-74.15771484375
-75.98876953125
-73.2421875
-76.904296875
-80.56640625
-83.31298828125
-78.7353515625
-76.904296875
-81.48193359375
-81.48193359375
-79.65087890625
-78.7353515625
-79.65087890625
-77.81982421875
-80.56640625
-75.98876953125
-81.48193359375
-78.7353515625
-75.98876953125
-78.7353515625
-81.48193359375
-81.48193359375
-83.31298828125
-79.65087890625
-78.7353515625
-81.48193359375
-82.3974609375
-79.65087890625
-77.81982421875
-78.7353515625
-82.3974609375
-84.228515625
-80.56640625
-77.81982421875
-79.65087890625
-82.3974609375
-85.14404296875
-82.3974609375
-82.3974609375
-84.228515625
-83.31298828125
-85.14404296875
-86.97509765625
-84.228515625
-84.228515625
-89.7216796875
-95.21484375
-88.80615234375
-87.890625
-93.3837890625
-97.0458984375
-97.96142578125
-97.0458984375
-94.29931640625
-96.13037109375
-94.29931640625
-93.3837890625
-97.96142578125
-90.63720703125
-96.13037109375
-100.7080078125
-98.876953125
-97.96142578125
-101.62353515625
-98.876953125
-102.5390625
-100.7080078125
-101.62353515625
-100.7080078125
-101.62353515625
-103.45458984375
-103.45458984375
-99.79248046875
-98.876953125
-104.3701171875
-105.28564453125
-106.201171875
-102.5390625
-108.94775390625
-108.94775390625
-102.5390625
-103.45458984375
-103.45458984375
-103.45458984375
-108.0322265625
-109.86328125
-106.201171875
-110.77880859375
-108.94775390625
-107.11669921875
-110.77880859375
-112.60986328125
-114.44091796875
-106.201171875
-106.201171875
-109.86328125
-107.11669921875
-98.876953125
-102.5390625
-106.201171875
-106.201171875
-106.201171875
-107.11669921875
-109.86328125
-107.11669921875
-112.60986328125
-107.11669921875
-105.28564453125
-108.94775390625
-112.60986328125
-112.60986328125
-107.11669921875
-110.77880859375
-110.77880859375
-108.94775390625
-114.44091796875
-107.11669921875
-105.28564453125
-98.876953125
-107.11669921875
-110.77880859375
-108.0322265625
-108.94775390625
-109.86328125
-105.28564453125
-106.201171875
-108.94775390625
-103.45458984375
-101.62353515625
-103.45458984375
-108.94775390625
-108.0322265625
-103.45458984375
-106.201171875
-105.28564453125
-107.11669921875
-111.6943359375
-108.0322265625
-108.0322265625
-108.94775390625
-109.86328125
-111.6943359375
-112.60986328125
-107.11669921875
-107.11669921875
-110.77880859375
-107.11669921875
-104.3701171875
-102.5390625
-108.0322265625
-110.77880859375
-110.77880859375
-102.5390625
-97.96142578125
-93.3837890625
-97.0458984375
-91.552734375
-87.890625
-75.0732421875
-66.83349609375
-69.580078125
-67.7490234375
-67.7490234375
-69.580078125
-65.00244140625
-67.7490234375
-67.7490234375
-53.1005859375
-48.52294921875
-54.01611328125
-57.67822265625
-54.01611328125
-44.86083984375
-38.4521484375
-30.21240234375
-30.21240234375
-29.296875
-29.296875
-21.97265625
-19.22607421875
-21.05712890625
-23.8037109375
-28.38134765625
-27.4658203125
-39.36767578125
-41.19873046875
-38.4521484375
-46.69189453125
-55.84716796875
-59.50927734375
-62.255859375
-65.91796875
-64.0869140625
-70.49560546875
-83.31298828125
-96.13037109375
-100.7080078125
-106.201171875
-108.0322265625
-108.94775390625
-114.44091796875
-115.3564453125
-119.93408203125
-122.6806640625
-116.27197265625
-119.0185546875
-122.6806640625
-129.08935546875
-129.08935546875
-127.25830078125
-125.42724609375
-126.3427734375
-127.25830078125
-127.25830078125
-125.42724609375
-132.75146484375
-125.42724609375
-122.6806640625
-122.6806640625
-126.3427734375
-123.59619140625
-130.0048828125
-129.08935546875
-130.0048828125
-134.58251953125
-137.3291015625
-133.6669921875
-131.8359375
-138.24462890625
-147.39990234375
-156.55517578125
-172.119140625
-186.767578125
-195.00732421875
-184.02099609375
-165.71044921875
-151.9775390625
-127.25830078125
-95.21484375
-43.02978515625
36.62109375
142.822265625
260.92529296875
378.11279296875
507.2021484375
650.0244140625
760.80322265625
860.595703125
921.93603515625
922.8515625
900.87890625
834.9609375
756.2255859375
601.50146484375
390.93017578125
241.69921875
141.90673828125
41.19873046875
-61.34033203125
-140.07568359375
-183.10546875
-221.5576171875
-250.8544921875
-238.95263671875
-211.48681640625
-186.767578125
-150.146484375
-123.59619140625
-93.3837890625
-83.31298828125
-78.7353515625
-84.228515625
-85.14404296875
-89.7216796875
-90.63720703125
-92.46826171875
-97.0458984375
-96.13037109375
-92.46826171875
-96.13037109375
-97.0458984375
-97.0458984375
-97.96142578125
-96.13037109375
-92.46826171875
-89.7216796875
-91.552734375
-92.46826171875
-82.3974609375
-86.0595703125
-86.97509765625
-88.80615234375
-81.48193359375
-82.3974609375
-82.3974609375
-87.890625
-80.56640625
-75.0732421875
-70.49560546875
-71.4111328125
-73.2421875
-73.2421875
-71.4111328125
-65.00244140625
-62.255859375
-65.91796875
-65.91796875
-56.7626953125
-61.34033203125
-59.50927734375
-51.26953125
-53.1005859375
-54.01611328125
-54.01611328125
-48.52294921875
-49.4384765625
-46.69189453125
-43.02978515625
-42.1142578125
-31.1279296875
-27.4658203125
-31.1279296875
-32.958984375
-24.71923828125
-27.4658203125
-27.4658203125
-21.97265625
-15.56396484375
-5.4931640625
-7.32421875
-3.662109375
2.74658203125
-2.74658203125
4.57763671875
1.8310546875
10.986328125
15.56396484375
21.05712890625
25.634765625
30.21240234375
32.04345703125
37.53662109375
39.36767578125
38.4521484375
48.52294921875
54.01611328125
54.931640625
65.91796875
76.904296875
80.56640625
81.48193359375
87.890625
100.7080078125
104.3701171875
105.28564453125
109.86328125
117.1875
130.0048828125
138.24462890625
144.6533203125
150.146484375
158.38623046875
165.71044921875
169.37255859375
181.2744140625
184.02099609375
190.4296875
196.83837890625
201.416015625
211.48681640625
216.064453125
224.30419921875
228.8818359375
234.375
238.95263671875
234.375
240.78369140625
251.77001953125
250.8544921875
254.5166015625
254.5166015625
259.09423828125
259.09423828125
257.26318359375
260.009765625
258.1787109375
255.43212890625
253.60107421875
244.44580078125
233.45947265625
225.2197265625
216.97998046875
210.5712890625
196.83837890625
179.443359375
165.71044921875
151.06201171875
139.16015625
129.08935546875
117.1875
105.28564453125
89.7216796875
73.2421875
62.255859375
54.01611328125
37.53662109375
32.958984375
24.71923828125
14.6484375
8.23974609375
0.91552734375
-10.07080078125
-21.05712890625
-23.8037109375
-30.21240234375
-37.53662109375
-26.55029296875
-34.7900390625
-40.283203125
-42.1142578125
-47.607421875
-50.35400390625
-48.52294921875
-52.18505859375
-54.01611328125
-49.4384765625
-53.1005859375
-57.67822265625
-54.931640625
-50.35400390625
-54.931640625
-59.50927734375
-61.34033203125
-58.59375
-59.50927734375
-58.59375
-58.59375
-55.84716796875
-58.59375
-51.26953125
-50.35400390625
-60.4248046875
-55.84716796875
-55.84716796875
-53.1005859375
-53.1005859375
-52.18505859375
-53.1005859375
-54.931640625
-51.26953125
-54.931640625
-55.84716796875
-56.7626953125
-53.1005859375
-47.607421875
-52.18505859375
-52.18505859375
-49.4384765625
-47.607421875
-52.18505859375
-53.1005859375
-48.52294921875
-51.26953125
-52.18505859375
-45.7763671875
-50.35400390625
-50.35400390625
-46.69189453125
-46.69189453125
-45.7763671875
-42.1142578125
-55.84716796875
-52.18505859375
-50.35400390625
-50.35400390625
-48.52294921875
-50.35400390625
-47.607421875
-53.1005859375
-48.52294921875
-50.35400390625
-55.84716796875
-52.18505859375
-53.1005859375
-47.607421875
-54.01611328125
-60.4248046875
-60.4248046875
-59.50927734375
-57.67822265625
-58.59375
-59.50927734375
-61.34033203125
-58.59375
-62.255859375
-60.4248046875
-60.4248046875
-61.34033203125
-64.0869140625
-65.91796875
-56.7626953125
-61.34033203125
-67.7490234375
-63.17138671875
-64.0869140625
-69.580078125
-66.83349609375
-67.7490234375
-70.49560546875
-62.255859375
-62.255859375
-65.91796875
-64.0869140625
-63.17138671875
-63.17138671875
-65.91796875
-73.2421875
-64.0869140625
-64.0869140625
-66.83349609375
-71.4111328125
-76.904296875
-71.4111328125
-69.580078125
-65.00244140625
-71.4111328125
-65.00244140625
-69.580078125
-69.580078125
-72.32666015625
-68.66455078125
-65.00244140625
-70.49560546875
-69.580078125
-69.580078125
-65.00244140625
-67.7490234375
-71.4111328125
-67.7490234375
-65.00244140625
-69.580078125
-69.580078125
-66.83349609375
-67.7490234375
-67.7490234375
-69.580078125
-75.0732421875
-74.15771484375
-70.49560546875
-65.00244140625
-67.7490234375
-67.7490234375
-62.255859375
-70.49560546875
-64.0869140625
-66.83349609375
-70.49560546875
-71.4111328125
-70.49560546875
-65.91796875
-66.83349609375
-74.15771484375
-74.15771484375
-65.91796875
-64.0869140625
-67.7490234375
-71.4111328125
-65.00244140625
-62.255859375
-66.83349609375
-66.83349609375
-63.17138671875
-62.255859375
-60.4248046875
-58.59375
-46.69189453125
-43.9453125
-41.19873046875
-32.958984375
-29.296875
-38.4521484375
-40.283203125
-41.19873046875
-42.1142578125
-33.87451171875
-24.71923828125
-25.634765625
-21.97265625
-17.39501953125
-13.73291015625
-15.56396484375
4.57763671875
11.90185546875
12.8173828125
13.73291015625
8.23974609375
6.40869140625
11.90185546875
24.71923828125
23.8037109375
26.55029296875
19.22607421875
10.986328125
1.8310546875
-2.74658203125
-3.662109375
-9.1552734375
-16.4794921875
-19.22607421875
-21.97265625
-29.296875
-25.634765625
-26.55029296875
-34.7900390625
-43.9453125
-60.4248046875
-67.7490234375
-70.49560546875
-74.15771484375
-80.56640625
-77.81982421875
-83.31298828125
-84.228515625
-89.7216796875
-83.31298828125
-76.904296875
-81.48193359375
-86.0595703125
-84.228515625
-87.890625
-85.14404296875
-82.3974609375
-86.97509765625
-85.14404296875
-87.890625
-89.7216796875
-89.7216796875
-85.14404296875
-86.97509765625
-89.7216796875
-86.0595703125
-86.0595703125
-86.0595703125
-86.97509765625
-88.80615234375
-95.21484375
-97.96142578125
-97.0458984375
-99.79248046875
-109.86328125
-135.498046875
-156.55517578125
-157.470703125
-151.9775390625
-140.9912109375
-126.3427734375
-99.79248046875
-66.83349609375
-10.986328125
75.0732421875
180.35888671875
288.39111328125
404.6630859375
532.8369140625
675.6591796875
777.28271484375
846.86279296875
884.3994140625
866.0888671875
836.7919921875
769.95849609375
658.26416015625
502.62451171875
326.84326171875
216.97998046875
132.75146484375
40.283203125
-40.283203125
-92.46826171875
-134.58251953125
-173.03466796875
-190.4296875
-189.51416015625
-187.68310546875
-173.9501953125
-151.9775390625
-130.0048828125
-110.77880859375
-94.29931640625
-75.98876953125
-61.34033203125
-61.34033203125
-58.59375
-64.0869140625
-61.34033203125
-63.17138671875
-62.255859375
-60.4248046875
-62.255859375
-55.84716796875
-57.67822265625
-58.59375
-58.59375
-56.7626953125
-53.1005859375
-55.84716796875
-51.26953125
-51.26953125
-51.26953125
-49.4384765625
-46.69189453125
-48.52294921875
-43.9453125
-41.19873046875
-48.52294921875
-47.607421875
-43.9453125
-47.607421875
-43.9453125
-36.62109375
-32.04345703125
-35.70556640625
-37.53662109375
-32.958984375
-26.55029296875
-25.634765625
-23.8037109375
-20.1416015625
-23.8037109375
-26.55029296875
-15.56396484375
-17.39501953125
-12.8173828125
-12.8173828125
-12.8173828125
-3.662109375
-7.32421875
-10.07080078125
-3.662109375
3.662109375
4.57763671875
7.32421875
8.23974609375
8.23974609375
15.56396484375
17.39501953125
18.310546875
21.05712890625
22.88818359375
33.87451171875
33.87451171875
30.21240234375
37.53662109375
43.02978515625
43.9453125
45.7763671875
47.607421875
53.1005859375
54.931640625
57.67822265625
61.34033203125
68.66455078125
73.2421875
75.0732421875
80.56640625
82.3974609375
87.890625
93.3837890625
101.62353515625
110.77880859375
119.0185546875
123.59619140625
132.75146484375
135.498046875
141.90673828125
144.6533203125
153.80859375
162.04833984375
161.1328125
173.03466796875
183.10546875
188.5986328125
195.00732421875
198.66943359375
198.66943359375
206.9091796875
215.14892578125
221.5576171875
224.30419921875
231.62841796875
240.78369140625
238.95263671875
239.8681640625
247.1923828125
256.34765625
260.009765625
260.92529296875
258.1787109375
262.75634765625
265.5029296875
266.41845703125
265.5029296875
268.24951171875
264.58740234375
259.09423828125
253.60107421875
244.44580078125
239.8681640625
228.8818359375
223.388671875
215.14892578125
199.5849609375
184.9365234375
177.6123046875
168.45703125
153.80859375
138.24462890625
130.0048828125
123.59619140625
106.201171875
88.80615234375
78.7353515625
70.49560546875
57.67822265625
46.69189453125
35.70556640625
32.04345703125
27.4658203125
18.310546875
10.07080078125
1.8310546875
-4.57763671875
-5.4931640625
-13.73291015625
-15.56396484375
-19.22607421875
-28.38134765625
-32.04345703125
-26.55029296875
-28.38134765625
-25.634765625
-31.1279296875
-33.87451171875
-31.1279296875
-34.7900390625
-30.21240234375
-37.53662109375
-43.9453125
-41.19873046875
-44.86083984375
-43.02978515625
-46.69189453125
-43.9453125
-42.1142578125
-43.02978515625
-36.62109375
-42.1142578125
-37.53662109375
-38.4521484375
-45.7763671875
-42.1142578125
-40.283203125
-41.19873046875
-39.36767578125
-35.70556640625
-37.53662109375
-36.62109375
-38.4521484375
-37.53662109375
-35.70556640625
-36.62109375
-35.70556640625
-37.53662109375
-37.53662109375
-34.7900390625
-37.53662109375
-43.02978515625
-36.62109375
-29.296875
-35.70556640625
-35.70556640625
-36.62109375
-38.4521484375
-39.36767578125
-37.53662109375
-38.4521484375
-41.19873046875
-43.9453125
-38.4521484375
-40.283203125
-41.19873046875
-39.36767578125
-46.69189453125
-42.1142578125
-41.19873046875
-37.53662109375
-43.02978515625
-45.7763671875
-45.7763671875
-49.4384765625
-47.607421875
-45.7763671875
-50.35400390625
-52.18505859375
-47.607421875
-46.69189453125
-47.607421875
-51.26953125
-51.26953125
-55.84716796875
-56.7626953125
-61.34033203125
-61.34033203125
-62.255859375
-62.255859375
-64.0869140625
-61.34033203125
-63.17138671875
-65.00244140625
-62.255859375
-58.59375
-68.66455078125
-70.49560546875
-69.580078125
-64.0869140625
-60.4248046875
-65.91796875
-73.2421875
-73.2421875
-64.0869140625
-67.7490234375
-74.15771484375
-70.49560546875
-68.66455078125
-65.91796875
-69.580078125
-71.4111328125
-69.580078125
-73.2421875
-75.0732421875
-75.0732421875
-75.0732421875
-82.3974609375
-80.56640625
-74.15771484375
-72.32666015625
-75.0732421875
-73.2421875
-75.98876953125
-75.98876953125
-73.2421875
-75.98876953125
-79.65087890625
-79.65087890625
-77.81982421875
-81.48193359375
-82.3974609375
-81.48193359375
-77.81982421875
-78.7353515625
-78.7353515625
-75.98876953125
-82.3974609375
-82.3974609375
-81.48193359375
-77.81982421875
-80.56640625
-77.81982421875
-77.81982421875
-78.7353515625
-77.81982421875
-82.3974609375
-81.48193359375
-79.65087890625
-80.56640625
-80.56640625
-85.14404296875
-79.65087890625
-80.56640625
-80.56640625
-80.56640625
-84.228515625
-82.3974609375
-78.7353515625
-83.31298828125
-85.14404296875
-86.97509765625
-86.0595703125
-84.228515625
-90.63720703125
-87.890625
-87.890625
-86.0595703125
-87.890625
-87.890625
-82.3974609375
-86.0595703125
-89.7216796875
-90.63720703125
-91.552734375
-86.0595703125
-79.65087890625
-66.83349609375
-66.83349609375
-65.00244140625
-56.7626953125
-56.7626953125
-51.26953125
-48.52294921875
-50.35400390625
-49.4384765625
-54.01611328125
-54.01611328125
-48.52294921875
-43.9453125
-33.87451171875
-37.53662109375
-31.1279296875
-31.1279296875
-28.38134765625
-20.1416015625
-18.310546875
-14.6484375
-7.32421875
-7.32421875
-9.1552734375
-10.07080078125
-8.23974609375
-3.662109375
-0.91552734375
-7.32421875
-17.39501953125
-28.38134765625
-25.634765625
-20.1416015625
-26.55029296875
-41.19873046875
-42.1142578125
-51.26953125
-54.931640625
-57.67822265625
-57.67822265625
-68.66455078125
-75.98876953125
-91.552734375
-92.46826171875
-97.96142578125
-98.876953125
-103.45458984375
-106.201171875
-110.77880859375
-114.44091796875
-112.60986328125
-114.44091796875
-117.1875
-114.44091796875
-114.44091796875
-115.3564453125
-114.44091796875
-115.3564453125
-119.0185546875
-127.25830078125
-126.3427734375
-121.76513671875
-118.10302734375
-119.93408203125
-125.42724609375
-130.0048828125
-124.51171875
-122.6806640625
-120.849609375
-121.76513671875
-123.59619140625
-127.25830078125
-126.3427734375
-129.08935546875
-139.16015625
-140.9912109375
-151.9775390625
-163.87939453125
-187.68310546875
-190.4296875
-185.85205078125
-164.794921875
-147.39990234375
-123.59619140625
-89.7216796875
-25.634765625
66.83349609375
187.68310546875
300.29296875
423.88916015625
560.302734375
698.54736328125
807.4951171875
894.47021484375
939.3310546875
922.8515625
886.23046875
815.73486328125
711.36474609375
529.1748046875
344.23828125
216.97998046875
114.44091796875
11.90185546875
-83.31298828125
-150.146484375
-195.9228515625
-230.712890625
-246.27685546875
-229.79736328125
-198.66943359375
-165.71044921875
-133.6669921875
-107.11669921875
-85.14404296875
-81.48193359375
-79.65087890625
-86.97509765625
-94.29931640625
-91.552734375
-90.63720703125
-88.80615234375
-93.3837890625
-94.29931640625
-98.876953125
-94.29931640625
-93.3837890625
-92.46826171875
-95.21484375
-94.29931640625
-94.29931640625
-97.0458984375
-90.63720703125
-93.3837890625
-90.63720703125
-93.3837890625
-91.552734375
-88.80615234375
-88.80615234375
-78.7353515625
-75.98876953125
-78.7353515625
-78.7353515625
-82.3974609375
-82.3974609375
-82.3974609375
-74.15771484375
-76.904296875
-75.98876953125
-68.66455078125
-71.4111328125
-71.4111328125
-68.66455078125
-63.17138671875
-63.17138671875
-65.91796875
-61.34033203125
-59.50927734375
-54.931640625
-51.26953125
-50.35400390625
-46.69189453125
-43.9453125
-43.02978515625
-43.9453125
-41.19873046875
-39.36767578125
-35.70556640625
-33.87451171875
-31.1279296875
-24.71923828125
-21.05712890625
-20.1416015625
-14.6484375
-10.07080078125
-19.22607421875
-16.4794921875
-10.07080078125
-3.662109375
3.662109375
1.8310546875
5.4931640625
10.986328125
10.986328125
11.90185546875
14.6484375
26.55029296875
35.70556640625
32.958984375
32.958984375
40.283203125
45.7763671875
50.35400390625
55.84716796875
57.67822265625
65.00244140625
75.98876953125
82.3974609375
89.7216796875
90.63720703125
100.7080078125
108.0322265625
116.27197265625
125.42724609375
129.08935546875
133.6669921875
140.9912109375
153.80859375
158.38623046875
166.6259765625
170.2880859375
175.78125
184.02099609375
187.68310546875
194.091796875
197.75390625
205.078125
208.740234375
216.064453125
216.97998046875
216.97998046875
224.30419921875
231.62841796875
233.45947265625
233.45947265625
236.2060546875
238.037109375
244.44580078125
242.61474609375
240.78369140625
233.45947265625
229.79736328125
239.8681640625
229.79736328125
216.97998046875
205.99365234375
202.33154296875
192.2607421875
180.35888671875
165.71044921875
154.72412109375
143.73779296875
128.173828125
117.1875
97.96142578125
85.14404296875
75.0732421875
55.84716796875
48.52294921875
37.53662109375
17.39501953125
6.40869140625
2.74658203125
-4.57763671875
-12.8173828125
-23.8037109375
-29.296875
-40.283203125
-46.69189453125
-48.52294921875
-55.84716796875
-62.255859375
-62.255859375
-62.255859375
-68.66455078125
-73.2421875
-73.2421875
-74.15771484375
-72.32666015625
-81.48193359375
-74.15771484375
-79.65087890625
-77.81982421875
-79.65087890625
-85.14404296875
-85.14404296875
-89.7216796875
-86.0595703125
-86.0595703125
-84.228515625
-85.14404296875
-84.228515625
-83.31298828125
-78.7353515625
-85.14404296875
-91.552734375
-86.97509765625
-81.48193359375
-82.3974609375
-77.81982421875
-80.56640625
-82.3974609375
-80.56640625
-78.7353515625
-86.0595703125
-85.14404296875
-80.56640625
-79.65087890625
-81.48193359375
-84.228515625
-84.228515625
-80.56640625
-79.65087890625
-82.3974609375
-88.80615234375
-84.228515625
-82.3974609375
-82.3974609375
-79.65087890625
-81.48193359375
-83.31298828125
-89.7216796875
-84.228515625
-82.3974609375
-80.56640625
-75.98876953125
-81.48193359375
-85.14404296875
-79.65087890625
-86.97509765625
-90.63720703125
-80.56640625
-81.48193359375
-86.0595703125
-87.890625
-86.97509765625
-88.80615234375
-87.890625
-81.48193359375
-87.890625
-93.3837890625
-92.46826171875
-92.46826171875
-89.7216796875
-98.876953125
-97.96142578125
-98.876953125
-95.21484375
-97.0458984375
-92.46826171875
-96.13037109375
-101.62353515625
-100.7080078125
-98.876953125
-107.11669921875
-102.5390625
-100.7080078125
-103.45458984375
-102.5390625
-106.201171875
-111.6943359375
-112.60986328125
-108.0322265625
-101.62353515625
-103.45458984375
-110.77880859375
-107.11669921875
-108.0322265625
-108.94775390625
-109.86328125
-115.3564453125
-104.3701171875
-108.0322265625
-114.44091796875
-116.27197265625
-117.1875
-114.44091796875
-114.44091796875
-116.27197265625
-111.6943359375
-114.44091796875
-115.3564453125
-112.60986328125
-108.94775390625
-117.1875
-117.1875
-120.849609375
-113.525390625
-114.44091796875
-114.44091796875
-110.77880859375
-115.3564453125
-117.1875
-112.60986328125
-119.93408203125
-119.0185546875
-118.10302734375
-120.849609375
-114.44091796875
-113.525390625
-115.3564453125
-114.44091796875
-116.27197265625
-111.6943359375
-115.3564453125
-119.0185546875
-119.93408203125
-123.59619140625
-118.10302734375
-117.1875
-119.0185546875
-116.27197265625
-118.10302734375
-117.1875
-117.1875
-117.1875
-118.10302734375
-117.1875
-116.27197265625
-115.3564453125
-116.27197265625
-119.0185546875
-117.1875
-116.27197265625
-123.59619140625
-123.59619140625
-121.76513671875
-117.1875
-117.1875
-116.27197265625
-118.10302734375
-119.0185546875
-118.10302734375
-119.93408203125
-123.59619140625
-124.51171875
-120.849609375
-115.3564453125
-115.3564453125
-119.0185546875
-121.76513671875
-119.0185546875
-120.849609375
-118.10302734375
-121.76513671875
-124.51171875
-123.59619140625
-120.849609375
-115.3564453125
-119.93408203125
-119.93408203125
-117.1875
-114.44091796875
-116.27197265625
-120.849609375
-116.27197265625
-110.77880859375
-114.44091796875
-111.6943359375
-103.45458984375
-98.876953125
-102.5390625
-91.552734375
-87.890625
-87.890625
-83.31298828125
-83.31298828125
-86.0595703125
-84.228515625
-82.3974609375
-78.7353515625
-75.0732421875
-70.49560546875
-67.7490234375
-67.7490234375
-67.7490234375
-62.255859375
-49.4384765625
-51.26953125
-46.69189453125
-41.19873046875
-41.19873046875
-43.02978515625
-39.36767578125
-36.62109375
-32.04345703125
-35.70556640625
-43.02978515625
-48.52294921875
-53.1005859375
-56.7626953125
-54.01611328125
-58.59375
-65.00244140625
-79.65087890625
-86.0595703125
-85.14404296875
-86.97509765625
-89.7216796875
-95.21484375
-108.0322265625
-120.849609375
-123.59619140625
-125.42724609375
-128.173828125
-135.498046875
-136.41357421875
-135.498046875
-143.73779296875
-139.16015625
-137.3291015625
-140.9912109375
-136.41357421875
-136.41357421875
-141.90673828125
-144.6533203125
-140.07568359375
-142.822265625
-142.822265625
-146.484375
-147.39990234375
-149.23095703125
-148.3154296875
-148.3154296875
-150.146484375
-153.80859375
-148.3154296875
-145.56884765625
-141.90673828125
-146.484375
-153.80859375
-152.89306640625
-152.89306640625
-155.6396484375
-168.45703125
-178.52783203125
-191.34521484375
-208.740234375
-209.65576171875
-201.416015625
-184.02099609375
-160.21728515625
-137.3291015625
-103.45458984375
-41.19873046875
53.1005859375
161.1328125
276.4892578125
399.169921875
546.56982421875
679.3212890625
789.1845703125
876.15966796875
921.93603515625
915.52734375
875.244140625
803.8330078125
707.70263671875
531.92138671875
339.66064453125
204.16259765625
97.0458984375
-4.57763671875
-96.13037109375
-162.9638671875
-219.7265625
-245.361328125
-256.34765625
-238.037109375
-208.740234375
-176.69677734375
-141.90673828125
-114.44091796875
-97.0458984375
-95.21484375
-95.21484375
-98.876953125
-104.3701171875
-106.201171875
-107.11669921875
-110.77880859375
-114.44091796875
-116.27197265625
-112.60986328125
-118.10302734375
-114.44091796875
-118.10302734375
-119.0185546875
-116.27197265625
-113.525390625
-107.11669921875
-110.77880859375
-108.0322265625
-107.11669921875
-108.94775390625
-108.94775390625
-105.28564453125
-102.5390625
-98.876953125
-96.13037109375
-99.79248046875
-98.876953125
-98.876953125
-91.552734375
-89.7216796875
-91.552734375
-90.63720703125
-85.14404296875
-86.97509765625
-86.0595703125
-87.890625
-87.890625
-83.31298828125
-80.56640625
-79.65087890625
-75.0732421875
-73.2421875
-68.66455078125
-67.7490234375
-73.2421875
-67.7490234375
-65.91796875
-66.83349609375
-56.7626953125
-55.84716796875
-49.4384765625
-47.607421875
-46.69189453125
-44.86083984375
-41.19873046875
-41.19873046875
-42.1142578125
-38.4521484375
-30.21240234375
-24.71923828125
-23.8037109375
-19.22607421875
-21.05712890625
-20.1416015625
-12.8173828125
-10.986328125
-5.4931640625
-1.8310546875
0.91552734375
8.23974609375
5.4931640625
11.90185546875
20.1416015625
20.1416015625
28.38134765625
32.958984375
41.19873046875
40.283203125
45.7763671875
52.18505859375
59.50927734375
67.7490234375
74.15771484375
71.4111328125
80.56640625
88.80615234375
97.0458984375
105.28564453125
116.27197265625
120.849609375
126.3427734375
132.75146484375
139.16015625
150.146484375
159.3017578125
163.87939453125
172.119140625
174.86572265625
178.52783203125
183.10546875
187.68310546875
200.50048828125
201.416015625
206.9091796875
211.48681640625
216.064453125
215.14892578125
223.388671875
228.8818359375
230.712890625
235.29052734375
236.2060546875
227.05078125
230.712890625
227.96630859375
225.2197265625
223.388671875
216.97998046875
215.14892578125
201.416015625
197.75390625
188.5986328125
182.18994140625
167.54150390625
148.3154296875
133.6669921875
120.849609375
109.86328125
101.62353515625
83.31298828125
66.83349609375
54.01611328125
43.02978515625
32.04345703125
21.97265625
8.23974609375
0.91552734375
-7.32421875
-16.4794921875
-26.55029296875
-38.4521484375
-42.1142578125
-46.69189453125
-48.52294921875
-54.931640625
-67.7490234375
-66.83349609375
-67.7490234375
-75.0732421875
-80.56640625
-84.228515625
-90.63720703125
-84.228515625
-85.14404296875
-86.0595703125
-83.31298828125
-86.97509765625
-91.552734375
-92.46826171875
-87.890625
-94.29931640625
-90.63720703125
-86.97509765625
-92.46826171875
-88.80615234375
-92.46826171875
-94.29931640625
-89.7216796875
-87.890625
-88.80615234375
-94.29931640625
-89.7216796875
-84.228515625
-79.65087890625
-84.228515625
-85.14404296875
-86.0595703125
-86.0595703125
-82.3974609375
-83.31298828125
-83.31298828125
-79.65087890625
-84.228515625
-77.81982421875
-78.7353515625
-86.97509765625
-84.228515625
-81.48193359375
-78.7353515625
-79.65087890625
-85.14404296875
-86.97509765625
-75.98876953125
-83.31298828125
-85.14404296875
-89.7216796875
-85.14404296875
-83.31298828125
-86.0595703125
-83.31298828125
-82.3974609375
-80.56640625
-82.3974609375
-84.228515625
-81.48193359375
-85.14404296875
-89.7216796875
-86.0595703125
-86.0595703125
-86.97509765625
-86.0595703125
-90.63720703125
-87.890625
-87.890625
-86.97509765625
-94.29931640625
-91.552734375
-89.7216796875
-90.63720703125
-96.13037109375
-97.96142578125
-93.3837890625
-94.29931640625
-98.876953125
-95.21484375
-98.876953125
-98.876953125
-102.5390625
-105.28564453125
-102.5390625
-100.7080078125
-101.62353515625
-98.876953125
-105.28564453125
-109.86328125
-108.0322265625
-107.11669921875
-103.45458984375
-104.3701171875
-109.86328125
-117.1875
-108.0322265625
-103.45458984375
-106.201171875
-109.86328125
-115.3564453125
-115.3564453125
-109.86328125
-111.6943359375
-110.77880859375
-110.77880859375
-116.27197265625
-109.86328125
-107.11669921875
-111.6943359375
-116.27197265625
-115.3564453125
-114.44091796875
-112.60986328125
-112.60986328125
-112.60986328125
-117.1875
-115.3564453125
-111.6943359375
-115.3564453125
-118.10302734375
-120.849609375
-119.93408203125
-117.1875
-116.27197265625
-119.93408203125
-118.10302734375
-108.0322265625
-117.1875
-119.93408203125
-121.76513671875
-122.6806640625
-113.525390625
-114.44091796875
-114.44091796875
-117.1875
-119.0185546875
-119.0185546875
-117.1875
-121.76513671875
-122.6806640625
-122.6806640625
-123.59619140625
-126.3427734375
-119.93408203125
-115.3564453125
-119.0185546875
-117.1875
-119.0185546875
-121.76513671875
-119.93408203125
-119.93408203125
-115.3564453125
-119.93408203125
-118.10302734375
-118.10302734375
-120.849609375
-119.93408203125
-115.3564453125
-122.6806640625
-125.42724609375
-122.6806640625
-119.0185546875
-118.10302734375
-119.0185546875
-119.93408203125
-120.849609375
-119.93408203125
-119.0185546875
-118.10302734375
-120.849609375
-120.849609375
-119.0185546875
-119.93408203125
-117.1875
-124.51171875
-122.6806640625
-118.10302734375
-116.27197265625
-111.6943359375
-114.44091796875
-115.3564453125
-114.44091796875
-116.27197265625
-117.1875
-119.0185546875
-112.60986328125
-103.45458984375
-98.876953125
-98.876953125
-92.46826171875
-85.14404296875
-82.3974609375
-78.7353515625
-79.65087890625
-78.7353515625
-78.7353515625
-80.56640625
-79.65087890625
-73.2421875
-64.0869140625
-63.17138671875
-63.17138671875
-61.34033203125
-70.49560546875
-64.0869140625
-49.4384765625
-49.4384765625
-42.1142578125
-34.7900390625
-43.02978515625
-44.86083984375
-30.21240234375
-27.4658203125
-33.87451171875
-37.53662109375
-39.36767578125
-47.607421875
-54.931640625
-49.4384765625
-51.26953125
-62.255859375
-68.66455078125
-75.0732421875
-80.56640625
-85.14404296875
-87.890625
-89.7216796875
-103.45458984375
-106.201171875
-109.86328125
-124.51171875
-125.42724609375
-124.51171875
-128.173828125
-133.6669921875
-131.8359375
-138.24462890625
-138.24462890625
-132.75146484375
-137.3291015625
-134.58251953125
-136.41357421875
-136.41357421875
-135.498046875
-138.24462890625
-136.41357421875
-135.498046875
-139.16015625
-135.498046875
-135.498046875
-141.90673828125
-137.3291015625
-136.41357421875
-135.498046875
-134.58251953125
-137.3291015625
-142.822265625
-137.3291015625
-130.92041015625
-134.58251953125
-140.9912109375
-157.470703125
-162.9638671875
-169.37255859375
-188.5986328125
-209.65576171875
-205.078125
-190.4296875
-167.54150390625
-145.56884765625
-119.93408203125
-80.56640625
-5.4931640625
92.46826171875
206.9091796875
320.4345703125
444.9462890625
589.599609375
716.85791015625
820.3125
895.3857421875
913.6962890625
907.28759765625
858.7646484375
786.43798828125
667.41943359375
466.00341796875
298.4619140625
180.35888671875
71.4111328125
-22.88818359375
-115.3564453125
-168.45703125
-208.740234375
-250.8544921875
-246.27685546875
-218.81103515625
-187.68310546875
-151.9775390625
-120.849609375
-98.876953125
-85.14404296875
-72.32666015625
-87.890625
-92.46826171875
-97.96142578125
-99.79248046875
-94.29931640625
-97.96142578125
-100.7080078125
-101.62353515625
-102.5390625
-101.62353515625
-96.13037109375
-103.45458984375
-101.62353515625
-99.79248046875
-97.0458984375
-95.21484375
-98.876953125
-100.7080078125
-96.13037109375
-95.21484375
-94.29931640625
-94.29931640625
-92.46826171875
-86.97509765625
-86.0595703125
-87.890625
-88.80615234375
-84.228515625
-79.65087890625
-79.65087890625
-84.228515625
-82.3974609375
-73.2421875
-73.2421875
-69.580078125
-66.83349609375
-73.2421875
-69.580078125
-65.00244140625
-61.34033203125
-56.7626953125
-61.34033203125
-53.1005859375
-53.1005859375
-50.35400390625
-46.69189453125
-48.52294921875
-48.52294921875
-50.35400390625
-44.86083984375
-31.1279296875
-38.4521484375
-37.53662109375
-27.4658203125
-23.8037109375
-22.88818359375
-17.39501953125
-19.22607421875
-12.8173828125
-11.90185546875
-7.32421875
-4.57763671875
-10.07080078125
-7.32421875
1.8310546875
7.32421875
10.07080078125
17.39501953125
18.310546875
17.39501953125
23.8037109375
23.8037109375
30.21240234375
41.19873046875
45.7763671875
54.01611328125
56.7626953125
64.0869140625
67.7490234375
72.32666015625
78.7353515625
82.3974609375
87.890625
98.876953125
108.94775390625
116.27197265625
120.849609375
129.08935546875
137.3291015625
140.07568359375
150.146484375
157.470703125
163.87939453125
169.37255859375
183.10546875
195.00732421875
193.17626953125
195.9228515625
200.50048828125
209.65576171875
212.40234375
216.064453125
223.388671875
231.62841796875
235.29052734375
236.2060546875
232.5439453125
243.5302734375
250.8544921875
255.43212890625
254.5166015625
253.60107421875
254.5166015625
256.34765625
258.1787109375
253.60107421875
248.10791015625
237.12158203125
232.5439453125
225.2197265625
218.81103515625
209.65576171875
193.17626953125
185.85205078125
173.03466796875
157.470703125
150.146484375
133.6669921875
115.3564453125
108.94775390625
91.552734375
78.7353515625
63.17138671875
51.26953125
43.9453125
32.958984375
18.310546875
7.32421875
3.662109375
-1.8310546875
-10.986328125
-26.55029296875
-27.4658203125
-29.296875
-36.62109375
-42.1142578125
-47.607421875
-47.607421875
-45.7763671875
-50.35400390625
-50.35400390625
-59.50927734375
-62.255859375
-63.17138671875
-59.50927734375
-55.84716796875
-59.50927734375
-65.00244140625
-61.34033203125
-61.34033203125
-61.34033203125
-61.34033203125
-62.255859375
-62.255859375
-59.50927734375
-55.84716796875
-62.255859375
-61.34033203125
-64.0869140625
-63.17138671875
-62.255859375
-58.59375
-64.0869140625
-59.50927734375
-67.7490234375
-65.00244140625
-60.4248046875
-55.84716796875
-63.17138671875
-54.931640625
-49.4384765625
-54.931640625
-54.931640625
-53.1005859375
-52.18505859375
-54.01611328125
-54.931640625
-49.4384765625
-49.4384765625
-49.4384765625
-49.4384765625
-58.59375
-52.18505859375
-51.26953125
-52.18505859375
-49.4384765625
-49.4384765625
-50.35400390625
-54.01611328125
-51.26953125
-51.26953125
-54.01611328125
-56.7626953125
-55.84716796875
-56.7626953125
-54.01611328125
-56.7626953125
-55.84716796875
-54.01611328125
-41.19873046875
-48.52294921875
-59.50927734375
-56.7626953125
-56.7626953125
-63.17138671875
-53.1005859375
-59.50927734375
-64.0869140625
-59.50927734375
-59.50927734375
-61.34033203125
-62.255859375
-62.255859375
-62.255859375
-66.83349609375
-58.59375
-62.255859375
-57.67822265625
-54.01611328125
-60.4248046875
-59.50927734375
-59.50927734375
-56.7626953125
-65.00244140625
-63.17138671875
-58.59375
-63.17138671875
-72.32666015625
-70.49560546875
-64.0869140625
-66.83349609375
-71.4111328125
-72.32666015625
-73.2421875
-76.904296875
-75.98876953125
-73.2421875
-73.2421875
-75.98876953125
-67.7490234375
-71.4111328125
-73.2421875
-74.15771484375
-75.0732421875
-72.32666015625
-71.4111328125
-73.2421875
-73.2421875
-78.7353515625
-73.2421875
-68.66455078125
-69.580078125
-71.4111328125
-67.7490234375
-68.66455078125
-68.66455078125
-75.98876953125
-75.0732421875
-75.98876953125
-75.0732421875
-65.00244140625
-74.15771484375
-75.98876953125
-72.32666015625
-75.98876953125
-75.98876953125
-79.65087890625
-76.904296875
-75.98876953125
-77.81982421875
-76.904296875
-80.56640625
-75.98876953125
-71.4111328125
-73.2421875
-75.0732421875
-78.7353515625
-73.2421875
-73.2421875
-78.7353515625
-75.0732421875
-74.15771484375
-79.65087890625
-76.904296875
-74.15771484375
-75.98876953125
-80.56640625
-86.97509765625
-79.65087890625
-75.98876953125
-80.56640625
-78.7353515625
-82.3974609375
-75.98876953125
-75.98876953125
-74.15771484375
-69.580078125
-71.4111328125
-76.904296875
-77.81982421875
-71.4111328125
-67.7490234375
-63.17138671875
-55.84716796875
-44.86083984375
-41.19873046875
-40.283203125
-37.53662109375
-41.19873046875
-37.53662109375
-37.53662109375
-32.958984375
-30.21240234375
-26.55029296875
-17.39501953125
-15.56396484375
-19.22607421875
-18.310546875
-9.1552734375
-8.23974609375
0
7.32421875
5.4931640625
7.32421875
10.07080078125
15.56396484375
17.39501953125
12.8173828125
11.90185546875
15.56396484375
11.90185546875
-2.74658203125
0.91552734375
2.74658203125
-6.40869140625
-18.310546875
-31.1279296875
-31.1279296875
-28.38134765625
-28.38134765625
-28.38134765625
-44.86083984375
-51.26953125
-58.59375
-59.50927734375
-67.7490234375
-72.32666015625
-77.81982421875
-82.3974609375
-79.65087890625
-76.904296875
-83.31298828125
-86.97509765625
-83.31298828125
-80.56640625
-85.14404296875
-88.80615234375
-86.97509765625
-86.0595703125
-89.7216796875
-86.97509765625
-95.21484375
-94.29931640625
-95.21484375
-91.552734375
-90.63720703125
-91.552734375
-87.890625
-90.63720703125
-90.63720703125
-90.63720703125
-97.0458984375
-96.13037109375
-89.7216796875
-93.3837890625
-97.0458984375
-99.79248046875
-108.94775390625
-118.10302734375
-135.498046875
-150.146484375
-145.56884765625
-133.6669921875
-112.60986328125
-86.0595703125
-60.4248046875
-23.8037109375
48.52294921875
154.72412109375
258.1787109375
365.29541015625
488.8916015625
627.13623046875
737.9150390625
816.650390625
877.0751953125
864.2578125
831.298828125
777.28271484375
693.05419921875
568.54248046875
379.94384765625
239.8681640625
153.80859375
71.4111328125
-13.73291015625
-81.48193359375
-130.0048828125
-168.45703125
-192.2607421875
-189.51416015625
-192.2607421875
-177.6123046875
-159.3017578125
-133.6669921875
-112.60986328125
-91.552734375
-77.81982421875
-67.7490234375
-62.255859375
-60.4248046875
-61.34033203125
-60.4248046875
-57.67822265625
-55.84716796875
-59.50927734375
-66.83349609375
-63.17138671875
-61.34033203125
-53.1005859375
-51.26953125
-53.1005859375
-56.7626953125
-54.931640625
-49.4384765625
-48.52294921875
-49.4384765625
-53.1005859375
-48.52294921875
-50.35400390625
-47.607421875
-45.7763671875
-47.607421875
-48.52294921875
-41.19873046875
-33.87451171875
-42.1142578125
-47.607421875
-43.02978515625
-37.53662109375
-34.7900390625
-36.62109375
-39.36767578125
-38.4521484375
-32.04345703125
-25.634765625
-34.7900390625
-31.1279296875
-29.296875
-25.634765625
-18.310546875
-12.8173828125
-19.22607421875
-11.90185546875
-10.986328125
-9.1552734375
-10.986328125
-8.23974609375
-0.91552734375
-0.91552734375
3.662109375
1.8310546875
11.90185546875
14.6484375
14.6484375
15.56396484375
21.05712890625
26.55029296875
22.88818359375
27.4658203125
32.958984375
33.87451171875
31.1279296875
37.53662109375
44.86083984375
47.607421875
51.26953125
51.26953125
58.59375
63.17138671875
68.66455078125
69.580078125
72.32666015625
86.0595703125
92.46826171875
97.96142578125
99.79248046875
99.79248046875
111.6943359375
116.27197265625
124.51171875
129.08935546875
137.3291015625
140.9912109375
145.56884765625
154.72412109375
161.1328125
168.45703125
176.69677734375
175.78125
185.85205078125
193.17626953125
201.416015625
212.40234375
221.5576171875
221.5576171875
222.47314453125
229.79736328125
230.712890625
233.45947265625
247.1923828125
242.61474609375
247.1923828125
249.93896484375
258.1787109375
266.41845703125
265.5029296875
267.333984375
266.41845703125
270.99609375
267.333984375
267.333984375
265.5029296875
263.671875
261.8408203125
251.77001953125
243.5302734375
229.79736328125
213.31787109375
204.16259765625
203.2470703125
195.9228515625
178.52783203125
162.04833984375
154.72412109375
142.822265625
128.173828125
119.93408203125
108.94775390625
95.21484375
87.890625
78.7353515625
63.17138671875
58.59375
48.52294921875
42.1142578125
33.87451171875
18.310546875
16.4794921875
10.986328125
0.91552734375
-1.8310546875
-10.07080078125
-12.8173828125
-11.90185546875
-12.8173828125
-19.22607421875
-19.22607421875
-25.634765625
-29.296875
-25.634765625
-26.55029296875
-32.958984375
-31.1279296875
-31.1279296875
-31.1279296875
-31.1279296875
-31.1279296875
-32.958984375
-30.21240234375
-32.04345703125
-32.04345703125
-35.70556640625
-32.04345703125
-29.296875
-29.296875
-32.04345703125
-31.1279296875
-32.04345703125
-33.87451171875
-30.21240234375
-29.296875
-31.1279296875
-28.38134765625
-27.4658203125
-26.55029296875
-27.4658203125
-32.958984375
-31.1279296875
-30.21240234375
-33.87451171875
-35.70556640625
-32.04345703125
-36.62109375
-37.53662109375
-32.958984375
-32.958984375
-36.62109375
-34.7900390625
-33.87451171875
-28.38134765625
-28.38134765625
-33.87451171875
-30.21240234375
-30.21240234375
-32.958984375
-32.958984375
-35.70556640625
-34.7900390625
-34.7900390625
-34.7900390625
-35.70556640625
-38.4521484375
-39.36767578125
-37.53662109375
-39.36767578125
-36.62109375
-35.70556640625
-41.19873046875
-43.9453125
-43.02978515625
-42.1142578125
-44.86083984375
-47.607421875
-49.4384765625
-42.1142578125
-45.7763671875
-51.26953125
-55.84716796875
-46.69189453125
-46.69189453125
-50.35400390625
-56.7626953125
-50.35400390625
-48.52294921875
-53.1005859375
-51.26953125
-53.1005859375
-54.931640625
-50.35400390625
-52.18505859375
-54.01611328125
-59.50927734375
-62.255859375
-62.255859375
-61.34033203125
-55.84716796875
-60.4248046875
-65.00244140625
-70.49560546875
-65.00244140625
-64.0869140625
-67.7490234375
-68.66455078125
-69.580078125
-66.83349609375
-67.7490234375
-66.83349609375
-64.0869140625
-66.83349609375
-68.66455078125
-67.7490234375
-65.91796875
-69.580078125
-69.580078125
-65.91796875
-70.49560546875
-65.91796875
-66.83349609375
-70.49560546875
-65.91796875
-70.49560546875
-67.7490234375
-73.2421875
-69.580078125
-66.83349609375
-70.49560546875
-72.32666015625
-75.98876953125
-69.580078125
-72.32666015625
-78.7353515625
-78.7353515625
-65.91796875
-63.17138671875
-72.32666015625
-75.98876953125
-75.0732421875
-76.904296875
-75.0732421875
-68.66455078125
-73.2421875
-76.904296875
-77.81982421875
-76.904296875
-75.0732421875
-76.904296875
-76.904296875
-72.32666015625
-75.98876953125
-72.32666015625
-74.15771484375
-69.580078125
-63.17138671875
-61.34033203125
-60.4248046875
-55.84716796875
-51.26953125
-47.607421875
-40.283203125
-36.62109375
-43.02978515625
-48.52294921875
-43.9453125
-38.4521484375
-34.7900390625
-32.04345703125
-32.04345703125
-32.958984375
-26.55029296875
-28.38134765625
-28.38134765625
-18.310546875
-9.1552734375
-4.57763671875
0
-4.57763671875
-1.8310546875
4.57763671875
5.4931640625
8.23974609375
0
-2.74658203125
-3.662109375
-16.4794921875
-15.56396484375
-15.56396484375
-27.4658203125
-37.53662109375
-35.70556640625
-42.1142578125
-49.4384765625
-51.26953125
-52.18505859375
-60.4248046875
-68.66455078125
-77.81982421875
-85.14404296875
-86.0595703125
-96.13037109375
-98.876953125
-98.876953125
-107.11669921875
-105.28564453125
-97.96142578125
-102.5390625
-108.94775390625
-106.201171875
-108.0322265625
-113.525390625
-110.77880859375
-115.3564453125
-117.1875
-111.6943359375
-108.0322265625
-109.86328125
-108.94775390625
-113.525390625
-118.10302734375
-108.94775390625
-108.94775390625
-118.10302734375
-116.27197265625
-114.44091796875
-113.525390625
-114.44091796875
-114.44091796875
-119.0185546875
-123.59619140625
-130.0048828125
-138.24462890625
-160.21728515625
-176.69677734375
-181.2744140625
-171.20361328125
-160.21728515625
-139.16015625
-117.1875
-84.228515625
-38.4521484375
38.4521484375
151.06201171875
257.26318359375
368.0419921875
496.2158203125
645.44677734375
753.47900390625
840.4541015625
899.0478515625
899.0478515625
872.49755859375
811.1572265625
723.2666015625
595.0927734375
402.83203125
255.43212890625
153.80859375
52.18505859375
-41.19873046875
-123.59619140625
-176.69677734375
-216.064453125
-241.69921875
-238.95263671875
-213.31787109375
-193.17626953125
-160.21728515625
-135.498046875
-109.86328125
-90.63720703125
-76.904296875
-75.0732421875
-81.48193359375
-85.14404296875
-86.97509765625
-84.228515625
-86.97509765625
-90.63720703125
-97.0458984375
-98.876953125
-89.7216796875
-94.29931640625
-91.552734375
-86.0595703125
-84.228515625
-84.228515625
-89.7216796875
-88.80615234375
-85.14404296875
-84.228515625
-84.228515625
-84.228515625
-84.228515625
-77.81982421875
-78.7353515625
-75.0732421875
-71.4111328125
-76.904296875
-73.2421875
-71.4111328125
-73.2421875
-73.2421875
-74.15771484375
-68.66455078125
-60.4248046875
-61.34033203125
-69.580078125
-58.59375
-62.255859375
-52.18505859375
-48.52294921875
-47.607421875
-53.1005859375
-52.18505859375
-51.26953125
-47.607421875
-45.7763671875
-38.4521484375
-34.7900390625
-39.36767578125
-40.283203125
-36.62109375
-34.7900390625
-33.87451171875
-28.38134765625
-21.97265625
-16.4794921875
-19.22607421875
-14.6484375
-13.73291015625
-9.1552734375
-10.986328125
-11.90185546875
-5.4931640625
1.8310546875
4.57763671875
6.40869140625
10.986328125
14.6484375
10.986328125
20.1416015625
26.55029296875
29.296875
30.21240234375
39.36767578125
41.19873046875
43.9453125
53.1005859375
55.84716796875
64.0869140625
75.0732421875
84.228515625
83.31298828125
94.29931640625
98.876953125
108.0322265625
115.3564453125
117.1875
119.93408203125
131.8359375
140.9912109375
147.39990234375
150.146484375
158.38623046875
159.3017578125
168.45703125
175.78125
179.443359375
184.9365234375
189.51416015625
199.5849609375
202.33154296875
203.2470703125
212.40234375
221.5576171875
219.7265625
219.7265625
226.13525390625
224.30419921875
227.96630859375
234.375
238.037109375
232.5439453125
231.62841796875
232.5439453125
229.79736328125
226.13525390625
216.97998046875
211.48681640625
202.33154296875
193.17626953125
180.35888671875
172.119140625
157.470703125
140.9912109375
136.41357421875
121.76513671875
100.7080078125
89.7216796875
79.65087890625
67.7490234375
50.35400390625
36.62109375
31.1279296875
19.22607421875
10.07080078125
3.662109375
-9.1552734375
-22.88818359375
-27.4658203125
-28.38134765625
-36.62109375
-47.607421875
-53.1005859375
-54.01611328125
-60.4248046875
-65.91796875
-64.0869140625
-63.17138671875
-71.4111328125
-72.32666015625
-79.65087890625
-80.56640625
-83.31298828125
-77.81982421875
-82.3974609375
-84.228515625
-85.14404296875
-88.80615234375
-86.0595703125
-84.228515625
-86.0595703125
-91.552734375
-86.0595703125
-83.31298828125
-86.0595703125
-80.56640625
-83.31298828125
-82.3974609375
-84.228515625
-85.14404296875
-85.14404296875
-87.890625
-85.14404296875
-79.65087890625
-81.48193359375
-84.228515625
-78.7353515625
-76.904296875
-81.48193359375
-76.904296875
-79.65087890625
-82.3974609375
-84.228515625
-80.56640625
-78.7353515625
-81.48193359375
-84.228515625
-81.48193359375
-77.81982421875
-75.0732421875
-71.4111328125
-74.15771484375
-78.7353515625
-80.56640625
-80.56640625
-79.65087890625
-82.3974609375
-77.81982421875
-77.81982421875
-81.48193359375
-78.7353515625
-83.31298828125
-81.48193359375
-75.0732421875
-75.0732421875
-77.81982421875
-80.56640625
-84.228515625
-86.0595703125
-90.63720703125
-88.80615234375
-86.0595703125
-86.0595703125
-85.14404296875
-84.228515625
-86.97509765625
-93.3837890625
-89.7216796875
-89.7216796875
-89.7216796875
-93.3837890625
-93.3837890625
-95.21484375
-95.21484375
-92.46826171875
-93.3837890625
-95.21484375
-97.96142578125
-98.876953125
-97.96142578125
-98.876953125
-102.5390625
-104.3701171875
-101.62353515625
-95.21484375
-100.7080078125
-103.45458984375
-100.7080078125
-104.3701171875
-103.45458984375
-106.201171875
-112.60986328125
-110.77880859375
-110.77880859375
-110.77880859375
-112.60986328125
-112.60986328125
-108.0322265625
-106.201171875
-114.44091796875
-111.6943359375
-116.27197265625
-117.1875
-113.525390625
-109.86328125
-108.94775390625
-112.60986328125
-111.6943359375
-111.6943359375
-114.44091796875
-109.86328125
-114.44091796875
-115.3564453125
-119.0185546875
-114.44091796875
-107.11669921875
-109.86328125
-119.0185546875
-116.27197265625
-115.3564453125
-115.3564453125
-113.525390625
-114.44091796875
-115.3564453125
-115.3564453125
-119.0185546875
-121.76513671875
-120.849609375
-113.525390625
-110.77880859375
-119.93408203125
-120.849609375
-121.76513671875
-116.27197265625
-117.1875
-116.27197265625
-118.10302734375
-118.10302734375
-117.1875
-118.10302734375
-119.93408203125
-118.10302734375
-116.27197265625
-116.27197265625
-115.3564453125
-115.3564453125
-119.93408203125
-119.0185546875
-120.849609375
-117.1875
-117.1875
-116.27197265625
-117.1875
-124.51171875
-119.0185546875
-117.1875
-119.0185546875
-117.1875
-119.0185546875
-119.93408203125
-118.10302734375
-121.76513671875
-119.0185546875
-116.27197265625
-119.93408203125
-123.59619140625
-119.93408203125
-116.27197265625
-117.1875
-115.3564453125
-117.1875
-116.27197265625
-114.44091796875
-109.86328125
-103.45458984375
-99.79248046875
-96.13037109375
-85.14404296875
-84.228515625
-84.228515625
-75.98876953125
-76.904296875
-75.0732421875
-78.7353515625
-81.48193359375
-75.98876953125
-75.98876953125
-73.2421875
-66.83349609375
-68.66455078125
-66.83349609375
-70.49560546875
-59.50927734375
-53.1005859375
-48.52294921875
-47.607421875
-42.1142578125
-35.70556640625
-40.283203125
-35.70556640625
-37.53662109375
-44.86083984375
-38.4521484375
-42.1142578125
-47.607421875
-50.35400390625
-48.52294921875
-54.931640625
-69.580078125
-69.580078125
-71.4111328125
-77.81982421875
-82.3974609375
-82.3974609375
-88.80615234375
-108.0322265625
-118.10302734375
-118.10302734375
-120.849609375
-119.93408203125
-128.173828125
-130.0048828125
-134.58251953125
-134.58251953125
-140.9912109375
-145.56884765625
-143.73779296875
-138.24462890625
-141.90673828125
-137.3291015625
-139.16015625
-145.56884765625
-150.146484375
-145.56884765625
-142.822265625
-140.9912109375
-140.07568359375
-146.484375
-148.3154296875
-144.6533203125
-143.73779296875
-146.484375
-148.3154296875
-151.9775390625
-152.89306640625
-151.06201171875
-151.9775390625
-145.56884765625
-151.9775390625
-156.55517578125
-164.794921875
-182.18994140625
-206.9091796875
-215.14892578125
-208.740234375
-196.83837890625
-176.69677734375
-151.06201171875
-116.27197265625
-69.580078125
0
99.79248046875
221.5576171875
335.0830078125
464.17236328125
614.31884765625
739.74609375
844.1162109375
913.6962890625
923.76708984375
910.0341796875
858.7646484375
776.3671875
646.3623046875
444.03076171875
278.3203125
162.04833984375
56.7626953125
-37.53662109375
-120.849609375
-177.6123046875
-227.05078125
-256.34765625
-244.44580078125
-206.9091796875
-177.6123046875
-147.39990234375
-118.10302734375
-100.7080078125
-89.7216796875
-86.97509765625
-94.29931640625
-102.5390625
-101.62353515625
-105.28564453125
-114.44091796875
-110.77880859375
-110.77880859375
-117.1875
-118.10302734375
-111.6943359375
-118.10302734375
-111.6943359375
-109.86328125
-110.77880859375
-114.44091796875
-110.77880859375
-106.201171875
-105.28564453125
-108.0322265625
-102.5390625
-104.3701171875
-106.201171875
-100.7080078125
-97.96142578125
-100.7080078125
-97.96142578125
-97.0458984375
-95.21484375
-92.46826171875
-92.46826171875
-98.876953125
-95.21484375
-94.29931640625
-87.890625
-86.97509765625
-82.3974609375
-86.97509765625
-83.31298828125
-76.904296875
-76.904296875
-75.98876953125
-75.98876953125
-75.98876953125
-67.7490234375
-65.91796875
-66.83349609375
-61.34033203125
-66.83349609375
-65.00244140625
-55.84716796875
-58.59375
-55.84716796875
-44.86083984375
-41.19873046875
-41.19873046875
-45.7763671875
-39.36767578125
-34.7900390625
-37.53662109375
-33.87451171875
-29.296875
-26.55029296875
-24.71923828125
-15.56396484375
-13.73291015625
-15.56396484375
-8.23974609375
-1.8310546875
1.8310546875
4.57763671875
8.23974609375
9.1552734375
11.90185546875
19.22607421875
25.634765625
30.21240234375
34.7900390625
40.283203125
47.607421875
54.01611328125
57.67822265625
65.91796875
74.15771484375
79.65087890625
88.80615234375
97.96142578125
103.45458984375
107.11669921875
121.76513671875
122.6806640625
128.173828125
135.498046875
137.3291015625
146.484375
157.470703125
165.71044921875
168.45703125
172.119140625
178.52783203125
181.2744140625
188.5986328125
194.091796875
199.5849609375
202.33154296875
203.2470703125
209.65576171875
210.5712890625
218.81103515625
222.47314453125
225.2197265625
226.13525390625
227.96630859375
228.8818359375
231.62841796875
227.96630859375
225.2197265625
216.97998046875
210.5712890625
209.65576171875
201.416015625
185.85205078125
179.443359375
166.6259765625
155.6396484375
140.07568359375
127.25830078125
110.77880859375
97.0458984375
83.31298828125
75.0732421875
53.1005859375
41.19873046875
35.70556640625
25.634765625
10.07080078125
0.91552734375
-3.662109375
-19.22607421875
-31.1279296875
-35.70556640625
-36.62109375
-51.26953125
-54.931640625
-57.67822265625
-60.4248046875
-67.7490234375
-75.98876953125
-78.7353515625
-83.31298828125
-80.56640625
-81.48193359375
-81.48193359375
-86.0595703125
-81.48193359375
-84.228515625
-85.14404296875
-85.14404296875
-87.890625
-89.7216796875
-91.552734375
-98.876953125
-96.13037109375
-93.3837890625
-90.63720703125
-86.0595703125
-96.13037109375
-89.7216796875
-86.97509765625
-88.80615234375
-90.63720703125
-91.552734375
-89.7216796875
-86.0595703125
-84.228515625
-83.31298828125
-86.97509765625
-90.63720703125
-89.7216796875
-89.7216796875
-85.14404296875
-82.3974609375
-83.31298828125
-89.7216796875
-83.31298828125
-78.7353515625
-82.3974609375
-85.14404296875
-88.80615234375
-78.7353515625
-80.56640625
-80.56640625
-83.31298828125
-82.3974609375
-82.3974609375
-82.3974609375
-83.31298828125
-82.3974609375
-87.890625
-86.97509765625
-82.3974609375
-83.31298828125
-81.48193359375
-82.3974609375
-85.14404296875
-81.48193359375
-84.228515625
-82.3974609375
-80.56640625
-84.228515625
-80.56640625
-79.65087890625
-80.56640625
-80.56640625
-80.56640625
-87.890625
-93.3837890625
-83.31298828125
-86.97509765625
-84.228515625
-84.228515625
-87.890625
-91.552734375
-89.7216796875
-86.97509765625
-89.7216796875
-94.29931640625
-97.0458984375
-96.13037109375
-93.3837890625
-93.3837890625
-95.21484375
-97.0458984375
-99.79248046875
-96.13037109375
-97.96142578125
-101.62353515625
-105.28564453125
-95.21484375
-98.876953125
-103.45458984375
-96.13037109375
-104.3701171875
-106.201171875
-101.62353515625
-105.28564453125
-102.5390625
-101.62353515625
-103.45458984375
-102.5390625
-98.876953125
-102.5390625
-106.201171875
-104.3701171875
-108.94775390625
-102.5390625
-104.3701171875
-111.6943359375
-105.28564453125
-108.94775390625
-107.11669921875
-108.94775390625
-103.45458984375
-101.62353515625
-99.79248046875
-103.45458984375
-103.45458984375
-107.11669921875
-104.3701171875
-103.45458984375
-108.0322265625
-108.94775390625
-109.86328125
-110.77880859375
-107.11669921875
-105.28564453125
-108.94775390625
-105.28564453125
-48.52294921875
-51.26953125
-95.21484375
-97.96142578125
-100.7080078125
-106.201171875
-103.45458984375
-107.11669921875
-106.201171875
-108.94775390625
-101.62353515625
-104.3701171875
-112.60986328125
-112.60986328125
-105.28564453125
-99.79248046875
-108.94775390625
-109.86328125
-105.28564453125
-105.28564453125
-107.11669921875
-104.3701171875
-99.79248046875
-112.60986328125
-107.11669921875
-107.11669921875
-110.77880859375
-102.5390625
-104.3701171875
-110.77880859375
-108.94775390625
-108.0322265625
-104.3701171875
-110.77880859375
-110.77880859375
-104.3701171875
-105.28564453125
-108.94775390625
-107.11669921875
-110.77880859375
-112.60986328125
-113.525390625
-111.6943359375
-110.77880859375
-110.77880859375
-109.86328125
-108.94775390625
-106.201171875
-106.201171875
-103.45458984375
-108.0322265625
-107.11669921875
-108.0322265625
-107.11669921875
-109.86328125
-110.77880859375
-108.0322265625
-109.86328125
-109.86328125
-107.11669921875
-105.28564453125
-103.45458984375
-102.5390625
-109.86328125
-112.60986328125
-107.11669921875
-101.62353515625
-100.7080078125
-111.6943359375
-108.94775390625
-104.3701171875
-105.28564453125
-108.94775390625
-104.3701171875
-101.62353515625
-107.11669921875
-95.21484375
-87.890625
-86.97509765625
-85.14404296875
-84.228515625
-81.48193359375
-78.7353515625
-81.48193359375
-81.48193359375
-70.49560546875
-67.7490234375
-69.580078125
-66.83349609375
-56.7626953125
-54.931640625
-62.255859375
-61.34033203125
-57.67822265625
-53.1005859375
-44.86083984375
-39.36767578125
-39.36767578125
-32.04345703125
-29.296875
-29.296875
-24.71923828125
-17.39501953125
-20.1416015625
-25.634765625
-30.21240234375
-31.1279296875
-40.283203125
-41.19873046875
-45.7763671875
-54.931640625
-56.7626953125
-57.67822265625
-68.66455078125
-74.15771484375
-70.49560546875
-69.580078125
-75.98876953125
-88.80615234375
-97.96142578125
-108.0322265625
-108.0322265625
-108.0322265625
-108.0322265625
-118.10302734375
-123.59619140625
-121.76513671875
-119.93408203125
-115.3564453125
-123.59619140625
-129.08935546875
-116.27197265625
-119.93408203125
-119.93408203125
-116.27197265625
-115.3564453125
-125.42724609375
-128.173828125
-126.3427734375
-126.3427734375
-127.25830078125
-126.3427734375
-130.0048828125
-132.75146484375
-127.25830078125
-126.3427734375
-126.3427734375
-127.25830078125
-130.0048828125
-132.75146484375
-130.0048828125
-129.08935546875
-135.498046875
-148.3154296875
-163.87939453125
-176.69677734375
-184.02099609375
-176.69677734375
-166.6259765625
-151.06201171875
-130.0048828125
-96.13037109375
-45.7763671875
28.38134765625
136.41357421875
249.93896484375
365.29541015625
490.72265625
630.79833984375
726.9287109375
820.3125
884.3994140625
882.568359375
854.18701171875
798.33984375
719.6044921875
579.52880859375
380.859375
237.12158203125
132.75146484375
32.04345703125
-56.7626953125
-127.25830078125
-178.52783203125
-214.2333984375
-233.45947265625
-233.45947265625
-208.740234375
-184.02099609375
-156.55517578125
-128.173828125
-101.62353515625
-84.228515625
-76.904296875
-79.65087890625
-82.3974609375
-85.14404296875
-91.552734375
-86.0595703125
-84.228515625
-86.97509765625
-88.80615234375
-89.7216796875
-91.552734375
-85.14404296875
-83.31298828125
-84.228515625
-85.14404296875
-88.80615234375
-88.80615234375
-83.31298828125
-82.3974609375
-78.7353515625
-77.81982421875
-76.904296875
-75.98876953125
-71.4111328125
-72.32666015625
-78.7353515625
-76.904296875
-73.2421875
-63.17138671875
-61.34033203125
-70.49560546875
-63.17138671875
-63.17138671875
-59.50927734375
-55.84716796875
-55.84716796875
-62.255859375
-56.7626953125
-50.35400390625
-54.01611328125
-54.931640625
-48.52294921875
-40.283203125
-38.4521484375
-31.1279296875
-30.21240234375
-31.1279296875
-35.70556640625
-30.21240234375
-26.55029296875
-33.87451171875
-29.296875
-25.634765625
-18.310546875
-11.90185546875
-5.4931640625
-6.40869140625
-8.23974609375
-5.4931640625
0
2.74658203125
6.40869140625
3.662109375
12.8173828125
16.4794921875
17.39501953125
18.310546875
28.38134765625
30.21240234375
32.04345703125
33.87451171875
39.36767578125
44.86083984375
53.1005859375
61.34033203125
63.17138671875
57.67822265625
67.7490234375
76.904296875
81.48193359375
83.31298828125
96.13037109375
95.21484375
102.5390625
115.3564453125
118.10302734375
130.0048828125
140.07568359375
139.16015625
147.39990234375
159.3017578125
161.1328125
165.71044921875
177.6123046875
179.443359375
186.767578125
201.416015625
205.99365234375
210.5712890625
224.30419921875
219.7265625
223.388671875
229.79736328125
235.29052734375
241.69921875
239.8681640625
246.27685546875
249.0234375
256.34765625
262.75634765625
265.5029296875
272.8271484375
270.08056640625
270.99609375
279.23583984375
272.8271484375
266.41845703125
262.75634765625
265.5029296875
249.0234375
239.8681640625
234.375
225.2197265625
214.2333984375
203.2470703125
186.767578125
171.20361328125
161.1328125
158.38623046875
138.24462890625
127.25830078125
119.93408203125
107.11669921875
96.13037109375
81.48193359375
64.0869140625
45.7763671875
36.62109375
26.55029296875
26.55029296875
16.4794921875
8.23974609375
8.23974609375
3.662109375
-3.662109375
-6.40869140625
-15.56396484375
-21.05712890625
-21.97265625
-26.55029296875
-32.958984375
-37.53662109375
-36.62109375
-37.53662109375
-36.62109375
-38.4521484375
-39.36767578125
-38.4521484375
-42.1142578125
-42.1142578125
-47.607421875
-43.9453125
-42.1142578125
-44.86083984375
-40.283203125
-38.4521484375
-37.53662109375
-38.4521484375
-42.1142578125
-42.1142578125
-49.4384765625
-51.26953125
-43.9453125
-33.87451171875
-39.36767578125
-42.1142578125
-43.02978515625
-47.607421875
-37.53662109375
-43.02978515625
-43.02978515625
-43.9453125
-43.02978515625
-38.4521484375
-29.296875
-32.04345703125
-33.87451171875
-39.36767578125
-45.7763671875
-36.62109375
-41.19873046875
-31.1279296875
-37.53662109375
-25.634765625
-25.634765625
-30.21240234375
-35.70556640625
-35.70556640625
-32.958984375
-34.7900390625
-38.4521484375
-40.283203125
-36.62109375
-30.21240234375
-30.21240234375
-32.958984375
-32.958984375
-31.1279296875
-32.958984375
-34.7900390625
-33.87451171875
-41.19873046875
-43.02978515625
-42.1142578125
-43.9453125
-41.19873046875
-38.4521484375
-42.1142578125
-43.02978515625
-38.4521484375
-42.1142578125
-43.02978515625
-43.02978515625
-43.9453125
-47.607421875
-47.607421875
-47.607421875
-48.52294921875
-46.69189453125
-45.7763671875
-52.18505859375
-50.35400390625
-52.18505859375
-48.52294921875
-49.4384765625
-49.4384765625
-53.1005859375
-54.01611328125
-57.67822265625
-59.50927734375
-62.255859375
-62.255859375
-54.01611328125
-54.931640625
-52.18505859375
-58.59375
-54.931640625
-54.931640625
-56.7626953125
-54.01611328125
-57.67822265625
-54.01611328125
-59.50927734375
-60.4248046875
-54.931640625
-60.4248046875
-63.17138671875
-69.580078125
-66.83349609375
-58.59375
-62.255859375
-67.7490234375
-59.50927734375
-55.84716796875
-54.931640625
-55.84716796875
-60.4248046875
-61.34033203125
-63.17138671875
-60.4248046875
-64.0869140625
-62.255859375
-61.34033203125
-65.00244140625
-63.17138671875
-61.34033203125
-65.00244140625
-69.580078125
-66.83349609375
-65.00244140625
-72.32666015625
-71.4111328125
-70.49560546875
-72.32666015625
-68.66455078125
-67.7490234375
-63.17138671875
-62.255859375
-62.255859375
-57.67822265625
-63.17138671875
-66.83349609375
-64.0869140625
-67.7490234375
-66.83349609375
-65.91796875
-69.580078125
-73.2421875
-69.580078125
-69.580078125
-73.2421875
-69.580078125
-72.32666015625
-62.255859375
-65.00244140625
-62.255859375
-65.00244140625
-69.580078125
-67.7490234375
-67.7490234375
-69.580078125
-68.66455078125
-70.49560546875
-63.17138671875
-54.931640625
-58.59375
-59.50927734375
-54.931640625
-43.9453125
-43.02978515625
-43.02978515625
-40.283203125
-37.53662109375
-29.296875
-36.62109375
-38.4521484375
-37.53662109375
-34.7900390625
-25.634765625
-17.39501953125
-19.22607421875
-15.56396484375
-12.8173828125
-4.57763671875
-0.91552734375
1.8310546875
1.8310546875
7.32421875
9.1552734375
11.90185546875
10.986328125
14.6484375
15.56396484375
13.73291015625
8.23974609375
-2.74658203125
-11.90185546875
-12.8173828125
-14.6484375
-20.1416015625
-26.55029296875
-37.53662109375
-41.19873046875
-37.53662109375
-40.283203125
-46.69189453125
-50.35400390625
-65.91796875
-75.0732421875
-75.98876953125
-81.48193359375
-85.14404296875
-86.97509765625
-86.0595703125
-88.80615234375
-91.552734375
-86.97509765625
-92.46826171875
-90.63720703125
-92.46826171875
-93.3837890625
-91.552734375
-92.46826171875
-98.876953125
-96.13037109375
-97.96142578125
-103.45458984375
-102.5390625
-99.79248046875
-100.7080078125
-97.96142578125
-99.79248046875
-99.79248046875
-97.96142578125
-97.0458984375
-99.79248046875
-103.45458984375
-105.28564453125
-102.5390625
-102.5390625
-109.86328125
-117.1875
-121.76513671875
-141.90673828125
-164.794921875
-163.87939453125
-163.87939453125
-152.89306640625
-124.51171875
-101.62353515625
-72.32666015625
-20.1416015625
64.0869140625
182.18994140625
294.7998046875
410.15625
538.330078125
677.490234375
774.5361328125
853.271484375
894.47021484375
877.0751953125
841.36962890625
775.45166015625
678.40576171875
521.8505859375
337.82958984375
216.064453125
124.51171875
26.55029296875
-60.4248046875
-119.93408203125
-167.54150390625
-191.34521484375
-208.740234375
-211.48681640625
-200.50048828125
-184.9365234375
-151.9775390625
-131.8359375
-105.28564453125
-87.890625
-71.4111328125
-69.580078125
-70.49560546875
-75.98876953125
-76.904296875
-75.98876953125
-76.904296875
-76.904296875
-87.890625
-80.56640625
-71.4111328125
-76.904296875
-77.81982421875
-73.2421875
-75.0732421875
-78.7353515625
-69.580078125
-72.32666015625
-69.580078125
-71.4111328125
-66.83349609375
-64.0869140625
-66.83349609375
-70.49560546875
-71.4111328125
-67.7490234375
-64.0869140625
-58.59375
-53.1005859375
-59.50927734375
-60.4248046875
-54.01611328125
-56.7626953125
-53.1005859375
-52.18505859375
-51.26953125
-52.18505859375
-44.86083984375
-45.7763671875
-46.69189453125
-42.1142578125
-38.4521484375
-35.70556640625
-35.70556640625
-33.87451171875
-29.296875
-25.634765625
-28.38134765625
-30.21240234375
-25.634765625
-23.8037109375
-17.39501953125
-14.6484375
-6.40869140625
-16.4794921875
-11.90185546875
-6.40869140625
-4.57763671875
-2.74658203125
1.8310546875
5.4931640625
9.1552734375
16.4794921875
9.1552734375
13.73291015625
18.310546875
22.88818359375
27.4658203125
32.958984375
27.4658203125
35.70556640625
46.69189453125
54.931640625
56.7626953125
54.931640625
61.34033203125
68.66455078125
73.2421875
75.98876953125
79.65087890625
85.14404296875
95.21484375
97.0458984375
103.45458984375
112.60986328125
117.1875
129.08935546875
135.498046875
139.16015625
145.56884765625
151.9775390625
163.87939453125
173.03466796875
173.03466796875
175.78125
185.85205078125
188.5986328125
199.5849609375
203.2470703125
204.16259765625
208.740234375
216.064453125
225.2197265625
227.05078125
224.30419921875
232.5439453125
238.037109375
244.44580078125
246.27685546875
245.361328125
248.10791015625
252.685546875
257.26318359375
251.77001953125
247.1923828125
244.44580078125
242.61474609375
238.037109375
229.79736328125
224.30419921875
214.2333984375
203.2470703125
194.091796875
185.85205078125
169.37255859375
153.80859375
141.90673828125
132.75146484375
112.60986328125
97.96142578125
86.0595703125
74.15771484375
64.0869140625
53.1005859375
42.1142578125
25.634765625
21.05712890625
12.8173828125
3.662109375
-9.1552734375
-15.56396484375
-21.97265625
-28.38134765625
-27.4658203125
-33.87451171875
-37.53662109375
-43.02978515625
-44.86083984375
-51.26953125
-58.59375
-59.50927734375
-58.59375
-59.50927734375
-61.34033203125
-59.50927734375
-57.67822265625
-65.00244140625
-62.255859375
-69.580078125
-67.7490234375
-67.7490234375
-67.7490234375
-66.83349609375
-64.0869140625
-66.83349609375
-66.83349609375
-65.00244140625
-65.00244140625
-66.83349609375
-71.4111328125
-68.66455078125
-65.00244140625
-61.34033203125
-60.4248046875
-65.91796875
-65.00244140625
-62.255859375
-60.4248046875
-65.00244140625
-69.580078125
-65.00244140625
-65.00244140625
-66.83349609375
-62.255859375
-70.49560546875
-65.91796875
-63.17138671875
-62.255859375
-70.49560546875
-75.0732421875
-61.34033203125
-57.67822265625
-56.7626953125
-62.255859375
-66.83349609375
-60.4248046875
-59.50927734375
-58.59375
-64.0869140625
-69.580078125
-66.83349609375
-67.7490234375
-69.580078125
-65.91796875
-65.00244140625
-67.7490234375
-66.83349609375
-66.83349609375
-66.83349609375
-74.15771484375
-77.81982421875
-70.49560546875
-73.2421875
-74.15771484375
-76.904296875
-80.56640625
-77.81982421875
-73.2421875
-79.65087890625
-86.0595703125
-79.65087890625
-77.81982421875
-77.81982421875
-83.31298828125
-83.31298828125
-83.31298828125
-84.228515625
-87.890625
-87.890625
-88.80615234375
-89.7216796875
-87.890625
-91.552734375
-91.552734375
-96.13037109375
-92.46826171875
-94.29931640625
-95.21484375
-101.62353515625
-95.21484375
-96.13037109375
-92.46826171875
-93.3837890625
-92.46826171875
-99.79248046875
-97.96142578125
-97.96142578125
-97.0458984375
-97.96142578125
-100.7080078125
-103.45458984375
-104.3701171875
-102.5390625
-102.5390625
-105.28564453125
-97.0458984375
-97.96142578125
-99.79248046875
-102.5390625
-105.28564453125
-105.28564453125
-100.7080078125
-100.7080078125
-105.28564453125
-100.7080078125
-107.11669921875
-104.3701171875
-106.201171875
-102.5390625
-115.3564453125
-108.94775390625
-105.28564453125
-104.3701171875
-106.201171875
-109.86328125
-111.6943359375
-106.201171875
-103.45458984375
-103.45458984375
-109.86328125
-113.525390625
-111.6943359375
-108.94775390625
-111.6943359375
-109.86328125
-114.44091796875
-114.44091796875
-108.0322265625
-112.60986328125
-109.86328125
-109.86328125
-110.77880859375
-106.201171875
-107.11669921875
-113.525390625
-113.525390625
-110.77880859375
-108.94775390625
-114.44091796875
-113.525390625
-108.94775390625
-116.27197265625
-114.44091796875
-112.60986328125
-116.27197265625
-118.10302734375
-116.27197265625
-110.77880859375
-115.3564453125
-114.44091796875
-112.60986328125
-111.6943359375
-103.45458984375
-111.6943359375
-119.93408203125
-119.93408203125
-113.525390625
-114.44091796875
-119.0185546875
-119.0185546875
-118.10302734375
-113.525390625
-108.94775390625
-105.28564453125
-109.86328125
-110.77880859375
-110.77880859375
-117.1875
-119.0185546875
-118.10302734375
-119.93408203125
-117.1875
-118.10302734375
-116.27197265625
-119.0185546875
-117.1875
-112.60986328125
-112.60986328125
-113.525390625
-118.10302734375
-121.76513671875
-121.76513671875
-115.3564453125
-115.3564453125
-111.6943359375
-113.525390625
-111.6943359375
-105.28564453125
-103.45458984375
-105.28564453125
-94.29931640625
-91.552734375
-85.14404296875
-81.48193359375
-82.3974609375
-79.65087890625
-75.0732421875
-74.15771484375
-76.904296875
-74.15771484375
-73.2421875
-65.00244140625
-65.91796875
-65.91796875
-65.91796875
-68.66455078125
-58.59375
-51.26953125
-47.607421875
-46.69189453125
-41.19873046875
-43.02978515625
-39.36767578125
-32.958984375
-34.7900390625
-34.7900390625
-43.02978515625
-51.26953125
-54.931640625
-58.59375
-61.34033203125
-70.49560546875
-70.49560546875
-74.15771484375
-87.890625
-87.890625
-84.228515625
-90.63720703125
-106.201171875
-117.1875
-126.3427734375
-123.59619140625
-123.59619140625
-129.08935546875
-134.58251953125
-138.24462890625
-140.07568359375
-133.6669921875
-140.9912109375
-143.73779296875
-141.90673828125
-141.90673828125
-141.90673828125
-140.9912109375
-143.73779296875
-147.39990234375
-148.3154296875
-144.6533203125
-143.73779296875
-148.3154296875
-146.484375
-143.73779296875
-144.6533203125
-150.146484375
-151.06201171875
-151.06201171875
-149.23095703125
-151.9775390625
-145.56884765625
-152.89306640625
-158.38623046875
-153.80859375
-152.89306640625
-167.54150390625
-184.9365234375
-194.091796875
-209.65576171875
-210.5712890625
-202.33154296875
-184.9365234375
-162.04833984375
-140.9912109375
-108.0322265625
-43.9453125
45.7763671875
154.72412109375
271.91162109375
399.169921875
538.330078125
676.57470703125
794.677734375
879.82177734375
928.3447265625
927.42919921875
895.3857421875
826.72119140625
724.18212890625
548.40087890625
351.5625
206.9091796875
98.876953125
2.74658203125
-85.14404296875
-160.21728515625
-210.5712890625
-249.0234375
-261.8408203125
-237.12158203125
-207.82470703125
-173.03466796875
-138.24462890625
-114.44091796875
-97.96142578125
-97.0458984375
-98.876953125
-112.60986328125
-117.1875
-110.77880859375
-110.77880859375
-118.10302734375
-117.1875
-116.27197265625
-119.0185546875
-125.42724609375
-122.6806640625
-124.51171875
-123.59619140625
-123.59619140625
-119.93408203125
-117.1875
-120.849609375
-117.1875
-119.93408203125
-113.525390625
-121.76513671875
-120.849609375
-107.11669921875
-104.3701171875
-111.6943359375
-112.60986328125
-111.6943359375
-106.201171875
-106.201171875
-108.0322265625
-100.7080078125
-95.21484375
-97.96142578125
-97.96142578125
-92.46826171875
-93.3837890625
-92.46826171875
-90.63720703125
-86.0595703125
-86.0595703125
-85.14404296875
-83.31298828125
-79.65087890625
-79.65087890625
-78.7353515625
-75.0732421875
-75.98876953125
-71.4111328125
-63.17138671875
-59.50927734375
-63.17138671875
-60.4248046875
-58.59375
-56.7626953125
-56.7626953125
-49.4384765625
-47.607421875
-46.69189453125
-43.02978515625
-41.19873046875
-36.62109375
-35.70556640625
-30.21240234375
-26.55029296875
-20.1416015625
-24.71923828125
-19.22607421875
-11.90185546875
-10.07080078125
-2.74658203125
-0.91552734375
-0.91552734375
7.32421875
9.1552734375
15.56396484375
23.8037109375
27.4658203125
32.958984375
36.62109375
42.1142578125
52.18505859375
57.67822265625
69.580078125
73.2421875
76.904296875
85.14404296875
92.46826171875
95.21484375
113.525390625
125.42724609375
124.51171875
132.75146484375
141.90673828125
151.06201171875
151.9775390625
153.80859375
158.38623046875
166.6259765625
174.86572265625
183.10546875
187.68310546875
190.4296875
196.83837890625
204.16259765625
204.16259765625
208.740234375
211.48681640625
220.64208984375
223.388671875
223.388671875
227.96630859375
228.8818359375
232.5439453125
228.8818359375
236.2060546875
236.2060546875
227.05078125
227.05078125
224.30419921875
217.8955078125
207.82470703125
195.9228515625
182.18994140625
179.443359375
163.87939453125
149.23095703125
134.58251953125
126.3427734375
112.60986328125
97.96142578125
84.228515625
66.83349609375
48.52294921875
39.36767578125
23.8037109375
8.23974609375
2.74658203125
-12.8173828125
-20.1416015625
-30.21240234375
-36.62109375
-39.36767578125
-48.52294921875
-54.931640625
-55.84716796875
-61.34033203125
-69.580078125
-68.66455078125
-70.49560546875
-75.98876953125
-82.3974609375
-81.48193359375
-83.31298828125
-86.97509765625
-89.7216796875
-85.14404296875
-88.80615234375
-94.29931640625
-87.890625
-87.890625
-86.97509765625
-90.63720703125
-89.7216796875
-92.46826171875
-95.21484375
-96.13037109375
-93.3837890625
-94.29931640625
-92.46826171875
-87.890625
-91.552734375
-94.29931640625
-93.3837890625
-88.80615234375
-93.3837890625
-89.7216796875
-94.29931640625
-90.63720703125
-89.7216796875
-91.552734375
-95.21484375
-93.3837890625
-85.14404296875
-82.3974609375
-87.890625
-90.63720703125
-87.890625
-84.228515625
-81.48193359375
-83.31298828125
-81.48193359375
-83.31298828125
-86.97509765625
-79.65087890625
-80.56640625
-91.552734375
-88.80615234375
-85.14404296875
-86.0595703125
-86.0595703125
-86.97509765625
-86.97509765625
-84.228515625
-77.81982421875
-81.48193359375
-87.890625
-93.3837890625
-93.3837890625
-91.552734375
-87.890625
-93.3837890625
-93.3837890625
-92.46826171875
-95.21484375
-91.552734375
-97.0458984375
-97.0458984375
-100.7080078125
-93.3837890625
-88.80615234375
-92.46826171875
-98.876953125
-97.96142578125
-101.62353515625
-105.28564453125
-102.5390625
-102.5390625
-98.876953125
-96.13037109375
-95.21484375
-97.0458984375
-108.94775390625
-103.45458984375
-102.5390625
-105.28564453125
-105.28564453125
-107.11669921875
-111.6943359375
-111.6943359375
-108.94775390625
-109.86328125
-107.11669921875
-113.525390625
-102.5390625
-104.3701171875
-110.77880859375
-109.86328125
-111.6943359375
-109.86328125
-109.86328125
-111.6943359375
-109.86328125
-110.77880859375
-108.0322265625
-109.86328125
-117.1875
-111.6943359375
-113.525390625
-113.525390625
-117.1875
-115.3564453125
-117.1875
-119.0185546875
-117.1875
-112.60986328125
-115.3564453125
-116.27197265625
-115.3564453125
-111.6943359375
-109.86328125
-115.3564453125
-117.1875
-119.0185546875
-119.0185546875
-114.44091796875
-120.849609375
-117.1875
-115.3564453125
-118.10302734375
-114.44091796875
-114.44091796875
-112.60986328125
-114.44091796875
-114.44091796875
-118.10302734375
-119.0185546875
-118.10302734375
-117.1875
-118.10302734375
-117.1875
-120.849609375
-119.93408203125
-119.93408203125
-120.849609375
-117.1875
-117.1875
-119.0185546875
-117.1875
-114.44091796875
-113.525390625
-117.1875
-124.51171875
-121.76513671875
-119.0185546875
-117.1875
-115.3564453125
-118.10302734375
-119.93408203125
-118.10302734375
-118.10302734375
-123.59619140625
-121.76513671875
-120.849609375
-117.1875
-123.59619140625
-120.849609375
-115.3564453125
-114.44091796875
-119.0185546875
-120.849609375
-118.10302734375
-117.1875
-112.60986328125
-115.3564453125
-115.3564453125
-114.44091796875
-119.93408203125
-118.10302734375
-116.27197265625
-115.3564453125
-123.59619140625
-127.25830078125
-120.849609375
-111.6943359375
-115.3564453125
-116.27197265625
-119.93408203125
-112.60986328125
-112.60986328125
-119.93408203125
-118.10302734375
-116.27197265625
-114.44091796875
-117.1875
-117.1875
-119.93408203125
-115.3564453125
-112.60986328125
-108.94775390625
-115.3564453125
-116.27197265625
-115.3564453125
-115.3564453125
-121.76513671875
-120.849609375
-115.3564453125
-112.60986328125
-112.60986328125
-114.44091796875
-119.93408203125
-117.1875
-118.10302734375
-113.525390625
-115.3564453125
-122.6806640625
-119.93408203125
-115.3564453125
-110.77880859375
-110.77880859375
-113.525390625
-119.0185546875
-115.3564453125
-106.201171875
-101.62353515625
-100.7080078125
-108.0322265625
-98.876953125
-90.63720703125
-80.56640625
-80.56640625
-78.7353515625
-75.98876953125
-70.49560546875
-73.2421875
-67.7490234375
-65.00244140625
-59.50927734375
-62.255859375
-57.67822265625
-58.59375
-63.17138671875
-62.255859375
-57.67822265625
-51.26953125
-50.35400390625
-47.607421875
-39.36767578125
-33.87451171875
-32.958984375
-31.1279296875
-29.296875
-32.04345703125
-32.04345703125
-44.86083984375
-50.35400390625
-57.67822265625
-56.7626953125
-60.4248046875
-66.83349609375
-75.0732421875
-81.48193359375
-75.98876953125
-74.15771484375
-82.3974609375
-87.890625
-101.62353515625
-108.94775390625
-114.44091796875
-118.10302734375
-111.6943359375
-118.10302734375
-124.51171875
-125.42724609375
-118.10302734375
-119.0185546875
-123.59619140625
-119.93408203125
-125.42724609375
-128.173828125
-123.59619140625
-130.0048828125
-132.75146484375
-133.6669921875
-130.0048828125
-129.08935546875
-127.25830078125
-132.75146484375
-135.498046875
-129.08935546875
-128.173828125
-132.75146484375
-133.6669921875
-131.8359375
-130.92041015625
-135.498046875
-135.498046875
-134.58251953125
-136.41357421875
-134.58251953125
-141.90673828125
-155.6396484375
-168.45703125
-183.10546875
-191.34521484375
-183.10546875
-183.10546875
-163.87939453125
-135.498046875
-107.11669921875
-65.91796875
8.23974609375
112.60986328125
228.8818359375
345.15380859375
470.5810546875
609.7412109375
736.99951171875
836.7919921875
909.11865234375
924.6826171875
911.865234375
865.17333984375
788.26904296875
661.92626953125
456.84814453125
281.06689453125
167.54150390625
64.0869140625
-30.21240234375
-117.1875
-164.794921875
-211.48681640625
-238.95263671875
-238.95263671875
-208.740234375
-180.35888671875
-150.146484375
-119.93408203125
-85.14404296875
-75.98876953125
-80.56640625
-87.890625
-86.97509765625
-91.552734375
-87.890625
-97.0458984375
-99.79248046875
-98.876953125
-98.876953125
-100.7080078125
-104.3701171875
-97.96142578125
-97.96142578125
-97.0458984375
-95.21484375
-97.0458984375
-97.0458984375
-94.29931640625
-87.890625
-93.3837890625
-86.0595703125
-83.31298828125
-76.904296875
-76.904296875
-72.32666015625
-83.31298828125
-78.7353515625
-80.56640625
-80.56640625
-74.15771484375
-74.15771484375
-66.83349609375
-68.66455078125
-67.7490234375
-64.0869140625
-74.15771484375
-67.7490234375
-62.255859375
-58.59375
-59.50927734375
-64.0869140625
-55.84716796875
-51.26953125
-52.18505859375
-49.4384765625
-54.01611328125
-50.35400390625
-42.1142578125
-44.86083984375
-41.19873046875
-29.296875
-30.21240234375
-33.87451171875
-32.04345703125
-24.71923828125
-23.8037109375
-18.310546875
-14.6484375
-8.23974609375
-10.07080078125
-8.23974609375
-7.32421875
-2.74658203125
-0.91552734375
2.74658203125
8.23974609375
12.8173828125
18.310546875
23.8037109375
23.8037109375
24.71923828125
28.38134765625
34.7900390625
39.36767578125
47.607421875
47.607421875
49.4384765625
58.59375
64.0869140625
75.0732421875
78.7353515625
79.65087890625
86.0595703125
96.13037109375
108.0322265625
110.77880859375
109.86328125
122.6806640625
131.8359375
143.73779296875
150.146484375
156.55517578125
166.6259765625
174.86572265625
177.6123046875
178.52783203125
184.9365234375
195.00732421875
201.416015625
206.9091796875
214.2333984375
221.5576171875
224.30419921875
228.8818359375
236.2060546875
239.8681640625
240.78369140625
245.361328125
252.685546875
257.26318359375
262.75634765625
267.333984375
268.24951171875
270.08056640625
274.658203125
268.24951171875
263.671875
269.1650390625
260.92529296875
256.34765625
244.44580078125
245.361328125
230.712890625
217.8955078125
209.65576171875
201.416015625
184.9365234375
174.86572265625
162.9638671875
142.822265625
133.6669921875
119.0185546875
106.201171875
92.46826171875
82.3974609375
69.580078125
53.1005859375
42.1142578125
31.1279296875
21.05712890625
7.32421875
2.74658203125
6.40869140625
2.74658203125
-5.4931640625
-15.56396484375
-20.1416015625
-22.88818359375
-30.21240234375
-32.958984375
-37.53662109375
-39.36767578125
-40.283203125
-47.607421875
-51.26953125
-53.1005859375
-47.607421875
-52.18505859375
-50.35400390625
-48.52294921875
-49.4384765625
-54.931640625
-58.59375
-53.1005859375
-54.01611328125
-54.01611328125
-57.67822265625
-58.59375
-52.18505859375
-51.26953125
-53.1005859375
-53.1005859375
-51.26953125
-44.86083984375
-44.86083984375
-53.1005859375
-52.18505859375
-54.931640625
-50.35400390625
-48.52294921875
-50.35400390625
-46.69189453125
-42.1142578125
-43.9453125
-43.02978515625
-52.18505859375
-51.26953125
-40.283203125
-43.9453125
-44.86083984375
-44.86083984375
-41.19873046875
-43.02978515625
-44.86083984375
-45.7763671875
-49.4384765625
-51.26953125
-48.52294921875
-49.4384765625
-50.35400390625
-48.52294921875
-52.18505859375
-48.52294921875
-47.607421875
-47.607421875
-45.7763671875
-54.01611328125
-56.7626953125
-53.1005859375
-52.18505859375
-48.52294921875
-58.59375
-52.18505859375
-49.4384765625
-50.35400390625
-54.931640625
-49.4384765625
-44.86083984375
-44.86083984375
-48.52294921875
-51.26953125
-50.35400390625
-53.1005859375
-54.01611328125
-56.7626953125
-58.59375
-61.34033203125
-64.0869140625
-63.17138671875
-63.17138671875
-65.00244140625
-70.49560546875
-69.580078125
-64.0869140625
-60.4248046875
-62.255859375
-60.4248046875
-62.255859375
-63.17138671875
-63.17138671875
-65.00244140625
-69.580078125
-64.0869140625
-66.83349609375
-68.66455078125
-68.66455078125
-64.0869140625
-62.255859375
-66.83349609375
-68.66455078125
-69.580078125
-70.49560546875
-66.83349609375
-68.66455078125
-65.00244140625
-71.4111328125
-78.7353515625
-74.15771484375
-70.49560546875
-64.0869140625
-75.98876953125
-77.81982421875
-71.4111328125
-73.2421875
-75.98876953125
-75.0732421875
-74.15771484375
-70.49560546875
-64.0869140625
-67.7490234375
-77.81982421875
-75.98876953125
-80.56640625
-81.48193359375
-78.7353515625
-74.15771484375
-68.66455078125
-68.66455078125
-67.7490234375
-70.49560546875
-79.65087890625
-75.98876953125
-76.904296875
-71.4111328125
-75.98876953125
-78.7353515625
-74.15771484375
-71.4111328125
-71.4111328125
-73.2421875
-74.15771484375
-75.98876953125
-71.4111328125
-68.66455078125
-67.7490234375
-75.0732421875
-78.7353515625
-75.98876953125
-76.904296875
-76.904296875
-76.904296875
-76.904296875
-74.15771484375
-72.32666015625
-72.32666015625
-71.4111328125
-74.15771484375
-69.580078125
-66.83349609375
-69.580078125
-74.15771484375
-69.580078125
-65.00244140625
-65.91796875
-67.7490234375
-71.4111328125
-71.4111328125
-73.2421875
-67.7490234375
-66.83349609375
-72.32666015625
-70.49560546875
-66.83349609375
-66.83349609375
-68.66455078125
-69.580078125
-72.32666015625
-74.15771484375
-66.83349609375
-66.83349609375
-65.91796875
-56.7626953125
-52.18505859375
-54.01611328125
-52.18505859375
-46.69189453125
-40.283203125
-34.7900390625
-38.4521484375
-39.36767578125
-35.70556640625
-32.04345703125
-32.04345703125
-31.1279296875
-28.38134765625
-26.55029296875
-27.4658203125
-31.1279296875
-30.21240234375
-21.97265625
-23.8037109375
-17.39501953125
-16.4794921875
-11.90185546875
-11.90185546875
-3.662109375
-0.91552734375
5.4931640625
7.32421875
7.32421875
9.1552734375
0.91552734375
-6.40869140625
-12.8173828125
-16.4794921875
-21.05712890625
-32.04345703125
-32.04345703125
-32.958984375
-36.62109375
-39.36767578125
-40.283203125
-48.52294921875
-51.26953125
-55.84716796875
-65.91796875
-68.66455078125
-75.0732421875
-76.904296875
-74.15771484375
-83.31298828125
-91.552734375
-96.13037109375
-86.97509765625
-83.31298828125
-86.97509765625
-86.0595703125
-86.97509765625
-90.63720703125
-89.7216796875
-94.29931640625
-95.21484375
-89.7216796875
-90.63720703125
-93.3837890625
-92.46826171875
-88.80615234375
-89.7216796875
-90.63720703125
-95.21484375
-100.7080078125
-100.7080078125
-96.13037109375
-97.96142578125
-96.13037109375
-94.29931640625
-96.13037109375
-90.63720703125
-92.46826171875
-102.5390625
-111.6943359375
-133.6669921875
-152.89306640625
-154.72412109375
-142.822265625
-118.10302734375
-104.3701171875
-80.56640625
-47.607421875
21.05712890625
112.60986328125
216.064453125
320.4345703125
440.36865234375
571.2890625
700.37841796875
791.93115234375
864.2578125
899.0478515625
870.66650390625
833.1298828125
760.80322265625
643.61572265625
479.736328125
309.4482421875
193.17626953125
106.201171875
20.1416015625
-56.7626953125
-105.28564453125
-151.9775390625
-187.68310546875
-195.00732421875
-193.17626953125
-187.68310546875
-177.6123046875
-154.72412109375
-130.0048828125
-107.11669921875
-88.80615234375
-75.0732421875
-63.17138671875
-57.67822265625
-64.0869140625
-62.255859375
-59.50927734375
-60.4248046875
-67.7490234375
-64.0869140625
-63.17138671875
-62.255859375
-65.00244140625
-65.00244140625
-62.255859375
-59.50927734375
-57.67822265625
-57.67822265625
-55.84716796875
-51.26953125
-53.1005859375
-54.931640625
-52.18505859375
-51.26953125
-51.26953125
-47.607421875
-54.931640625
-50.35400390625
-45.7763671875
-43.9453125
-45.7763671875
-42.1142578125
-44.86083984375
-43.02978515625
-36.62109375
-39.36767578125
-41.19873046875
-33.87451171875
-32.04345703125
-30.21240234375
-29.296875
-29.296875
-26.55029296875
-19.22607421875
-21.05712890625
-12.8173828125
-16.4794921875
-18.310546875
-10.986328125
-4.57763671875
-6.40869140625
-5.4931640625
-2.74658203125
0
-0.91552734375
3.662109375
11.90185546875
8.23974609375
4.57763671875
12.8173828125
17.39501953125
13.73291015625
15.56396484375
23.8037109375
23.8037109375
24.71923828125
24.71923828125
27.4658203125
36.62109375
45.7763671875
51.26953125
54.01611328125
50.35400390625
61.34033203125
65.91796875
69.580078125
71.4111328125
75.0732421875
80.56640625
88.80615234375
100.7080078125
100.7080078125
104.3701171875
114.44091796875
118.10302734375
122.6806640625
132.75146484375
141.90673828125
146.484375
153.80859375
161.1328125
165.71044921875
171.20361328125
182.18994140625
188.5986328125
189.51416015625
199.5849609375
201.416015625
205.99365234375
211.48681640625
217.8955078125
220.64208984375
226.13525390625
232.5439453125
238.95263671875
246.27685546875
250.8544921875
257.26318359375
258.1787109375
262.75634765625
263.671875
270.08056640625
273.74267578125
273.74267578125
273.74267578125
274.658203125
269.1650390625
264.58740234375
256.34765625
252.685546875
248.10791015625
240.78369140625
229.79736328125
218.81103515625
205.99365234375
192.2607421875
181.2744140625
169.37255859375
155.6396484375
140.9912109375
134.58251953125
117.1875
102.5390625
94.29931640625
84.228515625
65.91796875
54.931640625
45.7763671875
35.70556640625
24.71923828125
16.4794921875
7.32421875
1.8310546875
-5.4931640625
-11.90185546875
-15.56396484375
-23.8037109375
-29.296875
-28.38134765625
-32.04345703125
-34.7900390625
-40.283203125
-40.283203125
-42.1142578125
-43.02978515625
-42.1142578125
-47.607421875
-53.1005859375
-51.26953125
-47.607421875
-51.26953125
-57.67822265625
-54.01611328125
-51.26953125
-54.931640625
-50.35400390625
-54.01611328125
-58.59375
-59.50927734375
-64.0869140625
-46.69189453125
-48.52294921875
-53.1005859375
-53.1005859375
-49.4384765625
-53.1005859375
-51.26953125
-50.35400390625
-55.84716796875
-52.18505859375
-47.607421875
-51.26953125
-51.26953125
-51.26953125
-54.931640625
-52.18505859375
-54.931640625
-53.1005859375
-53.1005859375
-54.931640625
-51.26953125
-55.84716796875
-52.18505859375
-48.52294921875
-54.01611328125
-56.7626953125
-60.4248046875
-57.67822265625
-57.67822265625
-59.50927734375
-56.7626953125
-58.59375
-63.17138671875
-55.84716796875
-57.67822265625
-57.67822265625
-64.0869140625
-61.34033203125
-63.17138671875
-65.00244140625
-62.255859375
-69.580078125
-69.580078125
-69.580078125
-63.17138671875
-66.83349609375
-70.49560546875
-71.4111328125
-67.7490234375
-69.580078125
-73.2421875
-76.904296875
-76.904296875
-75.98876953125
-75.98876953125
-76.904296875
-74.15771484375
-81.48193359375
-82.3974609375
-78.7353515625
-75.0732421875
-80.56640625
-83.31298828125
-81.48193359375
-81.48193359375
-79.65087890625
-87.890625
-84.228515625
-83.31298828125
-79.65087890625
-84.228515625
-83.31298828125
-88.80615234375
-85.14404296875
-83.31298828125
-84.228515625
-90.63720703125
-96.13037109375
-97.0458984375
-87.890625
-90.63720703125
-94.29931640625
-97.0458984375
-97.96142578125
-97.96142578125
-94.29931640625
-90.63720703125
-93.3837890625
-90.63720703125
-96.13037109375
-94.29931640625
-94.29931640625
-94.29931640625
-99.79248046875
-95.21484375
-89.7216796875
-94.29931640625
-96.13037109375
-96.13037109375
-92.46826171875
-97.96142578125
-97.96142578125
-99.79248046875
-98.876953125
-96.13037109375
-93.3837890625
-102.5390625
-98.876953125
-99.79248046875
-96.13037109375
-97.96142578125
-98.876953125
-97.96142578125
-101.62353515625
-102.5390625
-101.62353515625
-101.62353515625
-98.876953125
-104.3701171875
-96.13037109375
-97.0458984375
-100.7080078125
-102.5390625
-105.28564453125
-101.62353515625
-101.62353515625
-108.0322265625
-101.62353515625
-101.62353515625
-107.11669921875
-104.3701171875
-100.7080078125
-103.45458984375
-100.7080078125
-104.3701171875
-103.45458984375
-105.28564453125
-102.5390625
-108.94775390625
-109.86328125
-108.0322265625
-105.28564453125
-104.3701171875
-104.3701171875
-102.5390625
-100.7080078125
-109.86328125
-108.94775390625
-108.94775390625
-108.0322265625
-107.11669921875
-106.201171875
-108.0322265625
-105.28564453125
-108.0322265625
-106.201171875
-110.77880859375
-109.86328125
-112.60986328125
-110.77880859375
-108.0322265625
-108.0322265625
-115.3564453125
-112.60986328125
-110.77880859375
-106.201171875
-105.28564453125
-108.0322265625
-103.45458984375
-96.13037109375
-92.46826171875
-91.552734375
-82.3974609375
-73.2421875
-72.32666015625
-74.15771484375
-79.65087890625
-75.98876953125
-70.49560546875
-68.66455078125
-62.255859375
-62.255859375
-57.67822265625
-53.1005859375
-53.1005859375
-60.4248046875
-54.01611328125
-45.7763671875
-46.69189453125
-51.26953125
-40.283203125
-42.1142578125
-37.53662109375
-36.62109375
-30.21240234375
-28.38134765625
-33.87451171875
-37.53662109375
-46.69189453125
-49.4384765625
-50.35400390625
-51.26953125
-57.67822265625
-65.91796875
-73.2421875
-75.98876953125
-78.7353515625
-80.56640625
-86.97509765625
-92.46826171875
-102.5390625
-112.60986328125
-120.849609375
-120.849609375
-119.93408203125
-119.93408203125
-125.42724609375
-130.92041015625
-129.08935546875
-129.08935546875
-130.0048828125
-137.3291015625
-138.24462890625
-140.9912109375
-137.3291015625
-137.3291015625
-138.24462890625
-140.9912109375
-141.90673828125
-138.24462890625
-140.9912109375
-146.484375
-140.07568359375
-140.07568359375
-140.9912109375
-141.90673828125
-141.90673828125
-140.9912109375
-139.16015625
-142.822265625
-139.16015625
-140.9912109375
-145.56884765625
-151.06201171875
-153.80859375
-165.71044921875
-177.6123046875
-200.50048828125
-210.5712890625
-203.2470703125
-186.767578125
-164.794921875
-141.90673828125
-114.44091796875
-58.59375
26.55029296875
139.16015625
247.1923828125
370.78857421875
509.94873046875
656.43310546875
773.62060546875
874.32861328125
934.75341796875
945.73974609375
923.76708984375
856.01806640625
762.63427734375
606.99462890625
399.169921875
254.5166015625
147.39990234375
40.283203125
-57.67822265625
-135.498046875
-188.5986328125
-228.8818359375
-255.43212890625
-239.8681640625
-209.65576171875
-177.6123046875
-144.6533203125
-116.27197265625
-96.13037109375
-83.31298828125
-86.97509765625
-95.21484375
-100.7080078125
-108.94775390625
-105.28564453125
-103.45458984375
-106.201171875
-113.525390625
-113.525390625
-111.6943359375
-111.6943359375
-113.525390625
-113.525390625
-103.45458984375
-107.11669921875
-104.3701171875
-105.28564453125
-106.201171875
-100.7080078125
-100.7080078125
-103.45458984375
-104.3701171875
-100.7080078125
-102.5390625
-99.79248046875
-98.876953125
-98.876953125
-92.46826171875
-97.96142578125
-97.96142578125
-94.29931640625
-89.7216796875
-89.7216796875
-88.80615234375
-84.228515625
-80.56640625
-83.31298828125
-82.3974609375
-78.7353515625
-75.98876953125
-69.580078125
-76.904296875
-73.2421875
-69.580078125
-66.83349609375
-60.4248046875
-58.59375
-60.4248046875
-59.50927734375
-58.59375
-54.01611328125
-51.26953125
-48.52294921875
-47.607421875
-40.283203125
-39.36767578125
-39.36767578125
-38.4521484375
-32.958984375
-25.634765625
