ECG
101.62353515625
97.0458984375
107.11669921875
117.1875
119.0185546875
126.3427734375
127.25830078125
131.8359375
129.08935546875
130.0048828125
130.0048828125
126.3427734375
134.58251953125
130.0048828125
114.44091796875
107.11669921875
107.11669921875
108.94775390625
108.0322265625
99.79248046875
92.46826171875
76.904296875
85.14404296875
82.3974609375
79.65087890625
72.32666015625
59.50927734375
52.18505859375
49.4384765625
42.1142578125
47.607421875
43.9453125
32.04345703125
20.1416015625
28.38134765625
30.21240234375
23.8037109375
26.55029296875
32.04345703125
32.04345703125
29.296875
29.296875
22.88818359375
27.4658203125
26.55029296875
29.296875
24.71923828125
18.310546875
26.55029296875
22.88818359375
26.55029296875
25.634765625
16.4794921875
13.73291015625
29.296875
27.4658203125
18.310546875
12.8173828125
20.1416015625
10.986328125
2.74658203125
-20.1416015625
-36.62109375
-44.86083984375
-40.283203125
-21.97265625
3.662109375
26.55029296875
62.255859375
123.59619140625
207.82470703125
314.02587890625
424.8046875
544.73876953125
687.56103515625
831.298828125
948.486328125
1039.12353515625
1094.05517578125
1081.23779296875
1054.6875
985.107421875
874.32861328125
706.787109375
492.5537109375
345.15380859375
238.037109375
130.0048828125
32.958984375
-40.283203125
-74.15771484375
-89.7216796875
-104.3701171875
-84.228515625
-64.0869140625
-22.88818359375
5.4931640625
32.04345703125
52.18505859375
61.34033203125
62.255859375
55.84716796875
56.7626953125
44.86083984375
45.7763671875
44.86083984375
43.02978515625
43.02978515625
40.283203125
43.9453125
43.02978515625
37.53662109375
40.283203125
44.86083984375
45.7763671875
52.18505859375
49.4384765625
51.26953125
52.18505859375
50.35400390625
53.1005859375
48.52294921875
47.607421875
53.1005859375
52.18505859375
54.931640625
58.59375
64.0869140625
70.49560546875
67.7490234375
73.2421875
70.49560546875
66.83349609375
70.49560546875
79.65087890625
75.98876953125
70.49560546875
69.580078125
66.83349609375
72.32666015625
82.3974609375
80.56640625
86.97509765625
87.890625
88.80615234375
89.7216796875
93.3837890625
99.79248046875
97.0458984375
94.29931640625
102.5390625
97.0458984375
102.5390625
102.5390625
109.86328125
119.0185546875
123.59619140625
119.93408203125
119.93408203125
125.42724609375
123.59619140625
126.3427734375
130.92041015625
139.16015625
143.73779296875
145.56884765625
142.822265625
152.89306640625
158.38623046875
165.71044921875
167.54150390625
164.794921875
169.37255859375
181.2744140625
186.767578125
182.18994140625
188.5986328125
198.66943359375
204.16259765625
216.064453125
220.64208984375
224.30419921875
227.96630859375
232.5439453125
248.10791015625
250.8544921875
255.43212890625
262.75634765625
270.08056640625
280.1513671875
284.72900390625
289.306640625
292.05322265625
298.4619140625
302.1240234375
313.1103515625
314.94140625
325.927734375
328.67431640625
329.58984375
337.82958984375
341.49169921875
347.900390625
350.64697265625
354.30908203125
360.7177734375
361.63330078125
361.63330078125
360.7177734375
363.46435546875
368.0419921875
361.63330078125
357.0556640625
362.548828125
363.46435546875
356.14013671875
345.15380859375
335.0830078125
326.84326171875
325.01220703125
311.279296875
295.71533203125
292.96875
275.57373046875
260.009765625
254.5166015625
238.95263671875
213.31787109375
206.9091796875
200.50048828125
178.52783203125
167.54150390625
156.55517578125
145.56884765625
135.498046875
130.0048828125
122.6806640625
114.44091796875
102.5390625
92.46826171875
93.3837890625
89.7216796875
75.98876953125
69.580078125
67.7490234375
65.91796875
65.00244140625
66.83349609375
65.00244140625
65.00244140625
61.34033203125
50.35400390625
44.86083984375
51.26953125
49.4384765625
54.01611328125
51.26953125
49.4384765625
43.02978515625
44.86083984375
52.18505859375
44.86083984375
46.69189453125
45.7763671875
45.7763671875
45.7763671875
46.69189453125
47.607421875
45.7763671875
44.86083984375
44.86083984375
42.1142578125
40.283203125
33.87451171875
40.283203125
45.7763671875
40.283203125
40.283203125
43.02978515625
38.4521484375
37.53662109375
38.4521484375
32.958984375
37.53662109375
37.53662109375
33.87451171875
34.7900390625
40.283203125
33.87451171875
38.4521484375
41.19873046875
32.958984375
32.958984375
41.19873046875
41.19873046875
42.1142578125
33.87451171875
31.1279296875
28.38134765625
30.21240234375
31.1279296875
32.04345703125
31.1279296875
31.1279296875
27.4658203125
25.634765625
21.05712890625
22.88818359375
25.634765625
18.310546875
19.22607421875
15.56396484375
24.71923828125
21.97265625
17.39501953125
12.8173828125
9.1552734375
13.73291015625
14.6484375
12.8173828125
22.88818359375
14.6484375
5.4931640625
10.986328125
10.07080078125
7.32421875
4.57763671875
6.40869140625
11.90185546875
9.1552734375
4.57763671875
-0.91552734375
1.8310546875
0
0.91552734375
5.4931640625
1.8310546875
-1.8310546875
-7.32421875
-7.32421875
-8.23974609375
-2.74658203125
-8.23974609375
-10.07080078125
-7.32421875
-5.4931640625
-10.986328125
-5.4931640625
-11.90185546875
-10.07080078125
-5.4931640625
-6.40869140625
-3.662109375
-10.986328125
-11.90185546875
-0.91552734375
0
-2.74658203125
-1.8310546875
-6.40869140625
-6.40869140625
-11.90185546875
-12.8173828125
-8.23974609375
-6.40869140625
-11.90185546875
-11.90185546875
-11.90185546875
-8.23974609375
-8.23974609375
-14.6484375
-18.310546875
-11.90185546875
-12.8173828125
-17.39501953125
-12.8173828125
-17.39501953125
-18.310546875
-19.22607421875
-17.39501953125
-21.97265625
-21.97265625
-23.8037109375
-22.88818359375
-20.1416015625
-17.39501953125
-17.39501953125
-23.8037109375
-21.97265625
-21.05712890625
-18.310546875
-19.22607421875
-12.8173828125
-22.88818359375
-23.8037109375
-24.71923828125
-16.4794921875
-15.56396484375
-27.4658203125
-25.634765625
-26.55029296875
-21.97265625
-16.4794921875
-17.39501953125
-24.71923828125
-22.88818359375
-15.56396484375
-16.4794921875
-20.1416015625
-21.05712890625
-20.1416015625
-26.55029296875
-21.05712890625
-20.1416015625
-13.73291015625
-24.71923828125
-28.38134765625
-21.05712890625
-14.6484375
-10.986328125
-10.986328125
-11.90185546875
1.8310546875
8.23974609375
3.662109375
4.57763671875
13.73291015625
21.05712890625
19.22607421875
22.88818359375
29.296875
20.1416015625
27.4658203125
33.87451171875
35.70556640625
22.88818359375
4.57763671875
10.986328125
20.1416015625
25.634765625
27.4658203125
35.70556640625
39.36767578125
40.283203125
44.86083984375
52.18505859375
42.1142578125
25.634765625
22.88818359375
28.38134765625
24.71923828125
13.73291015625
15.56396484375
9.1552734375
9.1552734375
7.32421875
-9.1552734375
-9.1552734375
-13.73291015625
-17.39501953125
-20.1416015625
-37.53662109375
-36.62109375
-34.7900390625
-36.62109375
-39.36767578125
-47.607421875
-46.69189453125
-51.26953125
-47.607421875
-48.52294921875
-48.52294921875
-51.26953125
-58.59375
-54.01611328125
-56.7626953125
-59.50927734375
-65.00244140625
-65.91796875
-66.83349609375
-57.67822265625
-63.17138671875
-66.83349609375
-68.66455078125
-65.91796875
-65.91796875
-67.7490234375
-68.66455078125
-60.4248046875
-61.34033203125
-66.83349609375
-71.4111328125
-75.98876953125
-82.3974609375
-108.0322265625
-124.51171875
-138.24462890625
-137.3291015625
-120.849609375
-102.5390625
-77.81982421875
-57.67822265625
-29.296875
43.9453125
136.41357421875
248.10791015625
364.3798828125
496.2158203125
649.10888671875
794.677734375
921.0205078125
1000.67138671875
1040.0390625
1033.63037109375
993.34716796875
923.76708984375
811.1572265625
620.7275390625
418.39599609375
274.658203125
160.21728515625
47.607421875
-34.7900390625
-96.13037109375
-141.90673828125
-174.86572265625
-184.9365234375
-152.89306640625
-119.0185546875
-75.98876953125
-41.19873046875
-16.4794921875
-16.4794921875
-21.97265625
-26.55029296875
-22.88818359375
-21.05712890625
-27.4658203125
-39.36767578125
-39.36767578125
-35.70556640625
-43.02978515625
-46.69189453125
-37.53662109375
-41.19873046875
-45.7763671875
-47.607421875
-41.19873046875
-34.7900390625
-32.04345703125
-33.87451171875
-37.53662109375
-35.70556640625
-30.21240234375
-32.958984375
-30.21240234375
-30.21240234375
-30.21240234375
-31.1279296875
-25.634765625
-24.71923828125
-22.88818359375
-23.8037109375
-31.1279296875
-27.4658203125
-18.310546875
-11.90185546875
-19.22607421875
-16.4794921875
-10.07080078125
-8.23974609375
-13.73291015625
-10.07080078125
-5.4931640625
-1.8310546875
-2.74658203125
-2.74658203125
1.8310546875
-1.8310546875
3.662109375
5.4931640625
6.40869140625
10.986328125
3.662109375
10.07080078125
11.90185546875
11.90185546875
12.8173828125
13.73291015625
16.4794921875
22.88818359375
23.8037109375
29.296875
34.7900390625
38.4521484375
43.9453125
41.19873046875
45.7763671875
51.26953125
54.931640625
55.84716796875
58.59375
61.34033203125
65.91796875
71.4111328125
75.0732421875
77.81982421875
84.228515625
91.552734375
95.21484375
99.79248046875
105.28564453125
109.86328125
120.849609375
127.25830078125
128.173828125
138.24462890625
149.23095703125
151.06201171875
153.80859375
165.71044921875
174.86572265625
181.2744140625
184.9365234375
188.5986328125
195.9228515625
206.9091796875
213.31787109375
219.7265625
227.05078125
227.96630859375
229.79736328125
232.5439453125
241.69921875
242.61474609375
238.037109375
252.685546875
260.009765625
258.1787109375
271.91162109375
275.57373046875
271.91162109375
272.8271484375
273.74267578125
273.74267578125
277.40478515625
272.8271484375
269.1650390625
264.58740234375
257.26318359375
257.26318359375
241.69921875
227.96630859375
220.64208984375
213.31787109375
197.75390625
185.85205078125
175.78125
165.71044921875
151.06201171875
131.8359375
129.08935546875
113.525390625
98.876953125
90.63720703125
78.7353515625
65.00244140625
54.931640625
47.607421875
40.283203125
38.4521484375
19.22607421875
15.56396484375
12.8173828125
6.40869140625
-1.8310546875
-12.8173828125
-10.07080078125
-13.73291015625
-16.4794921875
-15.56396484375
-16.4794921875
-25.634765625
-30.21240234375
-27.4658203125
-30.21240234375
-31.1279296875
-32.958984375
-32.958984375
-33.87451171875
-29.296875
-32.04345703125
-27.4658203125
-30.21240234375
-30.21240234375
-28.38134765625
-30.21240234375
-32.958984375
-38.4521484375
-26.55029296875
-31.1279296875
-32.958984375
-33.87451171875
-33.87451171875
-30.21240234375
-31.1279296875
-32.958984375
-29.296875
-32.958984375
-37.53662109375
-37.53662109375
-33.87451171875
-41.19873046875
-36.62109375
-27.4658203125
-28.38134765625
-32.04345703125
-36.62109375
-33.87451171875
-32.958984375
-33.87451171875
-40.283203125
-34.7900390625
-32.04345703125
-30.21240234375
-32.958984375
-32.958984375
-30.21240234375
-32.04345703125
-31.1279296875
-30.21240234375
-30.21240234375
-37.53662109375
-36.62109375
-42.1142578125
-38.4521484375
-36.62109375
-41.19873046875
-38.4521484375
-42.1142578125
-40.283203125
-43.02978515625
-46.69189453125
-47.607421875
-43.9453125
-46.69189453125
-44.86083984375
-50.35400390625
-52.18505859375
-49.4384765625
-47.607421875
-52.18505859375
-54.01611328125
-50.35400390625
-56.7626953125
-61.34033203125
-57.67822265625
-47.607421875
-48.52294921875
-51.26953125
-49.4384765625
-48.52294921875
-54.931640625
-60.4248046875
-55.84716796875
-55.84716796875
-60.4248046875
-68.66455078125
-65.00244140625
-60.4248046875
-58.59375
-59.50927734375
-64.0869140625
-64.0869140625
-61.34033203125
-65.91796875
-66.83349609375
-71.4111328125
-70.49560546875
-72.32666015625
-68.66455078125
-76.904296875
-69.580078125
-72.32666015625
-75.0732421875
-70.49560546875
-71.4111328125
-75.98876953125
-76.904296875
-69.580078125
-64.0869140625
-74.15771484375
-71.4111328125
-68.66455078125
-73.2421875
-78.7353515625
-81.48193359375
-76.904296875
-72.32666015625
-73.2421875
-69.580078125
-74.15771484375
-76.904296875
-75.98876953125
-72.32666015625
-74.15771484375
-78.7353515625
-82.3974609375
-75.98876953125
-75.0732421875
-80.56640625
-78.7353515625
-75.0732421875
-76.904296875
-80.56640625
-79.65087890625
-76.904296875
-81.48193359375
-81.48193359375
-76.904296875
-75.98876953125
-76.904296875
-80.56640625
-83.31298828125
-85.14404296875
-83.31298828125
-87.890625
-85.14404296875
-81.48193359375
-76.904296875
-83.31298828125
-86.0595703125
-84.228515625
-81.48193359375
-78.7353515625
-78.7353515625
-81.48193359375
-79.65087890625
-75.0732421875
-81.48193359375
-82.3974609375
-86.0595703125
-83.31298828125
-81.48193359375
-81.48193359375
-88.80615234375
-88.80615234375
-84.228515625
-86.0595703125
-80.56640625
-83.31298828125
-84.228515625
-82.3974609375
-86.0595703125
-85.14404296875
-80.56640625
-86.97509765625
-91.552734375
-93.3837890625
-83.31298828125
-85.14404296875
-86.97509765625
-84.228515625
-89.7216796875
-85.14404296875
-83.31298828125
-86.0595703125
-87.890625
-87.890625
-88.80615234375
-88.80615234375
-92.46826171875
-89.7216796875
-83.31298828125
-86.97509765625
-90.63720703125
-97.0458984375
-87.890625
-86.97509765625
-88.80615234375
-85.14404296875
-93.3837890625
-97.0458984375
-86.0595703125
-85.14404296875
-86.97509765625
-89.7216796875
-82.3974609375
-82.3974609375
-85.14404296875
-78.7353515625
-87.890625
-86.97509765625
-80.56640625
-74.15771484375
-69.580078125
-68.66455078125
-61.34033203125
-55.84716796875
-54.931640625
-56.7626953125
-53.1005859375
-49.4384765625
-50.35400390625
-46.69189453125
-43.9453125
-43.02978515625
-38.4521484375
-41.19873046875
-39.36767578125
-45.7763671875
-49.4384765625
-52.18505859375
-49.4384765625
-45.7763671875
-44.86083984375
-25.634765625
-18.310546875
-19.22607421875
-24.71923828125
-22.88818359375
-24.71923828125
-31.1279296875
-35.70556640625
-44.86083984375
-43.9453125
-50.35400390625
-52.18505859375
-55.84716796875
-58.59375
-67.7490234375
-75.0732421875
-77.81982421875
-71.4111328125
-74.15771484375
-85.14404296875
-100.7080078125
-104.3701171875
-103.45458984375
-105.28564453125
-109.86328125
-109.86328125
-113.525390625
-117.1875
-110.77880859375
-110.77880859375
-114.44091796875
-113.525390625
-125.42724609375
-112.60986328125
-108.94775390625
-111.6943359375
-117.1875
-121.76513671875
-119.0185546875
-115.3564453125
-120.849609375
-117.1875
-115.3564453125
-122.6806640625
-119.0185546875
-121.76513671875
-122.6806640625
-121.76513671875
-123.59619140625
-126.3427734375
-130.92041015625
-133.6669921875
-144.6533203125
-164.794921875
-185.85205078125
-199.5849609375
-195.9228515625
-180.35888671875
-157.470703125
-134.58251953125
-110.77880859375
-57.67822265625
21.97265625
135.498046875
249.93896484375
368.95751953125
500.79345703125
660.09521484375
798.33984375
898.13232421875
953.06396484375
954.89501953125
941.162109375
894.47021484375
802.001953125
644.53125
433.9599609375
269.1650390625
153.80859375
42.1142578125
-55.84716796875
-131.8359375
-184.02099609375
-222.47314453125
-243.5302734375
-227.96630859375
-192.2607421875
-153.80859375
-117.1875
-89.7216796875
-75.98876953125
-69.580078125
-73.2421875
-76.904296875
-81.48193359375
-86.0595703125
-94.29931640625
-92.46826171875
-97.0458984375
-95.21484375
-97.96142578125
-95.21484375
-96.13037109375
-97.96142578125
-98.876953125
-111.6943359375
-97.96142578125
-92.46826171875
-93.3837890625
-92.46826171875
-95.21484375
-89.7216796875
-88.80615234375
-88.80615234375
-82.3974609375
-86.97509765625
-86.97509765625
-79.65087890625
-85.14404296875
-85.14404296875
-86.97509765625
-86.97509765625
-77.81982421875
-68.66455078125
-73.2421875
-71.4111328125
-72.32666015625
-76.904296875
-71.4111328125
-62.255859375
-65.00244140625
-63.17138671875
-63.17138671875
-58.59375
-59.50927734375
-59.50927734375
-54.931640625
-50.35400390625
-43.02978515625
-46.69189453125
-47.607421875
-39.36767578125
-40.283203125
-35.70556640625
-32.958984375
-29.296875
-32.04345703125
-24.71923828125
-24.71923828125
-24.71923828125
-21.97265625
-16.4794921875
-12.8173828125
-10.986328125
-4.57763671875
-5.4931640625
-0.91552734375
-5.4931640625
-0.91552734375
9.1552734375
6.40869140625
11.90185546875
21.05712890625
22.88818359375
27.4658203125
33.87451171875
40.283203125
45.7763671875
54.01611328125
54.931640625
58.59375
57.67822265625
65.91796875
71.4111328125
79.65087890625
86.97509765625
91.552734375
104.3701171875
110.77880859375
112.60986328125
119.93408203125
123.59619140625
130.92041015625
135.498046875
147.39990234375
151.9775390625
152.89306640625
159.3017578125
166.6259765625
172.119140625
177.6123046875
184.9365234375
190.4296875
195.00732421875
195.00732421875
197.75390625
208.740234375
204.16259765625
209.65576171875
222.47314453125
226.13525390625
220.64208984375
220.64208984375
230.712890625
225.2197265625
226.13525390625
225.2197265625
219.7265625
219.7265625
217.8955078125
208.740234375
197.75390625
185.85205078125
177.6123046875
168.45703125
154.72412109375
143.73779296875
126.3427734375
113.525390625
98.876953125
86.97509765625
68.66455078125
58.59375
46.69189453125
33.87451171875
20.1416015625
7.32421875
-2.74658203125
-10.07080078125
-16.4794921875
-32.04345703125
-37.53662109375
-39.36767578125
-48.52294921875
-53.1005859375
-57.67822265625
-63.17138671875
-68.66455078125
-73.2421875
-70.49560546875
-73.2421875
-76.904296875
-89.7216796875
-80.56640625
-78.7353515625
-86.0595703125
-82.3974609375
-75.98876953125
-78.7353515625
-83.31298828125
-84.228515625
-91.552734375
-82.3974609375
-83.31298828125
-84.228515625
-85.14404296875
-86.97509765625
-90.63720703125
-79.65087890625
-77.81982421875
-90.63720703125
-91.552734375
-82.3974609375
-86.97509765625
-85.14404296875
-86.0595703125
-81.48193359375
-81.48193359375
-82.3974609375
-80.56640625
-89.7216796875
-88.80615234375
-76.904296875
-74.15771484375
-81.48193359375
-94.29931640625
-79.65087890625
-84.228515625
-86.0595703125
-77.81982421875
-81.48193359375
-85.14404296875
-86.0595703125
-85.14404296875
-87.890625
-91.552734375
-91.552734375
-84.228515625
-82.3974609375
-89.7216796875
-91.552734375
-90.63720703125
-93.3837890625
-91.552734375
-90.63720703125
-92.46826171875
-88.80615234375
-94.29931640625
-101.62353515625
-95.21484375
-93.3837890625
-96.13037109375
-96.13037109375
-97.0458984375
-98.876953125
-106.201171875
-102.5390625
-98.876953125
-99.79248046875
-102.5390625
-101.62353515625
-103.45458984375
-100.7080078125
-103.45458984375
-99.79248046875
-103.45458984375
-109.86328125
-106.201171875
-108.0322265625
-108.0322265625
-108.94775390625
-111.6943359375
-109.86328125
-109.86328125
-111.6943359375
-115.3564453125
-112.60986328125
-110.77880859375
-113.525390625
-107.11669921875
-108.94775390625
-116.27197265625
-119.0185546875
-117.1875
-123.59619140625
-123.59619140625
-119.93408203125
-121.76513671875
-120.849609375
-120.849609375
-122.6806640625
-119.93408203125
-116.27197265625
-119.0185546875
-121.76513671875
-119.93408203125
-121.76513671875
-123.59619140625
-120.849609375
-123.59619140625
-127.25830078125
-128.173828125
-128.173828125
-120.849609375
-117.1875
-119.93408203125
-128.173828125
-129.08935546875
-125.42724609375
-125.42724609375
-127.25830078125
-133.6669921875
-130.92041015625
-126.3427734375
-124.51171875
-131.8359375
-130.0048828125
-124.51171875
-124.51171875
-121.76513671875
-125.42724609375
-125.42724609375
-126.3427734375
-123.59619140625
-122.6806640625
-128.173828125
-126.3427734375
-127.25830078125
-128.173828125
-130.0048828125
-133.6669921875
-130.92041015625
-129.08935546875
-120.849609375
-125.42724609375
-126.3427734375
-129.08935546875
-135.498046875
-128.173828125
-133.6669921875
-130.0048828125
-127.25830078125
-126.3427734375
-126.3427734375
-130.0048828125
-136.41357421875
-138.24462890625
-128.173828125
-126.3427734375
-125.42724609375
-124.51171875
-125.42724609375
-126.3427734375
-127.25830078125
-129.08935546875
-132.75146484375
-132.75146484375
-133.6669921875
-139.16015625
-138.24462890625
-136.41357421875
-132.75146484375
-140.07568359375
-137.3291015625
-130.92041015625
-128.173828125
-129.08935546875
-126.3427734375
-131.8359375
-136.41357421875
-139.16015625
-136.41357421875
-140.07568359375
-137.3291015625
-137.3291015625
-143.73779296875
-136.41357421875
-131.8359375
-128.173828125
-130.92041015625
-136.41357421875
-132.75146484375
-131.8359375
-132.75146484375
-130.92041015625
-130.92041015625
-131.8359375
-126.3427734375
-129.08935546875
-135.498046875
-135.498046875
-139.16015625
-136.41357421875
-132.75146484375
-131.8359375
-133.6669921875
-138.24462890625
-139.16015625
-137.3291015625
-134.58251953125
-130.92041015625
-131.8359375
-136.41357421875
-133.6669921875
-136.41357421875
-138.24462890625
-134.58251953125
-136.41357421875
-131.8359375
-127.25830078125
-132.75146484375
-137.3291015625
-132.75146484375
-130.92041015625
-132.75146484375
-122.6806640625
-115.3564453125
-120.849609375
-111.6943359375
-101.62353515625
-98.876953125
-97.0458984375
-97.0458984375
-93.3837890625
-92.46826171875
-91.552734375
-86.0595703125
-85.14404296875
-84.228515625
-81.48193359375
-81.48193359375
-83.31298828125
-95.21484375
-96.13037109375
-95.21484375
-90.63720703125
-84.228515625
-72.32666015625
-64.0869140625
-62.255859375
-67.7490234375
-62.255859375
-60.4248046875
-66.83349609375
-75.0732421875
-86.0595703125
-88.80615234375
-93.3837890625
-93.3837890625
-99.79248046875
-103.45458984375
-108.0322265625
-109.86328125
-109.86328125
-109.86328125
-118.10302734375
-128.173828125
-137.3291015625
-130.92041015625
-140.9912109375
-145.56884765625
-148.3154296875
-147.39990234375
-151.9775390625
-149.23095703125
-154.72412109375
-162.04833984375
-159.3017578125
-156.55517578125
-153.80859375
-154.72412109375
-153.80859375
-152.89306640625
-155.6396484375
-161.1328125
-162.9638671875
-165.71044921875
-164.794921875
-165.71044921875
-156.55517578125
-156.55517578125
-156.55517578125
-161.1328125
-158.38623046875
-160.21728515625
-164.794921875
-164.794921875
-161.1328125
-166.6259765625
-180.35888671875
-195.9228515625
-215.14892578125
-227.96630859375
-233.45947265625
-219.7265625
-203.2470703125
-184.9365234375
-160.21728515625
-117.1875
-45.7763671875
56.7626953125
172.119140625
293.88427734375
421.142578125
565.7958984375
688.4765625
795.59326171875
875.244140625
898.13232421875
893.5546875
849.609375
778.1982421875
638.12255859375
433.04443359375
261.8408203125
146.484375
34.7900390625
-61.34033203125
-154.72412109375
-210.5712890625
-256.34765625
-278.3203125
-266.41845703125
-236.2060546875
-191.34521484375
-158.38623046875
-129.08935546875
-106.201171875
-95.21484375
-100.7080078125
-109.86328125
-114.44091796875
-114.44091796875
-120.849609375
-123.59619140625
-119.93408203125
-123.59619140625
-121.76513671875
-127.25830078125
-121.76513671875
-129.08935546875
-121.76513671875
-119.93408203125
-119.0185546875
-120.849609375
-119.0185546875
-116.27197265625
-111.6943359375
-113.525390625
-116.27197265625
-112.60986328125
-110.77880859375
-112.60986328125
-112.60986328125
-108.94775390625
-103.45458984375
-105.28564453125
-97.0458984375
-103.45458984375
-104.3701171875
-101.62353515625
-98.876953125
-92.46826171875
-91.552734375
-94.29931640625
-86.97509765625
-90.63720703125
-96.13037109375
-91.552734375
-83.31298828125
-77.81982421875
-75.0732421875
-76.904296875
-75.98876953125
-75.98876953125
-73.2421875
-69.580078125
-68.66455078125
-64.0869140625
-67.7490234375
-62.255859375
-56.7626953125
-53.1005859375
-56.7626953125
-60.4248046875
-48.52294921875
-42.1142578125
-45.7763671875
-44.86083984375
-41.19873046875
-39.36767578125
-32.958984375
-31.1279296875
-25.634765625
-23.8037109375
-21.97265625
-13.73291015625
-10.07080078125
-4.57763671875
2.74658203125
-0.91552734375
3.662109375
13.73291015625
16.4794921875
24.71923828125
29.296875
32.04345703125
39.36767578125
43.9453125
46.69189453125
57.67822265625
61.34033203125
67.7490234375
74.15771484375
78.7353515625
86.97509765625
93.3837890625
100.7080078125
111.6943359375
119.0185546875
123.59619140625
124.51171875
132.75146484375
146.484375
149.23095703125
157.470703125
162.04833984375
161.1328125
169.37255859375
175.78125
179.443359375
182.18994140625
188.5986328125
196.83837890625
197.75390625
197.75390625
205.078125
208.740234375
211.48681640625
216.97998046875
222.47314453125
219.7265625
219.7265625
218.81103515625
216.97998046875
209.65576171875
206.9091796875
202.33154296875
193.17626953125
191.34521484375
181.2744140625
170.2880859375
159.3017578125
142.822265625
128.173828125
119.93408203125
100.7080078125
81.48193359375
75.98876953125
63.17138671875
42.1142578125
31.1279296875
18.310546875
13.73291015625
4.57763671875
-10.07080078125
-26.55029296875
-32.958984375
-36.62109375
-51.26953125
-53.1005859375
-62.255859375
-65.00244140625
-70.49560546875
-74.15771484375
-74.15771484375
-78.7353515625
-85.14404296875
-83.31298828125
-90.63720703125
-95.21484375
-93.3837890625
-92.46826171875
-97.0458984375
-98.876953125
-97.0458984375
-97.0458984375
-98.876953125
-95.21484375
-97.96142578125
-100.7080078125
-98.876953125
-99.79248046875
-99.79248046875
-101.62353515625
-100.7080078125
-95.21484375
-104.3701171875
-100.7080078125
-97.96142578125
-99.79248046875
-99.79248046875
-100.7080078125
-104.3701171875
-100.7080078125
-100.7080078125
-104.3701171875
-102.5390625
-97.0458984375
-97.96142578125
-95.21484375
-100.7080078125
-100.7080078125
-98.876953125
-102.5390625
-98.876953125
-100.7080078125
-102.5390625
-103.45458984375
-104.3701171875
-101.62353515625
-99.79248046875
-100.7080078125
-98.876953125
-101.62353515625
-99.79248046875
-101.62353515625
-99.79248046875
-104.3701171875
-102.5390625
-102.5390625
-101.62353515625
-104.3701171875
-108.94775390625
-103.45458984375
-106.201171875
-108.94775390625
-103.45458984375
-105.28564453125
-108.0322265625
-109.86328125
-119.0185546875
-113.525390625
-107.11669921875
-108.94775390625
-115.3564453125
-111.6943359375
-110.77880859375
-113.525390625
-117.1875
-117.1875
-108.94775390625
-112.60986328125
-119.0185546875
-120.849609375
-120.849609375
-123.59619140625
-119.93408203125
-120.849609375
-127.25830078125
-120.849609375
-120.849609375
-126.3427734375
-118.10302734375
-122.6806640625
-117.1875
-119.93408203125
-121.76513671875
-126.3427734375
-129.08935546875
-121.76513671875
-120.849609375
-126.3427734375
-124.51171875
-126.3427734375
-128.173828125
-129.08935546875
-125.42724609375
-124.51171875
-137.3291015625
-138.24462890625
-126.3427734375
-130.92041015625
-129.08935546875
-128.173828125
-132.75146484375
-132.75146484375
-130.0048828125
-132.75146484375
-126.3427734375
-125.42724609375
-128.173828125
-133.6669921875
-126.3427734375
-135.498046875
-133.6669921875
-130.92041015625
-143.73779296875
-134.58251953125
-130.92041015625
-130.92041015625
-124.51171875
-126.3427734375
-126.3427734375
-126.3427734375
-132.75146484375
-136.41357421875
-134.58251953125
-133.6669921875
-133.6669921875
-139.16015625
-139.16015625
-133.6669921875
-132.75146484375
-140.07568359375
-133.6669921875
-138.24462890625
-139.16015625
-136.41357421875
-134.58251953125
-138.24462890625
-139.16015625
-138.24462890625
-134.58251953125
-138.24462890625
-137.3291015625
-140.07568359375
-144.6533203125
-137.3291015625
-140.07568359375
-137.3291015625
-135.498046875
-136.41357421875
-133.6669921875
-140.9912109375
-142.822265625
-140.07568359375
-138.24462890625
-138.24462890625
-140.9912109375
-140.07568359375
-142.822265625
-139.16015625
-138.24462890625
-143.73779296875
-145.56884765625
-142.822265625
-140.9912109375
-140.9912109375
-146.484375
-150.146484375
-144.6533203125
-142.822265625
-140.07568359375
-140.9912109375
-139.16015625
-140.07568359375
-134.58251953125
-138.24462890625
-143.73779296875
-144.6533203125
-139.16015625
-139.16015625
-141.90673828125
-142.822265625
-140.9912109375
-139.16015625
-148.3154296875
-145.56884765625
-142.822265625
-143.73779296875
-142.822265625
-140.07568359375
-135.498046875
-145.56884765625
-141.90673828125
-142.822265625
-139.16015625
-141.90673828125
-138.24462890625
-136.41357421875
-141.90673828125
-141.90673828125
-139.16015625
-139.16015625
-141.90673828125
-139.16015625
-142.822265625
-139.16015625
-136.41357421875
-135.498046875
-134.58251953125
-127.25830078125
-127.25830078125
-121.76513671875
-123.59619140625
-116.27197265625
-114.44091796875
-107.11669921875
-110.77880859375
-112.60986328125
-108.0322265625
-106.201171875
-102.5390625
-102.5390625
-99.79248046875
-94.29931640625
-101.62353515625
-97.96142578125
-104.3701171875
-99.79248046875
-96.13037109375
-92.46826171875
-82.3974609375
-73.2421875
-83.31298828125
-80.56640625
-70.49560546875
-68.66455078125
-80.56640625
-83.31298828125
-94.29931640625
-98.876953125
-96.13037109375
-100.7080078125
-108.0322265625
-113.525390625
-117.1875
-119.93408203125
-126.3427734375
-130.92041015625
-128.173828125
-129.08935546875
-141.90673828125
-151.06201171875
-151.9775390625
-158.38623046875
-165.71044921875
-163.87939453125
-166.6259765625
-161.1328125
-161.1328125
-164.794921875
-165.71044921875
-162.04833984375
-162.04833984375
-157.470703125
-156.55517578125
-160.21728515625
-164.794921875
-172.119140625
-171.20361328125
-170.2880859375
-174.86572265625
-173.9501953125
-178.52783203125
-174.86572265625
-173.03466796875
-170.2880859375
-166.6259765625
-173.9501953125
-173.03466796875
-168.45703125
-170.2880859375
-179.443359375
-187.68310546875
-210.5712890625
-227.05078125
-236.2060546875
-232.5439453125
-217.8955078125
-201.416015625
-179.443359375
-151.06201171875
-105.28564453125
-32.04345703125
80.56640625
190.4296875
303.955078125
419.3115234375
561.21826171875
671.9970703125
754.39453125
810.24169921875
820.3125
801.08642578125
740.66162109375
656.43310546875
519.10400390625
314.94140625
172.119140625
67.7490234375
-22.88818359375
-112.60986328125
-191.34521484375
-244.44580078125
-270.99609375
-281.06689453125
-280.1513671875
-275.57373046875
-250.8544921875
-225.2197265625
-192.2607421875
-165.71044921875
-149.23095703125
-134.58251953125
-139.16015625
-138.24462890625
-142.822265625
-143.73779296875
-145.56884765625
-150.146484375
-151.06201171875
-143.73779296875
-144.6533203125
-146.484375
-147.39990234375
-142.822265625
-142.822265625
-147.39990234375
-141.90673828125
-141.90673828125
-139.16015625
-142.822265625
-141.90673828125
-138.24462890625
-136.41357421875
-139.16015625
-141.90673828125
-138.24462890625
-140.9912109375
-139.16015625
-129.08935546875
-122.6806640625
-130.92041015625
-133.6669921875
-122.6806640625
-125.42724609375
-125.42724609375
-123.59619140625
-127.25830078125
-120.849609375
-112.60986328125
-119.93408203125
-118.10302734375
-120.849609375
-116.27197265625
-108.94775390625
-108.0322265625
-105.28564453125
-104.3701171875
-98.876953125
-95.21484375
-88.80615234375
-86.97509765625
-85.14404296875
-91.552734375
-87.890625
-83.31298828125
-82.3974609375
-85.14404296875
-80.56640625
-72.32666015625
-68.66455078125
-67.7490234375
-62.255859375
-64.0869140625
-59.50927734375
-55.84716796875
-51.26953125
-47.607421875
-49.4384765625
-44.86083984375
-42.1142578125
-28.38134765625
-32.04345703125
-31.1279296875
-23.8037109375
-14.6484375
-14.6484375
-8.23974609375
-1.8310546875
0.91552734375
8.23974609375
8.23974609375
21.05712890625
32.04345703125
31.1279296875
27.4658203125
36.62109375
45.7763671875
59.50927734375
62.255859375
65.91796875
70.49560546875
84.228515625
93.3837890625
96.13037109375
99.79248046875
102.5390625
108.0322265625
117.1875
124.51171875
132.75146484375
125.42724609375
128.173828125
143.73779296875
149.23095703125
159.3017578125
159.3017578125
157.470703125
169.37255859375
174.86572265625
176.69677734375
176.69677734375
171.20361328125
182.18994140625
185.85205078125
185.85205078125
183.10546875
179.443359375
181.2744140625
174.86572265625
168.45703125
158.38623046875
147.39990234375
141.90673828125
123.59619140625
119.93408203125
105.28564453125
97.96142578125
82.3974609375
66.83349609375
55.84716796875
40.283203125
29.296875
11.90185546875
3.662109375
-8.23974609375
-25.634765625
-40.283203125
-46.69189453125
-48.52294921875
-64.0869140625
-78.7353515625
-82.3974609375
-87.890625
-89.7216796875
-99.79248046875
-106.201171875
-107.11669921875
-120.849609375
-116.27197265625
-112.60986328125
-117.1875
-127.25830078125
-127.25830078125
-130.0048828125
-127.25830078125
-130.0048828125
-132.75146484375
-139.16015625
-133.6669921875
-134.58251953125
-141.90673828125
-139.16015625
-147.39990234375
-136.41357421875
-136.41357421875
-132.75146484375
-132.75146484375
-132.75146484375
-134.58251953125
-133.6669921875
-140.9912109375
-137.3291015625
-134.58251953125
-136.41357421875
-139.16015625
-144.6533203125
-138.24462890625
-133.6669921875
-133.6669921875
-134.58251953125
-141.90673828125
-138.24462890625
-140.9912109375
-137.3291015625
-141.90673828125
-138.24462890625
-136.41357421875
-140.9912109375
-140.07568359375
-138.24462890625
-140.9912109375
-142.822265625
-140.07568359375
-144.6533203125
-141.90673828125
-140.9912109375
-145.56884765625
-143.73779296875
-140.07568359375
-140.07568359375
-141.90673828125
-141.90673828125
-147.39990234375
-143.73779296875
-145.56884765625
-141.90673828125
-150.146484375
-151.06201171875
-148.3154296875
-144.6533203125
-151.9775390625
-145.56884765625
-141.90673828125
-146.484375
-147.39990234375
-147.39990234375
-147.39990234375
-147.39990234375
-142.822265625
-147.39990234375
-150.146484375
-159.3017578125
-156.55517578125
-151.9775390625
-159.3017578125
-160.21728515625
-158.38623046875
-154.72412109375
-154.72412109375
-151.06201171875
-158.38623046875
-157.470703125
-162.9638671875
-161.1328125
-162.04833984375
-162.04833984375
-160.21728515625
-159.3017578125
-160.21728515625
-158.38623046875
-162.04833984375
-166.6259765625
-162.9638671875
-168.45703125
-162.9638671875
-163.87939453125
-165.71044921875
-165.71044921875
-164.794921875
-166.6259765625
-165.71044921875
-162.04833984375
-167.54150390625
-167.54150390625
-162.04833984375
-164.794921875
-162.04833984375
-164.794921875
-164.794921875
-163.87939453125
-167.54150390625
-173.03466796875
-170.2880859375
-170.2880859375
-158.38623046875
-162.9638671875
-167.54150390625
-163.87939453125
-161.1328125
-162.9638671875
-167.54150390625
-167.54150390625
-167.54150390625
-172.119140625
-171.20361328125
-175.78125
-173.9501953125
-175.78125
-171.20361328125
-170.2880859375
-172.119140625
-177.6123046875
-169.37255859375
-167.54150390625
-169.37255859375
-173.03466796875
-173.9501953125
-174.86572265625
-177.6123046875
-171.20361328125
-170.2880859375
-175.78125
-172.119140625
-168.45703125
-173.03466796875
-170.2880859375
-166.6259765625
-168.45703125
-168.45703125
-169.37255859375
-169.37255859375
-164.794921875
-170.2880859375
-181.2744140625
-180.35888671875
-176.69677734375
-176.69677734375
-174.86572265625
-176.69677734375
-177.6123046875
-174.86572265625
-173.9501953125
-173.9501953125
-168.45703125
-165.71044921875
-165.71044921875
-168.45703125
-166.6259765625
-172.119140625
-173.03466796875
-162.9638671875
-170.2880859375
-173.9501953125
-165.71044921875
-161.1328125
-156.55517578125
-161.1328125
-157.470703125
-148.3154296875
-138.24462890625
-133.6669921875
-134.58251953125
-135.498046875
-131.8359375
-130.0048828125
-137.3291015625
-132.75146484375
-127.25830078125
-130.92041015625
-126.3427734375
-118.10302734375
-116.27197265625
-119.0185546875
-114.44091796875
-113.525390625
-109.86328125
-107.11669921875
-92.46826171875
-91.552734375
-92.46826171875
-86.97509765625
-85.14404296875
-91.552734375
-92.46826171875
-97.0458984375
-107.11669921875
-109.86328125
-113.525390625
-121.76513671875
-120.849609375
-131.8359375
-140.07568359375
-140.07568359375
-139.16015625
-142.822265625
-158.38623046875
-164.794921875
-167.54150390625
-173.9501953125
-184.9365234375
-180.35888671875
-183.10546875
-199.5849609375
-198.66943359375
-187.68310546875
-184.02099609375
-187.68310546875
-194.091796875
-201.416015625
-187.68310546875
-195.00732421875
-193.17626953125
-198.66943359375
-192.2607421875
-191.34521484375
-194.091796875
-194.091796875
-192.2607421875
-189.51416015625
-186.767578125
-195.00732421875
-193.17626953125
-196.83837890625
-197.75390625
-195.00732421875
-195.9228515625
-201.416015625
-205.99365234375
-208.740234375
-211.48681640625
-231.62841796875
-252.685546875
-265.5029296875
-260.92529296875
-245.361328125
-227.05078125
-205.99365234375
-183.10546875
-148.3154296875
-71.4111328125
30.21240234375
146.484375
258.1787109375
386.3525390625
522.76611328125
646.3623046875
726.9287109375
793.76220703125
814.8193359375
802.001953125
747.98583984375
661.0107421875
541.07666015625
340.576171875
184.9365234375
85.14404296875
-10.07080078125
-104.3701171875
-179.443359375
-229.79736328125
-278.3203125
-301.20849609375
-303.03955078125
-297.54638671875
-279.23583984375
-255.43212890625
-225.2197265625
-200.50048828125
-176.69677734375
-162.04833984375
-163.87939453125
-160.21728515625
-157.470703125
-164.794921875
-164.794921875
-163.87939453125
-167.54150390625
-173.9501953125
-171.20361328125
-166.6259765625
-168.45703125
-173.03466796875
-164.794921875
-167.54150390625
-164.794921875
-164.794921875
-162.04833984375
-161.1328125
-162.04833984375
-158.38623046875
-162.9638671875
-158.38623046875
-158.38623046875
-157.470703125
-151.9775390625
-150.146484375
-153.80859375
-151.06201171875
-150.146484375
-147.39990234375
-141.90673828125
-144.6533203125
-137.3291015625
-141.90673828125
-138.24462890625
-132.75146484375
-137.3291015625
-132.75146484375
-119.0185546875
-123.59619140625
-130.92041015625
-130.0048828125
-121.76513671875
-122.6806640625
-122.6806640625
-114.44091796875
-114.44091796875
-122.6806640625
-110.77880859375
-111.6943359375
-111.6943359375
-110.77880859375
-108.0322265625
-96.13037109375
-87.890625
-91.552734375
-89.7216796875
-87.890625
-86.0595703125
-79.65087890625
-83.31298828125
-75.98876953125
-71.4111328125
-61.34033203125
-63.17138671875
-65.00244140625
-54.931640625
-51.26953125
-48.52294921875
-38.4521484375
-42.1142578125
-36.62109375
-32.04345703125
-27.4658203125
-21.05712890625
-10.986328125
-11.90185546875
-11.90185546875
0.91552734375
10.986328125
11.90185546875
15.56396484375
25.634765625
29.296875
35.70556640625
36.62109375
43.02978515625
54.01611328125
65.00244140625
65.91796875
71.4111328125
79.65087890625
82.3974609375
90.63720703125
103.45458984375
104.3701171875
108.94775390625
118.10302734375
124.51171875
125.42724609375
131.8359375
143.73779296875
141.90673828125
144.6533203125
157.470703125
161.1328125
165.71044921875
166.6259765625
169.37255859375
177.6123046875
175.78125
174.86572265625
181.2744140625
180.35888671875
172.119140625
167.54150390625
161.1328125
162.9638671875
160.21728515625
156.55517578125
138.24462890625
127.25830078125
108.94775390625
95.21484375
82.3974609375
70.49560546875
56.7626953125
51.26953125
36.62109375
12.8173828125
3.662109375
-10.986328125
-25.634765625
-31.1279296875
-40.283203125
-50.35400390625
-57.67822265625
-67.7490234375
-79.65087890625
-79.65087890625
-94.29931640625
-104.3701171875
-106.201171875
-106.201171875
-115.3564453125
-113.525390625
-119.0185546875
-117.1875
-125.42724609375
-124.51171875
-124.51171875
-132.75146484375
-133.6669921875
-129.08935546875
-134.58251953125
-136.41357421875
-136.41357421875
-132.75146484375
-130.92041015625
-130.0048828125
-134.58251953125
-140.07568359375
-134.58251953125
-136.41357421875
-136.41357421875
-138.24462890625
-134.58251953125
-137.3291015625
-139.16015625
-134.58251953125
-133.6669921875
-134.58251953125
-136.41357421875
-129.08935546875
-139.16015625
-143.73779296875
-140.9912109375
-140.9912109375
-138.24462890625
-136.41357421875
-142.822265625
-143.73779296875
-136.41357421875
-138.24462890625
-147.39990234375
-134.58251953125
-137.3291015625
-142.822265625
-139.16015625
-135.498046875
-139.16015625
-150.146484375
-143.73779296875
-140.07568359375
-137.3291015625
-145.56884765625
-145.56884765625
-143.73779296875
-134.58251953125
-133.6669921875
-151.9775390625
-151.9775390625
-145.56884765625
-146.484375
-142.822265625
-152.89306640625
-153.80859375
-152.89306640625
-147.39990234375
-145.56884765625
-155.6396484375
-151.9775390625
-152.89306640625
-143.73779296875
-144.6533203125
-155.6396484375
-155.6396484375
-155.6396484375
-152.89306640625
-154.72412109375
-161.1328125
-161.1328125
-162.9638671875
-159.3017578125
-155.6396484375
-154.72412109375
-160.21728515625
-162.04833984375
-159.3017578125
-158.38623046875
-159.3017578125
-157.470703125
-163.87939453125
-168.45703125
-162.9638671875
-168.45703125
-174.86572265625
-171.20361328125
-168.45703125
-166.6259765625
-168.45703125
-173.03466796875
-170.2880859375
-170.2880859375
-173.03466796875
-172.119140625
-170.2880859375
-165.71044921875
-165.71044921875
-171.20361328125
-174.86572265625
-174.86572265625
-170.2880859375
-170.2880859375
-170.2880859375
-174.86572265625
-183.10546875
-176.69677734375
-174.86572265625
-170.2880859375
-173.03466796875
-174.86572265625
-180.35888671875
-181.2744140625
-173.03466796875
-173.9501953125
-174.86572265625
-173.03466796875
-175.78125
-173.9501953125
-178.52783203125
-173.9501953125
-172.119140625
-171.20361328125
-179.443359375
-179.443359375
-174.86572265625
-178.52783203125
-176.69677734375
-179.443359375
-174.86572265625
-176.69677734375
-176.69677734375
-174.86572265625
-172.119140625
-182.18994140625
-187.68310546875
-183.10546875
-174.86572265625
-165.71044921875
-177.6123046875
-181.2744140625
-182.18994140625
-184.02099609375
-183.10546875
-179.443359375
-184.02099609375
-185.85205078125
-177.6123046875
-173.9501953125
-178.52783203125
-183.10546875
-179.443359375
-173.03466796875
-175.78125
-173.03466796875
-182.18994140625
-181.2744140625
-181.2744140625
-180.35888671875
-178.52783203125
-181.2744140625
-179.443359375
-181.2744140625
-180.35888671875
-184.02099609375
-178.52783203125
-176.69677734375
-167.54150390625
-162.04833984375
-167.54150390625
-158.38623046875
-154.72412109375
-142.822265625
-143.73779296875
-144.6533203125
-145.56884765625
-141.90673828125
-141.90673828125
-143.73779296875
-137.3291015625
-129.08935546875
-119.93408203125
-127.25830078125
-127.25830078125
-126.3427734375
-122.6806640625
-119.93408203125
-109.86328125
-101.62353515625
-95.21484375
-96.13037109375
-101.62353515625
-96.13037109375
-97.0458984375
-101.62353515625
-103.45458984375
-101.62353515625
-109.86328125
-114.44091796875
-115.3564453125
-105.28564453125
-114.44091796875
-127.25830078125
-132.75146484375
-142.822265625
-144.6533203125
-144.6533203125
-148.3154296875
-156.55517578125
-169.37255859375
-177.6123046875
-183.10546875
-189.51416015625
-195.9228515625
-195.00732421875
-195.9228515625
-186.767578125
-188.5986328125
-193.17626953125
-206.9091796875
-207.82470703125
-205.99365234375
-204.16259765625
-201.416015625
-200.50048828125
-203.2470703125
-204.16259765625
-201.416015625
-212.40234375
-201.416015625
-204.16259765625
-203.2470703125
-202.33154296875
-206.9091796875
-212.40234375
-216.97998046875
-212.40234375
-210.5712890625
-205.99365234375
-207.82470703125
-212.40234375
-222.47314453125
-231.62841796875
-248.10791015625
-274.658203125
-281.06689453125
-266.41845703125
-249.93896484375
-228.8818359375
-208.740234375
-181.2744140625
-117.1875
-23.8037109375
93.3837890625
207.82470703125
332.33642578125
462.34130859375
604.248046875
712.2802734375
784.60693359375
828.55224609375
823.05908203125
795.59326171875
722.35107421875
623.47412109375
434.87548828125
248.10791015625
124.51171875
20.1416015625
-82.3974609375
-173.03466796875
-237.12158203125
-280.1513671875
-326.84326171875
-334.16748046875
-314.94140625
-287.4755859375
-252.685546875
-217.8955078125
-191.34521484375
-166.6259765625
-162.9638671875
-162.9638671875
-162.9638671875
-170.2880859375
-173.03466796875
-169.37255859375
-171.20361328125
-173.03466796875
-176.69677734375
-173.03466796875
-165.71044921875
-171.20361328125
-173.9501953125
-179.443359375
-173.03466796875
-175.78125
-167.54150390625
-169.37255859375
-177.6123046875
-170.2880859375
-167.54150390625
-162.9638671875
-157.470703125
-160.21728515625
-162.04833984375
-162.04833984375
-154.72412109375
-151.9775390625
-155.6396484375
-152.89306640625
-152.89306640625
-146.484375
-150.146484375
-149.23095703125
-140.9912109375
-140.9912109375
-135.498046875
-130.0048828125
-132.75146484375
-136.41357421875
-130.92041015625
-128.173828125
-129.08935546875
-124.51171875
-130.92041015625
-130.92041015625
-129.08935546875
-123.59619140625
-113.525390625
-112.60986328125
-110.77880859375
-104.3701171875
-105.28564453125
-104.3701171875
-98.876953125
-95.21484375
-92.46826171875
-90.63720703125
-86.97509765625
-84.228515625
-79.65087890625
-75.98876953125
-77.81982421875
-72.32666015625
-67.7490234375
-66.83349609375
-66.83349609375
-62.255859375
-58.59375
-59.50927734375
-58.59375
-40.283203125
-30.21240234375
-33.87451171875
-29.296875
-21.05712890625
-18.310546875
-9.1552734375
-7.32421875
-2.74658203125
7.32421875
5.4931640625
6.40869140625
16.4794921875
30.21240234375
35.70556640625
39.36767578125
45.7763671875
55.84716796875
61.34033203125
67.7490234375
72.32666015625
81.48193359375
86.0595703125
97.96142578125
102.5390625
108.0322265625
115.3564453125
112.60986328125
118.10302734375
126.3427734375
133.6669921875
138.24462890625
141.90673828125
146.484375
148.3154296875
155.6396484375
164.794921875
162.9638671875
165.71044921875
173.9501953125
169.37255859375
173.03466796875
176.69677734375
175.78125
178.52783203125
174.86572265625
168.45703125
162.04833984375
152.89306640625
150.146484375
141.90673828125
135.498046875
119.0185546875
109.86328125
95.21484375
86.97509765625
74.15771484375
58.59375
41.19873046875
31.1279296875
18.310546875
-1.8310546875
-12.8173828125
-22.88818359375
-32.958984375
-48.52294921875
-55.84716796875
-60.4248046875
-75.0732421875
-87.890625
-92.46826171875
-97.96142578125
-105.28564453125
-108.94775390625
-111.6943359375
-113.525390625
-117.1875
-124.51171875
-127.25830078125
-131.8359375
-130.92041015625
-131.8359375
-133.6669921875
-138.24462890625
-130.0048828125
-128.173828125
-130.0048828125
-133.6669921875
-139.16015625
-139.16015625
-133.6669921875
-133.6669921875
-141.90673828125
-138.24462890625
-137.3291015625
-128.173828125
-130.0048828125
-133.6669921875
-136.41357421875
-135.498046875
-133.6669921875
-137.3291015625
-132.75146484375
-134.58251953125
-132.75146484375
-133.6669921875
-135.498046875
-138.24462890625
-138.24462890625
-137.3291015625
-136.41357421875
-137.3291015625
-135.498046875
-132.75146484375
-136.41357421875
-131.8359375
-133.6669921875
-130.92041015625
-131.8359375
-131.8359375
-131.8359375
-134.58251953125
-134.58251953125
-131.8359375
-132.75146484375
-132.75146484375
-130.92041015625
-136.41357421875
-130.92041015625
-140.9912109375
-140.07568359375
-136.41357421875
-146.484375
-144.6533203125
-145.56884765625
-143.73779296875
-144.6533203125
-147.39990234375
-151.06201171875
-157.470703125
-154.72412109375
-151.06201171875
-154.72412109375
-152.89306640625
-154.72412109375
-151.9775390625
-149.23095703125
-156.55517578125
-154.72412109375
-152.89306640625
-155.6396484375
-159.3017578125
-159.3017578125
-159.3017578125
-161.1328125
-162.9638671875
-156.55517578125
-162.04833984375
-161.1328125
-157.470703125
-158.38623046875
-160.21728515625
-167.54150390625
-166.6259765625
-169.37255859375
-166.6259765625
-170.2880859375
-165.71044921875
-165.71044921875
-165.71044921875
-162.9638671875
-169.37255859375
-173.03466796875
-169.37255859375
-168.45703125
-166.6259765625
-171.20361328125
-170.2880859375
-174.86572265625
-168.45703125
-166.6259765625
-169.37255859375
-171.20361328125
-173.03466796875
-173.9501953125
-167.54150390625
-169.37255859375
-174.86572265625
-172.119140625
-166.6259765625
-170.2880859375
-169.37255859375
-175.78125
-166.6259765625
-168.45703125
-168.45703125
-173.03466796875
-171.20361328125
-169.37255859375
-170.2880859375
-166.6259765625
-169.37255859375
-168.45703125
-168.45703125
-168.45703125
-170.2880859375
-172.119140625
-171.20361328125
-167.54150390625
-168.45703125
-166.6259765625
-168.45703125
-168.45703125
-167.54150390625
-169.37255859375
-173.03466796875
-173.03466796875
-169.37255859375
-173.03466796875
-171.20361328125
-169.37255859375
-173.03466796875
-170.2880859375
-170.2880859375
-164.794921875
-171.20361328125
-164.794921875
-169.37255859375
-165.71044921875
-174.86572265625
-171.20361328125
-171.20361328125
-172.119140625
-164.794921875
-165.71044921875
-164.794921875
-169.37255859375
-170.2880859375
-168.45703125
-164.794921875
-169.37255859375
-173.9501953125
-174.86572265625
-165.71044921875
-166.6259765625
-163.87939453125
-160.21728515625
-158.38623046875
-155.6396484375
-149.23095703125
-139.16015625
-133.6669921875
-130.0048828125
-129.08935546875
-126.3427734375
-129.08935546875
-122.6806640625
-133.6669921875
-131.8359375
-125.42724609375
-117.1875
-110.77880859375
-107.11669921875
-108.0322265625
-115.3564453125
-108.94775390625
-103.45458984375
-101.62353515625
-94.29931640625
-86.0595703125
-87.890625
-87.890625
-86.97509765625
-82.3974609375
-76.904296875
-80.56640625
-81.48193359375
-86.0595703125
-93.3837890625
-93.3837890625
-98.876953125
-106.201171875
-108.94775390625
-126.3427734375
-129.08935546875
-133.6669921875
-134.58251953125
-136.41357421875
-148.3154296875
-158.38623046875
-166.6259765625
-172.119140625
-166.6259765625
-171.20361328125
-176.69677734375
-170.2880859375
-170.2880859375
-184.02099609375
-185.85205078125
-181.2744140625
-180.35888671875
-183.10546875
-188.5986328125
-186.767578125
-186.767578125
-186.767578125
-190.4296875
-190.4296875
-195.00732421875
-189.51416015625
-187.68310546875
-189.51416015625
-189.51416015625
-190.4296875
-187.68310546875
-191.34521484375
-192.2607421875
-191.34521484375
-194.091796875
-194.091796875
-200.50048828125
-198.66943359375
-207.82470703125
-229.79736328125
-248.10791015625
-258.1787109375
-252.685546875
-241.69921875
-221.5576171875
-197.75390625
-171.20361328125
-119.0185546875
-34.7900390625
76.904296875
188.5986328125
310.36376953125
430.2978515625
578.61328125
693.9697265625
788.26904296875
841.36962890625
844.1162109375
830.38330078125
758.97216796875
676.57470703125
515.44189453125
310.36376953125
183.10546875
76.904296875
-26.55029296875
-126.3427734375
-194.091796875
-258.1787109375
-296.630859375
-304.87060546875
-291.1376953125
-265.5029296875
-230.712890625
-187.68310546875
-154.72412109375
-138.24462890625
-131.8359375
-130.92041015625
-136.41357421875
-138.24462890625
-141.90673828125
-148.3154296875
-154.72412109375
-160.21728515625
-151.06201171875
-151.06201171875
-155.6396484375
-157.470703125
-155.6396484375
-151.9775390625
-153.80859375
-154.72412109375
-159.3017578125
-153.80859375
-151.06201171875
-144.6533203125
-146.484375
-146.484375
-149.23095703125
-146.484375
-141.90673828125
-135.498046875
-139.16015625
-138.24462890625
-137.3291015625
-134.58251953125
-133.6669921875
-131.8359375
-127.25830078125
-127.25830078125
-128.173828125
-127.25830078125
-120.849609375
-118.10302734375
-115.3564453125
-113.525390625
-113.525390625
-111.6943359375
-108.0322265625
-103.45458984375
-101.62353515625
-101.62353515625
-104.3701171875
-103.45458984375
-95.21484375
-90.63720703125
-94.29931640625
-93.3837890625
-93.3837890625
-87.890625
-82.3974609375
-84.228515625
-79.65087890625
-76.904296875
-74.15771484375
-72.32666015625
-65.91796875
-65.91796875
-63.17138671875
-55.84716796875
-51.26953125
-46.69189453125
-47.607421875
-40.283203125
-34.7900390625
-34.7900390625
-33.87451171875
-28.38134765625
-21.97265625
-18.310546875
-14.6484375
-7.32421875
-0.91552734375
5.4931640625
9.1552734375
17.39501953125
24.71923828125
21.05712890625
32.04345703125
33.87451171875
43.9453125
53.1005859375
54.931640625
60.4248046875
67.7490234375
73.2421875
76.904296875
84.228515625
91.552734375
97.96142578125
99.79248046875
109.86328125
119.93408203125
125.42724609375
130.92041015625
140.07568359375
141.90673828125
143.73779296875
154.72412109375
158.38623046875
162.04833984375
164.794921875
168.45703125
173.9501953125
180.35888671875
184.02099609375
185.85205078125
181.2744140625
193.17626953125
197.75390625
195.00732421875
191.34521484375
188.5986328125
187.68310546875
179.443359375
173.9501953125
167.54150390625
155.6396484375
150.146484375
138.24462890625
124.51171875
108.94775390625
98.876953125
87.890625
73.2421875
54.931640625
37.53662109375
27.4658203125
12.8173828125
6.40869140625
-3.662109375
-19.22607421875
-32.958984375
-43.02978515625
-54.01611328125
-61.34033203125
-62.255859375
-70.49560546875
-83.31298828125
-83.31298828125
-86.0595703125
-91.552734375
-102.5390625
-101.62353515625
-104.3701171875
-109.86328125
-109.86328125
-106.201171875
-109.86328125
-117.1875
-118.10302734375
-125.42724609375
-122.6806640625
-120.849609375
-119.93408203125
-119.93408203125
-118.10302734375
-119.93408203125
-122.6806640625
-124.51171875
-121.76513671875
-119.93408203125
-119.0185546875
-122.6806640625
-119.93408203125
-119.93408203125
-123.59619140625
-119.93408203125
-124.51171875
-121.76513671875
-117.1875
-122.6806640625
-123.59619140625
-117.1875
-119.0185546875
-119.0185546875
-116.27197265625
-117.1875
-116.27197265625
-116.27197265625
-117.1875
-116.27197265625
-117.1875
-118.10302734375
-118.10302734375
-113.525390625
-111.6943359375
-120.849609375
-115.3564453125
-111.6943359375
-108.94775390625
-110.77880859375
-123.59619140625
-122.6806640625
-122.6806640625
-118.10302734375
-115.3564453125
-121.76513671875
-119.93408203125
-124.51171875
-126.3427734375
-123.59619140625
-123.59619140625
-128.173828125
-133.6669921875
-124.51171875
-118.10302734375
-126.3427734375
-129.08935546875
-129.08935546875
-126.3427734375
-130.92041015625
-133.6669921875
-137.3291015625
-130.0048828125
-119.93408203125
-130.0048828125
-132.75146484375
-138.24462890625
-131.8359375
-131.8359375
-136.41357421875
-138.24462890625
-131.8359375
-137.3291015625
-137.3291015625
-134.58251953125
-133.6669921875
-140.9912109375
-135.498046875
-130.0048828125
-134.58251953125
-139.16015625
-141.90673828125
-139.16015625
-136.41357421875
-135.498046875
-140.9912109375
-139.16015625
-133.6669921875
-140.9912109375
-142.822265625
-145.56884765625
-141.90673828125
-142.822265625
-141.90673828125
-144.6533203125
-141.90673828125
-147.39990234375
-139.16015625
-138.24462890625
-144.6533203125
-146.484375
-148.3154296875
-140.9912109375
-142.822265625
-145.56884765625
-148.3154296875
-146.484375
-148.3154296875
-148.3154296875
-144.6533203125
-146.484375
-146.484375
-141.90673828125
-152.89306640625
-146.484375
-148.3154296875
-144.6533203125
-147.39990234375
-143.73779296875
-150.146484375
-156.55517578125
-149.23095703125
-143.73779296875
-141.90673828125
-139.16015625
-137.3291015625
-147.39990234375
-136.41357421875
-137.3291015625
-140.9912109375
-147.39990234375
-150.146484375
-152.89306640625
-145.56884765625
-149.23095703125
-150.146484375
-146.484375
-145.56884765625
-146.484375
-147.39990234375
-150.146484375
-146.484375
-144.6533203125
-141.90673828125
-143.73779296875
-140.07568359375
-145.56884765625
-143.73779296875
-145.56884765625
-148.3154296875
-143.73779296875
-143.73779296875
-145.56884765625
-144.6533203125
-140.9912109375
-134.58251953125
-127.25830078125
-128.173828125
-125.42724609375
-118.10302734375
-114.44091796875
-108.94775390625
-103.45458984375
-98.876953125
-106.201171875
-105.28564453125
-112.60986328125
-110.77880859375
-104.3701171875
-94.29931640625
-89.7216796875
-85.14404296875
-88.80615234375
-84.228515625
-88.80615234375
-76.904296875
-67.7490234375
-66.83349609375
-62.255859375
-57.67822265625
-59.50927734375
-57.67822265625
-54.01611328125
-53.1005859375
-56.7626953125
-63.17138671875
-67.7490234375
-75.98876953125
-75.98876953125
-78.7353515625
-86.97509765625
-87.890625
-96.13037109375
-100.7080078125
-102.5390625
-109.86328125
-117.1875
-119.93408203125
-123.59619140625
-139.16015625
-150.146484375
-151.9775390625
-151.06201171875
-154.72412109375
-154.72412109375
-152.89306640625
-157.470703125
-158.38623046875
-149.23095703125
-154.72412109375
-161.1328125
-168.45703125
-167.54150390625
-167.54150390625
-165.71044921875
-166.6259765625
-170.2880859375
-169.37255859375
-168.45703125
-165.71044921875
-162.9638671875
-164.794921875
-173.03466796875
-171.20361328125
-173.03466796875
-176.69677734375
-175.78125
-176.69677734375
-173.03466796875
-173.03466796875
-181.2744140625
-197.75390625
-215.14892578125
-233.45947265625
-234.375
-229.79736328125
-210.5712890625
-194.091796875
-174.86572265625
-140.9912109375
-80.56640625
10.07080078125
125.42724609375
243.5302734375
364.3798828125
486.14501953125
622.55859375
722.35107421875
808.41064453125
848.69384765625
846.86279296875
820.3125
747.98583984375
654.60205078125
469.66552734375
281.06689453125
165.71044921875
66.83349609375
-31.1279296875
-130.92041015625
-199.5849609375
-239.8681640625
-284.72900390625
-292.96875
-273.74267578125
-245.361328125
-204.16259765625
-172.119140625
-138.24462890625
-121.76513671875
-112.60986328125
-111.6943359375
-112.60986328125
-119.0185546875
-126.3427734375
-126.3427734375
-127.25830078125
-130.0048828125
-130.0048828125
-132.75146484375
-133.6669921875
-135.498046875
-136.41357421875
-130.0048828125
-129.08935546875
-138.24462890625
-139.16015625
-133.6669921875
-126.3427734375
-130.0048828125
-129.08935546875
-126.3427734375
-126.3427734375
-125.42724609375
-124.51171875
-119.0185546875
-115.3564453125
-114.44091796875
-110.77880859375
-115.3564453125
-113.525390625
-107.11669921875
-108.94775390625
-105.28564453125
-104.3701171875
-102.5390625
-106.201171875
-97.96142578125
-91.552734375
-93.3837890625
-93.3837890625
-91.552734375
-91.552734375
-86.0595703125
-78.7353515625
-83.31298828125
-80.56640625
-86.97509765625
-77.81982421875
-78.7353515625
-77.81982421875
-62.255859375
-55.84716796875
-65.00244140625
-59.50927734375
-60.4248046875
-57.67822265625
-50.35400390625
-51.26953125
-46.69189453125
-43.9453125
-37.53662109375
-37.53662109375
-33.87451171875
-33.87451171875
-32.04345703125
-26.55029296875
-25.634765625
-16.4794921875
-10.07080078125
-6.40869140625
-3.662109375
0.91552734375
0
2.74658203125
14.6484375
16.4794921875
22.88818359375
32.958984375
36.62109375
40.283203125
44.86083984375
52.18505859375
60.4248046875
65.91796875
67.7490234375
79.65087890625
83.31298828125
96.13037109375
99.79248046875
100.7080078125
108.94775390625
120.849609375
121.76513671875
130.92041015625
136.41357421875
142.822265625
149.23095703125
151.9775390625
160.21728515625
165.71044921875
170.2880859375
178.52783203125
180.35888671875
186.767578125
185.85205078125
190.4296875
195.00732421875
204.16259765625
202.33154296875
203.2470703125
206.9091796875
216.064453125
214.2333984375
207.82470703125
203.2470703125
203.2470703125
203.2470703125
198.66943359375
188.5986328125
183.10546875
172.119140625
161.1328125
151.06201171875
145.56884765625
121.76513671875
112.60986328125
102.5390625
90.63720703125
68.66455078125
55.84716796875
44.86083984375
28.38134765625
21.05712890625
9.1552734375
-1.8310546875
-15.56396484375
-27.4658203125
-35.70556640625
-49.4384765625
-53.1005859375
-61.34033203125
-71.4111328125
-63.17138671875
-70.49560546875
-78.7353515625
-86.0595703125
-82.3974609375
-80.56640625
-88.80615234375
-91.552734375
-93.3837890625
-87.890625
-95.21484375
-95.21484375
-94.29931640625
-97.96142578125
-93.3837890625
-92.46826171875
-97.0458984375
-95.21484375
-98.876953125
-103.45458984375
-104.3701171875
-98.876953125
-97.96142578125
-96.13037109375
-99.79248046875
-96.13037109375
-96.13037109375
-98.876953125
-102.5390625
-104.3701171875
-102.5390625
-102.5390625
-108.0322265625
-108.0322265625
-102.5390625
-93.3837890625
-91.552734375
-98.876953125
-99.79248046875
-97.0458984375
-96.13037109375
-95.21484375
-97.0458984375
-100.7080078125
-106.201171875
-103.45458984375
-104.3701171875
-108.0322265625
-106.201171875
-97.0458984375
-96.13037109375
-100.7080078125
-102.5390625
-99.79248046875
-99.79248046875
-97.0458984375
-95.21484375
-102.5390625
-100.7080078125
-105.28564453125
-108.0322265625
-106.201171875
-112.60986328125
-106.201171875
-104.3701171875
-108.0322265625
-120.849609375
-115.3564453125
-115.3564453125
-114.44091796875
-106.201171875
-112.60986328125
-118.10302734375
-114.44091796875
-113.525390625
-118.10302734375
-123.59619140625
-122.6806640625
-119.0185546875
-117.1875
-121.76513671875
-123.59619140625
-111.6943359375
-109.86328125
-115.3564453125
-119.0185546875
-119.0185546875
-120.849609375
-118.10302734375
-117.1875
-116.27197265625
-119.93408203125
-120.849609375
-123.59619140625
-116.27197265625
-117.1875
-122.6806640625
-122.6806640625
-119.0185546875
-120.849609375
-122.6806640625
-123.59619140625
-130.0048828125
-126.3427734375
-137.3291015625
-134.58251953125
-130.92041015625
-131.8359375
-133.6669921875
-127.25830078125
-131.8359375
-139.16015625
-140.07568359375
-133.6669921875
-128.173828125
-130.92041015625
-132.75146484375
-131.8359375
-128.173828125
-125.42724609375
-130.0048828125
-130.92041015625
-132.75146484375
-130.92041015625
-129.08935546875
-126.3427734375
-135.498046875
-123.59619140625
-128.173828125
-130.92041015625
-126.3427734375
-130.92041015625
-130.92041015625
-127.25830078125
-132.75146484375
-131.8359375
-136.41357421875
-131.8359375
-126.3427734375
-133.6669921875
-133.6669921875
-122.6806640625
-119.93408203125
-122.6806640625
-119.0185546875
-109.86328125
-109.86328125
-103.45458984375
-100.7080078125
-103.45458984375
-99.79248046875
-100.7080078125
-106.201171875
-103.45458984375
-97.0458984375
-94.29931640625
-89.7216796875
-86.0595703125
-82.3974609375
-79.65087890625
-73.2421875
-65.91796875
-65.91796875
-61.34033203125
-56.7626953125
-55.84716796875
-62.255859375
-54.01611328125
-54.01611328125
-51.26953125
-43.02978515625
-54.01611328125
-61.34033203125
-65.91796875
-71.4111328125
-77.81982421875
-75.0732421875
-88.80615234375
-102.5390625
-92.46826171875
-97.96142578125
-103.45458984375
-108.0322265625
-113.525390625
-123.59619140625
-131.8359375
-142.822265625
-148.3154296875
-147.39990234375
-151.06201171875
-155.6396484375
-153.80859375
-150.146484375
-156.55517578125
-164.794921875
-154.72412109375
-158.38623046875
-162.9638671875
-156.55517578125
-158.38623046875
-161.1328125
-164.794921875
-162.04833984375
-161.1328125
-158.38623046875
-155.6396484375
-156.55517578125
-161.1328125
-159.3017578125
-157.470703125
-162.04833984375
-167.54150390625
-171.20361328125
-169.37255859375
-165.71044921875
-170.2880859375
-179.443359375
-187.68310546875
-207.82470703125
-227.96630859375
-236.2060546875
-236.2060546875
-225.2197265625
-204.16259765625
-184.02099609375
-146.484375
-103.45458984375
-20.1416015625
89.7216796875
200.50048828125
318.603515625
450.439453125
593.26171875
700.37841796875
776.3671875
815.73486328125
800.1708984375
773.62060546875
705.87158203125
610.65673828125
453.18603515625
275.57373046875
160.21728515625
68.66455078125
-17.39501953125
-97.0458984375
-161.1328125
-214.2333984375
-259.09423828125
-270.08056640625
-278.3203125
-269.1650390625
-246.27685546875
-223.388671875
-197.75390625
-178.52783203125
-153.80859375
-139.16015625
-132.75146484375
-125.42724609375
-129.08935546875
-130.92041015625
-130.92041015625
-131.8359375
-133.6669921875
-134.58251953125
-141.90673828125
-139.16015625
-134.58251953125
-133.6669921875
-132.75146484375
-131.8359375
-133.6669921875
-124.51171875
-130.0048828125
-122.6806640625
-124.51171875
-129.08935546875
-122.6806640625
-118.10302734375
-117.1875
-123.59619140625
-124.51171875
-120.849609375
-119.93408203125
-119.0185546875
-115.3564453125
-113.525390625
-108.94775390625
-100.7080078125
-102.5390625
-106.201171875
-101.62353515625
-93.3837890625
-95.21484375
-91.552734375
-93.3837890625
-83.31298828125
-82.3974609375
-79.65087890625
-80.56640625
-79.65087890625
-84.228515625
-85.14404296875
-77.81982421875
-73.2421875
-66.83349609375
-65.91796875
-64.0869140625
-65.00244140625
-63.17138671875
-60.4248046875
-57.67822265625
-47.607421875
-47.607421875
-46.69189453125
-45.7763671875
-39.36767578125
-38.4521484375
-36.62109375
-33.87451171875
-31.1279296875
-30.21240234375
-29.296875
-10.986328125
-10.07080078125
-7.32421875
0
-0.91552734375
10.07080078125
12.8173828125
15.56396484375
22.88818359375
23.8037109375
30.21240234375
36.62109375
40.283203125
48.52294921875
55.84716796875
63.17138671875
66.83349609375
66.83349609375
74.15771484375
79.65087890625
84.228515625
94.29931640625
98.876953125
107.11669921875
109.86328125
114.44091796875
124.51171875
130.0048828125
133.6669921875
141.90673828125
146.484375
147.39990234375
156.55517578125
161.1328125
171.20361328125
180.35888671875
186.767578125
182.18994140625
191.34521484375
191.34521484375
194.091796875
207.82470703125
207.82470703125
206.9091796875
207.82470703125
207.82470703125
206.9091796875
196.83837890625
191.34521484375
192.2607421875
191.34521484375
178.52783203125
162.04833984375
152.89306640625
147.39990234375
140.07568359375
129.08935546875
115.3564453125
97.0458984375
82.3974609375
69.580078125
61.34033203125
46.69189453125
33.87451171875
15.56396484375
8.23974609375
-2.74658203125
-10.986328125
-20.1416015625
-21.97265625
-32.04345703125
-43.9453125
-58.59375
-56.7626953125
-60.4248046875
-65.91796875
-64.0869140625
-74.15771484375
-75.98876953125
-78.7353515625
-82.3974609375
-86.0595703125
-86.97509765625
-87.890625
-83.31298828125
-86.0595703125
-86.97509765625
-89.7216796875
-90.63720703125
-90.63720703125
-88.80615234375
-90.63720703125
-91.552734375
-93.3837890625
-91.552734375
-97.0458984375
-99.79248046875
-98.876953125
-101.62353515625
-101.62353515625
-99.79248046875
-93.3837890625
-93.3837890625
-96.13037109375
-96.13037109375
-89.7216796875
-95.21484375
-97.96142578125
-95.21484375
-96.13037109375
-93.3837890625
-90.63720703125
-92.46826171875
-95.21484375
-90.63720703125
-87.890625
-91.552734375
-91.552734375
-96.13037109375
-93.3837890625
-94.29931640625
-93.3837890625
-91.552734375
-97.0458984375
-99.79248046875
-92.46826171875
-91.552734375
-85.14404296875
-89.7216796875
-97.0458984375
-95.21484375
-93.3837890625
-98.876953125
-97.0458984375
-103.45458984375
-100.7080078125
-101.62353515625
-102.5390625
-99.79248046875
-101.62353515625
-102.5390625
-104.3701171875
-111.6943359375
-111.6943359375
-112.60986328125
-106.201171875
-111.6943359375
-119.0185546875
-119.0185546875
-112.60986328125
-106.201171875
-111.6943359375
-108.0322265625
-106.201171875
-112.60986328125
-114.44091796875
-112.60986328125
-110.77880859375
-110.77880859375
-109.86328125
-115.3564453125
-118.10302734375
-117.1875
-114.44091796875
-118.10302734375
-118.10302734375
-113.525390625
-111.6943359375
-116.27197265625
-117.1875
-118.10302734375
-112.60986328125
-113.525390625
-115.3564453125
-121.76513671875
-114.44091796875
-112.60986328125
-120.849609375
-123.59619140625
-117.1875
-116.27197265625
-117.1875
-123.59619140625
-123.59619140625
-124.51171875
-121.76513671875
-118.10302734375
-121.76513671875
-125.42724609375
-125.42724609375
-125.42724609375
-122.6806640625
-124.51171875
-127.25830078125
-129.08935546875
-129.08935546875
-123.59619140625
-129.08935546875
-132.75146484375
-129.08935546875
-130.0048828125
-124.51171875
-127.25830078125
-127.25830078125
-127.25830078125
-125.42724609375
-125.42724609375
-130.92041015625
-126.3427734375
-130.0048828125
-128.173828125
-134.58251953125
-132.75146484375
-129.08935546875
-127.25830078125
-130.92041015625
-130.0048828125
-130.92041015625
-128.173828125
-126.3427734375
-128.173828125
-133.6669921875
-134.58251953125
-131.8359375
-133.6669921875
-127.25830078125
-129.08935546875
-129.08935546875
-130.0048828125
-130.0048828125
-118.10302734375
-114.44091796875
-118.10302734375
-116.27197265625
-105.28564453125
-90.63720703125
-89.7216796875
-86.0595703125
-88.80615234375
-90.63720703125
-87.890625
-92.46826171875
-89.7216796875
-81.48193359375
-82.3974609375
-76.904296875
-72.32666015625
-71.4111328125
-78.7353515625
-74.15771484375
-59.50927734375
-56.7626953125
-52.18505859375
-51.26953125
-51.26953125
-45.7763671875
-46.69189453125
-44.86083984375
-48.52294921875
-45.7763671875
-47.607421875
-50.35400390625
-63.17138671875
-65.00244140625
-63.17138671875
-68.66455078125
-80.56640625
-80.56640625
-87.890625
-86.97509765625
-84.228515625
-95.21484375
-112.60986328125
-120.849609375
-130.92041015625
-131.8359375
-135.498046875
-136.41357421875
-139.16015625
-136.41357421875
-140.9912109375
-143.73779296875
-144.6533203125
-145.56884765625
-148.3154296875
-151.9775390625
-147.39990234375
-153.80859375
-155.6396484375
-158.38623046875
-159.3017578125
-151.9775390625
-151.9775390625
-158.38623046875
-159.3017578125
-160.21728515625
-153.80859375
-156.55517578125
-155.6396484375
-152.89306640625
-155.6396484375
-155.6396484375
-161.1328125
-159.3017578125
-163.87939453125
-167.54150390625
-173.9501953125
-188.5986328125
-214.2333984375
-230.712890625
-217.8955078125
-207.82470703125
-192.2607421875
-172.119140625
-134.58251953125
-85.14404296875
-14.6484375
92.46826171875
210.5712890625
337.82958984375
460.51025390625
600.5859375
709.53369140625
800.1708984375
864.2578125
868.83544921875
857.84912109375
793.76220703125
702.20947265625
552.978515625
357.0556640625
216.064453125
112.60986328125
10.986328125
-86.0595703125
-162.9638671875
-213.31787109375
-257.26318359375
-268.24951171875
-260.92529296875
-230.712890625
-203.2470703125
-166.6259765625
-136.41357421875
-111.6943359375
-97.96142578125
-90.63720703125
-98.876953125
-106.201171875
-106.201171875
-111.6943359375
-111.6943359375
-119.0185546875
-113.525390625
-109.86328125
-114.44091796875
-119.93408203125
-117.1875
-119.93408203125
-120.849609375
-118.10302734375
-117.1875
-121.76513671875
-114.44091796875
-111.6943359375
-112.60986328125
-111.6943359375
-108.0322265625
-102.5390625
-102.5390625
-99.79248046875
-95.21484375
-94.29931640625
-97.0458984375
-94.29931640625
-89.7216796875
-90.63720703125
-89.7216796875
-85.14404296875
-82.3974609375
-83.31298828125
-79.65087890625
-76.904296875
-73.2421875
-73.2421875
-72.32666015625
-71.4111328125
-66.83349609375
-69.580078125
-67.7490234375
-64.0869140625
-60.4248046875
-61.34033203125
-54.01611328125
-54.01611328125
-50.35400390625
-52.18505859375
-48.52294921875
-46.69189453125
-47.607421875
-39.36767578125
-35.70556640625
-31.1279296875
-28.38134765625
-33.87451171875
-30.21240234375
-28.38134765625
-20.1416015625
-15.56396484375
-9.1552734375
-10.07080078125
-4.57763671875
0.91552734375
4.57763671875
4.57763671875
10.986328125
17.39501953125
21.05712890625
24.71923828125
32.04345703125
43.02978515625
42.1142578125
47.607421875
56.7626953125
56.7626953125
61.34033203125
69.580078125
72.32666015625
77.81982421875
85.14404296875
94.29931640625
100.7080078125
107.11669921875
108.0322265625
112.60986328125
123.59619140625
130.92041015625
134.58251953125
143.73779296875
145.56884765625
153.80859375
160.21728515625
165.71044921875
171.20361328125
177.6123046875
173.9501953125
182.18994140625
185.85205078125
197.75390625
205.078125
209.65576171875
209.65576171875
203.2470703125
210.5712890625
217.8955078125
220.64208984375
228.8818359375
221.5576171875
221.5576171875
227.96630859375
235.29052734375
227.05078125
215.14892578125
213.31787109375
208.740234375
200.50048828125
189.51416015625
182.18994140625
166.6259765625
150.146484375
143.73779296875
131.8359375
116.27197265625
101.62353515625
92.46826171875
79.65087890625
63.17138671875
53.1005859375
33.87451171875
27.4658203125
11.90185546875
0.91552734375
-10.986328125
-16.4794921875
-25.634765625
-32.958984375
-37.53662109375
-46.69189453125
-51.26953125
-55.84716796875
-63.17138671875
-68.66455078125
-65.91796875
-73.2421875
-75.98876953125
-71.4111328125
-72.32666015625
-70.49560546875
-74.15771484375
-73.2421875
-73.2421875
-78.7353515625
-84.228515625
-80.56640625
-86.0595703125
-86.97509765625
-84.228515625
-85.14404296875
-78.7353515625
-77.81982421875
-83.31298828125
-81.48193359375
-81.48193359375
-83.31298828125
-75.98876953125
-79.65087890625
-79.65087890625
-80.56640625
-80.56640625
-74.15771484375
-71.4111328125
-73.2421875
-75.0732421875
-82.3974609375
-81.48193359375
-75.0732421875
-78.7353515625
-82.3974609375
-83.31298828125
-79.65087890625
-75.98876953125
-78.7353515625
-76.904296875
-75.98876953125
-79.65087890625
-77.81982421875
-83.31298828125
-85.14404296875
-79.65087890625
-78.7353515625
-84.228515625
-86.97509765625
-87.890625
-88.80615234375
-81.48193359375
-83.31298828125
-81.48193359375
-83.31298828125
-88.80615234375
-86.97509765625
-86.0595703125
-85.14404296875
-96.13037109375
-96.13037109375
-89.7216796875
-88.80615234375
-90.63720703125
-91.552734375
-98.876953125
-93.3837890625
-94.29931640625
-96.13037109375
-97.0458984375
-96.13037109375
-93.3837890625
-94.29931640625
-96.13037109375
-98.876953125
-98.876953125
-95.21484375
-97.96142578125
-97.96142578125
-107.11669921875
-102.5390625
-103.45458984375
-102.5390625
-102.5390625
-104.3701171875
-100.7080078125
-100.7080078125
-98.876953125
-100.7080078125
-102.5390625
-104.3701171875
-104.3701171875
-104.3701171875
-108.0322265625
-109.86328125
-101.62353515625
-101.62353515625
-108.0322265625
-109.86328125
-108.0322265625
-110.77880859375
-111.6943359375
-106.201171875
-107.11669921875
-108.94775390625
-106.201171875
-105.28564453125
-108.94775390625
-108.0322265625
-108.0322265625
-105.28564453125
-105.28564453125
-112.60986328125
-114.44091796875
-118.10302734375
-112.60986328125
-111.6943359375
-111.6943359375
-113.525390625
-119.0185546875
-115.3564453125
-109.86328125
-110.77880859375
-112.60986328125
-110.77880859375
-107.11669921875
-107.11669921875
-105.28564453125
-107.11669921875
-114.44091796875
-115.3564453125
-112.60986328125
-111.6943359375
-115.3564453125
-110.77880859375
-113.525390625
-114.44091796875
-111.6943359375
-111.6943359375
-115.3564453125
-119.0185546875
-116.27197265625
-113.525390625
-115.3564453125
-117.1875
-112.60986328125
-111.6943359375
-111.6943359375
-108.94775390625
-108.94775390625
-98.876953125
-99.79248046875
-95.21484375
-89.7216796875
-86.0595703125
-81.48193359375
-77.81982421875
-77.81982421875
-78.7353515625
-79.65087890625
-75.98876953125
-76.904296875
-71.4111328125
-65.00244140625
-60.4248046875
-65.00244140625
-64.0869140625
-62.255859375
-55.84716796875
-51.26953125
-42.1142578125
-32.04345703125
-27.4658203125
-33.87451171875
-35.70556640625
-30.21240234375
-20.1416015625
-14.6484375
-27.4658203125
-25.634765625
-32.04345703125
-50.35400390625
-46.69189453125
-45.7763671875
-51.26953125
-67.7490234375
-69.580078125
-75.0732421875
-77.81982421875
-79.65087890625
-77.81982421875
-90.63720703125
-102.5390625
-109.86328125
-118.10302734375
-120.849609375
-127.25830078125
-126.3427734375
-126.3427734375
-131.8359375
-130.92041015625
-138.24462890625
-134.58251953125
-138.24462890625
-140.9912109375
-140.9912109375
-139.16015625
-134.58251953125
-140.07568359375
-140.9912109375
-142.822265625
-144.6533203125
-141.90673828125
-140.9912109375
-141.90673828125
-137.3291015625
-141.90673828125
-140.9912109375
-147.39990234375
-146.484375
-143.73779296875
-135.498046875
-139.16015625
-143.73779296875
-151.9775390625
-153.80859375
-170.2880859375
-191.34521484375
-209.65576171875
-204.16259765625
-196.83837890625
-179.443359375
-164.794921875
-141.90673828125
-105.28564453125
-45.7763671875
54.931640625
173.9501953125
286.56005859375
408.3251953125
538.330078125
673.828125
772.705078125
848.69384765625
874.32861328125
871.58203125
841.36962890625
769.95849609375
666.50390625
470.5810546875
302.1240234375
186.767578125
87.890625
-17.39501953125
-115.3564453125
-178.52783203125
-224.30419921875
-249.0234375
-258.1787109375
-242.61474609375
-205.078125
-166.6259765625
-130.0048828125
-105.28564453125
-90.63720703125
-78.7353515625
-77.81982421875
-83.31298828125
-91.552734375
-90.63720703125
-92.46826171875
-98.876953125
-98.876953125
-103.45458984375
-103.45458984375
-99.79248046875
-103.45458984375
-96.13037109375
-102.5390625
-105.28564453125
-99.79248046875
-98.876953125
-96.13037109375
-97.96142578125
-94.29931640625
-90.63720703125
-100.7080078125
-94.29931640625
-91.552734375
-92.46826171875
-93.3837890625
-86.0595703125
-86.97509765625
-77.81982421875
-75.0732421875
-79.65087890625
-86.97509765625
-75.98876953125
-77.81982421875
-75.0732421875
-69.580078125
-65.00244140625
-61.34033203125
-58.59375
-59.50927734375
-62.255859375
-54.931640625
-50.35400390625
-57.67822265625
-51.26953125
-45.7763671875
-50.35400390625
-43.9453125
-42.1142578125
-43.9453125
-43.9453125
-41.19873046875
-32.958984375
-31.1279296875
-35.70556640625
-32.958984375
-22.88818359375
-19.22607421875
-18.310546875
-16.4794921875
-12.8173828125
-6.40869140625
0.91552734375
-3.662109375
-5.4931640625
5.4931640625
15.56396484375
15.56396484375
21.97265625
29.296875
24.71923828125
34.7900390625
39.36767578125
39.36767578125
49.4384765625
58.59375
62.255859375
62.255859375
65.91796875
69.580078125
75.98876953125
85.14404296875
91.552734375
91.552734375
97.0458984375
99.79248046875
108.0322265625
117.1875
122.6806640625
125.42724609375
134.58251953125
140.07568359375
146.484375
151.9775390625
157.470703125
162.9638671875
173.03466796875
181.2744140625
183.10546875
186.767578125
195.9228515625
203.2470703125
207.82470703125
207.82470703125
212.40234375
219.7265625
227.05078125
227.96630859375
226.13525390625
232.5439453125
237.12158203125
238.95263671875
247.1923828125
245.361328125
239.8681640625
237.12158203125
232.5439453125
227.05078125
218.81103515625
209.65576171875
195.9228515625
189.51416015625
181.2744140625
165.71044921875
156.55517578125
145.56884765625
130.92041015625
119.0185546875
98.876953125
86.0595703125
73.2421875
65.91796875
54.01611328125
38.4521484375
24.71923828125
15.56396484375
3.662109375
-1.8310546875
-12.8173828125
-23.8037109375
-30.21240234375
-32.04345703125
-35.70556640625
-48.52294921875
-52.18505859375
-51.26953125
-54.01611328125
-54.931640625
-54.01611328125
-62.255859375
-64.0869140625
-65.91796875
-64.0869140625
-66.83349609375
-67.7490234375
-70.49560546875
-70.49560546875
-67.7490234375
-75.0732421875
-78.7353515625
-71.4111328125
-74.15771484375
-73.2421875
-72.32666015625
-82.3974609375
-73.2421875
-66.83349609375
-68.66455078125
-71.4111328125
-70.49560546875
-64.0869140625
-63.17138671875
-65.00244140625
-69.580078125
-68.66455078125
-66.83349609375
-65.91796875
-62.255859375
-61.34033203125
-64.0869140625
-55.84716796875
-62.255859375
-65.00244140625
-65.91796875
-66.83349609375
-63.17138671875
-66.83349609375
-66.83349609375
-66.83349609375
-65.91796875
-67.7490234375
-71.4111328125
-70.49560546875
-72.32666015625
-65.91796875
-70.49560546875
-65.00244140625
-67.7490234375
-75.0732421875
-74.15771484375
-78.7353515625
-73.2421875
-69.580078125
-69.580078125
-77.81982421875
-76.904296875
-76.904296875
-70.49560546875
-84.228515625
-74.15771484375
-71.4111328125
-74.15771484375
-77.81982421875
-73.2421875
-69.580078125
-69.580078125
-71.4111328125
-74.15771484375
-73.2421875
-76.904296875
-78.7353515625
-79.65087890625
-79.65087890625
-82.3974609375
-82.3974609375
-81.48193359375
-80.56640625
-80.56640625
-89.7216796875
-85.14404296875
-88.80615234375
-83.31298828125
-95.21484375
-89.7216796875
-89.7216796875
-96.13037109375
-99.79248046875
-84.228515625
-86.0595703125
-90.63720703125
-97.0458984375
-95.21484375
-91.552734375
-97.96142578125
-97.0458984375
-93.3837890625
-89.7216796875
-87.890625
-91.552734375
-92.46826171875
-97.0458984375
-91.552734375
-92.46826171875
-97.0458984375
-97.0458984375
-99.79248046875
-96.13037109375
-91.552734375
-90.63720703125
-95.21484375
-97.96142578125
-97.96142578125
-97.0458984375
-95.21484375
-98.876953125
-94.29931640625
-96.13037109375
-97.0458984375
-99.79248046875
-106.201171875
-102.5390625
-95.21484375
-93.3837890625
-97.96142578125
-102.5390625
-108.94775390625
-102.5390625
-98.876953125
-98.876953125
-106.201171875
-104.3701171875
-101.62353515625
-101.62353515625
-108.94775390625
-107.11669921875
-106.201171875
-100.7080078125
-105.28564453125
-111.6943359375
-109.86328125
-101.62353515625
-111.6943359375
-108.94775390625
-105.28564453125
-108.94775390625
-108.94775390625
-106.201171875
-105.28564453125
-108.0322265625
-106.201171875
-106.201171875
-108.94775390625
-103.45458984375
-106.201171875
-110.77880859375
-108.94775390625
-107.11669921875
-102.5390625
-102.5390625
-101.62353515625
-104.3701171875
-102.5390625
-105.28564453125
-107.11669921875
-102.5390625
-106.201171875
-101.62353515625
-97.96142578125
-95.21484375
-96.13037109375
-89.7216796875
-80.56640625
-76.904296875
-75.98876953125
-74.15771484375
-75.98876953125
-71.4111328125
-70.49560546875
-73.2421875
-71.4111328125
-64.0869140625
-61.34033203125
-44.86083984375
-48.52294921875
-54.931640625
-47.607421875
-34.7900390625
-31.1279296875
-34.7900390625
-28.38134765625
-22.88818359375
-22.88818359375
-23.8037109375
-21.05712890625
-25.634765625
-20.1416015625
-19.22607421875
-20.1416015625
-32.04345703125
-43.02978515625
-37.53662109375
-34.7900390625
-43.02978515625
-55.84716796875
-64.0869140625
-60.4248046875
-58.59375
-63.17138671875
-75.0732421875
-83.31298828125
-96.13037109375
-101.62353515625
-107.11669921875
-112.60986328125
-109.86328125
-113.525390625
-123.59619140625
-124.51171875
-116.27197265625
-123.59619140625
-119.0185546875
-117.1875
-115.3564453125
-126.3427734375
-122.6806640625
-119.93408203125
-123.59619140625
-124.51171875
-129.08935546875
-129.08935546875
-127.25830078125
-127.25830078125
-128.173828125
-132.75146484375
-130.0048828125
-126.3427734375
-124.51171875
-129.08935546875
-133.6669921875
-129.08935546875
-130.92041015625
-136.41357421875
-142.822265625
-154.72412109375
-166.6259765625
-191.34521484375
-193.17626953125
-186.767578125
-175.78125
-162.04833984375
-131.8359375
-90.63720703125
-46.69189453125
39.36767578125
151.9775390625
262.75634765625
385.43701171875
515.44189453125
662.841796875
753.47900390625
830.38330078125
879.82177734375
880.7373046875
852.35595703125
778.1982421875
691.22314453125
505.37109375
327.7587890625
206.9091796875
108.94775390625
1.8310546875
-86.97509765625
-154.72412109375
-199.5849609375
-245.361328125
-255.43212890625
-233.45947265625
-207.82470703125
-183.10546875
-149.23095703125
-122.6806640625
-95.21484375
-80.56640625
-83.31298828125
-84.228515625
-86.97509765625
-87.890625
-93.3837890625
-102.5390625
-99.79248046875
-100.7080078125
-97.96142578125
-97.0458984375
-97.96142578125
-107.11669921875
-101.62353515625
-96.13037109375
-91.552734375
-92.46826171875
-95.21484375
-96.13037109375
-92.46826171875
-86.0595703125
-89.7216796875
-92.46826171875
-89.7216796875
-85.14404296875
-82.3974609375
-82.3974609375
-83.31298828125
-81.48193359375
-72.32666015625
-74.15771484375
-79.65087890625
-69.580078125
-71.4111328125
-66.83349609375
-71.4111328125
-65.00244140625
-65.91796875
-63.17138671875
-64.0869140625
-54.01611328125
-60.4248046875
-55.84716796875
-49.4384765625
-51.26953125
-52.18505859375
-42.1142578125
-42.1142578125
-41.19873046875
-45.7763671875
-35.70556640625
-42.1142578125
-35.70556640625
-32.04345703125
-32.958984375
-35.70556640625
-29.296875
-32.04345703125
-33.87451171875
-12.8173828125
-5.4931640625
-17.39501953125
-15.56396484375
-6.40869140625
-2.74658203125
-0.91552734375
1.8310546875
5.4931640625
10.986328125
18.310546875
29.296875
24.71923828125
25.634765625
38.4521484375
38.4521484375
43.9453125
50.35400390625
52.18505859375
59.50927734375
69.580078125
72.32666015625
73.2421875
76.904296875
86.97509765625
99.79248046875
100.7080078125
107.11669921875
101.62353515625
115.3564453125
129.08935546875
138.24462890625
138.24462890625
143.73779296875
148.3154296875
160.21728515625
170.2880859375
167.54150390625
167.54150390625
178.52783203125
190.4296875
189.51416015625
201.416015625
209.65576171875
202.33154296875
209.65576171875
213.31787109375
217.8955078125
223.388671875
231.62841796875
236.2060546875
243.5302734375
238.037109375
246.27685546875
243.5302734375
248.10791015625
248.10791015625
242.61474609375
237.12158203125
235.29052734375
231.62841796875
224.30419921875
205.99365234375
194.091796875
185.85205078125
177.6123046875
165.71044921875
150.146484375
136.41357421875
126.3427734375
104.3701171875
91.552734375
75.98876953125
69.580078125
49.4384765625
42.1142578125
29.296875
18.310546875
2.74658203125
-0.91552734375
-2.74658203125
-7.32421875
-21.05712890625
-23.8037109375
-28.38134765625
-32.04345703125
-37.53662109375
-43.02978515625
-48.52294921875
-41.19873046875
-45.7763671875
-52.18505859375
-56.7626953125
-59.50927734375
-55.84716796875
-52.18505859375
-54.01611328125
-62.255859375
-63.17138671875
-55.84716796875
-61.34033203125
-60.4248046875
-70.49560546875
-68.66455078125
-64.0869140625
-61.34033203125
-66.83349609375
-71.4111328125
-68.66455078125
-65.91796875
-59.50927734375
-59.50927734375
-67.7490234375
-66.83349609375
-65.00244140625
-61.34033203125
-61.34033203125
-60.4248046875
-59.50927734375
-61.34033203125
-64.0869140625
-62.255859375
-58.59375
-60.4248046875
-55.84716796875
-51.26953125
-55.84716796875
-53.1005859375
-63.17138671875
-58.59375
-65.00244140625
-61.34033203125
-60.4248046875
-66.83349609375
-64.0869140625
-63.17138671875
-67.7490234375
-67.7490234375
-73.2421875
-70.49560546875
-66.83349609375
-61.34033203125
-68.66455078125
-70.49560546875
-72.32666015625
-72.32666015625
-68.66455078125
-72.32666015625
-80.56640625
-75.98876953125
-75.98876953125
-77.81982421875
-75.98876953125
-84.228515625
-79.65087890625
-82.3974609375
-84.228515625
-83.31298828125
-85.14404296875
-85.14404296875
-84.228515625
-86.0595703125
-85.14404296875
-86.97509765625
-86.97509765625
-91.552734375
-96.13037109375
-94.29931640625
-92.46826171875
-93.3837890625
-87.890625
-82.3974609375
-91.552734375
-93.3837890625
-86.97509765625
-92.46826171875
-88.80615234375
-86.97509765625
-91.552734375
-89.7216796875
-90.63720703125
-91.552734375
-99.79248046875
-99.79248046875
-97.96142578125
-97.96142578125
-97.0458984375
-107.11669921875
-105.28564453125
-102.5390625
-104.3701171875
-98.876953125
-105.28564453125
-113.525390625
-105.28564453125
-104.3701171875
-105.28564453125
-108.0322265625
-107.11669921875
-101.62353515625
-109.86328125
-111.6943359375
-113.525390625
-111.6943359375
-114.44091796875
-111.6943359375
-107.11669921875
-108.94775390625
-108.0322265625
-108.0322265625
-95.21484375
-101.62353515625
-108.0322265625
-101.62353515625
-106.201171875
-111.6943359375
-109.86328125
-111.6943359375
-111.6943359375
-113.525390625
-107.11669921875
-106.201171875
-109.86328125
-109.86328125
-105.28564453125
-112.60986328125
-105.28564453125
-110.77880859375
-112.60986328125
-112.60986328125
-109.86328125
-108.94775390625
-113.525390625
-116.27197265625
-116.27197265625
-111.6943359375
-104.3701171875
-99.79248046875
-97.0458984375
-96.13037109375
-86.97509765625
-81.48193359375
-80.56640625
-75.98876953125
-80.56640625
-80.56640625
-79.65087890625
-77.81982421875
-75.98876953125
-69.580078125
-65.91796875
-59.50927734375
-61.34033203125
-59.50927734375
-54.01611328125
-37.53662109375
-31.1279296875
-33.87451171875
-31.1279296875
-30.21240234375
-30.21240234375
-28.38134765625
-33.87451171875
-24.71923828125
-24.71923828125
-25.634765625
-29.296875
-42.1142578125
-38.4521484375
-40.283203125
-53.1005859375
-62.255859375
-71.4111328125
-69.580078125
-70.49560546875
-70.49560546875
-78.7353515625
-93.3837890625
-99.79248046875
-106.201171875
-112.60986328125
-113.525390625
-116.27197265625
-116.27197265625
-129.08935546875
-131.8359375
-131.8359375
-134.58251953125
-131.8359375
-129.08935546875
-130.92041015625
-131.8359375
-136.41357421875
-131.8359375
-133.6669921875
-135.498046875
-136.41357421875
-134.58251953125
-140.9912109375
-140.07568359375
-135.498046875
-131.8359375
-135.498046875
-135.498046875
-130.92041015625
-134.58251953125
-130.92041015625
-133.6669921875
-137.3291015625
-135.498046875
-136.41357421875
-142.822265625
-156.55517578125
-173.03466796875
-196.83837890625
-199.5849609375
-189.51416015625
-180.35888671875
-166.6259765625
-147.39990234375
-119.0185546875
-62.255859375
26.55029296875
134.58251953125
251.77001953125
373.53515625
505.37109375
638.12255859375
736.083984375
796.5087890625
836.7919921875
809.326171875
783.69140625
717.7734375
602.4169921875
435.791015625
268.24951171875
163.87939453125
83.31298828125
0
-80.56640625
-140.9912109375
-197.75390625
-230.712890625
-242.61474609375
-243.5302734375
-235.29052734375
-219.7265625
-196.83837890625
-174.86572265625
-151.06201171875
-128.173828125
-117.1875
-102.5390625
-103.45458984375
-106.201171875
-107.11669921875
-105.28564453125
-106.201171875
-109.86328125
-109.86328125
-104.3701171875
-109.86328125
-108.0322265625
-102.5390625
-101.62353515625
-97.96142578125
-99.79248046875
-97.96142578125
-96.13037109375
-97.0458984375
-97.96142578125
-101.62353515625
-96.13037109375
-88.80615234375
-89.7216796875
-93.3837890625
-86.97509765625
-89.7216796875
-87.890625
-86.0595703125
-81.48193359375
-84.228515625
-80.56640625
-75.98876953125
-78.7353515625
-79.65087890625
-82.3974609375
-70.49560546875
-71.4111328125
-64.0869140625
-65.00244140625
-72.32666015625
-68.66455078125
-63.17138671875
-58.59375
-55.84716796875
-54.931640625
-59.50927734375
-52.18505859375
-48.52294921875
-46.69189453125
-43.02978515625
-41.19873046875
-40.283203125
-34.7900390625
-31.1279296875
-35.70556640625
-30.21240234375
-21.05712890625
-19.22607421875
-18.310546875
-12.8173828125
-10.986328125
-0.91552734375
3.662109375
-0.91552734375
5.4931640625
3.662109375
17.39501953125
13.73291015625
10.986328125
17.39501953125
25.634765625
36.62109375
39.36767578125
47.607421875
49.4384765625
54.931640625
59.50927734375
65.00244140625
66.83349609375
67.7490234375
75.98876953125
86.97509765625
97.96142578125
106.201171875
93.3837890625
108.0322265625
117.1875
117.1875
124.51171875
129.08935546875
140.9912109375
144.6533203125
151.9775390625
157.470703125
158.38623046875
166.6259765625
173.03466796875
177.6123046875
179.443359375
190.4296875
195.9228515625
202.33154296875
207.82470703125
207.82470703125
209.65576171875
211.48681640625
218.81103515625
220.64208984375
225.2197265625
226.13525390625
228.8818359375
227.96630859375
227.05078125
229.79736328125
223.388671875
216.97998046875
208.740234375
209.65576171875
195.9228515625
183.10546875
173.9501953125
162.04833984375
147.39990234375
140.07568359375
122.6806640625
109.86328125
103.45458984375
84.228515625
70.49560546875
59.50927734375
51.26953125
44.86083984375
33.87451171875
19.22607421875
5.4931640625
0.91552734375
-5.4931640625
-12.8173828125
-26.55029296875
-35.70556640625
-36.62109375
-43.02978515625
-43.9453125
-42.1142578125
-43.02978515625
-56.7626953125
-54.01611328125
-58.59375
-60.4248046875
-69.580078125
-66.83349609375
-61.34033203125
-68.66455078125
-74.15771484375
-71.4111328125
-64.0869140625
-68.66455078125
-64.0869140625
-65.00244140625
-64.0869140625
-65.00244140625
-65.00244140625
-67.7490234375
-65.91796875
-68.66455078125
-73.2421875
-62.255859375
-63.17138671875
-70.49560546875
-69.580078125
-71.4111328125
-65.91796875
-68.66455078125
-75.0732421875
-76.904296875
-75.0732421875
-65.00244140625
-63.17138671875
-63.17138671875
-64.0869140625
-70.49560546875
-66.83349609375
-65.00244140625
-66.83349609375
-72.32666015625
-69.580078125
-60.4248046875
-64.0869140625
-67.7490234375
-71.4111328125
-65.00244140625
-60.4248046875
-56.7626953125
-69.580078125
-72.32666015625
-72.32666015625
-76.904296875
-76.904296875
-75.0732421875
-80.56640625
-74.15771484375
-74.15771484375
-75.0732421875
-78.7353515625
-85.14404296875
-80.56640625
-81.48193359375
-77.81982421875
-81.48193359375
-82.3974609375
-81.48193359375
-78.7353515625
-75.98876953125
-83.31298828125
-82.3974609375
-88.80615234375
-86.0595703125
-86.0595703125
-87.890625
-86.97509765625
-90.63720703125
-88.80615234375
-88.80615234375
-86.0595703125
-89.7216796875
-94.29931640625
-94.29931640625
-96.13037109375
-91.552734375
-93.3837890625
-97.0458984375
-96.13037109375
-89.7216796875
-86.0595703125
-89.7216796875
-94.29931640625
-95.21484375
-95.21484375
-90.63720703125
-98.876953125
-99.79248046875
-95.21484375
-89.7216796875
-98.876953125
-97.96142578125
-97.96142578125
-95.21484375
-92.46826171875
-95.21484375
-103.45458984375
-100.7080078125
-97.96142578125
-97.0458984375
-99.79248046875
-106.201171875
-103.45458984375
-99.79248046875
-97.0458984375
-101.62353515625
-98.876953125
-100.7080078125
-107.11669921875
-98.876953125
-106.201171875
-104.3701171875
-101.62353515625
-101.62353515625
-101.62353515625
-105.28564453125
-102.5390625
-107.11669921875
-102.5390625
-99.79248046875
-102.5390625
-97.0458984375
-98.876953125
-98.876953125
-98.876953125
-100.7080078125
-110.77880859375
-104.3701171875
-100.7080078125
-98.876953125
-100.7080078125
-100.7080078125
-99.79248046875
-104.3701171875
-97.0458984375
-103.45458984375
-108.0322265625
-103.45458984375
-102.5390625
-103.45458984375
-100.7080078125
-102.5390625
-101.62353515625
-107.11669921875
-103.45458984375
-103.45458984375
-107.11669921875
-108.0322265625
-106.201171875
-101.62353515625
-97.0458984375
-100.7080078125
-97.96142578125
-96.13037109375
-96.13037109375
-95.21484375
-86.0595703125
-86.97509765625
-86.97509765625
-75.98876953125
-72.32666015625
-65.00244140625
-65.91796875
-64.0869140625
-59.50927734375
-62.255859375
-68.66455078125
-68.66455078125
-58.59375
-43.02978515625
-41.19873046875
-46.69189453125
-49.4384765625
-46.69189453125
-37.53662109375
-31.1279296875
-28.38134765625
-22.88818359375
-19.22607421875
-17.39501953125
-19.22607421875
-16.4794921875
-15.56396484375
-8.23974609375
-16.4794921875
-26.55029296875
-32.958984375
-43.02978515625
-37.53662109375
-41.19873046875
-47.607421875
-58.59375
-63.17138671875
-64.0869140625
-65.91796875
-69.580078125
-79.65087890625
-91.552734375
-94.29931640625
-94.29931640625
-102.5390625
-108.94775390625
-111.6943359375
-120.849609375
-123.59619140625
-126.3427734375
-122.6806640625
-119.93408203125
-121.76513671875
-124.51171875
-126.3427734375
-128.173828125
-133.6669921875
-127.25830078125
-127.25830078125
-129.08935546875
-129.08935546875
-129.08935546875
-127.25830078125
-123.59619140625
-121.76513671875
-131.8359375
-133.6669921875
-126.3427734375
-124.51171875
-130.92041015625
-130.92041015625
-130.92041015625
-133.6669921875
-132.75146484375
-137.3291015625
-152.89306640625
-167.54150390625
-184.02099609375
-192.2607421875
-192.2607421875
-186.767578125
-166.6259765625
-142.822265625
-118.10302734375
-80.56640625
-10.07080078125
108.0322265625
220.64208984375
330.50537109375
459.5947265625
601.50146484375
722.35107421875
822.1435546875
894.47021484375
902.7099609375
888.0615234375
841.36962890625
766.29638671875
626.220703125
420.22705078125
265.5029296875
154.72412109375
45.7763671875
-36.62109375
-122.6806640625
-176.69677734375
-218.81103515625
-249.0234375
-238.95263671875
-212.40234375
-176.69677734375
-132.75146484375
-105.28564453125
-86.0595703125
-75.0732421875
-75.98876953125
-78.7353515625
-74.15771484375
-77.81982421875
-88.80615234375
-94.29931640625
-94.29931640625
-90.63720703125
-89.7216796875
-91.552734375
-92.46826171875
-95.21484375
-90.63720703125
-88.80615234375
-92.46826171875
-94.29931640625
-97.96142578125
-90.63720703125
-86.0595703125
-92.46826171875
-89.7216796875
-86.97509765625
-84.228515625
-85.14404296875
-81.48193359375
-74.15771484375
-70.49560546875
-75.0732421875
-71.4111328125
-74.15771484375
-73.2421875
-70.49560546875
-67.7490234375
-70.49560546875
-65.00244140625
-64.0869140625
-60.4248046875
-56.7626953125
-56.7626953125
-54.931640625
-51.26953125
-52.18505859375
-49.4384765625
-43.9453125
-44.86083984375
-34.7900390625
-33.87451171875
-32.958984375
-25.634765625
-31.1279296875
-34.7900390625
-30.21240234375
-24.71923828125
-21.97265625
-20.1416015625
-19.22607421875
-13.73291015625
-12.8173828125
-9.1552734375
-4.57763671875
-5.4931640625
0.91552734375
9.1552734375
13.73291015625
10.986328125
12.8173828125
21.05712890625
28.38134765625
29.296875
33.87451171875
41.19873046875
43.02978515625
45.7763671875
50.35400390625
55.84716796875
57.67822265625
67.7490234375
77.81982421875
79.65087890625
88.80615234375
90.63720703125
100.7080078125
101.62353515625
108.0322265625
115.3564453125
120.849609375
128.173828125
129.08935546875
143.73779296875
148.3154296875
151.9775390625
163.87939453125
168.45703125
178.52783203125
182.18994140625
185.85205078125
190.4296875
203.2470703125
209.65576171875
213.31787109375
209.65576171875
216.064453125
222.47314453125
227.96630859375
227.05078125
227.96630859375
232.5439453125
238.95263671875
242.61474609375
251.77001953125
254.5166015625
252.685546875
254.5166015625
257.26318359375
249.93896484375
247.1923828125
244.44580078125
238.037109375
241.69921875
238.037109375
221.5576171875
209.65576171875
196.83837890625
187.68310546875
173.9501953125
157.470703125
143.73779296875
131.8359375
118.10302734375
100.7080078125
85.14404296875
78.7353515625
64.0869140625
58.59375
41.19873046875
21.97265625
18.310546875
12.8173828125
1.8310546875
-7.32421875
-12.8173828125
-21.05712890625
-26.55029296875
-30.21240234375
-37.53662109375
-42.1142578125
-40.283203125
-45.7763671875
-48.52294921875
-48.52294921875
-54.01611328125
-58.59375
-55.84716796875
-49.4384765625
-55.84716796875
-61.34033203125
-60.4248046875
-55.84716796875
-56.7626953125
-60.4248046875
-60.4248046875
-53.1005859375
-54.931640625
-55.84716796875
-57.67822265625
-60.4248046875
-58.59375
-54.01611328125
-54.01611328125
-55.84716796875
-56.7626953125
-58.59375
-61.34033203125
-57.67822265625
-58.59375
-63.17138671875
-58.59375
-52.18505859375
-52.18505859375
-53.1005859375
-49.4384765625
-53.1005859375
-54.01611328125
-52.18505859375
-56.7626953125
-55.84716796875
-51.26953125
-53.1005859375
-53.1005859375
-54.931640625
-49.4384765625
-54.931640625
-50.35400390625
-52.18505859375
-50.35400390625
-52.18505859375
-55.84716796875
-56.7626953125
-54.01611328125
-51.26953125
-59.50927734375
-59.50927734375
-54.01611328125
-52.18505859375
-56.7626953125
-54.931640625
-53.1005859375
-54.931640625
-54.931640625
-60.4248046875
-62.255859375
-63.17138671875
-67.7490234375
-57.67822265625
-62.255859375
-66.83349609375
-65.91796875
-65.00244140625
-64.0869140625
-70.49560546875
-66.83349609375
-66.83349609375
-65.91796875
-62.255859375
-68.66455078125
-71.4111328125
-69.580078125
-65.91796875
-69.580078125
-71.4111328125
-73.2421875
-69.580078125
-75.98876953125
-74.15771484375
-72.32666015625
-71.4111328125
-75.0732421875
-76.904296875
-77.81982421875
-71.4111328125
-77.81982421875
-76.904296875
-78.7353515625
-80.56640625
-78.7353515625
-84.228515625
-85.14404296875
-79.65087890625
-78.7353515625
-81.48193359375
-84.228515625
-79.65087890625
-75.0732421875
-81.48193359375
-83.31298828125
-83.31298828125
-84.228515625
-83.31298828125
-85.14404296875
-86.0595703125
-89.7216796875
-85.14404296875
-81.48193359375
-83.31298828125
-88.80615234375
-87.890625
-86.97509765625
-85.14404296875
-84.228515625
-83.31298828125
-86.0595703125
-86.0595703125
-82.3974609375
-80.56640625
-81.48193359375
-90.63720703125
-87.890625
-82.3974609375
-75.98876953125
-82.3974609375
-87.890625
-86.97509765625
-89.7216796875
-84.228515625
-85.14404296875
-84.228515625
-88.80615234375
-84.228515625
-87.890625
-91.552734375
-92.46826171875
-90.63720703125
-85.14404296875
-81.48193359375
-83.31298828125
-87.890625
-86.97509765625
-86.0595703125
-86.97509765625
-86.97509765625
-88.80615234375
-91.552734375
-88.80615234375
-81.48193359375
-85.14404296875
-86.0595703125
-85.14404296875
-86.0595703125
-89.7216796875
-90.63720703125
-88.80615234375
-89.7216796875
-81.48193359375
-87.890625
-90.63720703125
-86.0595703125
-84.228515625
-86.0595703125
-76.904296875
-83.31298828125
-90.63720703125
-90.63720703125
-87.890625
-88.80615234375
-92.46826171875
-89.7216796875
-85.14404296875
-80.56640625
-76.904296875
-81.48193359375
-79.65087890625
-75.0732421875
-66.83349609375
-67.7490234375
-63.17138671875
-58.59375
-54.01611328125
-50.35400390625
-51.26953125
-54.01611328125
-54.01611328125
-50.35400390625
-44.86083984375
-39.36767578125
-39.36767578125
-39.36767578125
-33.87451171875
-41.19873046875
-35.70556640625
-27.4658203125
-21.97265625
-20.1416015625
-13.73291015625
-9.1552734375
-12.8173828125
-13.73291015625
-2.74658203125
-3.662109375
-1.8310546875
-6.40869140625
-14.6484375
-24.71923828125
-27.4658203125
-26.55029296875
-35.70556640625
-45.7763671875
-47.607421875
-52.18505859375
-55.84716796875
-56.7626953125
-54.01611328125
-62.255859375
-73.2421875
-83.31298828125
-90.63720703125
-93.3837890625
-99.79248046875
-99.79248046875
-97.0458984375
-107.11669921875
-108.94775390625
-103.45458984375
-104.3701171875
-107.11669921875
-115.3564453125
-117.1875
-115.3564453125
-109.86328125
-108.94775390625
-115.3564453125
-110.77880859375
-113.525390625
-113.525390625
-117.1875
-117.1875
-115.3564453125
-119.0185546875
-117.1875
-110.77880859375
-115.3564453125
-118.10302734375
-115.3564453125
-112.60986328125
-114.44091796875
-119.93408203125
-126.3427734375
-138.24462890625
-153.80859375
-173.03466796875
-186.767578125
-182.18994140625
-170.2880859375
-156.55517578125
-135.498046875
-111.6943359375
-65.91796875
20.1416015625
123.59619140625
230.712890625
360.7177734375
482.48291015625
622.55859375
739.74609375
831.298828125
894.47021484375
896.30126953125
886.23046875
845.947265625
770.8740234375
620.7275390625
417.48046875
277.40478515625
171.20361328125
57.67822265625
-35.70556640625
-112.60986328125
-158.38623046875
-205.99365234375
-227.05078125
-216.97998046875
-198.66943359375
-161.1328125
-129.08935546875
-96.13037109375
-78.7353515625
-64.0869140625
-64.0869140625
-66.83349609375
-68.66455078125
-74.15771484375
-79.65087890625
-82.3974609375
-82.3974609375
-80.56640625
-87.890625
-91.552734375
-86.0595703125
-80.56640625
-82.3974609375
-88.80615234375
-85.14404296875
-85.14404296875
-78.7353515625
-79.65087890625
-81.48193359375
-82.3974609375
-79.65087890625
-79.65087890625
-71.4111328125
-71.4111328125
-68.66455078125
-65.91796875
-67.7490234375
-65.91796875
-72.32666015625
-71.4111328125
-64.0869140625
-57.67822265625
-56.7626953125
-55.84716796875
-55.84716796875
-53.1005859375
-52.18505859375
-43.9453125
-49.4384765625
-47.607421875
-40.283203125
-40.283203125
-40.283203125
-39.36767578125
-41.19873046875
-34.7900390625
-28.38134765625
-28.38134765625
-32.04345703125
-25.634765625
-20.1416015625
-20.1416015625
-16.4794921875
-19.22607421875
-21.05712890625
-13.73291015625
-9.1552734375
-5.4931640625
-6.40869140625
-0.91552734375
0.91552734375
2.74658203125
10.07080078125
10.07080078125
9.1552734375
20.1416015625
23.8037109375
27.4658203125
27.4658203125
32.04345703125
32.04345703125
42.1142578125
48.52294921875
51.26953125
56.7626953125
61.34033203125
63.17138671875
73.2421875
76.904296875
84.228515625
91.552734375
97.96142578125
104.3701171875
110.77880859375
117.1875
122.6806640625
129.08935546875
141.90673828125
142.822265625
147.39990234375
154.72412109375
160.21728515625
162.9638671875
172.119140625
174.86572265625
179.443359375
193.17626953125
201.416015625
203.2470703125
205.078125
210.5712890625
223.388671875
229.79736328125
229.79736328125
229.79736328125
235.29052734375
248.10791015625
249.93896484375
249.0234375
254.5166015625
257.26318359375
252.685546875
264.58740234375
259.09423828125
260.92529296875
253.60107421875
251.77001953125
251.77001953125
243.5302734375
235.29052734375
232.5439453125
221.5576171875
208.740234375
192.2607421875
178.52783203125
169.37255859375
162.04833984375
140.07568359375
121.76513671875
110.77880859375
101.62353515625
88.80615234375
74.15771484375
63.17138671875
47.607421875
33.87451171875
27.4658203125
19.22607421875
4.57763671875
-5.4931640625
-8.23974609375
-15.56396484375
-19.22607421875
-28.38134765625
-35.70556640625
-35.70556640625
-36.62109375
-43.9453125
-43.9453125
-54.01611328125
-50.35400390625
-50.35400390625
-55.84716796875
-56.7626953125
-60.4248046875
-60.4248046875
-60.4248046875
-61.34033203125
-60.4248046875
-60.4248046875
-62.255859375
-61.34033203125
-58.59375
-60.4248046875
-54.931640625
-57.67822265625
-60.4248046875
-63.17138671875
-64.0869140625
-66.83349609375
-55.84716796875
-53.1005859375
-54.01611328125
-56.7626953125
-60.4248046875
-52.18505859375
-57.67822265625
-59.50927734375
-53.1005859375
-56.7626953125
-59.50927734375
-57.67822265625
-55.84716796875
-57.67822265625
-61.34033203125
-63.17138671875
-56.7626953125
-55.84716796875
-56.7626953125
-59.50927734375
-66.83349609375
-58.59375
-55.84716796875
-60.4248046875
-60.4248046875
-64.0869140625
-59.50927734375
-58.59375
-67.7490234375
-65.00244140625
-61.34033203125
-64.0869140625
-59.50927734375
-53.1005859375
-55.84716796875
-60.4248046875
-58.59375
-59.50927734375
-65.00244140625
-65.00244140625
-58.59375
-61.34033203125
-61.34033203125
-65.91796875
-69.580078125
-62.255859375
-62.255859375
-69.580078125
-72.32666015625
-70.49560546875
-74.15771484375
-69.580078125
-68.66455078125
-68.66455078125
-73.2421875
-72.32666015625
-69.580078125
-72.32666015625
-74.15771484375
-74.15771484375
-75.98876953125
-73.2421875
-69.580078125
-78.7353515625
-80.56640625
-77.81982421875
-73.2421875
-78.7353515625
-88.80615234375
-87.890625
-82.3974609375
-76.904296875
-79.65087890625
-79.65087890625
-83.31298828125
-79.65087890625
-81.48193359375
-76.904296875
-85.14404296875
-86.0595703125
-90.63720703125
-77.81982421875
-77.81982421875
-79.65087890625
-78.7353515625
-75.98876953125
-77.81982421875
-74.15771484375
-79.65087890625
-80.56640625
-76.904296875
-80.56640625
-79.65087890625
-81.48193359375
-80.56640625
-82.3974609375
-83.31298828125
-82.3974609375
-88.80615234375
-85.14404296875
-85.14404296875
-90.63720703125
-80.56640625
-79.65087890625
-82.3974609375
-79.65087890625
-75.0732421875
-80.56640625
-87.890625
-88.80615234375
-84.228515625
-78.7353515625
-80.56640625
-86.0595703125
-86.0595703125
-86.0595703125
-85.14404296875
-85.14404296875
-88.80615234375
-91.552734375
-85.14404296875
-85.14404296875
-86.97509765625
-90.63720703125
-90.63720703125
-90.63720703125
-88.80615234375
-91.552734375
-93.3837890625
-92.46826171875
-85.14404296875
-82.3974609375
-85.14404296875
-87.890625
-87.890625
-88.80615234375
-79.65087890625
-85.14404296875
-95.21484375
-97.96142578125
-93.3837890625
-86.97509765625
-89.7216796875
-94.29931640625
-94.29931640625
-91.552734375
-90.63720703125
-86.0595703125
-89.7216796875
-87.890625
-89.7216796875
-85.14404296875
-83.31298828125
-97.96142578125
-95.21484375
-90.63720703125
-90.63720703125
-88.80615234375
-97.96142578125
-94.29931640625
-94.29931640625
-91.552734375
-89.7216796875
-90.63720703125
-89.7216796875
-84.228515625
-81.48193359375
-81.48193359375
-75.98876953125
-65.91796875
-66.83349609375
-56.7626953125
-54.01611328125
-54.931640625
-61.34033203125
-61.34033203125
-53.1005859375
-54.931640625
-45.7763671875
-47.607421875
-42.1142578125
-39.36767578125
-43.02978515625
-39.36767578125
-33.87451171875
-23.8037109375
-29.296875
-21.97265625
-18.310546875
-10.07080078125
-9.1552734375
-7.32421875
-5.4931640625
-8.23974609375
-13.73291015625
-14.6484375
-20.1416015625
-29.296875
-30.21240234375
-38.4521484375
-48.52294921875
-50.35400390625
-50.35400390625
-55.84716796875
-54.931640625
-53.1005859375
-55.84716796875
-69.580078125
-86.0595703125
-92.46826171875
-94.29931640625
-93.3837890625
-102.5390625
-104.3701171875
-108.0322265625
-97.96142578125
-104.3701171875
-105.28564453125
-109.86328125
-108.94775390625
-104.3701171875
-104.3701171875
-108.0322265625
-110.77880859375
-116.27197265625
-116.27197265625
-113.525390625
-110.77880859375
-119.0185546875
-117.1875
-113.525390625
-110.77880859375
-112.60986328125
-111.6943359375
-117.1875
-108.94775390625
-107.11669921875
-104.3701171875
-114.44091796875
-116.27197265625
-120.849609375
-121.76513671875
-140.9912109375
-153.80859375
-172.119140625
-178.52783203125
-166.6259765625
-150.146484375
-140.9912109375
-116.27197265625
-86.97509765625
-33.87451171875
54.931640625
163.87939453125
279.23583984375
397.3388671875
530.09033203125
671.08154296875
771.78955078125
851.4404296875
900.87890625
899.0478515625
876.15966796875
819.39697265625
748.9013671875
577.69775390625
386.3525390625
250.8544921875
146.484375
48.52294921875
-43.9453125
-111.6943359375
-161.1328125
-206.9091796875
-224.30419921875
-209.65576171875
-177.6123046875
-147.39990234375
-121.76513671875
-89.7216796875
-64.0869140625
-59.50927734375
-60.4248046875
-61.34033203125
-66.83349609375
-73.2421875
-69.580078125
-69.580078125
-80.56640625
-85.14404296875
-75.0732421875
-76.904296875
-70.49560546875
-75.98876953125
-75.0732421875
-67.7490234375
-77.81982421875
-77.81982421875
-76.904296875
-70.49560546875
-65.00244140625
-57.67822265625
-60.4248046875
-65.00244140625
-63.17138671875
-61.34033203125
-53.1005859375
-56.7626953125
-63.17138671875
-49.4384765625
-50.35400390625
-43.02978515625
-45.7763671875
-43.9453125
-43.9453125
-43.02978515625
-42.1142578125
-38.4521484375
-43.02978515625
-40.283203125
-33.87451171875
-30.21240234375
-28.38134765625
-23.8037109375
-21.05712890625
-15.56396484375
-13.73291015625
-10.986328125
-19.22607421875
-13.73291015625
-10.986328125
-2.74658203125
-7.32421875
-7.32421875
-0.91552734375
-5.4931640625
-0.91552734375
2.74658203125
3.662109375
1.8310546875
7.32421875
13.73291015625
16.4794921875
21.05712890625
21.97265625
29.296875
34.7900390625
33.87451171875
33.87451171875
41.19873046875
42.1142578125
53.1005859375
57.67822265625
70.49560546875
70.49560546875
71.4111328125
80.56640625
82.3974609375
82.3974609375
91.552734375
100.7080078125
106.201171875
111.6943359375
117.1875
119.93408203125
125.42724609375
140.9912109375
136.41357421875
143.73779296875
153.80859375
159.3017578125
166.6259765625
173.9501953125
174.86572265625
183.10546875
194.091796875
204.16259765625
207.82470703125
209.65576171875
216.97998046875
222.47314453125
228.8818359375
238.95263671875
242.61474609375
247.1923828125
253.60107421875
246.27685546875
255.43212890625
257.26318359375
263.671875
271.91162109375
273.74267578125
275.57373046875
284.72900390625
281.982421875
283.8134765625
290.22216796875
273.74267578125
271.91162109375
272.8271484375
262.75634765625
255.43212890625
244.44580078125
233.45947265625
225.2197265625
216.064453125
202.33154296875
185.85205078125
171.20361328125
153.80859375
140.9912109375
135.498046875
122.6806640625
107.11669921875
86.0595703125
75.98876953125
72.32666015625
55.84716796875
41.19873046875
37.53662109375
24.71923828125
14.6484375
10.986328125
4.57763671875
-7.32421875
-15.56396484375
-18.310546875
-17.39501953125
-18.310546875
-22.88818359375
-26.55029296875
-30.21240234375
-32.04345703125
-38.4521484375
-42.1142578125
-41.19873046875
-34.7900390625
-38.4521484375
-43.02978515625
-41.19873046875
-38.4521484375
-43.02978515625
-38.4521484375
-45.7763671875
-45.7763671875
-47.607421875
-42.1142578125
-40.283203125
-44.86083984375
-46.69189453125
-49.4384765625
-43.02978515625
-43.9453125
-43.02978515625
-38.4521484375
-43.02978515625
-35.70556640625
-39.36767578125
-47.607421875
-46.69189453125
-47.607421875
-43.9453125
-44.86083984375
-43.9453125
-40.283203125
-45.7763671875
-43.02978515625
-35.70556640625
-42.1142578125
-44.86083984375
-47.607421875
-43.9453125
-44.86083984375
-45.7763671875
-43.02978515625
-47.607421875
-45.7763671875
-44.86083984375
-46.69189453125
-49.4384765625
-45.7763671875
-45.7763671875
-48.52294921875
-51.26953125
-44.86083984375
-49.4384765625
-51.26953125
-47.607421875
-54.931640625
-54.01611328125
-46.69189453125
-54.01611328125
-60.4248046875
-61.34033203125
-64.0869140625
-65.91796875
-61.34033203125
-58.59375
-57.67822265625
-60.4248046875
-60.4248046875
-59.50927734375
-59.50927734375
-59.50927734375
-65.00244140625
-70.49560546875
-68.66455078125
-60.4248046875
-60.4248046875
-65.00244140625
-63.17138671875
-68.66455078125
-69.580078125
-68.66455078125
-65.91796875
-64.0869140625
-67.7490234375
-68.66455078125
-67.7490234375
-67.7490234375
-68.66455078125
-68.66455078125
-72.32666015625
-71.4111328125
-69.580078125
-70.49560546875
-68.66455078125
-72.32666015625
-71.4111328125
-73.2421875
-76.904296875
-76.904296875
-70.49560546875
-69.580078125
-74.15771484375
-73.2421875
-74.15771484375
-71.4111328125
-77.81982421875
-80.56640625
-77.81982421875
-75.98876953125
-75.0732421875
-80.56640625
-78.7353515625
-76.904296875
-76.904296875
-84.228515625
-91.552734375
-86.97509765625
-81.48193359375
-70.49560546875
-75.0732421875
-82.3974609375
-78.7353515625
-75.0732421875
-73.2421875
-79.65087890625
-85.14404296875
-84.228515625
-80.56640625
-76.904296875
-76.904296875
-78.7353515625
-78.7353515625
-80.56640625
-78.7353515625
-74.15771484375
-78.7353515625
-77.81982421875
-69.580078125
-73.2421875
-78.7353515625
-84.228515625
-80.56640625
-78.7353515625
-81.48193359375
-77.81982421875
-83.31298828125
-81.48193359375
-80.56640625
-84.228515625
-83.31298828125
-86.0595703125
-83.31298828125
-78.7353515625
-82.3974609375
-86.97509765625
-78.7353515625
-83.31298828125
-86.0595703125
-86.97509765625
-82.3974609375
-85.14404296875
-83.31298828125
-82.3974609375
-79.65087890625
-79.65087890625
-78.7353515625
-75.98876953125
-75.0732421875
-78.7353515625
-82.3974609375
-76.904296875
-65.00244140625
-59.50927734375
-59.50927734375
-53.1005859375
-53.1005859375
-54.01611328125
-43.02978515625
-46.69189453125
-47.607421875
-46.69189453125
-39.36767578125
-34.7900390625
-36.62109375
-35.70556640625
-32.958984375
-25.634765625
-17.39501953125
-11.90185546875
-16.4794921875
-17.39501953125
-15.56396484375
-12.8173828125
-2.74658203125
0
-2.74658203125
-0.91552734375
-5.4931640625
-16.4794921875
-27.4658203125
-15.56396484375
-20.1416015625
-35.70556640625
-33.87451171875
-42.1142578125
-47.607421875
-48.52294921875
-49.4384765625
-54.931640625
-61.34033203125
-75.98876953125
-84.228515625
-86.0595703125
-92.46826171875
-95.21484375
-103.45458984375
-107.11669921875
-104.3701171875
-104.3701171875
-108.94775390625
-111.6943359375
-106.201171875
-105.28564453125
-108.94775390625
-105.28564453125
-108.0322265625
-106.201171875
-101.62353515625
-102.5390625
-106.201171875
-109.86328125
-109.86328125
-107.11669921875
-105.28564453125
-106.201171875
-110.77880859375
-110.77880859375
-113.525390625
-115.3564453125
-109.86328125
-114.44091796875
-114.44091796875
-110.77880859375
-113.525390625
-129.08935546875
-141.90673828125
-162.04833984375
-176.69677734375
-172.119140625
-162.9638671875
-147.39990234375
-129.08935546875
-101.62353515625
-63.17138671875
1.8310546875
101.62353515625
218.81103515625
331.4208984375
454.1015625
593.26171875
715.02685546875
795.59326171875
859.68017578125
865.17333984375
849.609375
809.326171875
725.09765625
601.50146484375
414.73388671875
278.3203125
174.86572265625
86.0595703125
-10.986328125
-85.14404296875
-143.73779296875
-194.091796875
-218.81103515625
-219.7265625
-215.14892578125
-195.00732421875
-178.52783203125
-148.3154296875
-119.0185546875
-97.96142578125
-83.31298828125
-83.31298828125
-75.98876953125
-70.49560546875
-74.15771484375
-77.81982421875
-80.56640625
-83.31298828125
-81.48193359375
-77.81982421875
-80.56640625
-80.56640625
-73.2421875
-74.15771484375
-72.32666015625
-79.65087890625
-70.49560546875
-74.15771484375
-75.0732421875
-74.15771484375
-71.4111328125
-68.66455078125
-66.83349609375
-64.0869140625
-64.0869140625
-64.0869140625
-65.91796875
-68.66455078125
-65.00244140625
-55.84716796875
-60.4248046875
-65.00244140625
-62.255859375
-54.01611328125
-48.52294921875
-50.35400390625
-49.4384765625
-46.69189453125
-48.52294921875
-42.1142578125
-39.36767578125
-35.70556640625
-34.7900390625
-29.296875
-31.1279296875
-27.4658203125
-27.4658203125
-28.38134765625
-24.71923828125
-19.22607421875
-21.97265625
-17.39501953125
-14.6484375
-5.4931640625
-5.4931640625
-5.4931640625
-2.74658203125
7.32421875
6.40869140625
9.1552734375
15.56396484375
11.90185546875
18.310546875
21.05712890625
25.634765625
28.38134765625
28.38134765625
36.62109375
33.87451171875
43.02978515625
42.1142578125
43.9453125
54.931640625
61.34033203125
63.17138671875
65.91796875
76.904296875
79.65087890625
80.56640625
90.63720703125
95.21484375
97.0458984375
102.5390625
111.6943359375
126.3427734375
130.0048828125
135.498046875
140.9912109375
147.39990234375
151.9775390625
159.3017578125
164.794921875
173.9501953125
183.10546875
190.4296875
192.2607421875
193.17626953125
196.83837890625
205.078125
217.8955078125
219.7265625
221.5576171875
228.8818359375
237.12158203125
243.5302734375
245.361328125
245.361328125
252.685546875
260.92529296875
263.671875
259.09423828125
259.09423828125
262.75634765625
267.333984375
270.99609375
262.75634765625
261.8408203125
257.26318359375
256.34765625
241.69921875
240.78369140625
222.47314453125
212.40234375
205.078125
198.66943359375
179.443359375
165.71044921875
155.6396484375
139.16015625
128.173828125
114.44091796875
96.13037109375
88.80615234375
78.7353515625
65.91796875
48.52294921875
33.87451171875
32.958984375
23.8037109375
17.39501953125
6.40869140625
-7.32421875
-6.40869140625
-9.1552734375
-17.39501953125
-21.05712890625
-29.296875
-25.634765625
-24.71923828125
-31.1279296875
-37.53662109375
-38.4521484375
-35.70556640625
-37.53662109375
-37.53662109375
-41.19873046875
-47.607421875
-43.02978515625
-40.283203125
-41.19873046875
-42.1142578125
-47.607421875
-49.4384765625
-49.4384765625
-46.69189453125
-43.9453125
-46.69189453125
-43.9453125
-49.4384765625
-49.4384765625
-47.607421875
-50.35400390625
-46.69189453125
-43.9453125
-41.19873046875
-44.86083984375
-52.18505859375
-51.26953125
-44.86083984375
-40.283203125
-43.9453125
-42.1142578125
-41.19873046875
-43.9453125
-40.283203125
-42.1142578125
-48.52294921875
-41.19873046875
-47.607421875
-43.02978515625
-45.7763671875
-48.52294921875
-45.7763671875
-42.1142578125
-43.02978515625
-49.4384765625
-46.69189453125
-39.36767578125
-38.4521484375
-39.36767578125
-46.69189453125
-49.4384765625
-50.35400390625
-47.607421875
-43.02978515625
-49.4384765625
-53.1005859375
-53.1005859375
-51.26953125
-48.52294921875
-50.35400390625
-51.26953125
-54.01611328125
-57.67822265625
-57.67822265625
-53.1005859375
-52.18505859375
-54.01611328125
-55.84716796875
-54.01611328125
-58.59375
-64.0869140625
-65.91796875
-66.83349609375
-65.91796875
-62.255859375
-60.4248046875
-63.17138671875
-63.17138671875
-65.00244140625
-67.7490234375
-69.580078125
-65.91796875
-66.83349609375
-72.32666015625
-69.580078125
-69.580078125
-74.15771484375
-74.15771484375
-64.0869140625
-68.66455078125
-79.65087890625
-79.65087890625
-69.580078125
-73.2421875
-79.65087890625
-76.904296875
-75.0732421875
-73.2421875
-70.49560546875
-75.0732421875
-71.4111328125
-73.2421875
-66.83349609375
-73.2421875
-75.98876953125
-76.904296875
-78.7353515625
-82.3974609375
-78.7353515625
-79.65087890625
-79.65087890625
-78.7353515625
-72.32666015625
-75.0732421875
-84.228515625
-86.97509765625
-86.0595703125
-78.7353515625
-78.7353515625
-85.14404296875
-84.228515625
-80.56640625
-76.904296875
-75.0732421875
-78.7353515625
-77.81982421875
-75.0732421875
-76.904296875
-78.7353515625
-77.81982421875
-76.904296875
-78.7353515625
-81.48193359375
-82.3974609375
-86.0595703125
-86.97509765625
-81.48193359375
-77.81982421875
-79.65087890625
-76.904296875
-81.48193359375
-77.81982421875
-77.81982421875
-78.7353515625
-76.904296875
-86.0595703125
-85.14404296875
-79.65087890625
-75.98876953125
-86.97509765625
-90.63720703125
-82.3974609375
-82.3974609375
-80.56640625
-78.7353515625
-78.7353515625
-74.15771484375
-75.98876953125
-77.81982421875
-79.65087890625
-84.228515625
-83.31298828125
-79.65087890625
-78.7353515625
-82.3974609375
-82.3974609375
-83.31298828125
-85.14404296875
-82.3974609375
-89.7216796875
-88.80615234375
-86.97509765625
-86.97509765625
-87.890625
-85.14404296875
-84.228515625
-85.14404296875
-85.14404296875
-82.3974609375
-84.228515625
-80.56640625
-75.0732421875
-65.91796875
-65.00244140625
-60.4248046875
-53.1005859375
-52.18505859375
-39.36767578125
-41.19873046875
-53.1005859375
-52.18505859375
-43.9453125
-45.7763671875
-36.62109375
