ECG
622.55859375
431.21337890625
294.7998046875
195.9228515625
94.29931640625
2.74658203125
-76.904296875
-131.8359375
-173.03466796875
-198.66943359375
-205.99365234375
-202.33154296875
-193.17626953125
-172.119140625
-146.484375
-129.08935546875
-104.3701171875
-85.14404296875
-70.49560546875
-65.00244140625
-67.7490234375
-66.83349609375
-66.83349609375
-67.7490234375
-74.15771484375
-71.4111328125
-70.49560546875
-64.0869140625
-65.91796875
-71.4111328125
-71.4111328125
-69.580078125
-66.83349609375
-65.91796875
-63.17138671875
-69.580078125
-65.91796875
-62.255859375
-60.4248046875
-66.83349609375
-62.255859375
-55.84716796875
-58.59375
-55.84716796875
-49.4384765625
-55.84716796875
-56.7626953125
-46.69189453125
-47.607421875
-47.607421875
-42.1142578125
-42.1142578125
-39.36767578125
-37.53662109375
-43.02978515625
-39.36767578125
-35.70556640625
-33.87451171875
-25.634765625
-28.38134765625
-28.38134765625
-23.8037109375
-21.05712890625
-12.8173828125
-15.56396484375
-18.310546875
-11.90185546875
-6.40869140625
-6.40869140625
-0.91552734375
0
-2.74658203125
6.40869140625
11.90185546875
3.662109375
9.1552734375
13.73291015625
19.22607421875
21.97265625
25.634765625
29.296875
23.8037109375
32.958984375
44.86083984375
45.7763671875
47.607421875
56.7626953125
56.7626953125
65.91796875
69.580078125
70.49560546875
76.904296875
83.31298828125
87.890625
97.0458984375
101.62353515625
106.201171875
108.94775390625
119.0185546875
122.6806640625
127.25830078125
137.3291015625
149.23095703125
160.21728515625
163.87939453125
162.9638671875
165.71044921875
176.69677734375
187.68310546875
195.00732421875
192.2607421875
196.83837890625
204.16259765625
206.9091796875
214.2333984375
215.14892578125
224.30419921875
232.5439453125
235.29052734375
231.62841796875
237.12158203125
244.44580078125
248.10791015625
246.27685546875
251.77001953125
247.1923828125
250.8544921875
254.5166015625
253.60107421875
253.60107421875
250.8544921875
240.78369140625
228.8818359375
234.375
223.388671875
211.48681640625
201.416015625
196.83837890625
191.34521484375
177.6123046875
159.3017578125
151.9775390625
139.16015625
125.42724609375
113.525390625
96.13037109375
86.0595703125
80.56640625
67.7490234375
52.18505859375
40.283203125
36.62109375
33.87451171875
25.634765625
13.73291015625
0
-7.32421875
-7.32421875
-11.90185546875
-16.4794921875
-24.71923828125
-23.8037109375
-26.55029296875
-29.296875
-31.1279296875
-37.53662109375
-39.36767578125
-42.1142578125
-39.36767578125
-41.19873046875
-48.52294921875
-48.52294921875
-44.86083984375
-46.69189453125
-47.607421875
-47.607421875
-50.35400390625
-50.35400390625
-47.607421875
-45.7763671875
-48.52294921875
-47.607421875
-46.69189453125
-39.36767578125
-40.283203125
-45.7763671875
-48.52294921875
-44.86083984375
-45.7763671875
-43.9453125
-41.19873046875
-40.283203125
-31.1279296875
-36.62109375
-40.283203125
-45.7763671875
-47.607421875
-36.62109375
-32.958984375
-32.958984375
-36.62109375
-41.19873046875
-31.1279296875
-27.4658203125
-30.21240234375
-35.70556640625
-35.70556640625
-36.62109375
-38.4521484375
-34.7900390625
-31.1279296875
-34.7900390625
-34.7900390625
-35.70556640625
-49.4384765625
-42.1142578125
-35.70556640625
-35.70556640625
-41.19873046875
-44.86083984375
-43.9453125
-37.53662109375
-40.283203125
-41.19873046875
-42.1142578125
-43.02978515625
-45.7763671875
-45.7763671875
-45.7763671875
-47.607421875
-46.69189453125
-45.7763671875
-47.607421875
-46.69189453125
-47.607421875
-49.4384765625
-48.52294921875
-48.52294921875
-47.607421875
-53.1005859375
-56.7626953125
-56.7626953125
-56.7626953125
-55.84716796875
-54.931640625
-56.7626953125
-59.50927734375
-69.580078125
-61.34033203125
-58.59375
-65.91796875
-65.00244140625
-58.59375
-60.4248046875
-57.67822265625
-70.49560546875
-70.49560546875
-65.91796875
-62.255859375
-62.255859375
-66.83349609375
-60.4248046875
-60.4248046875
-56.7626953125
-63.17138671875
-68.66455078125
-64.0869140625
-68.66455078125
-63.17138671875
-60.4248046875
-67.7490234375
-69.580078125
-66.83349609375
-65.00244140625
-72.32666015625
-75.0732421875
-76.904296875
-69.580078125
-65.91796875
-70.49560546875
-73.2421875
-75.0732421875
-66.83349609375
-66.83349609375
-75.98876953125
-84.228515625
-76.904296875
-74.15771484375
-68.66455078125
-67.7490234375
-75.0732421875
-73.2421875
-73.2421875
-70.49560546875
-67.7490234375
-67.7490234375
-74.15771484375
-70.49560546875
-75.98876953125
-68.66455078125
-69.580078125
-70.49560546875
-73.2421875
-69.580078125
-68.66455078125
-75.98876953125
-68.66455078125
-71.4111328125
-68.66455078125
-70.49560546875
-79.65087890625
-76.904296875
-71.4111328125
-60.4248046875
-67.7490234375
-78.7353515625
-77.81982421875
-75.0732421875
-72.32666015625
-70.49560546875
-72.32666015625
-75.0732421875
-78.7353515625
-64.0869140625
-72.32666015625
-68.66455078125
-68.66455078125
-74.15771484375
-71.4111328125
-68.66455078125
-71.4111328125
-65.91796875
-64.0869140625
-55.84716796875
-54.931640625
-55.84716796875
-47.607421875
-43.02978515625
-39.36767578125
-38.4521484375
-40.283203125
-40.283203125
-38.4521484375
-32.04345703125
-29.296875
-32.04345703125
-28.38134765625
-21.05712890625
-18.310546875
-13.73291015625
-20.1416015625
-20.1416015625
-13.73291015625
-7.32421875
0.91552734375
-5.4931640625
-0.91552734375
1.8310546875
3.662109375
10.07080078125
8.23974609375
6.40869140625
1.8310546875
1.8310546875
-10.07080078125
-21.05712890625
-17.39501953125
-19.22607421875
-24.71923828125
-25.634765625
-35.70556640625
-43.9453125
-43.02978515625
-43.9453125
-52.18505859375
-68.66455078125
-75.98876953125
-79.65087890625
-87.890625
-94.29931640625
-94.29931640625
-95.21484375
-90.63720703125
-87.890625
-95.21484375
-99.79248046875
-101.62353515625
-98.876953125
-97.0458984375
-97.0458984375
-97.0458984375
-102.5390625
-100.7080078125
-98.876953125
-98.876953125
-98.876953125
-98.876953125
-97.0458984375
-96.13037109375
-100.7080078125
-104.3701171875
-102.5390625
-101.62353515625
-99.79248046875
-99.79248046875
-104.3701171875
-107.11669921875
-111.6943359375
-115.3564453125
-124.51171875
-140.07568359375
-152.89306640625
-161.1328125
-166.6259765625
-154.72412109375
-141.90673828125
-131.8359375
-100.7080078125
-67.7490234375
-16.4794921875
72.32666015625
188.5986328125
305.7861328125
431.21337890625
574.03564453125
718.68896484375
829.4677734375
922.8515625
968.6279296875
969.54345703125
938.41552734375
883.48388671875
796.5087890625
615.234375
419.3115234375
274.658203125
164.794921875
58.59375
-32.958984375
-114.44091796875
-164.794921875
-198.66943359375
-218.81103515625
-195.9228515625
-153.80859375
-131.8359375
-97.96142578125
-68.66455078125
-50.35400390625
-44.86083984375
-52.18505859375
-58.59375
-56.7626953125
-56.7626953125
-68.66455078125
-75.0732421875
-66.83349609375
-71.4111328125
-69.580078125
-67.7490234375
-69.580078125
-75.98876953125
-75.0732421875
-60.4248046875
-65.00244140625
-67.7490234375
-65.00244140625
-64.0869140625
-59.50927734375
-59.50927734375
-65.00244140625
-61.34033203125
-58.59375
-54.01611328125
-57.67822265625
-56.7626953125
-61.34033203125
-55.84716796875
-51.26953125
-46.69189453125
-49.4384765625
-54.01611328125
-42.1142578125
-43.9453125
-49.4384765625
-42.1142578125
-42.1142578125
-44.86083984375
-40.283203125
-41.19873046875
-36.62109375
-32.958984375
-26.55029296875
-21.97265625
-24.71923828125
-22.88818359375
-17.39501953125
-18.310546875
-18.310546875
-17.39501953125
-12.8173828125
-13.73291015625
-10.986328125
-8.23974609375
-6.40869140625
-6.40869140625
-6.40869140625
1.8310546875
12.8173828125
13.73291015625
13.73291015625
15.56396484375
16.4794921875
25.634765625
28.38134765625
28.38134765625
33.87451171875
34.7900390625
47.607421875
51.26953125
48.52294921875
53.1005859375
63.17138671875
68.66455078125
75.98876953125
78.7353515625
81.48193359375
87.890625
95.21484375
104.3701171875
108.0322265625
110.77880859375
121.76513671875
130.92041015625
137.3291015625
146.484375
148.3154296875
161.1328125
169.37255859375
171.20361328125
173.9501953125
182.18994140625
193.17626953125
199.5849609375
206.9091796875
212.40234375
210.5712890625
206.9091796875
221.5576171875
227.96630859375
235.29052734375
240.78369140625
240.78369140625
246.27685546875
252.685546875
248.10791015625
247.1923828125
255.43212890625
264.58740234375
268.24951171875
260.009765625
259.09423828125
265.5029296875
261.8408203125
248.10791015625
235.29052734375
236.2060546875
234.375
228.8818359375
211.48681640625
195.00732421875
184.9365234375
175.78125
162.04833984375
148.3154296875
133.6669921875
113.525390625
104.3701171875
90.63720703125
86.0595703125
75.0732421875
58.59375
47.607421875
37.53662109375
29.296875
16.4794921875
4.57763671875
4.57763671875
2.74658203125
-8.23974609375
-14.6484375
-20.1416015625
-21.97265625
-25.634765625
-32.04345703125
-35.70556640625
-37.53662109375
-40.283203125
-40.283203125
-41.19873046875
-50.35400390625
-45.7763671875
-43.02978515625
-46.69189453125
-46.69189453125
-54.931640625
-54.931640625
-50.35400390625
-47.607421875
-52.18505859375
-50.35400390625
-49.4384765625
-51.26953125
-48.52294921875
-43.02978515625
-50.35400390625
-53.1005859375
-52.18505859375
-59.50927734375
-57.67822265625
-50.35400390625
-49.4384765625
-45.7763671875
-51.26953125
-52.18505859375
-49.4384765625
-51.26953125
-44.86083984375
-43.9453125
-43.9453125
-45.7763671875
-48.52294921875
-41.19873046875
-42.1142578125
-42.1142578125
-45.7763671875
-46.69189453125
-43.9453125
-43.9453125
-39.36767578125
-38.4521484375
-38.4521484375
-45.7763671875
-44.86083984375
-40.283203125
-43.9453125
-42.1142578125
-41.19873046875
-40.283203125
-39.36767578125
-44.86083984375
-46.69189453125
-47.607421875
-42.1142578125
-43.9453125
-45.7763671875
-43.02978515625
-40.283203125
-43.02978515625
-49.4384765625
-51.26953125
-53.1005859375
-50.35400390625
-53.1005859375
-49.4384765625
-54.01611328125
-54.931640625
-53.1005859375
-52.18505859375
-57.67822265625
-60.4248046875
-63.17138671875
-59.50927734375
-55.84716796875
-50.35400390625
-55.84716796875
-59.50927734375
-62.255859375
-61.34033203125
-65.00244140625
-64.0869140625
-60.4248046875
-59.50927734375
-59.50927734375
-61.34033203125
-58.59375
-63.17138671875
-68.66455078125
-66.83349609375
-65.00244140625
-65.00244140625
-65.91796875
-64.0869140625
-65.91796875
-66.83349609375
-75.98876953125
-71.4111328125
-69.580078125
-64.0869140625
-70.49560546875
-68.66455078125
-66.83349609375
-70.49560546875
-66.83349609375
-66.83349609375
-78.7353515625
-79.65087890625
-73.2421875
-77.81982421875
-75.0732421875
-80.56640625
-76.904296875
-75.98876953125
-75.0732421875
-83.31298828125
-81.48193359375
-73.2421875
-70.49560546875
-70.49560546875
-71.4111328125
-74.15771484375
-74.15771484375
-74.15771484375
-70.49560546875
-70.49560546875
-78.7353515625
-75.98876953125
-70.49560546875
-67.7490234375
-70.49560546875
-78.7353515625
-78.7353515625
-78.7353515625
-76.904296875
-76.904296875
-74.15771484375
-79.65087890625
-78.7353515625
-78.7353515625
-71.4111328125
-72.32666015625
-81.48193359375
-82.3974609375
-72.32666015625
-75.98876953125
-83.31298828125
-79.65087890625
-78.7353515625
-77.81982421875
-71.4111328125
-77.81982421875
-79.65087890625
-76.904296875
-75.0732421875
-74.15771484375
-77.81982421875
-77.81982421875
-74.15771484375
-70.49560546875
-73.2421875
-76.904296875
-81.48193359375
-77.81982421875
-70.49560546875
-70.49560546875
-79.65087890625
-78.7353515625
-73.2421875
-73.2421875
-77.81982421875
-79.65087890625
-79.65087890625
-75.98876953125
-75.0732421875
-72.32666015625
-78.7353515625
-82.3974609375
-74.15771484375
-67.7490234375
-73.2421875
-76.904296875
-69.580078125
-65.00244140625
-65.00244140625
-60.4248046875
-62.255859375
-54.931640625
-50.35400390625
-45.7763671875
-37.53662109375
-41.19873046875
-46.69189453125
-43.02978515625
-42.1142578125
-39.36767578125
-40.283203125
-32.958984375
-21.97265625
-21.97265625
-24.71923828125
-32.04345703125
-22.88818359375
-14.6484375
-13.73291015625
-7.32421875
-9.1552734375
-8.23974609375
-8.23974609375
-5.4931640625
-2.74658203125
0
-2.74658203125
-1.8310546875
-11.90185546875
-11.90185546875
-21.97265625
-26.55029296875
-31.1279296875
-29.296875
-43.9453125
-52.18505859375
-49.4384765625
-43.02978515625
-48.52294921875
-63.17138671875
-72.32666015625
-73.2421875
-72.32666015625
-79.65087890625
-88.80615234375
-93.3837890625
-92.46826171875
-94.29931640625
-92.46826171875
-95.21484375
-97.96142578125
-104.3701171875
-97.96142578125
-93.3837890625
-97.0458984375
-96.13037109375
-98.876953125
-100.7080078125
-98.876953125
-89.7216796875
-97.0458984375
-103.45458984375
-98.876953125
-97.0458984375
-97.0458984375
-96.13037109375
-95.21484375
-97.96142578125
-95.21484375
-97.0458984375
-99.79248046875
-95.21484375
-99.79248046875
-107.11669921875
-118.10302734375
-133.6669921875
-150.146484375
-158.38623046875
-164.794921875
-153.80859375
-143.73779296875
-122.6806640625
-100.7080078125
-67.7490234375
-10.986328125
86.0595703125
212.40234375
329.58984375
452.2705078125
584.1064453125
724.18212890625
834.9609375
925.59814453125
972.2900390625
965.88134765625
926.513671875
872.49755859375
775.45166015625
580.4443359375
394.59228515625
265.5029296875
157.470703125
44.86083984375
-44.86083984375
-107.11669921875
-158.38623046875
-198.66943359375
-216.97998046875
-185.85205078125
-154.72412109375
-130.92041015625
-95.21484375
-62.255859375
-48.52294921875
-47.607421875
-51.26953125
-47.607421875
-54.931640625
-58.59375
-61.34033203125
-60.4248046875
-58.59375
-54.01611328125
-63.17138671875
-59.50927734375
-59.50927734375
-56.7626953125
-62.255859375
-56.7626953125
-57.67822265625
-61.34033203125
-61.34033203125
-55.84716796875
-52.18505859375
-52.18505859375
-54.01611328125
-53.1005859375
-51.26953125
-49.4384765625
-43.02978515625
-49.4384765625
-46.69189453125
-41.19873046875
-42.1142578125
-45.7763671875
-48.52294921875
-42.1142578125
-39.36767578125
-39.36767578125
-34.7900390625
-40.283203125
-35.70556640625
-30.21240234375
-27.4658203125
-30.21240234375
-30.21240234375
-25.634765625
-18.310546875
-11.90185546875
-11.90185546875
-19.22607421875
-13.73291015625
-6.40869140625
-2.74658203125
-4.57763671875
-4.57763671875
-6.40869140625
-0.91552734375
10.986328125
10.07080078125
5.4931640625
18.310546875
21.97265625
21.97265625
29.296875
32.958984375
22.88818359375
28.38134765625
38.4521484375
46.69189453125
40.283203125
35.70556640625
42.1142578125
50.35400390625
59.50927734375
61.34033203125
69.580078125
72.32666015625
71.4111328125
79.65087890625
86.0595703125
99.79248046875
102.5390625
109.86328125
106.201171875
112.60986328125
126.3427734375
134.58251953125
137.3291015625
148.3154296875
153.80859375
162.04833984375
170.2880859375
177.6123046875
189.51416015625
194.091796875
202.33154296875
199.5849609375
211.48681640625
222.47314453125
225.2197265625
231.62841796875
237.12158203125
238.95263671875
243.5302734375
245.361328125
248.10791015625
252.685546875
260.92529296875
265.5029296875
260.92529296875
265.5029296875
274.658203125
279.23583984375
277.40478515625
274.658203125
274.658203125
281.06689453125
279.23583984375
268.24951171875
260.92529296875
254.5166015625
247.1923828125
238.95263671875
234.375
216.064453125
208.740234375
200.50048828125
186.767578125
170.2880859375
156.55517578125
149.23095703125
131.8359375
124.51171875
110.77880859375
98.876953125
81.48193359375
73.2421875
65.91796875
54.01611328125
39.36767578125
30.21240234375
30.21240234375
20.1416015625
16.4794921875
7.32421875
-2.74658203125
-10.07080078125
-12.8173828125
-17.39501953125
-20.1416015625
-25.634765625
-25.634765625
-22.88818359375
-28.38134765625
-28.38134765625
-28.38134765625
-32.04345703125
-33.87451171875
-32.958984375
-30.21240234375
-30.21240234375
-30.21240234375
-34.7900390625
-42.1142578125
-43.02978515625
-42.1142578125
-43.9453125
-43.02978515625
-44.86083984375
-45.7763671875
-42.1142578125
-35.70556640625
-34.7900390625
-42.1142578125
-39.36767578125
-32.04345703125
-31.1279296875
-33.87451171875
-35.70556640625
-40.283203125
-42.1142578125
-34.7900390625
-39.36767578125
-34.7900390625
-37.53662109375
-39.36767578125
-40.283203125
-35.70556640625
-36.62109375
-39.36767578125
-33.87451171875
-33.87451171875
-39.36767578125
-37.53662109375
-38.4521484375
-38.4521484375
-39.36767578125
-43.02978515625
-44.86083984375
-40.283203125
-38.4521484375
-40.283203125
-34.7900390625
-38.4521484375
-42.1142578125
-42.1142578125
-41.19873046875
-38.4521484375
-32.04345703125
-47.607421875
-47.607421875
-43.02978515625
-47.607421875
-46.69189453125
-49.4384765625
-50.35400390625
-46.69189453125
-45.7763671875
-47.607421875
-54.01611328125
-54.01611328125
-50.35400390625
-40.283203125
-44.86083984375
-50.35400390625
-48.52294921875
-44.86083984375
-43.02978515625
-45.7763671875
-51.26953125
-53.1005859375
-58.59375
-48.52294921875
-47.607421875
-53.1005859375
-57.67822265625
-61.34033203125
-55.84716796875
-54.931640625
-61.34033203125
-62.255859375
-59.50927734375
-55.84716796875
-57.67822265625
-59.50927734375
-66.83349609375
-60.4248046875
-58.59375
-55.84716796875
-61.34033203125
-64.0869140625
-59.50927734375
-57.67822265625
-60.4248046875
-65.91796875
-65.00244140625
-68.66455078125
-61.34033203125
-54.01611328125
-63.17138671875
-67.7490234375
-62.255859375
-61.34033203125
-64.0869140625
-66.83349609375
-63.17138671875
-59.50927734375
-63.17138671875
-65.91796875
-73.2421875
-62.255859375
-60.4248046875
-64.0869140625
-68.66455078125
-73.2421875
-66.83349609375
-66.83349609375
-64.0869140625
-60.4248046875
-65.00244140625
-70.49560546875
-68.66455078125
-70.49560546875
-70.49560546875
-72.32666015625
-76.904296875
-71.4111328125
-68.66455078125
-72.32666015625
-72.32666015625
-70.49560546875
-74.15771484375
-71.4111328125
-68.66455078125
-69.580078125
-73.2421875
-74.15771484375
-73.2421875
-73.2421875
-75.0732421875
-71.4111328125
-73.2421875
-64.0869140625
-72.32666015625
-68.66455078125
-68.66455078125
-68.66455078125
-66.83349609375
-66.83349609375
-76.904296875
-74.15771484375
-73.2421875
-65.00244140625
-76.904296875
-75.0732421875
-72.32666015625
-67.7490234375
-67.7490234375
-71.4111328125
-78.7353515625
-75.98876953125
-70.49560546875
-74.15771484375
-74.15771484375
-61.34033203125
-54.931640625
-62.255859375
-53.1005859375
-55.84716796875
-56.7626953125
-51.26953125
-54.01611328125
-49.4384765625
-44.86083984375
-41.19873046875
-44.86083984375
-33.87451171875
-34.7900390625
-35.70556640625
-37.53662109375
-41.19873046875
-37.53662109375
-33.87451171875
-32.958984375
-31.1279296875
-21.05712890625
-11.90185546875
-10.986328125
-11.90185546875
-14.6484375
-13.73291015625
-12.8173828125
-18.310546875
-20.1416015625
-30.21240234375
-33.87451171875
-34.7900390625
-37.53662109375
-47.607421875
-61.34033203125
-63.17138671875
-71.4111328125
-71.4111328125
-63.17138671875
-69.580078125
-78.7353515625
-84.228515625
-87.890625
-88.80615234375
-89.7216796875
-95.21484375
-95.21484375
-94.29931640625
-92.46826171875
-94.29931640625
-91.552734375
-96.13037109375
-95.21484375
-90.63720703125
-96.13037109375
-104.3701171875
-93.3837890625
-95.21484375
-97.96142578125
-98.876953125
-97.96142578125
-92.46826171875
-93.3837890625
-99.79248046875
-98.876953125
-93.3837890625
-97.0458984375
-104.3701171875
-99.79248046875
-100.7080078125
-103.45458984375
-101.62353515625
-96.13037109375
-97.0458984375
-108.94775390625
-114.44091796875
-119.0185546875
-136.41357421875
-155.6396484375
-157.470703125
-151.9775390625
-134.58251953125
-116.27197265625
-97.96142578125
-77.81982421875
-24.71923828125
68.66455078125
191.34521484375
302.1240234375
417.48046875
552.06298828125
686.6455078125
773.62060546875
845.947265625
877.99072265625
859.68017578125
832.21435546875
772.705078125
676.57470703125
493.46923828125
321.35009765625
208.740234375
123.59619140625
30.21240234375
-54.01611328125
-118.10302734375
-163.87939453125
-192.2607421875
-199.5849609375
-208.740234375
-196.83837890625
-175.78125
-161.1328125
-140.9912109375
-116.27197265625
-92.46826171875
-79.65087890625
-69.580078125
-69.580078125
-76.904296875
-73.2421875
-66.83349609375
-66.83349609375
-65.91796875
-73.2421875
-73.2421875
-76.904296875
-71.4111328125
-64.0869140625
-68.66455078125
-68.66455078125
-68.66455078125
-68.66455078125
-62.255859375
-66.83349609375
-66.83349609375
-69.580078125
-60.4248046875
-58.59375
-60.4248046875
-56.7626953125
-54.01611328125
-51.26953125
-50.35400390625
-51.26953125
-44.86083984375
-43.02978515625
-46.69189453125
-44.86083984375
-42.1142578125
-47.607421875
-40.283203125
-39.36767578125
-32.958984375
-39.36767578125
-37.53662109375
-28.38134765625
-24.71923828125
-22.88818359375
-29.296875
-26.55029296875
-21.97265625
-20.1416015625
-10.986328125
-14.6484375
-12.8173828125
-8.23974609375
-4.57763671875
-3.662109375
-0.91552734375
-2.74658203125
0
4.57763671875
1.8310546875
4.57763671875
13.73291015625
18.310546875
14.6484375
21.97265625
25.634765625
20.1416015625
26.55029296875
33.87451171875
43.9453125
43.02978515625
44.86083984375
56.7626953125
59.50927734375
63.17138671875
71.4111328125
69.580078125
73.2421875
82.3974609375
87.890625
93.3837890625
96.13037109375
108.0322265625
107.11669921875
112.60986328125
117.1875
127.25830078125
136.41357421875
143.73779296875
146.484375
148.3154296875
162.04833984375
174.86572265625
178.52783203125
186.767578125
187.68310546875
191.34521484375
195.9228515625
205.99365234375
203.2470703125
204.16259765625
218.81103515625
227.96630859375
230.712890625
228.8818359375
227.96630859375
236.2060546875
237.12158203125
248.10791015625
252.685546875
246.27685546875
249.93896484375
249.93896484375
253.60107421875
250.8544921875
249.0234375
238.037109375
232.5439453125
229.79736328125
224.30419921875
213.31787109375
201.416015625
195.00732421875
188.5986328125
170.2880859375
154.72412109375
151.06201171875
140.9912109375
123.59619140625
120.849609375
106.201171875
83.31298828125
81.48193359375
75.0732421875
59.50927734375
51.26953125
37.53662109375
31.1279296875
24.71923828125
16.4794921875
7.32421875
-3.662109375
-4.57763671875
-11.90185546875
-19.22607421875
-21.05712890625
-26.55029296875
-32.04345703125
-31.1279296875
-32.958984375
-41.19873046875
-44.86083984375
-42.1142578125
-43.02978515625
-43.9453125
-49.4384765625
-48.52294921875
-48.52294921875
-47.607421875
-47.607421875
-51.26953125
-49.4384765625
-48.52294921875
-42.1142578125
-51.26953125
-49.4384765625
-53.1005859375
-53.1005859375
-45.7763671875
-43.02978515625
-46.69189453125
-50.35400390625
-48.52294921875
-47.607421875
-44.86083984375
-46.69189453125
-48.52294921875
-46.69189453125
-43.02978515625
-44.86083984375
-52.18505859375
-45.7763671875
-50.35400390625
-42.1142578125
-51.26953125
-47.607421875
-43.9453125
-44.86083984375
-42.1142578125
-46.69189453125
-45.7763671875
-43.02978515625
-50.35400390625
-43.9453125
-43.9453125
-43.9453125
-43.02978515625
-44.86083984375
-40.283203125
-43.9453125
-55.84716796875
-53.1005859375
-44.86083984375
-41.19873046875
-39.36767578125
-49.4384765625
-47.607421875
-50.35400390625
-46.69189453125
-46.69189453125
-54.931640625
-52.18505859375
-50.35400390625
-52.18505859375
-53.1005859375
-54.01611328125
-60.4248046875
-59.50927734375
-49.4384765625
-50.35400390625
-57.67822265625
-62.255859375
-57.67822265625
-61.34033203125
-62.255859375
-60.4248046875
-57.67822265625
-58.59375
-56.7626953125
-67.7490234375
-70.49560546875
-69.580078125
-65.91796875
-63.17138671875
-64.0869140625
-63.17138671875
-67.7490234375
-70.49560546875
-65.91796875
-65.00244140625
-73.2421875
-75.0732421875
-68.66455078125
-72.32666015625
-76.904296875
-70.49560546875
-69.580078125
-71.4111328125
-66.83349609375
-69.580078125
-70.49560546875
-77.81982421875
-77.81982421875
-69.580078125
-69.580078125
-68.66455078125
-70.49560546875
-72.32666015625
-67.7490234375
-67.7490234375
-75.98876953125
-75.0732421875
-75.0732421875
-73.2421875
-71.4111328125
-68.66455078125
-76.904296875
-73.2421875
-69.580078125
-73.2421875
-82.3974609375
-77.81982421875
-74.15771484375
-71.4111328125
-70.49560546875
-73.2421875
-77.81982421875
-76.904296875
-77.81982421875
-72.32666015625
-78.7353515625
-78.7353515625
-78.7353515625
-75.98876953125
-85.14404296875
-82.3974609375
-76.904296875
-72.32666015625
-73.2421875
-78.7353515625
-78.7353515625
-75.0732421875
-72.32666015625
-74.15771484375
-76.904296875
-84.228515625
-77.81982421875
-77.81982421875
-80.56640625
-79.65087890625
-82.3974609375
-76.904296875
-71.4111328125
-58.59375
-59.50927734375
-62.255859375
-54.931640625
-56.7626953125
-43.9453125
-37.53662109375
-45.7763671875
-42.1142578125
-42.1142578125
-41.19873046875
-39.36767578125
-32.04345703125
-28.38134765625
-22.88818359375
-21.97265625
-21.05712890625
-24.71923828125
-14.6484375
-8.23974609375
-7.32421875
-2.74658203125
-4.57763671875
-0.91552734375
-0.91552734375
6.40869140625
13.73291015625
9.1552734375
4.57763671875
0.91552734375
-4.57763671875
-6.40869140625
-6.40869140625
-13.73291015625
-20.1416015625
-23.8037109375
-31.1279296875
-42.1142578125
-46.69189453125
-44.86083984375
-47.607421875
-56.7626953125
-71.4111328125
-74.15771484375
-78.7353515625
-85.14404296875
-88.80615234375
-94.29931640625
-92.46826171875
-96.13037109375
-90.63720703125
-100.7080078125
-98.876953125
-97.0458984375
-105.28564453125
-101.62353515625
-97.96142578125
-103.45458984375
-105.28564453125
-103.45458984375
-104.3701171875
-102.5390625
-105.28564453125
-103.45458984375
-101.62353515625
-106.201171875
-104.3701171875
-104.3701171875
-98.876953125
-97.0458984375
-94.29931640625
-103.45458984375
-106.201171875
-105.28564453125
-103.45458984375
-107.11669921875
-116.27197265625
-139.16015625
-152.89306640625
-167.54150390625
-166.6259765625
-162.9638671875
-156.55517578125
-139.16015625
-110.77880859375
-73.2421875
-16.4794921875
65.91796875
178.52783203125
298.4619140625
424.8046875
562.1337890625
704.04052734375
808.41064453125
893.5546875
937.5
927.42919921875
906.3720703125
844.1162109375
750.732421875
561.21826171875
371.7041015625
251.77001953125
145.56884765625
44.86083984375
-49.4384765625
-128.173828125
-181.2744140625
-219.7265625
-228.8818359375
-216.064453125
-190.4296875
-164.794921875
-130.92041015625
-102.5390625
-79.65087890625
-68.66455078125
-66.83349609375
-68.66455078125
-72.32666015625
-69.580078125
-78.7353515625
-81.48193359375
-79.65087890625
-75.0732421875
-68.66455078125
-71.4111328125
-80.56640625
-76.904296875
-75.0732421875
-75.98876953125
-75.0732421875
-75.98876953125
-75.98876953125
-73.2421875
-70.49560546875
-70.49560546875
-72.32666015625
-67.7490234375
-62.255859375
-60.4248046875
-57.67822265625
-63.17138671875
-59.50927734375
-56.7626953125
-50.35400390625
-50.35400390625
-56.7626953125
-56.7626953125
-47.607421875
-40.283203125
-40.283203125
-45.7763671875
-46.69189453125
-41.19873046875
-37.53662109375
-43.9453125
-42.1142578125
-29.296875
-28.38134765625
-27.4658203125
-21.97265625
-24.71923828125
-25.634765625
-21.05712890625
-15.56396484375
-10.07080078125
-10.986328125
-10.07080078125
-5.4931640625
0
-6.40869140625
0.91552734375
0.91552734375
10.07080078125
14.6484375
10.986328125
11.90185546875
19.22607421875
16.4794921875
18.310546875
27.4658203125
28.38134765625
34.7900390625
40.283203125
49.4384765625
51.26953125
53.1005859375
56.7626953125
64.0869140625
71.4111328125
80.56640625
75.98876953125
82.3974609375
87.890625
97.96142578125
100.7080078125
109.86328125
119.0185546875
122.6806640625
133.6669921875
132.75146484375
136.41357421875
138.24462890625
151.9775390625
162.9638671875
165.71044921875
175.78125
181.2744140625
184.02099609375
193.17626953125
199.5849609375
201.416015625
205.99365234375
213.31787109375
216.97998046875
223.388671875
229.79736328125
230.712890625
234.375
243.5302734375
245.361328125
244.44580078125
252.685546875
258.1787109375
256.34765625
259.09423828125
260.92529296875
260.92529296875
256.34765625
250.8544921875
253.60107421875
245.361328125
237.12158203125
230.712890625
225.2197265625
216.064453125
198.66943359375
188.5986328125
182.18994140625
164.794921875
153.80859375
140.9912109375
123.59619140625
115.3564453125
101.62353515625
87.890625
70.49560546875
57.67822265625
48.52294921875
38.4521484375
35.70556640625
19.22607421875
8.23974609375
7.32421875
-3.662109375
-9.1552734375
-19.22607421875
-26.55029296875
-28.38134765625
-24.71923828125
-37.53662109375
-43.02978515625
-40.283203125
-41.19873046875
-40.283203125
-53.1005859375
-55.84716796875
-46.69189453125
-51.26953125
-54.931640625
-50.35400390625
-53.1005859375
-56.7626953125
-53.1005859375
-55.84716796875
-52.18505859375
-59.50927734375
-58.59375
-51.26953125
-54.01611328125
-56.7626953125
-59.50927734375
-61.34033203125
-55.84716796875
-44.86083984375
-54.01611328125
-56.7626953125
-54.01611328125
-51.26953125
-44.86083984375
-47.607421875
-52.18505859375
-55.84716796875
-54.931640625
-54.01611328125
-48.52294921875
-52.18505859375
-55.84716796875
-47.607421875
-44.86083984375
-50.35400390625
-49.4384765625
-48.52294921875
-50.35400390625
-51.26953125
-52.18505859375
-50.35400390625
-53.1005859375
-48.52294921875
-48.52294921875
-53.1005859375
-54.01611328125
-52.18505859375
-48.52294921875
-51.26953125
-49.4384765625
-52.18505859375
-54.931640625
-54.01611328125
-51.26953125
-49.4384765625
-58.59375
-60.4248046875
-54.931640625
-54.01611328125
-53.1005859375
-61.34033203125
-58.59375
-56.7626953125
-56.7626953125
-58.59375
-62.255859375
-60.4248046875
-62.255859375
-63.17138671875
-62.255859375
-63.17138671875
-74.15771484375
-74.15771484375
-71.4111328125
-65.00244140625
-64.0869140625
-65.91796875
-74.15771484375
-69.580078125
-72.32666015625
-70.49560546875
-75.0732421875
-74.15771484375
-71.4111328125
-72.32666015625
-73.2421875
-75.0732421875
-72.32666015625
-69.580078125
-75.0732421875
-79.65087890625
-73.2421875
-71.4111328125
-73.2421875
-76.904296875
-83.31298828125
-78.7353515625
-74.15771484375
-75.0732421875
-76.904296875
-75.98876953125
-75.98876953125
-74.15771484375
-75.98876953125
-76.904296875
-82.3974609375
-86.97509765625
-79.65087890625
-77.81982421875
-80.56640625
-85.14404296875
-81.48193359375
-81.48193359375
-82.3974609375
-86.0595703125
-90.63720703125
-88.80615234375
-89.7216796875
-83.31298828125
-86.97509765625
-89.7216796875
-93.3837890625
-88.80615234375
-87.890625
-86.0595703125
-88.80615234375
-90.63720703125
-90.63720703125
-90.63720703125
-90.63720703125
-94.29931640625
-87.890625
-86.97509765625
-85.14404296875
-94.29931640625
-87.890625
-92.46826171875
-85.14404296875
-85.14404296875
-89.7216796875
-92.46826171875
-93.3837890625
-91.552734375
-89.7216796875
-93.3837890625
-94.29931640625
-94.29931640625
-94.29931640625
-85.14404296875
-87.890625
-97.0458984375
-95.21484375
-92.46826171875
-92.46826171875
-95.21484375
-97.0458984375
-92.46826171875
-94.29931640625
-93.3837890625
-94.29931640625
-100.7080078125
-96.13037109375
-90.63720703125
-91.552734375
-92.46826171875
-92.46826171875
-95.21484375
-97.0458984375
-93.3837890625
-96.13037109375
-97.0458984375
-91.552734375
-87.890625
-79.65087890625
-76.904296875
-75.0732421875
-67.7490234375
-66.83349609375
-58.59375
-62.255859375
-61.34033203125
-59.50927734375
-56.7626953125
-55.84716796875
-58.59375
-56.7626953125
-52.18505859375
-44.86083984375
-44.86083984375
-39.36767578125
-40.283203125
-39.36767578125
-28.38134765625
-23.8037109375
-26.55029296875
-20.1416015625
-13.73291015625
-15.56396484375
-16.4794921875
-12.8173828125
-14.6484375
-13.73291015625
-17.39501953125
-21.97265625
-31.1279296875
-36.62109375
-33.87451171875
-37.53662109375
-47.607421875
-54.01611328125
-62.255859375
-55.84716796875
-62.255859375
-61.34033203125
-68.66455078125
-85.14404296875
-89.7216796875
-92.46826171875
-91.552734375
-101.62353515625
-108.94775390625
-111.6943359375
-100.7080078125
-105.28564453125
-114.44091796875
-117.1875
-113.525390625
-115.3564453125
-114.44091796875
-109.86328125
-114.44091796875
-117.1875
-119.93408203125
-114.44091796875
-114.44091796875
-118.10302734375
-125.42724609375
-118.10302734375
-116.27197265625
-121.76513671875
-116.27197265625
-119.0185546875
-120.849609375
-111.6943359375
-114.44091796875
-122.6806640625
-122.6806640625
-123.59619140625
-125.42724609375
-132.75146484375
-146.484375
-163.87939453125
-182.18994140625
-177.6123046875
-169.37255859375
-151.9775390625
-134.58251953125
-113.525390625
-73.2421875
-14.6484375
78.7353515625
193.17626953125
301.20849609375
433.9599609375
574.03564453125
712.2802734375
823.974609375
910.0341796875
949.40185546875
940.24658203125
905.45654296875
847.7783203125
751.64794921875
564.88037109375
375.3662109375
238.95263671875
130.0048828125
21.97265625
-71.4111328125
-132.75146484375
-184.9365234375
-227.05078125
-230.712890625
-202.33154296875
-173.9501953125
-144.6533203125
-109.86328125
-85.14404296875
-64.0869140625
-57.67822265625
-70.49560546875
-75.98876953125
-75.98876953125
-73.2421875
-80.56640625
-91.552734375
-89.7216796875
-85.14404296875
-89.7216796875
-87.890625
-97.0458984375
-89.7216796875
-86.0595703125
-89.7216796875
-87.890625
-88.80615234375
-86.97509765625
-80.56640625
-79.65087890625
-79.65087890625
-85.14404296875
-80.56640625
-75.98876953125
-73.2421875
-68.66455078125
-76.904296875
-77.81982421875
-70.49560546875
-65.00244140625
-63.17138671875
-71.4111328125
-62.255859375
-64.0869140625
-58.59375
-58.59375
-61.34033203125
-58.59375
-53.1005859375
-50.35400390625
-49.4384765625
-54.931640625
-56.7626953125
-51.26953125
-45.7763671875
-43.9453125
-45.7763671875
-44.86083984375
-36.62109375
-31.1279296875
-21.97265625
-27.4658203125
-26.55029296875
-21.97265625
-17.39501953125
-12.8173828125
-15.56396484375
-10.986328125
-7.32421875
-8.23974609375
-2.74658203125
-4.57763671875
-2.74658203125
1.8310546875
10.07080078125
9.1552734375
6.40869140625
13.73291015625
23.8037109375
27.4658203125
27.4658203125
32.04345703125
35.70556640625
43.02978515625
48.52294921875
53.1005859375
58.59375
66.83349609375
76.904296875
75.0732421875
75.98876953125
83.31298828125
90.63720703125
102.5390625
108.94775390625
114.44091796875
119.0185546875
123.59619140625
138.24462890625
150.146484375
151.06201171875
156.55517578125
163.87939453125
168.45703125
171.20361328125
186.767578125
187.68310546875
190.4296875
201.416015625
204.16259765625
205.078125
205.078125
211.48681640625
219.7265625
229.79736328125
231.62841796875
229.79736328125
229.79736328125
240.78369140625
242.61474609375
240.78369140625
240.78369140625
245.361328125
249.0234375
241.69921875
238.037109375
240.78369140625
227.96630859375
214.2333984375
216.064453125
204.16259765625
195.00732421875
184.9365234375
177.6123046875
161.1328125
151.9775390625
140.07568359375
127.25830078125
116.27197265625
103.45458984375
88.80615234375
74.15771484375
61.34033203125
52.18505859375
40.283203125
31.1279296875
19.22607421875
6.40869140625
0
-4.57763671875
-10.986328125
-19.22607421875
-26.55029296875
-28.38134765625
-30.21240234375
-33.87451171875
-39.36767578125
-46.69189453125
-44.86083984375
-43.9453125
-51.26953125
-56.7626953125
-57.67822265625
-56.7626953125
-55.84716796875
-56.7626953125
-65.91796875
-62.255859375
-58.59375
-63.17138671875
-63.17138671875
-66.83349609375
-65.91796875
-64.0869140625
-56.7626953125
-55.84716796875
-63.17138671875
-58.59375
-61.34033203125
-64.0869140625
-59.50927734375
-61.34033203125
-61.34033203125
-58.59375
-55.84716796875
-60.4248046875
-55.84716796875
-56.7626953125
-63.17138671875
-57.67822265625
-56.7626953125
-54.01611328125
-55.84716796875
-55.84716796875
-51.26953125
-50.35400390625
-56.7626953125
-53.1005859375
-51.26953125
-53.1005859375
-56.7626953125
-56.7626953125
-62.255859375
-59.50927734375
-54.931640625
-58.59375
-59.50927734375
-63.17138671875
-62.255859375
-53.1005859375
-54.931640625
-57.67822265625
-53.1005859375
-54.931640625
-52.18505859375
-57.67822265625
-63.17138671875
-65.00244140625
-60.4248046875
-62.255859375
-64.0869140625
-67.7490234375
-65.00244140625
-63.17138671875
-61.34033203125
-62.255859375
-61.34033203125
-70.49560546875
-70.49560546875
-58.59375
-55.84716796875
-67.7490234375
-69.580078125
-67.7490234375
-64.0869140625
-58.59375
-71.4111328125
-65.00244140625
-71.4111328125
-73.2421875
-75.0732421875
-74.15771484375
-74.15771484375
-75.98876953125
-80.56640625
-73.2421875
-77.81982421875
-83.31298828125
-74.15771484375
-75.0732421875
-76.904296875
-80.56640625
-82.3974609375
-82.3974609375
-74.15771484375
-78.7353515625
-93.3837890625
-87.890625
-83.31298828125
-84.228515625
-83.31298828125
-89.7216796875
-93.3837890625
-87.890625
-80.56640625
-81.48193359375
-87.890625
-86.0595703125
-86.97509765625
-93.3837890625
-90.63720703125
-92.46826171875
-87.890625
-83.31298828125
-86.0595703125
-92.46826171875
-90.63720703125
-82.3974609375
-92.46826171875
-92.46826171875
-88.80615234375
-84.228515625
-86.0595703125
-87.890625
-85.14404296875
-86.97509765625
-90.63720703125
-90.63720703125
-92.46826171875
-89.7216796875
-93.3837890625
-92.46826171875
-90.63720703125
-91.552734375
-84.228515625
-85.14404296875
-87.890625
-86.97509765625
-88.80615234375
-93.3837890625
-92.46826171875
-90.63720703125
-96.13037109375
-94.29931640625
-88.80615234375
-94.29931640625
-93.3837890625
-93.3837890625
-92.46826171875
-89.7216796875
-89.7216796875
-88.80615234375
-96.13037109375
-88.80615234375
-91.552734375
-89.7216796875
-94.29931640625
-97.96142578125
-101.62353515625
-90.63720703125
-85.14404296875
-88.80615234375
-96.13037109375
-90.63720703125
-91.552734375
-93.3837890625
-90.63720703125
-92.46826171875
-94.29931640625
-91.552734375
-94.29931640625
-90.63720703125
-96.13037109375
-88.80615234375
-89.7216796875
-88.80615234375
-89.7216796875
-95.21484375
-99.79248046875
-92.46826171875
-91.552734375
-103.45458984375
-103.45458984375
-99.79248046875
-86.97509765625
-92.46826171875
-97.96142578125
-93.3837890625
-88.80615234375
-85.14404296875
-90.63720703125
-97.96142578125
-96.13037109375
-95.21484375
-93.3837890625
-93.3837890625
-93.3837890625
-92.46826171875
-97.0458984375
-98.876953125
-91.552734375
-87.890625
-79.65087890625
-74.15771484375
-72.32666015625
-75.0732421875
-68.66455078125
-59.50927734375
-54.931640625
-57.67822265625
-56.7626953125
-62.255859375
-54.01611328125
-52.18505859375
-45.7763671875
-41.19873046875
-41.19873046875
-41.19873046875
-35.70556640625
-32.958984375
-23.8037109375
-26.55029296875
-21.97265625
-20.1416015625
-15.56396484375
-7.32421875
-15.56396484375
-14.6484375
-4.57763671875
-0.91552734375
-6.40869140625
-9.1552734375
-20.1416015625
-37.53662109375
-32.04345703125
-32.04345703125
-40.283203125
-41.19873046875
-47.607421875
-50.35400390625
-54.01611328125
-63.17138671875
-60.4248046875
-67.7490234375
-73.2421875
-81.48193359375
-90.63720703125
-92.46826171875
-106.201171875
-105.28564453125
-103.45458984375
-100.7080078125
-97.96142578125
-103.45458984375
-110.77880859375
-108.94775390625
-108.94775390625
-108.94775390625
-108.94775390625
-109.86328125
-104.3701171875
-115.3564453125
-115.3564453125
-114.44091796875
-111.6943359375
-112.60986328125
-108.0322265625
-107.11669921875
-108.94775390625
-114.44091796875
-117.1875
-119.93408203125
-113.525390625
-116.27197265625
-115.3564453125
-108.94775390625
-115.3564453125
-126.3427734375
-138.24462890625
-142.822265625
-160.21728515625
-172.119140625
-166.6259765625
-160.21728515625
-137.3291015625
-115.3564453125
-87.890625
-47.607421875
33.87451171875
139.16015625
248.10791015625
360.7177734375
483.3984375
628.96728515625
736.99951171875
822.1435546875
896.30126953125
908.203125
888.0615234375
841.36962890625
764.46533203125
631.7138671875
428.466796875
274.658203125
171.20361328125
63.17138671875
-40.283203125
-120.849609375
-170.2880859375
-203.2470703125
-231.62841796875
-238.037109375
-216.97998046875
-194.091796875
-166.6259765625
-134.58251953125
-100.7080078125
-86.0595703125
-86.97509765625
-80.56640625
-74.15771484375
-84.228515625
-88.80615234375
-82.3974609375
-86.97509765625
-81.48193359375
-85.14404296875
-86.0595703125
-79.65087890625
-85.14404296875
-86.97509765625
-81.48193359375
-82.3974609375
-83.31298828125
-70.49560546875
-71.4111328125
-81.48193359375
-76.904296875
-71.4111328125
-70.49560546875
-76.904296875
-73.2421875
-65.00244140625
-65.91796875
-71.4111328125
-65.00244140625
-72.32666015625
-75.0732421875
-56.7626953125
-58.59375
-59.50927734375
-59.50927734375
-59.50927734375
-54.931640625
-48.52294921875
-54.01611328125
-49.4384765625
-46.69189453125
-42.1142578125
-35.70556640625
-32.958984375
-41.19873046875
-32.958984375
-38.4521484375
-36.62109375
-33.87451171875
-33.87451171875
-29.296875
-26.55029296875
-19.22607421875
-18.310546875
-18.310546875
-14.6484375
-11.90185546875
-3.662109375
-5.4931640625
-4.57763671875
0.91552734375
4.57763671875
7.32421875
12.8173828125
12.8173828125
15.56396484375
9.1552734375
23.8037109375
31.1279296875
30.21240234375
33.87451171875
40.283203125
45.7763671875
49.4384765625
48.52294921875
53.1005859375
58.59375
65.00244140625
70.49560546875
73.2421875
82.3974609375
93.3837890625
97.96142578125
101.62353515625
107.11669921875
119.0185546875
119.93408203125
128.173828125
137.3291015625
138.24462890625
151.06201171875
158.38623046875
167.54150390625
173.03466796875
184.02099609375
184.9365234375
181.2744140625
197.75390625
205.99365234375
201.416015625
213.31787109375
210.5712890625
217.8955078125
227.96630859375
224.30419921875
227.96630859375
231.62841796875
234.375
242.61474609375
247.1923828125
248.10791015625
254.5166015625
255.43212890625
260.92529296875
249.93896484375
245.361328125
246.27685546875
249.93896484375
249.93896484375
233.45947265625
227.96630859375
222.47314453125
218.81103515625
208.740234375
191.34521484375
178.52783203125
166.6259765625
161.1328125
153.80859375
121.76513671875
113.525390625
101.62353515625
93.3837890625
82.3974609375
63.17138671875
48.52294921875
43.02978515625
37.53662109375
26.55029296875
11.90185546875
3.662109375
1.8310546875
-3.662109375
-12.8173828125
-21.05712890625
-28.38134765625
-23.8037109375
-26.55029296875
-27.4658203125
-37.53662109375
-42.1142578125
-41.19873046875
-41.19873046875
-50.35400390625
-49.4384765625
-50.35400390625
-54.01611328125
-49.4384765625
-51.26953125
-58.59375
-58.59375
-55.84716796875
-51.26953125
-53.1005859375
-65.91796875
-62.255859375
-57.67822265625
-50.35400390625
-54.931640625
-58.59375
-61.34033203125
-59.50927734375
-53.1005859375
-53.1005859375
-56.7626953125
-61.34033203125
-55.84716796875
-50.35400390625
-52.18505859375
-60.4248046875
-56.7626953125
-55.84716796875
-52.18505859375
-52.18505859375
-57.67822265625
-55.84716796875
-57.67822265625
-45.7763671875
-50.35400390625
-54.931640625
-56.7626953125
-54.931640625
-49.4384765625
-51.26953125
-56.7626953125
-58.59375
-54.931640625
-52.18505859375
-48.52294921875
-49.4384765625
-55.84716796875
-54.01611328125
-56.7626953125
-59.50927734375
-55.84716796875
-49.4384765625
-56.7626953125
-54.931640625
-61.34033203125
-59.50927734375
-57.67822265625
-60.4248046875
-60.4248046875
-57.67822265625
-66.83349609375
-63.17138671875
-59.50927734375
-62.255859375
-65.00244140625
-72.32666015625
-61.34033203125
-58.59375
-59.50927734375
-63.17138671875
-66.83349609375
-65.91796875
-70.49560546875
-70.49560546875
-73.2421875
-71.4111328125
-73.2421875
-71.4111328125
-62.255859375
-64.0869140625
-69.580078125
-68.66455078125
-69.580078125
-75.0732421875
-78.7353515625
-76.904296875
-75.98876953125
-69.580078125
-69.580078125
-71.4111328125
-80.56640625
-84.228515625
-79.65087890625
-79.65087890625
-77.81982421875
-76.904296875
-75.0732421875
-85.14404296875
-75.98876953125
-79.65087890625
-86.0595703125
-90.63720703125
-80.56640625
-75.0732421875
-77.81982421875
-79.65087890625
-76.904296875
-76.904296875
-75.0732421875
-76.904296875
-79.65087890625
-80.56640625
-81.48193359375
-76.904296875
-77.81982421875
-84.228515625
-87.890625
-83.31298828125
-77.81982421875
-81.48193359375
-88.80615234375
-91.552734375
-86.0595703125
-85.14404296875
-82.3974609375
-88.80615234375
-89.7216796875
-78.7353515625
-80.56640625
-78.7353515625
-84.228515625
-84.228515625
-77.81982421875
-81.48193359375
-83.31298828125
-86.97509765625
-87.890625
-88.80615234375
-80.56640625
-84.228515625
-83.31298828125
-86.97509765625
-86.0595703125
-83.31298828125
-82.3974609375
-83.31298828125
-83.31298828125
-81.48193359375
-80.56640625
-84.228515625
-91.552734375
-86.0595703125
-83.31298828125
-87.890625
-84.228515625
-87.890625
-91.552734375
-86.0595703125
-75.0732421875
-75.0732421875
-77.81982421875
-72.32666015625
-72.32666015625
-65.00244140625
-64.0869140625
-62.255859375
-56.7626953125
-52.18505859375
-52.18505859375
-47.607421875
-53.1005859375
-52.18505859375
-49.4384765625
-40.283203125
-38.4521484375
-44.86083984375
-43.02978515625
-37.53662109375
-32.04345703125
-24.71923828125
-23.8037109375
-22.88818359375
-19.22607421875
-9.1552734375
-15.56396484375
-14.6484375
-4.57763671875
-0.91552734375
2.74658203125
-3.662109375
-15.56396484375
-21.05712890625
-21.05712890625
-21.05712890625
-34.7900390625
-42.1142578125
-50.35400390625
-52.18505859375
-51.26953125
-50.35400390625
-51.26953125
-56.7626953125
-65.00244140625
-74.15771484375
-88.80615234375
-92.46826171875
-91.552734375
-98.876953125
-97.0458984375
-91.552734375
-101.62353515625
-103.45458984375
-104.3701171875
-101.62353515625
-107.11669921875
-106.201171875
-106.201171875
-105.28564453125
-103.45458984375
-104.3701171875
-108.0322265625
-109.86328125
-108.0322265625
-106.201171875
-111.6943359375
-110.77880859375
-111.6943359375
-109.86328125
-107.11669921875
-106.201171875
-104.3701171875
-112.60986328125
-109.86328125
-112.60986328125
-109.86328125
-116.27197265625
-117.1875
-126.3427734375
-135.498046875
-157.470703125
-172.119140625
-168.45703125
-149.23095703125
-137.3291015625
-117.1875
-94.29931640625
-53.1005859375
16.4794921875
119.0185546875
236.2060546875
346.0693359375
466.9189453125
612.48779296875
740.66162109375
821.22802734375
875.244140625
882.568359375
865.17333984375
823.974609375
728.759765625
604.248046875
424.8046875
281.06689453125
177.6123046875
81.48193359375
-12.8173828125
-87.890625
-147.39990234375
-181.2744140625
-208.740234375
-214.2333984375
-216.97998046875
-201.416015625
-184.9365234375
-162.04833984375
-138.24462890625
-110.77880859375
-97.0458984375
-84.228515625
-75.0732421875
-87.890625
-83.31298828125
-80.56640625
-77.81982421875
-80.56640625
-79.65087890625
-86.97509765625
-78.7353515625
-75.0732421875
-79.65087890625
-84.228515625
-82.3974609375
-80.56640625
-73.2421875
-81.48193359375
-81.48193359375
-78.7353515625
-80.56640625
-72.32666015625
-71.4111328125
-79.65087890625
-78.7353515625
-69.580078125
-65.91796875
-68.66455078125
-71.4111328125
-66.83349609375
-63.17138671875
-58.59375
-52.18505859375
-54.01611328125
-56.7626953125
-50.35400390625
-49.4384765625
-49.4384765625
-40.283203125
-41.19873046875
-36.62109375
-33.87451171875
-33.87451171875
-33.87451171875
-32.958984375
-36.62109375
-28.38134765625
-29.296875
-29.296875
-24.71923828125
-18.310546875
-14.6484375
-16.4794921875
-16.4794921875
-11.90185546875
-6.40869140625
-1.8310546875
0
-2.74658203125
0.91552734375
1.8310546875
8.23974609375
20.1416015625
17.39501953125
17.39501953125
20.1416015625
22.88818359375
30.21240234375
31.1279296875
38.4521484375
46.69189453125
49.4384765625
52.18505859375
52.18505859375
59.50927734375
63.17138671875
67.7490234375
75.0732421875
82.3974609375
83.31298828125
89.7216796875
100.7080078125
109.86328125
108.94775390625
114.44091796875
124.51171875
130.92041015625
135.498046875
140.07568359375
149.23095703125
158.38623046875
164.794921875
165.71044921875
173.03466796875
182.18994140625
188.5986328125
192.2607421875
197.75390625
195.00732421875
197.75390625
205.078125
210.5712890625
217.8955078125
219.7265625
222.47314453125
229.79736328125
232.5439453125
232.5439453125
237.12158203125
238.037109375
248.10791015625
246.27685546875
243.5302734375
243.5302734375
233.45947265625
237.12158203125
236.2060546875
230.712890625
221.5576171875
207.82470703125
197.75390625
199.5849609375
184.9365234375
169.37255859375
162.04833984375
152.89306640625
139.16015625
124.51171875
108.94775390625
100.7080078125
84.228515625
74.15771484375
69.580078125
55.84716796875
39.36767578125
37.53662109375
34.7900390625
19.22607421875
3.662109375
0.91552734375
-2.74658203125
-9.1552734375
-14.6484375
-21.97265625
-25.634765625
-29.296875
-33.87451171875
-35.70556640625
-37.53662109375
-38.4521484375
-44.86083984375
-47.607421875
-44.86083984375
-52.18505859375
-49.4384765625
-45.7763671875
-43.9453125
-45.7763671875
-50.35400390625
-53.1005859375
-48.52294921875
-47.607421875
-53.1005859375
-54.931640625
-51.26953125
-56.7626953125
-54.931640625
-52.18505859375
-54.931640625
-53.1005859375
-48.52294921875
-47.607421875
-49.4384765625
-56.7626953125
-56.7626953125
-54.931640625
-51.26953125
-53.1005859375
-54.01611328125
-54.01611328125
-50.35400390625
-45.7763671875
-46.69189453125
-49.4384765625
-49.4384765625
-50.35400390625
-46.69189453125
-43.9453125
-51.26953125
-54.01611328125
-52.18505859375
-46.69189453125
-44.86083984375
-51.26953125
-57.67822265625
-55.84716796875
-43.02978515625
-40.283203125
-47.607421875
-49.4384765625
-48.52294921875
-48.52294921875
-43.9453125
-49.4384765625
-49.4384765625
-56.7626953125
-54.931640625
-52.18505859375
-56.7626953125
-54.01611328125
-54.01611328125
-53.1005859375
-55.84716796875
-63.17138671875
-65.00244140625
-62.255859375
-59.50927734375
-63.17138671875
-63.17138671875
-65.00244140625
-60.4248046875
-62.255859375
-63.17138671875
-59.50927734375
-63.17138671875
-67.7490234375
-66.83349609375
-65.91796875
-68.66455078125
-67.7490234375
-72.32666015625
-74.15771484375
-67.7490234375
-74.15771484375
-74.15771484375
-65.91796875
-67.7490234375
-69.580078125
-73.2421875
-75.0732421875
-75.0732421875
-72.32666015625
-68.66455078125
-74.15771484375
-76.904296875
-76.904296875
-75.0732421875
-75.98876953125
-82.3974609375
-78.7353515625
-76.904296875
-75.0732421875
-73.2421875
-75.98876953125
-76.904296875
-77.81982421875
-75.0732421875
-77.81982421875
-79.65087890625
-79.65087890625
-81.48193359375
-80.56640625
-70.49560546875
-77.81982421875
-82.3974609375
-75.98876953125
-68.66455078125
-72.32666015625
-76.904296875
-79.65087890625
-75.98876953125
-75.98876953125
-81.48193359375
-77.81982421875
-74.15771484375
-75.0732421875
-76.904296875
-76.904296875
-82.3974609375
-82.3974609375
-82.3974609375
-77.81982421875
-81.48193359375
-83.31298828125
-88.80615234375
-93.3837890625
-76.904296875
-78.7353515625
-86.0595703125
-83.31298828125
-79.65087890625
-77.81982421875
-78.7353515625
-82.3974609375
-85.14404296875
-81.48193359375
-81.48193359375
-80.56640625
-84.228515625
-84.228515625
-78.7353515625
-75.98876953125
-76.904296875
-82.3974609375
-82.3974609375
-85.14404296875
-82.3974609375
-80.56640625
-86.97509765625
-86.97509765625
-91.552734375
-87.890625
-79.65087890625
-86.0595703125
-88.80615234375
-83.31298828125
-78.7353515625
-74.15771484375
-75.0732421875
-77.81982421875
-75.0732421875
-66.83349609375
-65.91796875
-65.00244140625
-54.01611328125
-48.52294921875
-43.9453125
-48.52294921875
-52.18505859375
-50.35400390625
-48.52294921875
-42.1142578125
-36.62109375
-43.9453125
-39.36767578125
-28.38134765625
-25.634765625
-30.21240234375
-39.36767578125
-32.958984375
-23.8037109375
-20.1416015625
-14.6484375
-10.986328125
-9.1552734375
-3.662109375
-4.57763671875
-1.8310546875
-0.91552734375
-5.4931640625
-9.1552734375
-20.1416015625
-28.38134765625
-28.38134765625
-26.55029296875
-34.7900390625
-36.62109375
-41.19873046875
-54.931640625
-52.18505859375
-49.4384765625
-50.35400390625
-67.7490234375
-82.3974609375
-89.7216796875
-89.7216796875
-90.63720703125
-94.29931640625
-95.21484375
-100.7080078125
-100.7080078125
-104.3701171875
-105.28564453125
-104.3701171875
-105.28564453125
-108.0322265625
-107.11669921875
-108.94775390625
-110.77880859375
-108.94775390625
-106.201171875
-108.0322265625
-108.0322265625
-112.60986328125
-111.6943359375
-108.94775390625
-104.3701171875
-108.0322265625
-112.60986328125
-109.86328125
-110.77880859375
-106.201171875
-108.0322265625
-116.27197265625
-115.3564453125
-118.10302734375
-127.25830078125
-135.498046875
-151.06201171875
-169.37255859375
-177.6123046875
-168.45703125
-157.470703125
-146.484375
-122.6806640625
-95.21484375
-51.26953125
23.8037109375
128.173828125
243.5302734375
362.548828125
490.72265625
639.95361328125
764.46533203125
867.919921875
947.57080078125
964.9658203125
953.9794921875
902.7099609375
826.72119140625
698.54736328125
488.8916015625
314.02587890625
195.9228515625
82.3974609375
-8.23974609375
-93.3837890625
-152.89306640625
-196.83837890625
-233.45947265625
-221.5576171875
-178.52783203125
-146.484375
-126.3427734375
-89.7216796875
-67.7490234375
-55.84716796875
-55.84716796875
-68.66455078125
-75.98876953125
-66.83349609375
-74.15771484375
-80.56640625
-91.552734375
-77.81982421875
-76.904296875
-80.56640625
-79.65087890625
-81.48193359375
-82.3974609375
-80.56640625
-81.48193359375
-78.7353515625
-78.7353515625
-75.0732421875
-77.81982421875
-69.580078125
-70.49560546875
-73.2421875
-71.4111328125
-70.49560546875
-65.91796875
-66.83349609375
-70.49560546875
-66.83349609375
-65.91796875
-63.17138671875
-57.67822265625
-57.67822265625
-57.67822265625
-56.7626953125
-54.931640625
-47.607421875
-49.4384765625
-45.7763671875
-48.52294921875
-43.02978515625
-39.36767578125
-43.02978515625
-48.52294921875
-42.1142578125
-36.62109375
-31.1279296875
-34.7900390625
-39.36767578125
-35.70556640625
-27.4658203125
-21.97265625
-24.71923828125
-28.38134765625
-18.310546875
-20.1416015625
-18.310546875
-18.310546875
-13.73291015625
-10.986328125
-2.74658203125
-5.4931640625
2.74658203125
4.57763671875
0.91552734375
10.986328125
10.986328125
9.1552734375
21.97265625
26.55029296875
34.7900390625
34.7900390625
29.296875
36.62109375
44.86083984375
47.607421875
55.84716796875
64.0869140625
61.34033203125
69.580078125
79.65087890625
86.97509765625
88.80615234375
99.79248046875
104.3701171875
112.60986328125
120.849609375
125.42724609375
131.8359375
139.16015625
146.484375
155.6396484375
155.6396484375
155.6396484375
171.20361328125
181.2744140625
187.68310546875
184.9365234375
196.83837890625
200.50048828125
207.82470703125
213.31787109375
214.2333984375
218.81103515625
226.13525390625
228.8818359375
233.45947265625
235.29052734375
237.12158203125
238.95263671875
242.61474609375
244.44580078125
239.8681640625
238.95263671875
246.27685546875
245.361328125
242.61474609375
231.62841796875
234.375
223.388671875
213.31787109375
205.99365234375
201.416015625
195.9228515625
167.54150390625
157.470703125
150.146484375
137.3291015625
122.6806640625
109.86328125
102.5390625
88.80615234375
67.7490234375
60.4248046875
54.01611328125
43.9453125
33.87451171875
19.22607421875
13.73291015625
8.23974609375
-5.4931640625
-14.6484375
-21.97265625
-22.88818359375
-21.97265625
-24.71923828125
-33.87451171875
-41.19873046875
-42.1142578125
-42.1142578125
-42.1142578125
-48.52294921875
-50.35400390625
-49.4384765625
-53.1005859375
-57.67822265625
-57.67822265625
-58.59375
-57.67822265625
-56.7626953125
-55.84716796875
-58.59375
-64.0869140625
-65.00244140625
-63.17138671875
-58.59375
-55.84716796875
-65.91796875
-63.17138671875
-59.50927734375
-59.50927734375
-57.67822265625
-65.00244140625
-65.00244140625
-57.67822265625
-51.26953125
-51.26953125
-62.255859375
-55.84716796875
-63.17138671875
-53.1005859375
-48.52294921875
-55.84716796875
-55.84716796875
-56.7626953125
-49.4384765625
-49.4384765625
-57.67822265625
-51.26953125
-45.7763671875
-44.86083984375
-42.1142578125
-51.26953125
-54.01611328125
-48.52294921875
-46.69189453125
-50.35400390625
-56.7626953125
-54.931640625
-49.4384765625
-50.35400390625
-52.18505859375
-55.84716796875
-60.4248046875
-54.01611328125
-48.52294921875
-47.607421875
-61.34033203125
-59.50927734375
-58.59375
-58.59375
-54.01611328125
-55.84716796875
-62.255859375
-58.59375
-53.1005859375
-60.4248046875
-65.91796875
-65.91796875
-66.83349609375
-58.59375
-58.59375
-64.0869140625
-69.580078125
-70.49560546875
-65.00244140625
-65.91796875
-73.2421875
-71.4111328125
-65.00244140625
-69.580078125
-68.66455078125
-68.66455078125
-66.83349609375
-69.580078125
-66.83349609375
-69.580078125
-66.83349609375
-65.91796875
-68.66455078125
-70.49560546875
-72.32666015625
-79.65087890625
-69.580078125
-70.49560546875
-69.580078125
-70.49560546875
-72.32666015625
-75.98876953125
-74.15771484375
-72.32666015625
-77.81982421875
-74.15771484375
-82.3974609375
-80.56640625
-73.2421875
-77.81982421875
-75.0732421875
-73.2421875
-79.65087890625
-80.56640625
-73.2421875
-74.15771484375
-82.3974609375
-76.904296875
-77.81982421875
-79.65087890625
-79.65087890625
-78.7353515625
-79.65087890625
-81.48193359375
-82.3974609375
-81.48193359375
-78.7353515625
-80.56640625
-80.56640625
-78.7353515625
-82.3974609375
-83.31298828125
-81.48193359375
-77.81982421875
-77.81982421875
-84.228515625
-84.228515625
-78.7353515625
-78.7353515625
-79.65087890625
-84.228515625
-91.552734375
-95.21484375
-82.3974609375
-78.7353515625
-82.3974609375
-76.904296875
-75.98876953125
-83.31298828125
-75.0732421875
-82.3974609375
-82.3974609375
-86.0595703125
-81.48193359375
-75.98876953125
-81.48193359375
-80.56640625
-79.65087890625
-79.65087890625
-83.31298828125
-82.3974609375
-85.14404296875
-78.7353515625
-75.98876953125
-82.3974609375
-77.81982421875
-82.3974609375
-89.7216796875
-89.7216796875
-79.65087890625
-82.3974609375
-87.890625
-78.7353515625
-80.56640625
-81.48193359375
-86.97509765625
-85.14404296875
-79.65087890625
-80.56640625
-82.3974609375
-88.80615234375
-84.228515625
-77.81982421875
-80.56640625
-84.228515625
-86.97509765625
-80.56640625
-75.0732421875
-82.3974609375
-76.904296875
-73.2421875
-64.0869140625
-60.4248046875
-62.255859375
-58.59375
-54.01611328125
-47.607421875
-43.02978515625
-43.02978515625
-41.19873046875
-42.1142578125
-42.1142578125
-40.283203125
-33.87451171875
-32.958984375
-32.04345703125
-34.7900390625
-32.958984375
-19.22607421875
-14.6484375
-18.310546875
-14.6484375
-11.90185546875
-5.4931640625
-1.8310546875
-8.23974609375
-3.662109375
-2.74658203125
-2.74658203125
-6.40869140625
-18.310546875
-21.97265625
-21.97265625
-31.1279296875
-39.36767578125
-40.283203125
-45.7763671875
-52.18505859375
-45.7763671875
-50.35400390625
-57.67822265625
-70.49560546875
-75.0732421875
-75.98876953125
-78.7353515625
-86.0595703125
-94.29931640625
-86.97509765625
-106.201171875
-100.7080078125
-98.876953125
-95.21484375
-98.876953125
-98.876953125
-103.45458984375
-105.28564453125
-101.62353515625
-100.7080078125
-101.62353515625
-107.11669921875
-105.28564453125
-109.86328125
-113.525390625
-105.28564453125
-104.3701171875
-107.11669921875
-106.201171875
-101.62353515625
-98.876953125
-105.28564453125
-108.0322265625
-107.11669921875
-110.77880859375
-108.94775390625
-102.5390625
-115.3564453125
-123.59619140625
-135.498046875
-149.23095703125
-162.04833984375
-173.03466796875
-158.38623046875
-135.498046875
-119.93408203125
-97.96142578125
-56.7626953125
10.986328125
117.1875
227.96630859375
350.64697265625
468.75
613.4033203125
739.74609375
843.20068359375
924.6826171875
945.73974609375
936.58447265625
893.5546875
829.4677734375
698.54736328125
491.63818359375
329.58984375
217.8955078125
108.0322265625
14.6484375
-81.48193359375
-136.41357421875
-186.767578125
-217.8955078125
-213.31787109375
-186.767578125
-157.470703125
-119.0185546875
-86.97509765625
-70.49560546875
-53.1005859375
-53.1005859375
-54.01611328125
-51.26953125
-55.84716796875
-60.4248046875
-62.255859375
-68.66455078125
-67.7490234375
-69.580078125
-69.580078125
-65.00244140625
-64.0869140625
-66.83349609375
-64.0869140625
-67.7490234375
-64.0869140625
-62.255859375
-58.59375
-60.4248046875
-63.17138671875
-63.17138671875
-58.59375
-52.18505859375
-52.18505859375
-55.84716796875
-51.26953125
-49.4384765625
-46.69189453125
-52.18505859375
-46.69189453125
-48.52294921875
-43.9453125
-43.02978515625
-39.36767578125
-39.36767578125
-32.04345703125
-33.87451171875
-35.70556640625
-31.1279296875
-29.296875
-27.4658203125
-24.71923828125
-20.1416015625
-17.39501953125
-20.1416015625
-21.05712890625
-15.56396484375
-12.8173828125
-8.23974609375
-12.8173828125
-9.1552734375
4.57763671875
7.32421875
5.4931640625
-1.8310546875
0
2.74658203125
14.6484375
10.986328125
15.56396484375
21.05712890625
27.4658203125
31.1279296875
32.958984375
26.55029296875
32.958984375
37.53662109375
38.4521484375
43.9453125
58.59375
54.01611328125
59.50927734375
60.4248046875
69.580078125
73.2421875
75.0732421875
86.0595703125
97.96142578125
104.3701171875
99.79248046875
108.94775390625
116.27197265625
122.6806640625
128.173828125
122.6806640625
134.58251953125
145.56884765625
152.89306640625
162.9638671875
163.87939453125
173.9501953125
180.35888671875
185.85205078125
195.9228515625
196.83837890625
206.9091796875
213.31787109375
225.2197265625
225.2197265625
222.47314453125
230.712890625
238.95263671875
243.5302734375
244.44580078125
249.0234375
248.10791015625
249.93896484375
260.92529296875
267.333984375
263.671875
265.5029296875
270.99609375
270.99609375
273.74267578125
270.08056640625
265.5029296875
257.26318359375
250.8544921875
256.34765625
238.037109375
229.79736328125
226.13525390625
214.2333984375
203.2470703125
190.4296875
175.78125
169.37255859375
159.3017578125
138.24462890625
119.0185546875
106.201171875
96.13037109375
95.21484375
82.3974609375
67.7490234375
58.59375
47.607421875
39.36767578125
29.296875
18.310546875
15.56396484375
9.1552734375
0
-10.07080078125
-9.1552734375
-13.73291015625
-17.39501953125
-21.05712890625
-25.634765625
-33.87451171875
-31.1279296875
-24.71923828125
-32.958984375
-35.70556640625
-37.53662109375
-32.958984375
-31.1279296875
-35.70556640625
-39.36767578125
-35.70556640625
-36.62109375
-41.19873046875
-43.02978515625
-43.02978515625
-40.283203125
-42.1142578125
-37.53662109375
-32.958984375
-33.87451171875
-43.02978515625
-50.35400390625
-45.7763671875
-31.1279296875
-35.70556640625
-44.86083984375
-44.86083984375
-41.19873046875
-35.70556640625
-36.62109375
-43.02978515625
-37.53662109375
-39.36767578125
-38.4521484375
-41.19873046875
-39.36767578125
-36.62109375
-33.87451171875
-30.21240234375
-29.296875
-41.19873046875
-34.7900390625
-34.7900390625
-37.53662109375
-34.7900390625
-37.53662109375
-40.283203125
-40.283203125
-39.36767578125
-33.87451171875
-30.21240234375
-34.7900390625
-43.9453125
-31.1279296875
-35.70556640625
-43.02978515625
-42.1142578125
-46.69189453125
-36.62109375
-32.04345703125
-41.19873046875
-42.1142578125
-43.9453125
-36.62109375
-37.53662109375
-44.86083984375
-43.02978515625
-49.4384765625
-48.52294921875
-45.7763671875
-50.35400390625
-52.18505859375
-46.69189453125
-47.607421875
-55.84716796875
-52.18505859375
-56.7626953125
-47.607421875
-45.7763671875
-58.59375
-60.4248046875
-52.18505859375
-54.01611328125
-52.18505859375
-50.35400390625
-59.50927734375
-54.931640625
-54.931640625
-56.7626953125
-57.67822265625
-61.34033203125
-65.00244140625
-64.0869140625
-64.0869140625
-61.34033203125
-57.67822265625
-65.91796875
-71.4111328125
-65.91796875
-68.66455078125
-65.91796875
-65.00244140625
-70.49560546875
-75.0732421875
-64.0869140625
-72.32666015625
-75.0732421875
-69.580078125
-71.4111328125
-73.2421875
-72.32666015625
-71.4111328125
-69.580078125
-63.17138671875
-72.32666015625
-75.98876953125
-69.580078125
-68.66455078125
-75.98876953125
-75.98876953125
-77.81982421875
-78.7353515625
-76.904296875
-72.32666015625
-69.580078125
-77.81982421875
-78.7353515625
-74.15771484375
-73.2421875
-77.81982421875
-84.228515625
-78.7353515625
-78.7353515625
-72.32666015625
-77.81982421875
-79.65087890625
-75.0732421875
-69.580078125
-65.00244140625
-68.66455078125
-77.81982421875
-86.97509765625
-83.31298828125
-79.65087890625
-69.580078125
-79.65087890625
-83.31298828125
-73.2421875
-68.66455078125
-75.0732421875
-78.7353515625
-81.48193359375
-84.228515625
-81.48193359375
-83.31298828125
-82.3974609375
-80.56640625
-75.98876953125
-72.32666015625
-78.7353515625
-81.48193359375
-78.7353515625
-64.0869140625
-63.17138671875
-64.0869140625
-64.0869140625
-56.7626953125
-53.1005859375
-51.26953125
-53.1005859375
-49.4384765625
-47.607421875
-46.69189453125
-41.19873046875
-42.1142578125
-44.86083984375
-36.62109375
-34.7900390625
-23.8037109375
-29.296875
-20.1416015625
-13.73291015625
-10.07080078125
-8.23974609375
-8.23974609375
-7.32421875
-1.8310546875
0
8.23974609375
15.56396484375
7.32421875
0
-8.23974609375
-6.40869140625
-9.1552734375
-11.90185546875
-16.4794921875
-33.87451171875
-42.1142578125
-40.283203125
-42.1142578125
-43.9453125
-56.7626953125
-54.01611328125
-56.7626953125
-73.2421875
-75.98876953125
-83.31298828125
-86.97509765625
-88.80615234375
-89.7216796875
-94.29931640625
-89.7216796875
-89.7216796875
-91.552734375
-94.29931640625
-95.21484375
-101.62353515625
-99.79248046875
-103.45458984375
-104.3701171875
-110.77880859375
-109.86328125
-101.62353515625
-102.5390625
-103.45458984375
-103.45458984375
-104.3701171875
-99.79248046875
-104.3701171875
-112.60986328125
-113.525390625
-110.77880859375
-103.45458984375
-100.7080078125
-107.11669921875
-111.6943359375
-107.11669921875
-112.60986328125
-120.849609375
-140.9912109375
-155.6396484375
-166.6259765625
-155.6396484375
-149.23095703125
-138.24462890625
-119.93408203125
-97.96142578125
-57.67822265625
9.1552734375
114.44091796875
227.96630859375
345.15380859375
474.2431640625
609.7412109375
723.2666015625
797.42431640625
853.271484375
857.84912109375
842.28515625
788.26904296875
703.125
579.52880859375
387.26806640625
252.685546875
159.3017578125
61.34033203125
-20.1416015625
-85.14404296875
-145.56884765625
-192.2607421875
-217.8955078125
-214.2333984375
-211.48681640625
-197.75390625
-181.2744140625
-164.794921875
-138.24462890625
-120.849609375
-102.5390625
-89.7216796875
-78.7353515625
-74.15771484375
-72.32666015625
-75.0732421875
-78.7353515625
-75.0732421875
-75.98876953125
-77.81982421875
-76.904296875
-81.48193359375
-75.98876953125
-77.81982421875
-75.0732421875
-80.56640625
-84.228515625
-81.48193359375
-71.4111328125
-71.4111328125
-67.7490234375
-68.66455078125
-64.0869140625
-66.83349609375
-65.00244140625
-57.67822265625
-67.7490234375
-65.91796875
-57.67822265625
-54.01611328125
-54.931640625
-54.931640625
-51.26953125
-53.1005859375
-49.4384765625
-46.69189453125
-47.607421875
-43.9453125
-41.19873046875
-40.283203125
-37.53662109375
-34.7900390625
-35.70556640625
-37.53662109375
-35.70556640625
-30.21240234375
-27.4658203125
-25.634765625
-26.55029296875
-23.8037109375
-16.4794921875
-15.56396484375
-18.310546875
-5.4931640625
-5.4931640625
-5.4931640625
-7.32421875
-10.07080078125
1.8310546875
0.91552734375
5.4931640625
10.07080078125
20.1416015625
21.05712890625
25.634765625
27.4658203125
30.21240234375
32.04345703125
33.87451171875
37.53662109375
47.607421875
47.607421875
54.01611328125
60.4248046875
66.83349609375
66.83349609375
66.83349609375
68.66455078125
74.15771484375
82.3974609375
86.97509765625
94.29931640625
94.29931640625
100.7080078125
113.525390625
119.93408203125
124.51171875
128.173828125
137.3291015625
149.23095703125
154.72412109375
157.470703125
155.6396484375
170.2880859375
178.52783203125
183.10546875
191.34521484375
191.34521484375
193.17626953125
197.75390625
203.2470703125
203.2470703125
207.82470703125
212.40234375
216.064453125
216.064453125
222.47314453125
226.13525390625
231.62841796875
234.375
241.69921875
239.8681640625
243.5302734375
238.95263671875
236.2060546875
235.29052734375
220.64208984375
217.8955078125
225.2197265625
213.31787109375
195.00732421875
185.85205078125
180.35888671875
168.45703125
158.38623046875
149.23095703125
122.6806640625
113.525390625
108.0322265625
90.63720703125
77.81982421875
69.580078125
57.67822265625
47.607421875
42.1142578125
34.7900390625
18.310546875
9.1552734375
9.1552734375
1.8310546875
-2.74658203125
-10.07080078125
-24.71923828125
-25.634765625
-27.4658203125
-32.04345703125
-41.19873046875
-43.9453125
-39.36767578125
-33.87451171875
-37.53662109375
-47.607421875
-52.18505859375
-53.1005859375
-54.931640625
-56.7626953125
-60.4248046875
-54.931640625
-54.01611328125
-55.84716796875
-60.4248046875
-61.34033203125
-57.67822265625
-57.67822265625
-53.1005859375
-51.26953125
-55.84716796875
-58.59375
-53.1005859375
-54.931640625
-54.01611328125
-56.7626953125
-51.26953125
-48.52294921875
-42.1142578125
-45.7763671875
-54.01611328125
-44.86083984375
-44.86083984375
-50.35400390625
-44.86083984375
-50.35400390625
-59.50927734375
-53.1005859375
-53.1005859375
-51.26953125
-54.01611328125
-58.59375
-51.26953125
-45.7763671875
-51.26953125
-52.18505859375
-44.86083984375
-54.931640625
-51.26953125
-45.7763671875
-50.35400390625
-54.931640625
-50.35400390625
-47.607421875
-47.607421875
-50.35400390625
-50.35400390625
-47.607421875
-50.35400390625
-48.52294921875
-52.18505859375
-56.7626953125
-54.931640625
-49.4384765625
-51.26953125
-60.4248046875
-65.91796875
-67.7490234375
-63.17138671875
-65.91796875
-65.91796875
-65.91796875
-67.7490234375
-62.255859375
-67.7490234375
-68.66455078125
-73.2421875
-76.904296875
-67.7490234375
-71.4111328125
-74.15771484375
-71.4111328125
-66.83349609375
-68.66455078125
-67.7490234375
-72.32666015625
-70.49560546875
-67.7490234375
-63.17138671875
-65.91796875
-69.580078125
-67.7490234375
-69.580078125
-68.66455078125
-67.7490234375
-75.0732421875
-75.0732421875
-68.66455078125
-65.00244140625
-64.0869140625
-70.49560546875
-74.15771484375
-79.65087890625
-75.0732421875
-70.49560546875
-72.32666015625
-66.83349609375
-67.7490234375
-70.49560546875
-75.0732421875
-79.65087890625
-77.81982421875
-77.81982421875
-80.56640625
-82.3974609375
-85.14404296875
-81.48193359375
-86.0595703125
-83.31298828125
-71.4111328125
-84.228515625
-89.7216796875
-84.228515625
-74.15771484375
-70.49560546875
-70.49560546875
-78.7353515625
-77.81982421875
-75.0732421875
-75.0732421875
-83.31298828125
-77.81982421875
-73.2421875
-75.98876953125
-78.7353515625
-74.15771484375
-71.4111328125
-72.32666015625
-66.83349609375
-71.4111328125
-78.7353515625
-78.7353515625
-74.15771484375
-74.15771484375
-71.4111328125
-77.81982421875
-80.56640625
-75.98876953125
-78.7353515625
-75.98876953125
-75.0732421875
-74.15771484375
-72.32666015625
-72.32666015625
-68.66455078125
-71.4111328125
-62.255859375
-63.17138671875
-55.84716796875
-56.7626953125
-53.1005859375
-41.19873046875
-38.4521484375
-38.4521484375
-36.62109375
-43.9453125
-36.62109375
-39.36767578125
-33.87451171875
-23.8037109375
-24.71923828125
-21.97265625
-24.71923828125
-21.97265625
-12.8173828125
-13.73291015625
-10.07080078125
0.91552734375
6.40869140625
2.74658203125
0
6.40869140625
7.32421875
7.32421875
-0.91552734375
-8.23974609375
-12.8173828125
-20.1416015625
-20.1416015625
-16.4794921875
-30.21240234375
-32.958984375
-44.86083984375
-45.7763671875
-45.7763671875
-52.18505859375
-62.255859375
-67.7490234375
-74.15771484375
-83.31298828125
-92.46826171875
-94.29931640625
-90.63720703125
-96.13037109375
-96.13037109375
-97.96142578125
-102.5390625
-97.96142578125
-94.29931640625
-96.13037109375
-101.62353515625
-104.3701171875
-101.62353515625
-93.3837890625
-99.79248046875
-98.876953125
-102.5390625
-100.7080078125
-101.62353515625
-97.0458984375
-105.28564453125
-102.5390625
-99.79248046875
-98.876953125
-99.79248046875
-103.45458984375
-101.62353515625
-104.3701171875
-108.94775390625
-114.44091796875
-121.76513671875
-120.849609375
-127.25830078125
-143.73779296875
-157.470703125
-170.2880859375
-166.6259765625
-156.55517578125
-141.90673828125
-118.10302734375
-93.3837890625
-51.26953125
22.88818359375
137.3291015625
261.8408203125
373.53515625
498.96240234375
645.44677734375
758.97216796875
860.595703125
910.94970703125
918.27392578125
910.94970703125
864.2578125
781.8603515625
640.869140625
437.6220703125
297.54638671875
202.33154296875
97.0458984375
-5.4931640625
-89.7216796875
-149.23095703125
-185.85205078125
-214.2333984375
-218.81103515625
-201.416015625
-175.78125
-147.39990234375
-117.1875
-93.3837890625
-76.904296875
-68.66455078125
-66.83349609375
-71.4111328125
-77.81982421875
-76.904296875
-78.7353515625
-76.904296875
-75.0732421875
-81.48193359375
-93.3837890625
-90.63720703125
-80.56640625
-78.7353515625
-83.31298828125
-78.7353515625
-75.98876953125
-70.49560546875
-68.66455078125
-69.580078125
-76.904296875
-71.4111328125
-65.00244140625
-62.255859375
-63.17138671875
-69.580078125
-67.7490234375
-56.7626953125
-56.7626953125
-53.1005859375
-54.01611328125
-51.26953125
-50.35400390625
-48.52294921875
-46.69189453125
-46.69189453125
-47.607421875
-34.7900390625
-37.53662109375
-47.607421875
-45.7763671875
-32.04345703125
-21.97265625
-24.71923828125
-35.70556640625
-25.634765625
-19.22607421875
-26.55029296875
-27.4658203125
-25.634765625
-23.8037109375
-14.6484375
-2.74658203125
-8.23974609375
-10.07080078125
-4.57763671875
0
4.57763671875
4.57763671875
0.91552734375
2.74658203125
10.07080078125
21.97265625
24.71923828125
19.22607421875
17.39501953125
23.8037109375
32.958984375
46.69189453125
43.9453125
44.86083984375
49.4384765625
56.7626953125
61.34033203125
61.34033203125
68.66455078125
74.15771484375
80.56640625
85.14404296875
87.890625
95.21484375
97.96142578125
110.77880859375
120.849609375
116.27197265625
117.1875
129.08935546875
135.498046875
146.484375
157.470703125
162.9638671875
162.04833984375
168.45703125
173.03466796875
180.35888671875
185.85205078125
191.34521484375
209.65576171875
211.48681640625
208.740234375
214.2333984375
221.5576171875
227.05078125
232.5439453125
232.5439453125
237.12158203125
245.361328125
249.0234375
248.10791015625
251.77001953125
249.93896484375
253.60107421875
249.0234375
252.685546875
251.77001953125
248.10791015625
245.361328125
245.361328125
234.375
225.2197265625
219.7265625
209.65576171875
189.51416015625
175.78125
168.45703125
163.87939453125
150.146484375
137.3291015625
128.173828125
106.201171875
93.3837890625
82.3974609375
75.98876953125
62.255859375
43.9453125
35.70556640625
31.1279296875
21.05712890625
15.56396484375
3.662109375
-7.32421875
-4.57763671875
-8.23974609375
-11.90185546875
-15.56396484375
-21.97265625
-28.38134765625
-26.55029296875
-32.958984375
-40.283203125
-46.69189453125
-43.9453125
-40.283203125
-39.36767578125
-45.7763671875
-47.607421875
-47.607421875
-44.86083984375
-52.18505859375
-57.67822265625
-52.18505859375
-52.18505859375
-49.4384765625
-56.7626953125
-59.50927734375
-56.7626953125
-57.67822265625
-50.35400390625
-46.69189453125
-57.67822265625
-55.84716796875
-52.18505859375
-44.86083984375
-39.36767578125
-49.4384765625
-49.4384765625
-41.19873046875
-36.62109375
-45.7763671875
-52.18505859375
-47.607421875
-43.02978515625
-41.19873046875
-32.958984375
-41.19873046875
-52.18505859375
-49.4384765625
-40.283203125
-35.70556640625
-43.9453125
-44.86083984375
-43.02978515625
-40.283203125
-38.4521484375
-39.36767578125
-41.19873046875
-44.86083984375
-37.53662109375
-37.53662109375
-41.19873046875
-43.9453125
-37.53662109375
-40.283203125
-36.62109375
-42.1142578125
-43.9453125
-41.19873046875
-42.1142578125
-45.7763671875
-48.52294921875
-43.02978515625
-41.19873046875
-45.7763671875
-43.9453125
-48.52294921875
-54.931640625
-49.4384765625
-43.9453125
-50.35400390625
-50.35400390625
-46.69189453125
-50.35400390625
-48.52294921875
-52.18505859375
-51.26953125
-53.1005859375
-62.255859375
-52.18505859375
-51.26953125
-55.84716796875
-59.50927734375
-49.4384765625
-54.01611328125
-59.50927734375
-57.67822265625
-55.84716796875
-57.67822265625
-61.34033203125
-65.00244140625
-63.17138671875
-57.67822265625
-54.01611328125
-54.931640625
-56.7626953125
-65.91796875
-65.91796875
-69.580078125
-68.66455078125
-67.7490234375
-73.2421875
-68.66455078125
-63.17138671875
-65.91796875
-62.255859375
-67.7490234375
-71.4111328125
-69.580078125
-71.4111328125
-72.32666015625
-84.228515625
-78.7353515625
-73.2421875
-66.83349609375
-65.91796875
-71.4111328125
-75.0732421875
-68.66455078125
-71.4111328125
-75.0732421875
-75.0732421875
-71.4111328125
-65.91796875
-70.49560546875
-78.7353515625
-76.904296875
-76.904296875
-67.7490234375
-67.7490234375
-72.32666015625
-74.15771484375
-80.56640625
-72.32666015625
-71.4111328125
-75.0732421875
-72.32666015625
-73.2421875
-70.49560546875
-74.15771484375
-76.904296875
-72.32666015625
-78.7353515625
-75.98876953125
-69.580078125
-65.91796875
-70.49560546875
-71.4111328125
-76.904296875
-73.2421875
-64.0869140625
-73.2421875
-71.4111328125
-69.580078125
-70.49560546875
-69.580078125
-82.3974609375
-75.98876953125
-72.32666015625
-65.00244140625
-64.0869140625
-72.32666015625
-72.32666015625
-74.15771484375
-66.83349609375
-68.66455078125
-70.49560546875
-67.7490234375
-65.91796875
-57.67822265625
-50.35400390625
-49.4384765625
-50.35400390625
-50.35400390625
-37.53662109375
-35.70556640625
-50.35400390625
-45.7763671875
-47.607421875
-41.19873046875
-24.71923828125
-25.634765625
-29.296875
-22.88818359375
-25.634765625
-28.38134765625
-20.1416015625
-15.56396484375
-12.8173828125
-10.986328125
-10.07080078125
-3.662109375
-10.07080078125
-2.74658203125
-3.662109375
-17.39501953125
-10.986328125
-13.73291015625
-27.4658203125
-36.62109375
-33.87451171875
-40.283203125
-44.86083984375
-49.4384765625
-52.18505859375
-63.17138671875
-67.7490234375
-73.2421875
-68.66455078125
-78.7353515625
-99.79248046875
-105.28564453125
-103.45458984375
-104.3701171875
-109.86328125
-113.525390625
-117.1875
-120.849609375
-124.51171875
-119.0185546875
-115.3564453125
-114.44091796875
-116.27197265625
-115.3564453125
-118.10302734375
-119.0185546875
-126.3427734375
-126.3427734375
-126.3427734375
-123.59619140625
-120.849609375
-123.59619140625
-123.59619140625
-129.08935546875
-126.3427734375
-123.59619140625
-132.75146484375
-120.849609375
-126.3427734375
-129.08935546875
-121.76513671875
-124.51171875
-130.0048828125
-133.6669921875
-139.16015625
-154.72412109375
-173.9501953125
-184.02099609375
-182.18994140625
-173.03466796875
-156.55517578125
-148.3154296875
-125.42724609375
-88.80615234375
-24.71923828125
74.15771484375
187.68310546875
303.03955078125
423.88916015625
567.626953125
699.462890625
815.73486328125
887.14599609375
915.52734375
904.541015625
879.82177734375
809.326171875
681.15234375
488.8916015625
319.51904296875
195.9228515625
89.7216796875
-7.32421875
-108.94775390625
-171.20361328125
-209.65576171875
-249.93896484375
-249.93896484375
-224.30419921875
-178.52783203125
-157.470703125
-119.93408203125
-104.3701171875
-97.0458984375
-91.552734375
-106.201171875
-93.3837890625
-95.21484375
-89.7216796875
-96.13037109375
-97.0458984375
-103.45458984375
-111.6943359375
-115.3564453125
-108.94775390625
-99.79248046875
-108.0322265625
-111.6943359375
-99.79248046875
-101.62353515625
-109.86328125
-110.77880859375
-106.201171875
-106.201171875
-97.0458984375
-98.876953125
-98.876953125
-93.3837890625
-97.0458984375
-95.21484375
-94.29931640625
-100.7080078125
-97.96142578125
-97.96142578125
-85.14404296875
-78.7353515625
-85.14404296875
-88.80615234375
-88.80615234375
-83.31298828125
-82.3974609375
-91.552734375
-81.48193359375
-72.32666015625
-75.0732421875
-77.81982421875
-66.83349609375
-57.67822265625
-58.59375
-56.7626953125
-54.931640625
-54.931640625
-54.01611328125
-47.607421875
-53.1005859375
-52.18505859375
-54.931640625
-45.7763671875
-41.19873046875
-45.7763671875
-40.283203125
-37.53662109375
-39.36767578125
-36.62109375
-32.958984375
-32.958984375
-32.04345703125
-22.88818359375
-18.310546875
-12.8173828125
-13.73291015625
-16.4794921875
-12.8173828125
-5.4931640625
-2.74658203125
0
-1.8310546875
7.32421875
16.4794921875
26.55029296875
35.70556640625
41.19873046875
48.52294921875
43.02978515625
47.607421875
50.35400390625
57.67822265625
63.17138671875
67.7490234375
72.32666015625
74.15771484375
84.228515625
102.5390625
109.86328125
116.27197265625
123.59619140625
122.6806640625
127.25830078125
138.24462890625
140.9912109375
152.89306640625
154.72412109375
159.3017578125
168.45703125
176.69677734375
182.18994140625
180.35888671875
183.10546875
195.00732421875
197.75390625
193.17626953125
190.4296875
194.091796875
194.091796875
195.00732421875
205.078125
195.00732421875
195.9228515625
188.5986328125
186.767578125
190.4296875
182.18994140625
173.9501953125
165.71044921875
162.04833984375
151.9775390625
130.0048828125
116.27197265625
115.3564453125
106.201171875
95.21484375
78.7353515625
59.50927734375
50.35400390625
35.70556640625
10.986328125
3.662109375
-10.986328125
-26.55029296875
-32.04345703125
-32.958984375
-43.9453125
-50.35400390625
-49.4384765625
-52.18505859375
-54.01611328125
-58.59375
-69.580078125
-76.904296875
-93.3837890625
-102.5390625
-111.6943359375
-110.77880859375
-114.44091796875
-118.10302734375
-115.3564453125
-115.3564453125
-114.44091796875
-108.94775390625
-103.45458984375
-111.6943359375
-122.6806640625
-122.6806640625
-123.59619140625
-124.51171875
-128.173828125
-135.498046875
-133.6669921875
-125.42724609375
-119.0185546875
-117.1875
-125.42724609375
-128.173828125
-118.10302734375
-130.92041015625
-134.58251953125
-131.8359375
-126.3427734375
-122.6806640625
-119.93408203125
-130.0048828125
-137.3291015625
-132.75146484375
-129.08935546875
-127.25830078125
-122.6806640625
-119.93408203125
-120.849609375
-126.3427734375
-117.1875
-125.42724609375
-131.8359375
-130.0048828125
-124.51171875
-117.1875
-120.849609375
-121.76513671875
-121.76513671875
-118.10302734375
-117.1875
-130.0048828125
-126.3427734375
-127.25830078125
-122.6806640625
-130.92041015625
-131.8359375
-135.498046875
-139.16015625
-138.24462890625
-137.3291015625
-138.24462890625
-131.8359375
-131.8359375
-125.42724609375
-129.08935546875
-128.173828125
-122.6806640625
-130.0048828125
-134.58251953125
-145.56884765625
-151.06201171875
-147.39990234375
-143.73779296875
-141.90673828125
-147.39990234375
-153.80859375
-157.470703125
-159.3017578125
-149.23095703125
-140.07568359375
-144.6533203125
-142.822265625
-136.41357421875
-135.498046875
-131.8359375
-132.75146484375
-133.6669921875
-139.16015625
-142.822265625
-140.07568359375
-149.23095703125
-150.146484375
-144.6533203125
-149.23095703125
-142.822265625
-147.39990234375
-154.72412109375
-161.1328125
-152.89306640625
-152.89306640625
-145.56884765625
-155.6396484375
-156.55517578125
-156.55517578125
-149.23095703125
-145.56884765625
-151.06201171875
-143.73779296875
-156.55517578125
-152.89306640625
-140.9912109375
-138.24462890625
-139.16015625
-141.90673828125
-142.822265625
-143.73779296875
-147.39990234375
-149.23095703125
-147.39990234375
-140.9912109375
-138.24462890625
-133.6669921875
-133.6669921875
-137.3291015625
-138.24462890625
-133.6669921875
-135.498046875
-140.9912109375
-140.9912109375
-145.56884765625
-140.07568359375
-139.16015625
-129.08935546875
-121.76513671875
-126.3427734375
-113.525390625
-107.11669921875
-110.77880859375
-130.0048828125
-124.51171875
-108.94775390625
-105.28564453125
-114.44091796875
-108.0322265625
-93.3837890625
-86.97509765625
-88.80615234375
-75.98876953125
-81.48193359375
-85.14404296875
-66.83349609375
-67.7490234375
-78.7353515625
-74.15771484375
-64.0869140625
-64.0869140625
-71.4111328125
-65.00244140625
-50.35400390625
-40.283203125
-48.52294921875
-45.7763671875
-54.01611328125
-61.34033203125
-58.59375
-71.4111328125
-96.13037109375
-97.96142578125
-97.96142578125
-99.79248046875
-95.21484375
-104.3701171875
-109.86328125
-113.525390625
-120.849609375
-128.173828125
-133.6669921875
-134.58251953125
-138.24462890625
-137.3291015625
-134.58251953125
-146.484375
-156.55517578125
-146.484375
-147.39990234375
-151.06201171875
-161.1328125
-157.470703125
-164.794921875
-164.794921875
-156.55517578125
-148.3154296875
-151.06201171875
-156.55517578125
-152.89306640625
-147.39990234375
-153.80859375
-149.23095703125
-152.89306640625
-156.55517578125
-158.38623046875
-169.37255859375
-167.54150390625
-162.9638671875
-147.39990234375
-148.3154296875
-160.21728515625
-164.794921875
-171.20361328125
-178.52783203125
-193.17626953125
-214.2333984375
-216.064453125
-212.40234375
-204.16259765625
-181.2744140625
-162.9638671875
-140.07568359375
-107.11669921875
-37.53662109375
80.56640625
194.091796875
304.87060546875
433.04443359375
585.9375
699.462890625
781.8603515625
836.7919921875
839.53857421875
821.22802734375
773.62060546875
695.80078125
554.8095703125
367.12646484375
238.95263671875
142.822265625
44.86083984375
-46.69189453125
-135.498046875
-211.48681640625
-256.34765625
-285.64453125
-277.40478515625
-278.3203125
-249.0234375
-211.48681640625
-183.10546875
-154.72412109375
-133.6669921875
-120.849609375
-118.10302734375
-122.6806640625
-126.3427734375
-126.3427734375
-131.8359375
-127.25830078125
-134.58251953125
-135.498046875
-136.41357421875
-137.3291015625
-140.9912109375
-140.07568359375
-130.92041015625
-131.8359375
-123.59619140625
-124.51171875
-121.76513671875
-110.77880859375
-120.849609375
-113.525390625
-108.0322265625
-115.3564453125
-119.0185546875
-114.44091796875
-113.525390625
-118.10302734375
-105.28564453125
-113.525390625
-111.6943359375
-99.79248046875
-97.0458984375
-97.96142578125
-93.3837890625
-86.0595703125
-86.0595703125
-77.81982421875
-85.14404296875
-85.14404296875
-83.31298828125
-78.7353515625
-78.7353515625
-79.65087890625
-80.56640625
-76.904296875
-65.91796875
-65.91796875
-66.83349609375
-53.1005859375
-48.52294921875
-43.9453125
-54.931640625
-52.18505859375
-44.86083984375
-34.7900390625
-19.22607421875
-15.56396484375
-28.38134765625
-35.70556640625
-38.4521484375
-28.38134765625
-21.05712890625
-21.05712890625
-23.8037109375
-10.07080078125
2.74658203125
-5.4931640625
-0.91552734375
14.6484375
15.56396484375
16.4794921875
26.55029296875
24.71923828125
32.958984375
28.38134765625
37.53662109375
43.9453125
38.4521484375
51.26953125
77.81982421875
105.28564453125
91.552734375
79.65087890625
91.552734375
80.56640625
95.21484375
122.6806640625
126.3427734375
110.77880859375
119.93408203125
131.8359375
134.58251953125
135.498046875
139.16015625
138.24462890625
155.6396484375
146.484375
146.484375
157.470703125
142.822265625
154.72412109375
159.3017578125
162.04833984375
164.794921875
176.69677734375
185.85205078125
186.767578125
191.34521484375
199.5849609375
200.50048828125
195.9228515625
189.51416015625
193.17626953125
197.75390625
199.5849609375
199.5849609375
195.00732421875
178.52783203125
174.86572265625
181.2744140625
173.9501953125
153.80859375
131.8359375
127.25830078125
126.3427734375
116.27197265625
112.60986328125
81.48193359375
58.59375
59.50927734375
51.26953125
45.7763671875
37.53662109375
16.4794921875
-0.91552734375
8.23974609375
9.1552734375
-17.39501953125
-32.04345703125
-34.7900390625
-30.21240234375
-33.87451171875
-41.19873046875
-49.4384765625
-49.4384765625
-43.9453125
-52.18505859375
-60.4248046875
-65.91796875
-69.580078125
-69.580078125
-68.66455078125
-65.91796875
-75.98876953125
-76.904296875
-69.580078125
-65.91796875
-67.7490234375
-56.7626953125
-52.18505859375
-57.67822265625
-64.0869140625
-57.67822265625
-65.00244140625
-64.0869140625
-66.83349609375
-69.580078125
-60.4248046875
-58.59375
-55.84716796875
-49.4384765625
-59.50927734375
-64.0869140625
-57.67822265625
-64.0869140625
-62.255859375
-55.84716796875
-51.26953125
-42.1142578125
-36.62109375
-38.4521484375
-54.01611328125
-60.4248046875
-65.91796875
-53.1005859375
-44.86083984375
-43.02978515625
-55.84716796875
-61.34033203125
-48.52294921875
-37.53662109375
-54.01611328125
-64.0869140625
-46.69189453125
-39.36767578125
-35.70556640625
-43.02978515625
-53.1005859375
-65.00244140625
-66.83349609375
-64.0869140625
-44.86083984375
-43.9453125
-43.9453125
-55.84716796875
-59.50927734375
-54.01611328125
-64.0869140625
-59.50927734375
-62.255859375
-53.1005859375
-42.1142578125
-60.4248046875
-52.18505859375
-54.01611328125
-45.7763671875
-60.4248046875
-67.7490234375
-66.83349609375
-66.83349609375
-76.904296875
-75.98876953125
-75.98876953125
-73.2421875
-66.83349609375
-59.50927734375
-72.32666015625
-74.15771484375
-66.83349609375
-69.580078125
-70.49560546875
-72.32666015625
-88.80615234375
-81.48193359375
-75.0732421875
-77.81982421875
-81.48193359375
-76.904296875
-81.48193359375
-93.3837890625
-80.56640625
-94.29931640625
-87.890625
-102.5390625
-98.876953125
-80.56640625
-88.80615234375
-77.81982421875
-86.97509765625
-97.0458984375
-93.3837890625
-102.5390625
-99.79248046875
-97.96142578125
-95.21484375
-100.7080078125
-83.31298828125
-80.56640625
-86.0595703125
-78.7353515625
-80.56640625
-72.32666015625
-60.4248046875
-67.7490234375
-69.580078125
-57.67822265625
-66.83349609375
-86.97509765625
-73.2421875
-57.67822265625
-54.931640625
-49.4384765625
-51.26953125
-44.86083984375
-40.283203125
-34.7900390625
-24.71923828125
-27.4658203125
-29.296875
-10.07080078125
-6.40869140625
-23.8037109375
-34.7900390625
-17.39501953125
-6.40869140625
-10.07080078125
-19.22607421875
-22.88818359375
-37.53662109375
-39.36767578125
-35.70556640625
-47.607421875
-56.7626953125
-54.01611328125
-54.931640625
-63.17138671875
-71.4111328125
-68.66455078125
-77.81982421875
-93.3837890625
-106.201171875
-119.0185546875
-122.6806640625
-114.44091796875
-119.93408203125
-122.6806640625
-116.27197265625
-122.6806640625
-127.25830078125
-128.173828125
-130.92041015625
-127.25830078125
-134.58251953125
-136.41357421875
-135.498046875
-135.498046875
-136.41357421875
-138.24462890625
-146.484375
-153.80859375
-152.89306640625
-140.9912109375
-148.3154296875
-133.6669921875
-133.6669921875
-136.41357421875
-147.39990234375
-153.80859375
-136.41357421875
-132.75146484375
-139.16015625
-156.55517578125
-155.6396484375
-154.72412109375
-161.1328125
-170.2880859375
-186.767578125
-217.8955078125
-216.064453125
-210.5712890625
-191.34521484375
-177.6123046875
-163.87939453125
-125.42724609375
-64.0869140625
28.38134765625
149.23095703125
260.92529296875
378.11279296875
520.01953125
648.193359375
741.5771484375
804.74853515625
815.73486328125
803.8330078125
759.8876953125
698.54736328125
567.626953125
386.3525390625
245.361328125
145.56884765625
58.59375
-29.296875
-106.201171875
-161.1328125
-216.97998046875
-248.10791015625
-255.43212890625
-263.671875
-248.10791015625
-227.05078125
-203.2470703125
-189.51416015625
-169.37255859375
-145.56884765625
-135.498046875
-122.6806640625
-119.0185546875
-122.6806640625
-120.849609375
-119.93408203125
-115.3564453125
-126.3427734375
-122.6806640625
-122.6806640625
-115.3564453125
-117.1875
-119.0185546875
-122.6806640625
-121.76513671875
-116.27197265625
-120.849609375
-117.1875
-114.44091796875
-110.77880859375
-114.44091796875
-116.27197265625
-108.94775390625
-97.96142578125
-108.94775390625
-104.3701171875
-101.62353515625
-99.79248046875
-92.46826171875
-93.3837890625
-92.46826171875
-87.890625
-91.552734375
-83.31298828125
-78.7353515625
-74.15771484375
-75.98876953125
-75.0732421875
-71.4111328125
-71.4111328125
-68.66455078125
-67.7490234375
-61.34033203125
-64.0869140625
-54.01611328125
-55.84716796875
-54.01611328125
-60.4248046875
-47.607421875
-40.283203125
-37.53662109375
-33.87451171875
-35.70556640625
-36.62109375
-40.283203125
-24.71923828125
-22.88818359375
-34.7900390625
-24.71923828125
-12.8173828125
-13.73291015625
-13.73291015625
-2.74658203125
-3.662109375
-2.74658203125
4.57763671875
18.310546875
17.39501953125
17.39501953125
20.1416015625
26.55029296875
31.1279296875
33.87451171875
29.296875
41.19873046875
44.86083984375
55.84716796875
54.931640625
66.83349609375
77.81982421875
75.0732421875
78.7353515625
88.80615234375
95.21484375
99.79248046875
107.11669921875
108.94775390625
111.6943359375
128.173828125
129.08935546875
138.24462890625
144.6533203125
136.41357421875
144.6533203125
158.38623046875
169.37255859375
171.20361328125
172.119140625
171.20361328125
178.52783203125
192.2607421875
186.767578125
183.10546875
189.51416015625
197.75390625
206.9091796875
212.40234375
209.65576171875
211.48681640625
211.48681640625
215.14892578125
214.2333984375
211.48681640625
202.33154296875
199.5849609375
200.50048828125
189.51416015625
179.443359375
170.2880859375
159.3017578125
144.6533203125
139.16015625
134.58251953125
121.76513671875
109.86328125
100.7080078125
81.48193359375
75.98876953125
65.00244140625
48.52294921875
47.607421875
32.958984375
20.1416015625
12.8173828125
3.662109375
-4.57763671875
-10.986328125
-17.39501953125
-21.05712890625
-18.310546875
-29.296875
-34.7900390625
-35.70556640625
-35.70556640625
-35.70556640625
-37.53662109375
-39.36767578125
-45.7763671875
-47.607421875
-49.4384765625
-56.7626953125
-52.18505859375
-58.59375
-56.7626953125
-48.52294921875
-50.35400390625
-52.18505859375
-48.52294921875
-42.1142578125
-49.4384765625
-54.01611328125
-52.18505859375
-52.18505859375
-48.52294921875
-42.1142578125
-40.283203125
-37.53662109375
-46.69189453125
-37.53662109375
-43.9453125
-44.86083984375
-40.283203125
-32.958984375
-35.70556640625
-35.70556640625
-34.7900390625
-31.1279296875
-41.19873046875
-29.296875
-21.97265625
-21.97265625
-23.8037109375
-22.88818359375
-24.71923828125
-23.8037109375
-20.1416015625
-19.22607421875
-23.8037109375
-22.88818359375
-21.97265625
-18.310546875
-21.05712890625
-21.05712890625
-21.97265625
-16.4794921875
-14.6484375
-17.39501953125
-21.05712890625
-18.310546875
-18.310546875
-12.8173828125
-14.6484375
-17.39501953125
-14.6484375
-14.6484375
-21.05712890625
-12.8173828125
-16.4794921875
-19.22607421875
-14.6484375
-14.6484375
-19.22607421875
-19.22607421875
-18.310546875
-21.97265625
-13.73291015625
-13.73291015625
-21.97265625
-20.1416015625
-25.634765625
-21.97265625
-16.4794921875
-21.05712890625
-23.8037109375
-26.55029296875
-26.55029296875
-26.55029296875
-24.71923828125
-25.634765625
-21.97265625
-21.05712890625
-19.22607421875
-18.310546875
-7.32421875
-13.73291015625
-9.1552734375
-0.91552734375
-0.91552734375
5.4931640625
6.40869140625
2.74658203125
1.8310546875
9.1552734375
10.986328125
9.1552734375
11.90185546875
15.56396484375
16.4794921875
20.1416015625
32.04345703125
30.21240234375
23.8037109375
30.21240234375
37.53662109375
41.19873046875
45.7763671875
43.02978515625
44.86083984375
42.1142578125
34.7900390625
26.55029296875
17.39501953125
11.90185546875
11.90185546875
6.40869140625
3.662109375
-2.74658203125
-7.32421875
-8.23974609375
-8.23974609375
-9.1552734375
-22.88818359375
-36.62109375
-43.9453125
-44.86083984375
-53.1005859375
-62.255859375
-65.00244140625
-63.17138671875
-61.34033203125
-68.66455078125
-69.580078125
-68.66455078125
-67.7490234375
-65.91796875
-72.32666015625
-80.56640625
-85.14404296875
-77.81982421875
-80.56640625
-78.7353515625
-65.00244140625
-76.904296875
-75.98876953125
-73.2421875
-75.98876953125
-73.2421875
-71.4111328125
-78.7353515625
-75.0732421875
-82.3974609375
-82.3974609375
-82.3974609375
-88.80615234375
-80.56640625
-86.0595703125
-93.3837890625
-97.0458984375
-113.525390625
-136.41357421875
-146.484375
-151.9775390625
-146.484375
-137.3291015625
-126.3427734375
-97.0458984375
-67.7490234375
-25.634765625
67.7490234375
184.9365234375
297.54638671875
425.72021484375
562.1337890625
698.54736328125
797.42431640625
878.90625
914.61181640625
903.62548828125
884.3994140625
822.1435546875
729.67529296875
561.21826171875
379.94384765625
257.26318359375
179.443359375
83.31298828125
-10.986328125
-95.21484375
-156.55517578125
-195.9228515625
-207.82470703125
-213.31787109375
-195.00732421875
-169.37255859375
-140.9912109375
-123.59619140625
-97.0458984375
-75.0732421875
-66.83349609375
-65.00244140625
-64.0869140625
-65.91796875
-66.83349609375
-67.7490234375
-69.580078125
-72.32666015625
-72.32666015625
-66.83349609375
-65.91796875
-75.98876953125
-78.7353515625
-75.0732421875
-64.0869140625
-63.17138671875
-66.83349609375
-65.00244140625
-56.7626953125
-61.34033203125
-65.91796875
-55.84716796875
-54.931640625
-54.931640625
-62.255859375
-56.7626953125
-51.26953125
-49.4384765625
-51.26953125
-53.1005859375
-48.52294921875
-44.86083984375
-39.36767578125
-42.1142578125
-40.283203125
-40.283203125
-33.87451171875
-36.62109375
-35.70556640625
-36.62109375
-32.04345703125
-32.04345703125
-28.38134765625
-27.4658203125
-30.21240234375
-27.4658203125
-23.8037109375
-21.97265625
-19.22607421875
-14.6484375
-12.8173828125
-3.662109375
0
2.74658203125
0.91552734375
4.57763671875
9.1552734375
10.986328125
14.6484375
10.986328125
15.56396484375
21.05712890625
24.71923828125
28.38134765625
30.21240234375
26.55029296875
36.62109375
48.52294921875
38.4521484375
40.283203125
49.4384765625
56.7626953125
54.931640625
69.580078125
70.49560546875
74.15771484375
81.48193359375
93.3837890625
93.3837890625
96.13037109375
104.3701171875
113.525390625
121.76513671875
124.51171875
133.6669921875
145.56884765625
147.39990234375
145.56884765625
148.3154296875
158.38623046875
168.45703125
172.119140625
172.119140625
176.69677734375
199.5849609375
196.83837890625
205.99365234375
207.82470703125
210.5712890625
208.740234375
215.14892578125
217.8955078125
225.2197265625
228.8818359375
226.13525390625
228.8818359375
238.95263671875
241.69921875
237.12158203125
227.96630859375
233.45947265625
236.2060546875
233.45947265625
224.30419921875
212.40234375
211.48681640625
205.078125
199.5849609375
184.02099609375
174.86572265625
160.21728515625
139.16015625
141.90673828125
126.3427734375
115.3564453125
97.0458984375
89.7216796875
86.0595703125
73.2421875
55.84716796875
42.1142578125
37.53662109375
30.21240234375
18.310546875
10.986328125
5.4931640625
-5.4931640625
-10.07080078125
-11.90185546875
-24.71923828125
-27.4658203125
-28.38134765625
-35.70556640625
-41.19873046875
-43.9453125
-35.70556640625
-41.19873046875
-48.52294921875
-45.7763671875
-51.26953125
-54.01611328125
-53.1005859375
-54.931640625
-54.931640625
-60.4248046875
-58.59375
-52.18505859375
-49.4384765625
-51.26953125
-55.84716796875
-53.1005859375
-53.1005859375
-50.35400390625
-62.255859375
-55.84716796875
-57.67822265625
-53.1005859375
-54.931640625
-55.84716796875
-57.67822265625
-50.35400390625
-48.52294921875
-54.931640625
-51.26953125
-47.607421875
-49.4384765625
-46.69189453125
-48.52294921875
-50.35400390625
-49.4384765625
-49.4384765625
-40.283203125
-37.53662109375
-39.36767578125
-52.18505859375
-58.59375
-41.19873046875
-36.62109375
-47.607421875
-46.69189453125
-43.02978515625
-43.02978515625
-47.607421875
-53.1005859375
-49.4384765625
-47.607421875
-47.607421875
-43.9453125
-45.7763671875
-45.7763671875
-48.52294921875
-50.35400390625
-44.86083984375
-46.69189453125
-54.01611328125
-54.01611328125
-54.01611328125
-52.18505859375
-54.931640625
-55.84716796875
-56.7626953125
-54.01611328125
-49.4384765625
-54.931640625
-52.18505859375
-52.18505859375
-42.1142578125
-41.19873046875
-43.9453125
-37.53662109375
-32.958984375
-31.1279296875
-29.296875
-30.21240234375
-29.296875
-28.38134765625
-26.55029296875
-24.71923828125
-24.71923828125
-26.55029296875
-20.1416015625
-16.4794921875
-21.05712890625
-14.6484375
-11.90185546875
-19.22607421875
-10.07080078125
-3.662109375
2.74658203125
14.6484375
10.07080078125
14.6484375
7.32421875
7.32421875
4.57763671875
-1.8310546875
-8.23974609375
-16.4794921875
-21.97265625
-26.55029296875
-30.21240234375
-33.87451171875
-39.36767578125
-38.4521484375
-44.86083984375
-52.18505859375
-58.59375
-69.580078125
-73.2421875
-79.65087890625
-86.97509765625
-89.7216796875
-95.21484375
-93.3837890625
-101.62353515625
-99.79248046875
-100.7080078125
-99.79248046875
-98.876953125
-109.86328125
-111.6943359375
-109.86328125
-105.28564453125
-104.3701171875
-106.201171875
-109.86328125
-113.525390625
-115.3564453125
-111.6943359375
-115.3564453125
-110.77880859375
-117.1875
-107.11669921875
-111.6943359375
-119.0185546875
-117.1875
-106.201171875
-109.86328125
-120.849609375
-123.59619140625
-114.44091796875
-110.77880859375
-122.6806640625
-140.07568359375
-155.6396484375
-165.71044921875
-178.52783203125
-173.9501953125
-162.04833984375
-152.89306640625
-136.41357421875
-107.11669921875
-58.59375
10.986328125
122.6806640625
238.95263671875
362.548828125
500.79345703125
648.193359375
757.14111328125
846.86279296875
908.203125
911.865234375
902.7099609375
853.271484375
776.3671875
647.27783203125
451.35498046875
303.03955078125
199.5849609375
103.45458984375
8.23974609375
-79.65087890625
-151.06201171875
-203.2470703125
-233.45947265625
-238.95263671875
-214.2333984375
-193.17626953125
-165.71044921875
-140.07568359375
-113.525390625
-90.63720703125
-79.65087890625
-80.56640625
-85.14404296875
-89.7216796875
-83.31298828125
-79.65087890625
-83.31298828125
-86.97509765625
-87.890625
-83.31298828125
-86.0595703125
-88.80615234375
-83.31298828125
-83.31298828125
-79.65087890625
-77.81982421875
-75.98876953125
-80.56640625
-83.31298828125
-76.904296875
-74.15771484375
-74.15771484375
-74.15771484375
-73.2421875
-69.580078125
-73.2421875
-68.66455078125
-67.7490234375
-65.91796875
-66.83349609375
-59.50927734375
-55.84716796875
-55.84716796875
-52.18505859375
-49.4384765625
-54.931640625
-60.4248046875
-56.7626953125
-45.7763671875
-41.19873046875
-45.7763671875
-42.1142578125
-38.4521484375
-40.283203125
-30.21240234375
-28.38134765625
-34.7900390625
-23.8037109375
-24.71923828125
-22.88818359375
-15.56396484375
-19.22607421875
-13.73291015625
-10.07080078125
-5.4931640625
-10.07080078125
-8.23974609375
-9.1552734375
-8.23974609375
4.57763671875
15.56396484375
10.07080078125
17.39501953125
21.05712890625
22.88818359375
29.296875
25.634765625
32.958984375
37.53662109375
41.19873046875
46.69189453125
49.4384765625
60.4248046875
68.66455078125
74.15771484375
75.0732421875
78.7353515625
80.56640625
89.7216796875
98.876953125
99.79248046875
107.11669921875
110.77880859375
124.51171875
131.8359375
136.41357421875
147.39990234375
147.39990234375
153.80859375
162.04833984375
165.71044921875
166.6259765625
175.78125
184.9365234375
189.51416015625
189.51416015625
193.17626953125
197.75390625
200.50048828125
211.48681640625
216.97998046875
214.2333984375
216.064453125
223.388671875
234.375
233.45947265625
228.8818359375
238.037109375
242.61474609375
236.2060546875
238.95263671875
237.12158203125
224.30419921875
224.30419921875
212.40234375
206.9091796875
199.5849609375
193.17626953125
184.02099609375
174.86572265625
162.9638671875
149.23095703125
141.90673828125
133.6669921875
115.3564453125
105.28564453125
94.29931640625
85.14404296875
72.32666015625
65.00244140625
54.01611328125
37.53662109375
26.55029296875
17.39501953125
11.90185546875
1.8310546875
-5.4931640625
-10.986328125
-8.23974609375
-14.6484375
-15.56396484375
-16.4794921875
-25.634765625
-29.296875
-32.958984375
-38.4521484375
-40.283203125
-39.36767578125
-37.53662109375
-43.02978515625
-39.36767578125
-43.9453125
-37.53662109375
-45.7763671875
-45.7763671875
-43.9453125
-44.86083984375
-43.02978515625
-44.86083984375
-36.62109375
-47.607421875
-48.52294921875
-41.19873046875
-36.62109375
-39.36767578125
-42.1142578125
-40.283203125
-42.1142578125
-44.86083984375
-41.19873046875
-41.19873046875
-42.1142578125
-36.62109375
-42.1142578125
-42.1142578125
-32.958984375
-32.958984375
-35.70556640625
-32.958984375
-38.4521484375
-32.04345703125
-39.36767578125
-32.04345703125
-32.04345703125
-25.634765625
-31.1279296875
-39.36767578125
-37.53662109375
-33.87451171875
-33.87451171875
-39.36767578125
-40.283203125
-36.62109375
-32.04345703125
-32.04345703125
-43.9453125
-47.607421875
-36.62109375
-35.70556640625
-41.19873046875
-46.69189453125
-39.36767578125
-38.4521484375
-38.4521484375
-42.1142578125
-43.02978515625
-38.4521484375
-38.4521484375
-41.19873046875
-44.86083984375
-49.4384765625
-43.9453125
-46.69189453125
-49.4384765625
-45.7763671875
-46.69189453125
-45.7763671875
-43.9453125
-43.9453125
-46.69189453125
-47.607421875
-49.4384765625
-51.26953125
-50.35400390625
-51.26953125
-52.18505859375
-53.1005859375
-42.1142578125
-42.1142578125
-48.52294921875
-47.607421875
-39.36767578125
-38.4521484375
-31.1279296875
-29.296875
-29.296875
-32.958984375
-32.04345703125
-27.4658203125
-22.88818359375
-19.22607421875
-15.56396484375
-18.310546875
-14.6484375
-7.32421875
-9.1552734375
-0.91552734375
1.8310546875
2.74658203125
3.662109375
5.4931640625
14.6484375
17.39501953125
20.1416015625
23.8037109375
17.39501953125
14.6484375
0
3.662109375
-2.74658203125
-10.07080078125
-21.05712890625
-22.88818359375
-28.38134765625
-32.04345703125
-34.7900390625
-34.7900390625
-32.04345703125
-44.86083984375
-54.01611328125
-68.66455078125
-74.15771484375
-71.4111328125
-75.98876953125
-84.228515625
-94.29931640625
-89.7216796875
-93.3837890625
-97.0458984375
-88.80615234375
-88.80615234375
-92.46826171875
-95.21484375
-93.3837890625
-92.46826171875
-95.21484375
-96.13037109375
-97.96142578125
-94.29931640625
-89.7216796875
-91.552734375
-97.96142578125
-100.7080078125
-99.79248046875
-96.13037109375
-96.13037109375
-105.28564453125
-100.7080078125
-95.21484375
-93.3837890625
-96.13037109375
-95.21484375
-103.45458984375
-105.28564453125
-107.11669921875
-113.525390625
-130.92041015625
-148.3154296875
-163.87939453125
-158.38623046875
-157.470703125
-140.9912109375
-123.59619140625
-101.62353515625
-52.18505859375
10.07080078125
100.7080078125
224.30419921875
338.7451171875
466.9189453125
610.65673828125
727.84423828125
812.07275390625
873.4130859375
877.99072265625
859.68017578125
811.1572265625
730.5908203125
618.896484375
436.70654296875
280.1513671875
177.6123046875
96.13037109375
7.32421875
-61.34033203125
-119.93408203125
-173.03466796875
-206.9091796875
-206.9091796875
-205.99365234375
-200.50048828125
-186.767578125
-160.21728515625
-139.16015625
-115.3564453125
-97.96142578125
-89.7216796875
-76.904296875
-76.904296875
-76.904296875
-77.81982421875
-75.0732421875
-72.32666015625
-73.2421875
-74.15771484375
-81.48193359375
-74.15771484375
-66.83349609375
-66.83349609375
-66.83349609375
-68.66455078125
-67.7490234375
-66.83349609375
-65.91796875
-63.17138671875
-62.255859375
-65.00244140625
-61.34033203125
-57.67822265625
-55.84716796875
-55.84716796875
-50.35400390625
-54.931640625
-52.18505859375
-54.01611328125
-54.01611328125
-50.35400390625
-50.35400390625
-41.19873046875
-40.283203125
-39.36767578125
-45.7763671875
-40.283203125
-34.7900390625
-32.04345703125
-33.87451171875
-38.4521484375
-33.87451171875
-22.88818359375
-21.97265625
-27.4658203125
-31.1279296875
-26.55029296875
-14.6484375
-7.32421875
-9.1552734375
-4.57763671875
-4.57763671875
-4.57763671875
-1.8310546875
-3.662109375
-4.57763671875
-1.8310546875
10.07080078125
5.4931640625
12.8173828125
13.73291015625
19.22607421875
23.8037109375
23.8037109375
22.88818359375
27.4658203125
32.958984375
36.62109375
47.607421875
49.4384765625
50.35400390625
53.1005859375
65.00244140625
71.4111328125
71.4111328125
74.15771484375
80.56640625
87.890625
102.5390625
105.28564453125
108.94775390625
116.27197265625
128.173828125
130.92041015625
131.8359375
140.9912109375
146.484375
152.89306640625
162.04833984375
163.87939453125
157.470703125
171.20361328125
182.18994140625
190.4296875
189.51416015625
195.00732421875
196.83837890625
205.078125
206.9091796875
204.16259765625
210.5712890625
221.5576171875
221.5576171875
225.2197265625
229.79736328125
233.45947265625
238.037109375
240.78369140625
239.8681640625
237.12158203125
238.95263671875
231.62841796875
229.79736328125
237.12158203125
222.47314453125
208.740234375
204.16259765625
201.416015625
197.75390625
178.52783203125
167.54150390625
164.794921875
154.72412109375
141.90673828125
126.3427734375
108.0322265625
105.28564453125
99.79248046875
82.3974609375
72.32666015625
61.34033203125
52.18505859375
46.69189453125
41.19873046875
30.21240234375
26.55029296875
21.97265625
18.310546875
15.56396484375
1.8310546875
-2.74658203125
-5.4931640625
-0.91552734375
-8.23974609375
-15.56396484375
-11.90185546875
-16.4794921875
-17.39501953125
-20.1416015625
-26.55029296875
-26.55029296875
-21.05712890625
-28.38134765625
-27.4658203125
-25.634765625
-32.04345703125
-32.04345703125
-27.4658203125
-27.4658203125
-30.21240234375
-26.55029296875
-29.296875
-32.04345703125
-23.8037109375
-21.97265625
-32.04345703125
-32.04345703125
-26.55029296875
-25.634765625
-37.53662109375
-37.53662109375
-30.21240234375
-17.39501953125
-24.71923828125
-25.634765625
-30.21240234375
-30.21240234375
-26.55029296875
-27.4658203125
-21.05712890625
-19.22607421875
-21.97265625
-27.4658203125
-27.4658203125
-24.71923828125
-34.7900390625
-24.71923828125
-26.55029296875
-26.55029296875
-24.71923828125
-21.97265625
-25.634765625
-23.8037109375
-21.05712890625
-25.634765625
-22.88818359375
-19.22607421875
-24.71923828125
-23.8037109375
-26.55029296875
-28.38134765625
-32.958984375
-34.7900390625
-29.296875
-28.38134765625
-30.21240234375
-33.87451171875
-28.38134765625
-30.21240234375
-34.7900390625
-40.283203125
-40.283203125
-43.02978515625
-40.283203125
-37.53662109375
-41.19873046875
-42.1142578125
-40.283203125
-36.62109375
-43.9453125
-54.01611328125
-48.52294921875
-47.607421875
-47.607421875
-45.7763671875
-46.69189453125
-43.9453125
-49.4384765625
-48.52294921875
-54.01611328125
-58.59375
-51.26953125
-53.1005859375
-51.26953125
-60.4248046875
-55.84716796875
-50.35400390625
-49.4384765625
-45.7763671875
-51.26953125
-54.931640625
-51.26953125
-45.7763671875
-43.02978515625
-46.69189453125
-47.607421875
-44.86083984375
-45.7763671875
-33.87451171875
-29.296875
-28.38134765625
-35.70556640625
-22.88818359375
-26.55029296875
-28.38134765625
-24.71923828125
-27.4658203125
-27.4658203125
-13.73291015625
-10.986328125
-5.4931640625
-7.32421875
-9.1552734375
-9.1552734375
5.4931640625
9.1552734375
11.90185546875
12.8173828125
18.310546875
22.88818359375
15.56396484375
20.1416015625
26.55029296875
27.4658203125
21.05712890625
21.97265625
10.07080078125
0.91552734375
0.91552734375
-1.8310546875
-7.32421875
-18.310546875
-20.1416015625
-21.97265625
-17.39501953125
-25.634765625
-32.04345703125
-46.69189453125
-54.01611328125
-56.7626953125
-65.91796875
-72.32666015625
-68.66455078125
-76.904296875
-83.31298828125
-86.97509765625
-80.56640625
-85.14404296875
-83.31298828125
-85.14404296875
-86.0595703125
-86.97509765625
-87.890625
-90.63720703125
-92.46826171875
-96.13037109375
-100.7080078125
-93.3837890625
-86.97509765625
-94.29931640625
-98.876953125
-96.13037109375
-95.21484375
-98.876953125
-98.876953125
-96.13037109375
-96.13037109375
-97.0458984375
-99.79248046875
-101.62353515625
-97.96142578125
-107.11669921875
-111.6943359375
-116.27197265625
-133.6669921875
-155.6396484375
-173.03466796875
-162.04833984375
-149.23095703125
-137.3291015625
-115.3564453125
-85.14404296875
-40.283203125
24.71923828125
144.6533203125
260.92529296875
371.7041015625
503.5400390625
653.6865234375
765.380859375
852.35595703125
908.203125
921.93603515625
901.79443359375
845.947265625
762.63427734375
639.95361328125
436.70654296875
289.306640625
194.091796875
87.890625
-1.8310546875
-87.890625
-156.55517578125
-195.9228515625
-219.7265625
-227.05078125
-211.48681640625
-194.091796875
-166.6259765625
-139.16015625
-114.44091796875
-91.552734375
-80.56640625
-76.904296875
-72.32666015625
-76.904296875
-75.0732421875
-72.32666015625
-76.904296875
-81.48193359375
-81.48193359375
-78.7353515625
-76.904296875
-79.65087890625
-77.81982421875
-79.65087890625
-77.81982421875
-71.4111328125
-75.0732421875
-71.4111328125
-68.66455078125
-70.49560546875
-65.91796875
-69.580078125
-65.91796875
-65.00244140625
-65.91796875
-57.67822265625
-58.59375
-60.4248046875
-62.255859375
-54.931640625
-53.1005859375
-60.4248046875
-61.34033203125
-54.931640625
-53.1005859375
-46.69189453125
-41.19873046875
-44.86083984375
-45.7763671875
-40.283203125
-34.7900390625
-35.70556640625
-32.04345703125
-35.70556640625
-34.7900390625
-26.55029296875
-20.1416015625
-24.71923828125
-24.71923828125
-19.22607421875
-11.90185546875
-10.986328125
-8.23974609375
-3.662109375
0
0
1.8310546875
0
4.57763671875
10.07080078125
14.6484375
13.73291015625
18.310546875
21.97265625
25.634765625
32.04345703125
32.04345703125
31.1279296875
40.283203125
44.86083984375
45.7763671875
51.26953125
55.84716796875
58.59375
65.91796875
78.7353515625
76.904296875
74.15771484375
78.7353515625
93.3837890625
100.7080078125
106.201171875
112.60986328125
118.10302734375
126.3427734375
136.41357421875
141.90673828125
144.6533203125
146.484375
159.3017578125
165.71044921875
173.03466796875
173.9501953125
179.443359375
182.18994140625
189.51416015625
187.68310546875
191.34521484375
203.2470703125
203.2470703125
207.82470703125
214.2333984375
202.33154296875
211.48681640625
222.47314453125
230.712890625
226.13525390625
225.2197265625
236.2060546875
233.45947265625
233.45947265625
238.95263671875
230.712890625
227.05078125
223.388671875
221.5576171875
213.31787109375
203.2470703125
194.091796875
184.02099609375
176.69677734375
162.9638671875
153.80859375
145.56884765625
131.8359375
117.1875
104.3701171875
93.3837890625
80.56640625
67.7490234375
59.50927734375
47.607421875
32.958984375
29.296875
25.634765625
16.4794921875
3.662109375
0
-3.662109375
-6.40869140625
-10.986328125
-22.88818359375
-21.05712890625
-25.634765625
-26.55029296875
-24.71923828125
-26.55029296875
-36.62109375
-38.4521484375
-34.7900390625
-38.4521484375
-40.283203125
-41.19873046875
-40.283203125
-40.283203125
-37.53662109375
-40.283203125
-46.69189453125
-43.02978515625
-36.62109375
-40.283203125
-43.02978515625
-43.02978515625
-42.1142578125
-42.1142578125
-39.36767578125
-39.36767578125
-43.02978515625
-45.7763671875
-41.19873046875
-39.36767578125
-42.1142578125
-44.86083984375
-43.9453125
-40.283203125
-40.283203125
-40.283203125
-43.9453125
-46.69189453125
-43.9453125
-43.9453125
-37.53662109375
-42.1142578125
-42.1142578125
-39.36767578125
-43.02978515625
-46.69189453125
-46.69189453125
-43.9453125
-42.1142578125
-42.1142578125
-43.9453125
-46.69189453125
-42.1142578125
-40.283203125
-37.53662109375
-45.7763671875
-41.19873046875
-42.1142578125
-48.52294921875
-53.1005859375
-43.9453125
-43.02978515625
-44.86083984375
-40.283203125
-43.02978515625
-43.9453125
-47.607421875
-49.4384765625
-46.69189453125
-52.18505859375
-48.52294921875
-56.7626953125
-54.01611328125
-45.7763671875
-45.7763671875
-50.35400390625
-54.01611328125
-54.01611328125
-48.52294921875
-51.26953125
-55.84716796875
-55.84716796875
-56.7626953125
-61.34033203125
-62.255859375
-60.4248046875
-56.7626953125
-53.1005859375
-56.7626953125
-61.34033203125
-61.34033203125
-65.91796875
-65.00244140625
-65.91796875
-71.4111328125
-67.7490234375
-64.0869140625
-66.83349609375
-65.00244140625
-61.34033203125
-69.580078125
-68.66455078125
-65.91796875
-67.7490234375
-73.2421875
-70.49560546875
-70.49560546875
-71.4111328125
-66.83349609375
-65.91796875
-73.2421875
-77.81982421875
-72.32666015625
-63.17138671875
-64.0869140625
-65.00244140625
-68.66455078125
-73.2421875
-73.2421875
-74.15771484375
-72.32666015625
-75.98876953125
-75.98876953125
-71.4111328125
-65.91796875
-67.7490234375
-75.0732421875
-75.0732421875
-75.98876953125
-74.15771484375
-80.56640625
-69.580078125
-66.83349609375
-63.17138671875
-64.0869140625
-72.32666015625
-79.65087890625
-74.15771484375
-65.91796875
-73.2421875
-69.580078125
-71.4111328125
-77.81982421875
-76.904296875
-69.580078125
-71.4111328125
-67.7490234375
-75.98876953125
-67.7490234375
-60.4248046875
-57.67822265625
-53.1005859375
-48.52294921875
-41.19873046875
-30.21240234375
-32.04345703125
-35.70556640625
-32.958984375
-29.296875
-32.04345703125
-26.55029296875
-27.4658203125
-21.05712890625
-21.05712890625
-20.1416015625
-21.05712890625
-22.88818359375
-11.90185546875
-5.4931640625
-3.662109375
-4.57763671875
1.8310546875
-1.8310546875
0
7.32421875
10.07080078125
6.40869140625
2.74658203125
2.74658203125
-9.1552734375
-18.310546875
-16.4794921875
-18.310546875
-22.88818359375
-25.634765625
-28.38134765625
-37.53662109375
-42.1142578125
-43.9453125
-47.607421875
-61.34033203125
-72.32666015625
-73.2421875
-72.32666015625
-84.228515625
-92.46826171875
-93.3837890625
-95.21484375
-93.3837890625
-93.3837890625
-97.0458984375
-102.5390625
-101.62353515625
-95.21484375
-99.79248046875
-100.7080078125
-103.45458984375
-102.5390625
-103.45458984375
-107.11669921875
-104.3701171875
-108.0322265625
-109.86328125
-107.11669921875
-105.28564453125
-108.0322265625
-110.77880859375
-108.0322265625
-108.94775390625
-103.45458984375
-104.3701171875
-110.77880859375
-108.0322265625
-113.525390625
-118.10302734375
-129.08935546875
-141.90673828125
-162.04833984375
-175.78125
-160.21728515625
-148.3154296875
-121.76513671875
-97.96142578125
-76.904296875
-28.38134765625
35.70556640625
136.41357421875
258.1787109375
385.43701171875
525.5126953125
672.91259765625
794.677734375
894.47021484375
956.72607421875
964.9658203125
942.07763671875
888.0615234375
801.08642578125
661.0107421875
453.18603515625
288.39111328125
172.119140625
65.00244140625
-26.55029296875
-103.45458984375
-164.794921875
-201.416015625
-227.96630859375
-225.2197265625
-195.9228515625
-168.45703125
-134.58251953125
-101.62353515625
-76.904296875
-59.50927734375
-59.50927734375
-73.2421875
-73.2421875
-75.98876953125
-76.904296875
-83.31298828125
-90.63720703125
-81.48193359375
-86.0595703125
-83.31298828125
-83.31298828125
-86.97509765625
-84.228515625
-85.14404296875
-81.48193359375
-79.65087890625
-83.31298828125
-79.65087890625
-78.7353515625
-77.81982421875
-73.2421875
-74.15771484375
-75.0732421875
-70.49560546875
-71.4111328125
-71.4111328125
-70.49560546875
-66.83349609375
-67.7490234375
-61.34033203125
-64.0869140625
-63.17138671875
-54.931640625
-54.931640625
-54.931640625
-59.50927734375
-55.84716796875
-51.26953125
-49.4384765625
-46.69189453125
-48.52294921875
-46.69189453125
-50.35400390625
-43.9453125
-42.1142578125
-41.19873046875
-38.4521484375
-34.7900390625
-35.70556640625
-34.7900390625
-32.958984375
-32.04345703125
-27.4658203125
-24.71923828125
-27.4658203125
-19.22607421875
-21.05712890625
-16.4794921875
-10.07080078125
-5.4931640625
-5.4931640625
0.91552734375
4.57763671875
6.40869140625
13.73291015625
17.39501953125
18.310546875
25.634765625
33.87451171875
37.53662109375
38.4521484375
40.283203125
42.1142578125
50.35400390625
57.67822265625
64.0869140625
67.7490234375
72.32666015625
77.81982421875
85.14404296875
89.7216796875
84.228515625
97.96142578125
112.60986328125
118.10302734375
117.1875
120.849609375
133.6669921875
142.822265625
149.23095703125
150.146484375
153.80859375
161.1328125
169.37255859375
173.9501953125
178.52783203125
185.85205078125
185.85205078125
187.68310546875
196.83837890625
200.50048828125
201.416015625
205.078125
211.48681640625
222.47314453125
222.47314453125
221.5576171875
226.13525390625
233.45947265625
238.037109375
238.95263671875
237.12158203125
230.712890625
233.45947265625
231.62841796875
227.05078125
223.388671875
218.81103515625
207.82470703125
197.75390625
184.02099609375
176.69677734375
168.45703125
157.470703125
140.9912109375
130.92041015625
116.27197265625
102.5390625
88.80615234375
76.904296875
64.0869140625
53.1005859375
43.02978515625
36.62109375
25.634765625
14.6484375
10.986328125
1.8310546875
-7.32421875
-8.23974609375
-21.97265625
-26.55029296875
-26.55029296875
-30.21240234375
-31.1279296875
-33.87451171875
-40.283203125
-43.9453125
-49.4384765625
-43.9453125
-46.69189453125
-54.01611328125
-58.59375
-54.01611328125
-47.607421875
-54.01611328125
-63.17138671875
-59.50927734375
-54.01611328125
-55.84716796875
-59.50927734375
-53.1005859375
-55.84716796875
-57.67822265625
-54.931640625
-53.1005859375
-54.931640625
-54.931640625
-54.931640625
-51.26953125
-55.84716796875
-54.931640625
-54.01611328125
-57.67822265625
-60.4248046875
-64.0869140625
-58.59375
-60.4248046875
-62.255859375
-61.34033203125
-62.255859375
-58.59375
-58.59375
-54.931640625
-57.67822265625
-69.580078125
-66.83349609375
-62.255859375
-58.59375
-58.59375
-54.931640625
-57.67822265625
-65.00244140625
-54.01611328125
-54.01611328125
-61.34033203125
-58.59375
-57.67822265625
-54.01611328125
-58.59375
-64.0869140625
-59.50927734375
