ECG
11.90185546875
8.23974609375
10.986328125
7.32421875
8.23974609375
2.74658203125
-2.74658203125
-6.40869140625
-2.74658203125
2.74658203125
2.74658203125
4.57763671875
4.57763671875
1.8310546875
-0.91552734375
4.57763671875
4.57763671875
-0.91552734375
-6.40869140625
-4.57763671875
-4.57763671875
-15.56396484375
-21.97265625
-10.986328125
-14.6484375
-11.90185546875
-0.91552734375
-7.32421875
-10.986328125
-9.1552734375
-15.56396484375
-18.310546875
-16.4794921875
-18.310546875
-17.39501953125
-21.97265625
-21.05712890625
-20.1416015625
-16.4794921875
-18.310546875
-22.88818359375
-23.8037109375
-33.87451171875
-33.87451171875
-29.296875
-21.05712890625
-21.97265625
-25.634765625
-24.71923828125
-20.1416015625
-26.55029296875
-25.634765625
-25.634765625
-29.296875
-36.62109375
-32.04345703125
-33.87451171875
-32.958984375
-31.1279296875
-34.7900390625
-30.21240234375
-32.958984375
-34.7900390625
-33.87451171875
-34.7900390625
-29.296875
-32.04345703125
-33.87451171875
-38.4521484375
-28.38134765625
-30.21240234375
-39.36767578125
-38.4521484375
-37.53662109375
-37.53662109375
-38.4521484375
-35.70556640625
-43.9453125
-39.36767578125
-42.1142578125
-43.9453125
-43.9453125
-42.1142578125
-51.26953125
-54.01611328125
-47.607421875
-33.87451171875
-34.7900390625
-38.4521484375
-35.70556640625
-33.87451171875
-34.7900390625
-36.62109375
-40.283203125
-53.1005859375
-42.1142578125
-33.87451171875
-33.87451171875
-48.52294921875
-40.283203125
-33.87451171875
-32.958984375
-31.1279296875
-37.53662109375
-35.70556640625
-36.62109375
-42.1142578125
-43.9453125
-43.9453125
-39.36767578125
-46.69189453125
-47.607421875
-45.7763671875
-42.1142578125
-45.7763671875
-52.18505859375
-53.1005859375
-49.4384765625
-43.9453125
-51.26953125
-43.02978515625
-42.1142578125
-40.283203125
-35.70556640625
-43.02978515625
-43.02978515625
-33.87451171875
-36.62109375
-49.4384765625
-47.607421875
-50.35400390625
-54.931640625
-65.00244140625
-58.59375
-44.86083984375
-32.04345703125
-22.88818359375
-10.07080078125
-0.91552734375
18.310546875
24.71923828125
19.22607421875
24.71923828125
22.88818359375
22.88818359375
32.04345703125
46.69189453125
39.36767578125
39.36767578125
43.9453125
39.36767578125
40.283203125
41.19873046875
43.02978515625
42.1142578125
26.55029296875
13.73291015625
10.07080078125
1.8310546875
-0.91552734375
-11.90185546875
-22.88818359375
-28.38134765625
-34.7900390625
-33.87451171875
-29.296875
-40.283203125
-47.607421875
-56.7626953125
-53.1005859375
-44.86083984375
-47.607421875
-47.607421875
-52.18505859375
-47.607421875
-53.1005859375
-63.17138671875
-72.32666015625
-63.17138671875
-52.18505859375
-48.52294921875
-51.26953125
-57.67822265625
-62.255859375
-63.17138671875
-68.66455078125
-85.14404296875
-86.0595703125
-98.876953125
-108.94775390625
-109.86328125
-118.10302734375
-111.6943359375
-96.13037109375
-54.01611328125
7.32421875
75.0732421875
144.6533203125
235.29052734375
345.15380859375
447.69287109375
575.86669921875
707.70263671875
856.01806640625
976.86767578125
1094.970703125
1199.3408203125
1201.171875
1139.83154296875
986.02294921875
776.3671875
515.44189453125
263.671875
25.634765625
-168.45703125
-313.1103515625
-353.3935546875
-305.7861328125
-250.8544921875
-212.40234375
-175.78125
-127.25830078125
-98.876953125
-77.81982421875
-53.1005859375
-7.32421875
13.73291015625
29.296875
34.7900390625
35.70556640625
32.958984375
19.22607421875
16.4794921875
14.6484375
20.1416015625
27.4658203125
32.958984375
16.4794921875
10.07080078125
14.6484375
27.4658203125
29.296875
19.22607421875
16.4794921875
26.55029296875
25.634765625
17.39501953125
28.38134765625
34.7900390625
32.958984375
32.958984375
41.19873046875
46.69189453125
38.4521484375
44.86083984375
31.1279296875
18.310546875
26.55029296875
30.21240234375
48.52294921875
61.34033203125
64.0869140625
66.83349609375
60.4248046875
64.0869140625
66.83349609375
75.98876953125
72.32666015625
75.0732421875
76.904296875
81.48193359375
85.14404296875
79.65087890625
70.49560546875
70.49560546875
86.97509765625
99.79248046875
112.60986328125
128.173828125
134.58251953125
130.92041015625
122.6806640625
111.6943359375
119.0185546875
125.42724609375
143.73779296875
148.3154296875
146.484375
153.80859375
164.794921875
162.04833984375
162.9638671875
181.2744140625
186.767578125
195.00732421875
202.33154296875
187.68310546875
205.078125
225.2197265625
227.96630859375
224.30419921875
227.96630859375
240.78369140625
245.361328125
256.34765625
281.982421875
287.4755859375
292.05322265625
292.96875
297.54638671875
298.4619140625
306.70166015625
314.94140625
325.927734375
324.0966796875
325.01220703125
322.265625
315.85693359375
324.0966796875
335.99853515625
339.66064453125
345.15380859375
351.5625
348.81591796875
334.16748046875
326.84326171875
325.927734375
314.94140625
290.22216796875
290.22216796875
301.20849609375
299.37744140625
281.982421875
264.58740234375
249.0234375
245.361328125
229.79736328125
220.64208984375
193.17626953125
175.78125
150.146484375
145.56884765625
140.07568359375
122.6806640625
113.525390625
94.29931640625
81.48193359375
75.98876953125
58.59375
53.1005859375
42.1142578125
39.36767578125
32.04345703125
17.39501953125
25.634765625
11.90185546875
-0.91552734375
1.8310546875
-5.4931640625
-26.55029296875
-29.296875
-29.296875
-29.296875
-32.958984375
-23.8037109375
-15.56396484375
-24.71923828125
-33.87451171875
-40.283203125
-49.4384765625
-52.18505859375
-44.86083984375
-30.21240234375
-32.958984375
-26.55029296875
-28.38134765625
-22.88818359375
-31.1279296875
-55.84716796875
-56.7626953125
-55.84716796875
-46.69189453125
-38.4521484375
-29.296875
-24.71923828125
-33.87451171875
-49.4384765625
-36.62109375
-35.70556640625
-42.1142578125
-40.283203125
-43.02978515625
-37.53662109375
-36.62109375
-48.52294921875
-61.34033203125
-39.36767578125
-37.53662109375
-42.1142578125
-43.9453125
-25.634765625
-5.4931640625
-8.23974609375
-3.662109375
-14.6484375
-26.55029296875
-27.4658203125
-32.958984375
-26.55029296875
-25.634765625
-7.32421875
-10.07080078125
-10.986328125
-14.6484375
-5.4931640625
-2.74658203125
-10.986328125
-14.6484375
-13.73291015625
-2.74658203125
-2.74658203125
-10.07080078125
-25.634765625
-36.62109375
-40.283203125
-30.21240234375
-23.8037109375
-13.73291015625
-21.97265625
-18.310546875
-18.310546875
-14.6484375
-24.71923828125
-33.87451171875
-18.310546875
-17.39501953125
-13.73291015625
-15.56396484375
-31.1279296875
-35.70556640625
-22.88818359375
-22.88818359375
-30.21240234375
-29.296875
-19.22607421875
-21.05712890625
-10.986328125
-10.986328125
-18.310546875
-16.4794921875
-32.04345703125
-51.26953125
-42.1142578125
-44.86083984375
-55.84716796875
-44.86083984375
-36.62109375
-41.19873046875
-38.4521484375
-29.296875
-25.634765625
-29.296875
-25.634765625
-35.70556640625
-23.8037109375
-36.62109375
-43.9453125
-44.86083984375
-51.26953125
-49.4384765625
-46.69189453125
-48.52294921875
-52.18505859375
-41.19873046875
-47.607421875
-69.580078125
-55.84716796875
-46.69189453125
-45.7763671875
-32.04345703125
-31.1279296875
-32.958984375
-38.4521484375
-42.1142578125
-43.02978515625
-38.4521484375
-39.36767578125
-27.4658203125
-29.296875
-41.19873046875
-55.84716796875
-61.34033203125
-54.01611328125
-50.35400390625
-68.66455078125
-67.7490234375
-54.01611328125
-44.86083984375
-42.1142578125
-47.607421875
-51.26953125
-60.4248046875
-62.255859375
-54.01611328125
-45.7763671875
-57.67822265625
-69.580078125
-78.7353515625
-76.904296875
-62.255859375
-56.7626953125
-55.84716796875
-37.53662109375
-23.8037109375
-60.4248046875
-64.0869140625
-69.580078125
-55.84716796875
-56.7626953125
-63.17138671875
-57.67822265625
-62.255859375
-62.255859375
-51.26953125
-37.53662109375
-44.86083984375
-52.18505859375
-49.4384765625
-43.02978515625
-46.69189453125
-56.7626953125
-54.931640625
-43.9453125
-53.1005859375
-56.7626953125
-50.35400390625
-38.4521484375
-43.02978515625
-62.255859375
-66.83349609375
-70.49560546875
-65.91796875
-61.34033203125
-44.86083984375
-43.9453125
-52.18505859375
-61.34033203125
-72.32666015625
-65.91796875
-51.26953125
-52.18505859375
-75.0732421875
-69.580078125
-71.4111328125
-60.4248046875
-56.7626953125
-42.1142578125
-33.87451171875
-23.8037109375
-13.73291015625
-5.4931640625
0
7.32421875
8.23974609375
-4.57763671875
-6.40869140625
2.74658203125
6.40869140625
-1.8310546875
3.662109375
7.32421875
21.97265625
15.56396484375
21.05712890625
35.70556640625
29.296875
22.88818359375
21.97265625
10.986328125
8.23974609375
-4.57763671875
-19.22607421875
-37.53662109375
-43.02978515625
-49.4384765625
-54.931640625
-54.01611328125
-34.7900390625
-38.4521484375
-43.9453125
-49.4384765625
-64.0869140625
-76.904296875
-86.97509765625
-89.7216796875
-74.15771484375
-61.34033203125
-47.607421875
-44.86083984375
-39.36767578125
-49.4384765625
-54.01611328125
-78.7353515625
-66.83349609375
-51.26953125
-55.84716796875
-59.50927734375
-58.59375
-78.7353515625
-89.7216796875
-91.552734375
-115.3564453125
-128.173828125
-134.58251953125
-127.25830078125
-97.0458984375
-44.86083984375
-2.74658203125
71.4111328125
141.90673828125
245.361328125
344.23828125
438.53759765625
569.4580078125
693.9697265625
835.87646484375
971.37451171875
1094.970703125
1185.60791015625
1168.212890625
1116.02783203125
950.3173828125
747.0703125
494.384765625
258.1787109375
51.26953125
-150.146484375
-281.982421875
-326.84326171875
-286.56005859375
-240.78369140625
-206.9091796875
-176.69677734375
-136.41357421875
-112.60986328125
-113.525390625
-83.31298828125
-42.1142578125
-7.32421875
21.05712890625
43.9453125
38.4521484375
13.73291015625
2.74658203125
-14.6484375
-0.91552734375
33.87451171875
27.4658203125
19.22607421875
17.39501953125
32.958984375
28.38134765625
23.8037109375
17.39501953125
31.1279296875
37.53662109375
36.62109375
37.53662109375
31.1279296875
34.7900390625
32.04345703125
38.4521484375
40.283203125
44.86083984375
46.69189453125
48.52294921875
54.01611328125
48.52294921875
54.01611328125
55.84716796875
46.69189453125
53.1005859375
53.1005859375
53.1005859375
35.70556640625
43.02978515625
55.84716796875
58.59375
75.0732421875
84.228515625
80.56640625
80.56640625
71.4111328125
81.48193359375
77.81982421875
83.31298828125
117.1875
123.59619140625
127.25830078125
119.93408203125
132.75146484375
133.6669921875
128.173828125
117.1875
108.0322265625
122.6806640625
137.3291015625
146.484375
143.73779296875
140.9912109375
146.484375
156.55517578125
158.38623046875
157.470703125
169.37255859375
181.2744140625
189.51416015625
195.00732421875
206.9091796875
217.8955078125
228.8818359375
220.64208984375
227.05078125
243.5302734375
240.78369140625
253.60107421875
254.5166015625
250.8544921875
259.09423828125
277.40478515625
309.4482421875
313.1103515625
317.68798828125
310.36376953125
334.16748046875
346.98486328125
346.0693359375
340.576171875
335.0830078125
343.32275390625
347.900390625
350.64697265625
340.576171875
341.49169921875
346.98486328125
344.23828125
347.900390625
337.82958984375
323.18115234375
326.84326171875
320.4345703125
307.6171875
301.20849609375
284.72900390625
261.8408203125
246.27685546875
238.95263671875
233.45947265625
209.65576171875
198.66943359375
181.2744140625
182.18994140625
160.21728515625
147.39990234375
143.73779296875
126.3427734375
123.59619140625
116.27197265625
95.21484375
84.228515625
76.904296875
65.00244140625
54.01611328125
42.1142578125
33.87451171875
27.4658203125
20.1416015625
17.39501953125
12.8173828125
3.662109375
3.662109375
1.8310546875
-1.8310546875
-20.1416015625
-21.05712890625
-22.88818359375
-32.04345703125
-26.55029296875
-22.88818359375
-32.958984375
-38.4521484375
-32.04345703125
-36.62109375
-43.02978515625
-39.36767578125
-51.26953125
-24.71923828125
-12.8173828125
-26.55029296875
-21.05712890625
-23.8037109375
-30.21240234375
-35.70556640625
-42.1142578125
-41.19873046875
-24.71923828125
-11.90185546875
-17.39501953125
-30.21240234375
-29.296875
-19.22607421875
-21.97265625
-40.283203125
-36.62109375
-17.39501953125
-22.88818359375
-27.4658203125
-21.97265625
-15.56396484375
-15.56396484375
-13.73291015625
-8.23974609375
-31.1279296875
-35.70556640625
-47.607421875
-56.7626953125
-34.7900390625
-12.8173828125
-18.310546875
-31.1279296875
-16.4794921875
-1.8310546875
-0.91552734375
-2.74658203125
-10.986328125
-13.73291015625
-10.07080078125
-16.4794921875
-13.73291015625
-7.32421875
0
-1.8310546875
-0.91552734375
-2.74658203125
2.74658203125
-5.4931640625
-19.22607421875
-18.310546875
-11.90185546875
-11.90185546875
-10.986328125
-5.4931640625
-8.23974609375
-15.56396484375
-18.310546875
-23.8037109375
-23.8037109375
-13.73291015625
-6.40869140625
0
5.4931640625
-17.39501953125
-14.6484375
-14.6484375
-28.38134765625
-41.19873046875
-22.88818359375
-3.662109375
-8.23974609375
-5.4931640625
-11.90185546875
-9.1552734375
-16.4794921875
-12.8173828125
-32.04345703125
-38.4521484375
-33.87451171875
-18.310546875
-31.1279296875
-28.38134765625
-24.71923828125
-22.88818359375
-28.38134765625
-31.1279296875
-18.310546875
-33.87451171875
-43.9453125
-39.36767578125
-43.9453125
-48.52294921875
-54.01611328125
-47.607421875
-51.26953125
-53.1005859375
-33.87451171875
-21.05712890625
-28.38134765625
-32.958984375
-39.36767578125
-29.296875
-27.4658203125
-42.1142578125
-40.283203125
-33.87451171875
-37.53662109375
-31.1279296875
-36.62109375
-33.87451171875
-47.607421875
-48.52294921875
-49.4384765625
-53.1005859375
-42.1142578125
-47.607421875
-64.0869140625
-63.17138671875
-49.4384765625
-41.19873046875
-35.70556640625
-54.01611328125
-52.18505859375
-54.01611328125
-35.70556640625
-22.88818359375
-17.39501953125
-16.4794921875
-23.8037109375
-29.296875
-40.283203125
-57.67822265625
-56.7626953125
-60.4248046875
-55.84716796875
-48.52294921875
-41.19873046875
-38.4521484375
-40.283203125
-49.4384765625
-38.4521484375
-41.19873046875
-43.02978515625
-40.283203125
-54.931640625
-73.2421875
-67.7490234375
-45.7763671875
-32.958984375
-34.7900390625
-32.04345703125
-38.4521484375
-39.36767578125
-40.283203125
-38.4521484375
-43.02978515625
-44.86083984375
-38.4521484375
-21.97265625
-8.23974609375
-10.986328125
-2.74658203125
5.4931640625
14.6484375
14.6484375
5.4931640625
13.73291015625
20.1416015625
25.634765625
30.21240234375
41.19873046875
48.52294921875
53.1005859375
47.607421875
52.18505859375
64.0869140625
29.296875
37.53662109375
52.18505859375
47.607421875
28.38134765625
28.38134765625
20.1416015625
9.1552734375
28.38134765625
25.634765625
15.56396484375
7.32421875
-8.23974609375
-28.38134765625
-49.4384765625
-54.931640625
-45.7763671875
-49.4384765625
-54.931640625
-55.84716796875
-51.26953125
-39.36767578125
-41.19873046875
-50.35400390625
-55.84716796875
-55.84716796875
-58.59375
-45.7763671875
-50.35400390625
-49.4384765625
-54.01611328125
-53.1005859375
-54.01611328125
-54.931640625
-56.7626953125
-56.7626953125
-58.59375
-67.7490234375
-64.0869140625
-71.4111328125
-90.63720703125
-109.86328125
-122.6806640625
-131.8359375
-123.59619140625
-86.0595703125
-26.55029296875
16.4794921875
87.890625
172.119140625
249.93896484375
339.66064453125
439.453125
584.1064453125
733.33740234375
872.49755859375
980.52978515625
1090.39306640625
1171.875
1128.84521484375
1027.2216796875
853.271484375
631.7138671875
372.61962890625
155.6396484375
-36.62109375
-198.66943359375
-298.4619140625
-308.53271484375
-276.4892578125
-263.671875
-234.375
-197.75390625
-142.822265625
-108.0322265625
-87.890625
-68.66455078125
-53.1005859375
-28.38134765625
-13.73291015625
16.4794921875
29.296875
26.55029296875
26.55029296875
24.71923828125
13.73291015625
9.1552734375
8.23974609375
12.8173828125
16.4794921875
18.310546875
10.07080078125
12.8173828125
5.4931640625
5.4931640625
5.4931640625
10.07080078125
7.32421875
11.90185546875
22.88818359375
32.958984375
42.1142578125
43.02978515625
39.36767578125
40.283203125
58.59375
50.35400390625
32.04345703125
-4.57763671875
10.07080078125
45.7763671875
59.50927734375
48.52294921875
20.1416015625
29.296875
55.84716796875
55.84716796875
59.50927734375
59.50927734375
61.34033203125
72.32666015625
79.65087890625
77.81982421875
75.0732421875
85.14404296875
78.7353515625
83.31298828125
90.63720703125
93.3837890625
87.890625
89.7216796875
104.3701171875
115.3564453125
113.525390625
117.1875
124.51171875
133.6669921875
141.90673828125
137.3291015625
135.498046875
140.9912109375
154.72412109375
158.38623046875
157.470703125
156.55517578125
163.87939453125
178.52783203125
201.416015625
197.75390625
201.416015625
187.68310546875
195.9228515625
227.96630859375
242.61474609375
236.2060546875
239.8681640625
257.26318359375
260.92529296875
273.74267578125
282.89794921875
294.7998046875
295.71533203125
294.7998046875
310.36376953125
314.94140625
314.94140625
324.0966796875
326.84326171875
327.7587890625
319.51904296875
327.7587890625
334.16748046875
329.58984375
319.51904296875
322.265625
335.0830078125
342.4072265625
333.251953125
319.51904296875
306.70166015625
292.96875
281.06689453125
263.671875
251.77001953125
254.5166015625
249.0234375
238.037109375
225.2197265625
193.17626953125
176.69677734375
162.04833984375
157.470703125
160.21728515625
143.73779296875
117.1875
92.46826171875
86.97509765625
77.81982421875
65.91796875
48.52294921875
41.19873046875
37.53662109375
33.87451171875
27.4658203125
10.986328125
-4.57763671875
-10.07080078125
-16.4794921875
-25.634765625
-39.36767578125
-37.53662109375
-39.36767578125
-23.8037109375
-22.88818359375
-24.71923828125
-34.7900390625
-35.70556640625
-28.38134765625
-25.634765625
-36.62109375
-36.62109375
-34.7900390625
-43.9453125
-54.931640625
-75.98876953125
-72.32666015625
-72.32666015625
-64.0869140625
-55.84716796875
-48.52294921875
-42.1142578125
-34.7900390625
-28.38134765625
-54.01611328125
-63.17138671875
-58.59375
-61.34033203125
-64.0869140625
-51.26953125
-58.59375
-64.0869140625
-50.35400390625
-53.1005859375
-58.59375
-65.91796875
-62.255859375
-49.4384765625
-44.86083984375
-33.87451171875
-41.19873046875
-36.62109375
-24.71923828125
-23.8037109375
-23.8037109375
-32.958984375
-43.9453125
-43.9453125
-40.283203125
-43.02978515625
-53.1005859375
-31.1279296875
-24.71923828125
-19.22607421875
-21.97265625
-23.8037109375
-21.05712890625
-27.4658203125
-29.296875
-26.55029296875
-32.958984375
-31.1279296875
-43.9453125
-39.36767578125
-28.38134765625
-26.55029296875
-25.634765625
-22.88818359375
-30.21240234375
-24.71923828125
-26.55029296875
-30.21240234375
-33.87451171875
-35.70556640625
-43.9453125
-43.02978515625
-44.86083984375
-34.7900390625
-36.62109375
-30.21240234375
-36.62109375
-32.04345703125
-36.62109375
-38.4521484375
-39.36767578125
-50.35400390625
-38.4521484375
-40.283203125
-49.4384765625
-43.9453125
-42.1142578125
-39.36767578125
-45.7763671875
-45.7763671875
-35.70556640625
-34.7900390625
-41.19873046875
-45.7763671875
-45.7763671875
-49.4384765625
-39.36767578125
-40.283203125
-39.36767578125
-44.86083984375
-43.02978515625
-53.1005859375
-53.1005859375
-61.34033203125
-67.7490234375
-65.91796875
-72.32666015625
-77.81982421875
-69.580078125
-49.4384765625
-41.19873046875
-51.26953125
-43.02978515625
-41.19873046875
-56.7626953125
-69.580078125
-55.84716796875
-60.4248046875
-63.17138671875
-54.01611328125
-59.50927734375
-65.00244140625
-55.84716796875
-42.1142578125
-30.21240234375
-40.283203125
-60.4248046875
-66.83349609375
-66.83349609375
-61.34033203125
-62.255859375
-65.91796875
-59.50927734375
-64.0869140625
-60.4248046875
-51.26953125
-55.84716796875
-63.17138671875
-77.81982421875
-81.48193359375
-66.83349609375
-69.580078125
-68.66455078125
-74.15771484375
-82.3974609375
-82.3974609375
-71.4111328125
-62.255859375
-55.84716796875
-51.26953125
-56.7626953125
-61.34033203125
-58.59375
-58.59375
-64.0869140625
-77.81982421875
-75.98876953125
-72.32666015625
-76.904296875
-66.83349609375
-69.580078125
-66.83349609375
-61.34033203125
-39.36767578125
-35.70556640625
-39.36767578125
-56.7626953125
-60.4248046875
-75.98876953125
-77.81982421875
-69.580078125
-65.91796875
-65.00244140625
-59.50927734375
-48.52294921875
-74.15771484375
-84.228515625
-74.15771484375
-65.00244140625
-74.15771484375
-76.904296875
-64.0869140625
-54.931640625
-55.84716796875
-51.26953125
-58.59375
-73.2421875
-81.48193359375
-77.81982421875
-68.66455078125
-67.7490234375
-67.7490234375
-61.34033203125
-56.7626953125
-51.26953125
-49.4384765625
-47.607421875
-39.36767578125
-32.958984375
-29.296875
-27.4658203125
-23.8037109375
-9.1552734375
-3.662109375
-18.310546875
-22.88818359375
-22.88818359375
-7.32421875
15.56396484375
31.1279296875
33.87451171875
42.1142578125
44.86083984375
25.634765625
22.88818359375
14.6484375
10.07080078125
0
0
0.91552734375
4.57763671875
-3.662109375
-23.8037109375
-34.7900390625
-44.86083984375
-55.84716796875
-56.7626953125
-59.50927734375
-62.255859375
-59.50927734375
-57.67822265625
-56.7626953125
-54.01611328125
-55.84716796875
-51.26953125
-62.255859375
-68.66455078125
-73.2421875
-73.2421875
-78.7353515625
-81.48193359375
-79.65087890625
-79.65087890625
-75.98876953125
-65.00244140625
-54.01611328125
-62.255859375
-63.17138671875
-72.32666015625
-75.0732421875
-84.228515625
-109.86328125
-112.60986328125
-120.849609375
-117.1875
-112.60986328125
-89.7216796875
-48.52294921875
5.4931640625
65.91796875
151.06201171875
237.12158203125
336.9140625
447.69287109375
588.68408203125
730.5908203125
849.609375
962.21923828125
1081.23779296875
1192.93212890625
1181.0302734375
1116.943359375
941.162109375
707.70263671875
445.86181640625
198.66943359375
-18.310546875
-189.51416015625
-307.6171875
-324.0966796875
-292.96875
-261.8408203125
-221.5576171875
-177.6123046875
-141.90673828125
-110.77880859375
-82.3974609375
-59.50927734375
-35.70556640625
-2.74658203125
25.634765625
38.4521484375
25.634765625
12.8173828125
10.986328125
13.73291015625
13.73291015625
16.4794921875
3.662109375
7.32421875
-3.662109375
-22.88818359375
0
30.21240234375
37.53662109375
25.634765625
26.55029296875
32.04345703125
31.1279296875
35.70556640625
34.7900390625
29.296875
29.296875
31.1279296875
36.62109375
16.4794921875
32.958984375
29.296875
35.70556640625
36.62109375
36.62109375
50.35400390625
60.4248046875
54.931640625
54.931640625
54.01611328125
52.18505859375
60.4248046875
61.34033203125
82.3974609375
95.21484375
88.80615234375
86.97509765625
85.14404296875
80.56640625
80.56640625
81.48193359375
89.7216796875
100.7080078125
100.7080078125
97.0458984375
109.86328125
113.525390625
119.93408203125
129.08935546875
129.08935546875
119.0185546875
119.0185546875
124.51171875
141.90673828125
146.484375
135.498046875
130.0048828125
157.470703125
174.86572265625
177.6123046875
193.17626953125
199.5849609375
194.091796875
207.82470703125
213.31787109375
200.50048828125
201.416015625
220.64208984375
244.44580078125
253.60107421875
260.009765625
265.5029296875
281.06689453125
282.89794921875
289.306640625
296.630859375
312.19482421875
308.53271484375
306.70166015625
322.265625
329.58984375
331.4208984375
338.7451171875
337.82958984375
339.66064453125
343.32275390625
344.23828125
344.23828125
336.9140625
333.251953125
344.23828125
336.9140625
330.50537109375
335.0830078125
334.16748046875
310.36376953125
294.7998046875
292.96875
289.306640625
268.24951171875
255.43212890625
243.5302734375
230.712890625
224.30419921875
215.14892578125
196.83837890625
178.52783203125
166.6259765625
148.3154296875
133.6669921875
119.0185546875
111.6943359375
100.7080078125
87.890625
74.15771484375
67.7490234375
56.7626953125
47.607421875
29.296875
10.986328125
0
-1.8310546875
-5.4931640625
-1.8310546875
-3.662109375
-24.71923828125
-28.38134765625
-22.88818359375
-25.634765625
-34.7900390625
-44.86083984375
-50.35400390625
-32.958984375
-22.88818359375
-32.958984375
-37.53662109375
-32.04345703125
-30.21240234375
-39.36767578125
-35.70556640625
-48.52294921875
-46.69189453125
-31.1279296875
-31.1279296875
-32.04345703125
-43.02978515625
-49.4384765625
-52.18505859375
-54.01611328125
-48.52294921875
-35.70556640625
-44.86083984375
-44.86083984375
-44.86083984375
-38.4521484375
-40.283203125
-38.4521484375
-43.9453125
-36.62109375
-49.4384765625
-60.4248046875
-47.607421875
-38.4521484375
-27.4658203125
-24.71923828125
-24.71923828125
-25.634765625
-21.05712890625
-31.1279296875
-43.9453125
-31.1279296875
-25.634765625
-35.70556640625
-22.88818359375
-10.986328125
-30.21240234375
-42.1142578125
-30.21240234375
-35.70556640625
-35.70556640625
-35.70556640625
-35.70556640625
-26.55029296875
-19.22607421875
-23.8037109375
-22.88818359375
-12.8173828125
-10.07080078125
-14.6484375
-7.32421875
-9.1552734375
-9.1552734375
-10.986328125
-17.39501953125
-19.22607421875
-17.39501953125
-26.55029296875
-22.88818359375
-31.1279296875
-24.71923828125
-15.56396484375
-17.39501953125
-20.1416015625
-18.310546875
-24.71923828125
-23.8037109375
-18.310546875
-20.1416015625
-21.05712890625
-24.71923828125
-27.4658203125
-33.87451171875
-32.958984375
-35.70556640625
-35.70556640625
-41.19873046875
-40.283203125
-25.634765625
-22.88818359375
-28.38134765625
-31.1279296875
-36.62109375
-41.19873046875
-34.7900390625
-38.4521484375
-51.26953125
-52.18505859375
-51.26953125
-41.19873046875
-53.1005859375
-46.69189453125
-45.7763671875
-41.19873046875
-34.7900390625
-37.53662109375
-35.70556640625
-51.26953125
-44.86083984375
-37.53662109375
-42.1142578125
-44.86083984375
-40.283203125
-43.02978515625
-45.7763671875
-47.607421875
-51.26953125
-56.7626953125
-55.84716796875
-51.26953125
-56.7626953125
-59.50927734375
-58.59375
-52.18505859375
-35.70556640625
-41.19873046875
-54.01611328125
-46.69189453125
-48.52294921875
-54.01611328125
-58.59375
-63.17138671875
-56.7626953125
-58.59375
-71.4111328125
-79.65087890625
-85.14404296875
-56.7626953125
-43.02978515625
-51.26953125
-54.01611328125
-59.50927734375
-48.52294921875
-54.931640625
-55.84716796875
-51.26953125
-43.02978515625
-39.36767578125
-41.19873046875
-43.9453125
-42.1142578125
-41.19873046875
-54.931640625
-58.59375
-59.50927734375
-65.00244140625
-60.4248046875
-60.4248046875
-59.50927734375
-52.18505859375
-63.17138671875
-67.7490234375
-62.255859375
-45.7763671875
-38.4521484375
-50.35400390625
-51.26953125
-54.931640625
-54.931640625
-52.18505859375
-49.4384765625
-60.4248046875
-64.0869140625
-65.00244140625
-61.34033203125
-60.4248046875
-59.50927734375
-54.931640625
-50.35400390625
-34.7900390625
-49.4384765625
-54.931640625
-50.35400390625
-47.607421875
-46.69189453125
-55.84716796875
-74.15771484375
-60.4248046875
-51.26953125
-47.607421875
-38.4521484375
-36.62109375
-31.1279296875
-15.56396484375
-20.1416015625
-12.8173828125
-5.4931640625
-12.8173828125
-17.39501953125
-28.38134765625
-14.6484375
13.73291015625
28.38134765625
23.8037109375
21.97265625
34.7900390625
32.958984375
27.4658203125
32.04345703125
38.4521484375
21.97265625
11.90185546875
20.1416015625
8.23974609375
8.23974609375
11.90185546875
0
-10.986328125
-20.1416015625
-20.1416015625
-29.296875
-42.1142578125
-37.53662109375
-43.02978515625
-32.04345703125
-39.36767578125
-59.50927734375
-53.1005859375
-54.931640625
-63.17138671875
-59.50927734375
-50.35400390625
-49.4384765625
-54.01611328125
-49.4384765625
-55.84716796875
-61.34033203125
-63.17138671875
-61.34033203125
-57.67822265625
-56.7626953125
-57.67822265625
-58.59375
-73.2421875
-98.876953125
-127.25830078125
-149.23095703125
-148.3154296875
-136.41357421875
-111.6943359375
-79.65087890625
-29.296875
13.73291015625
63.17138671875
138.24462890625
233.45947265625
325.927734375
411.07177734375
531.005859375
689.39208984375
839.53857421875
962.21923828125
1093.1396484375
1195.6787109375
1194.76318359375
1126.0986328125
975.03662109375
763.5498046875
500.79345703125
270.99609375
54.01611328125
-138.24462890625
-301.20849609375
-344.23828125
-312.19482421875
-274.658203125
-224.30419921875
-181.2744140625
-155.6396484375
-118.10302734375
-90.63720703125
-65.91796875
-28.38134765625
-2.74658203125
21.05712890625
31.1279296875
19.22607421875
6.40869140625
0
-3.662109375
0
-7.32421875
4.57763671875
12.8173828125
14.6484375
21.05712890625
19.22607421875
21.97265625
27.4658203125
21.97265625
22.88818359375
26.55029296875
32.04345703125
37.53662109375
26.55029296875
17.39501953125
21.05712890625
27.4658203125
34.7900390625
43.02978515625
36.62109375
36.62109375
49.4384765625
40.283203125
40.283203125
45.7763671875
54.01611328125
57.67822265625
55.84716796875
44.86083984375
50.35400390625
54.01611328125
59.50927734375
63.17138671875
65.91796875
65.00244140625
75.98876953125
69.580078125
62.255859375
74.15771484375
83.31298828125
80.56640625
77.81982421875
84.228515625
95.21484375
96.13037109375
101.62353515625
92.46826171875
102.5390625
109.86328125
114.44091796875
124.51171875
120.849609375
124.51171875
134.58251953125
133.6669921875
141.90673828125
151.9775390625
160.21728515625
171.20361328125
168.45703125
174.86572265625
181.2744140625
187.68310546875
206.9091796875
218.81103515625
221.5576171875
230.712890625
235.29052734375
250.8544921875
253.60107421875
248.10791015625
276.4892578125
290.22216796875
291.1376953125
292.96875
291.1376953125
303.03955078125
302.1240234375
309.4482421875
323.18115234375
320.4345703125
321.35009765625
336.9140625
329.58984375
315.85693359375
320.4345703125
321.35009765625
319.51904296875
311.279296875
308.53271484375
320.4345703125
332.33642578125
325.01220703125
306.70166015625
314.02587890625
320.4345703125
308.53271484375
297.54638671875
282.89794921875
265.5029296875
249.93896484375
227.05078125
209.65576171875
207.82470703125
193.17626953125
171.20361328125
156.55517578125
139.16015625
127.25830078125
120.849609375
101.62353515625
77.81982421875
61.34033203125
54.931640625
46.69189453125
42.1142578125
26.55029296875
26.55029296875
25.634765625
13.73291015625
17.39501953125
0
-11.90185546875
-16.4794921875
-21.97265625
-30.21240234375
-24.71923828125
-26.55029296875
-25.634765625
-37.53662109375
-44.86083984375
-36.62109375
-43.02978515625
-43.02978515625
-41.19873046875
-50.35400390625
-47.607421875
-53.1005859375
-54.931640625
-55.84716796875
-65.91796875
-74.15771484375
-75.0732421875
-60.4248046875
-55.84716796875
-54.931640625
-41.19873046875
-36.62109375
-43.9453125
-59.50927734375
-64.0869140625
-59.50927734375
-56.7626953125
-45.7763671875
-38.4521484375
-49.4384765625
-54.01611328125
-56.7626953125
-39.36767578125
-38.4521484375
-54.01611328125
-48.52294921875
-38.4521484375
-37.53662109375
-52.18505859375
-57.67822265625
-50.35400390625
-36.62109375
-36.62109375
-54.01611328125
-44.86083984375
-39.36767578125
-47.607421875
-40.283203125
-47.607421875
-48.52294921875
-47.607421875
-57.67822265625
-54.01611328125
-43.9453125
-48.52294921875
-40.283203125
-38.4521484375
-46.69189453125
-50.35400390625
-46.69189453125
-45.7763671875
-40.283203125
-37.53662109375
-25.634765625
-45.7763671875
-41.19873046875
-52.18505859375
-40.283203125
-27.4658203125
-27.4658203125
-32.958984375
-18.310546875
-8.23974609375
-23.8037109375
-17.39501953125
-21.97265625
-24.71923828125
-21.05712890625
-23.8037109375
-33.87451171875
-42.1142578125
-36.62109375
-43.02978515625
-48.52294921875
-46.69189453125
-36.62109375
-36.62109375
-39.36767578125
-43.9453125
-48.52294921875
-48.52294921875
-55.84716796875
-46.69189453125
-56.7626953125
-54.01611328125
-55.84716796875
-38.4521484375
-44.86083984375
-42.1142578125
-47.607421875
-50.35400390625
-47.607421875
-53.1005859375
-59.50927734375
-66.83349609375
-47.607421875
-55.84716796875
-45.7763671875
-49.4384765625
-58.59375
-56.7626953125
-50.35400390625
-59.50927734375
-60.4248046875
-46.69189453125
-42.1142578125
-51.26953125
-50.35400390625
-56.7626953125
-61.34033203125
-59.50927734375
-58.59375
-42.1142578125
-43.9453125
-56.7626953125
-48.52294921875
-45.7763671875
-53.1005859375
-52.18505859375
-52.18505859375
-64.0869140625
-60.4248046875
-65.00244140625
-76.904296875
-71.4111328125
-72.32666015625
-75.0732421875
-70.49560546875
-62.255859375
-66.83349609375
-69.580078125
-66.83349609375
-56.7626953125
-51.26953125
-62.255859375
-69.580078125
-70.49560546875
-57.67822265625
-61.34033203125
-50.35400390625
-63.17138671875
-64.0869140625
-55.84716796875
-63.17138671875
-55.84716796875
-56.7626953125
-53.1005859375
-53.1005859375
-57.67822265625
-65.91796875
-64.0869140625
-54.931640625
-55.84716796875
-72.32666015625
-60.4248046875
-46.69189453125
-49.4384765625
-54.931640625
-43.02978515625
-43.9453125
-22.88818359375
-14.6484375
-8.23974609375
-13.73291015625
-7.32421875
-11.90185546875
-8.23974609375
-11.90185546875
-15.56396484375
-6.40869140625
9.1552734375
25.634765625
32.04345703125
34.7900390625
43.9453125
23.8037109375
22.88818359375
15.56396484375
18.310546875
21.05712890625
16.4794921875
10.07080078125
15.56396484375
10.07080078125
6.40869140625
10.986328125
-7.32421875
-32.04345703125
-43.9453125
-45.7763671875
-47.607421875
-43.02978515625
-46.69189453125
-47.607421875
-43.02978515625
-37.53662109375
-34.7900390625
-56.7626953125
-69.580078125
-46.69189453125
-49.4384765625
-53.1005859375
-59.50927734375
-65.91796875
-61.34033203125
-51.26953125
-64.0869140625
-67.7490234375
-69.580078125
-67.7490234375
-68.66455078125
-56.7626953125
-54.931640625
-52.18505859375
-59.50927734375
-80.56640625
-98.876953125
-130.92041015625
-128.173828125
-113.525390625
-78.7353515625
-33.87451171875
-2.74658203125
54.931640625
132.75146484375
203.2470703125
315.85693359375
401.91650390625
522.76611328125
647.27783203125
776.3671875
895.3857421875
1010.7421875
1124.267578125
1131.591796875
1069.3359375
899.96337890625
707.70263671875
489.80712890625
270.08056640625
94.29931640625
-73.2421875
-205.99365234375
-262.75634765625
-243.5302734375
-223.388671875
-215.14892578125
-182.18994140625
-166.6259765625
-148.3154296875
-112.60986328125
-77.81982421875
-65.00244140625
-50.35400390625
-19.22607421875
0.91552734375
6.40869140625
10.986328125
21.05712890625
25.634765625
25.634765625
21.05712890625
16.4794921875
11.90185546875
21.97265625
8.23974609375
8.23974609375
11.90185546875
19.22607421875
24.71923828125
22.88818359375
22.88818359375
30.21240234375
37.53662109375
40.283203125
36.62109375
29.296875
34.7900390625
26.55029296875
23.8037109375
40.283203125
27.4658203125
28.38134765625
51.26953125
54.931640625
45.7763671875
47.607421875
49.4384765625
48.52294921875
43.02978515625
49.4384765625
50.35400390625
50.35400390625
60.4248046875
67.7490234375
56.7626953125
65.00244140625
66.83349609375
71.4111328125
75.0732421875
84.228515625
93.3837890625
94.29931640625
89.7216796875
86.97509765625
89.7216796875
106.201171875
101.62353515625
116.27197265625
111.6943359375
113.525390625
118.10302734375
126.3427734375
137.3291015625
127.25830078125
131.8359375
136.41357421875
151.06201171875
162.9638671875
170.2880859375
175.78125
173.9501953125
184.9365234375
197.75390625
193.17626953125
205.078125
216.064453125
218.81103515625
224.30419921875
229.79736328125
229.79736328125
245.361328125
259.09423828125
261.8408203125
273.74267578125
295.71533203125
307.6171875
297.54638671875
303.955078125
305.7861328125
320.4345703125
326.84326171875
325.927734375
323.18115234375
317.68798828125
326.84326171875
332.33642578125
332.33642578125
334.16748046875
324.0966796875
325.927734375
315.85693359375
318.603515625
316.7724609375
310.36376953125
309.4482421875
292.05322265625
280.1513671875
277.40478515625
266.41845703125
255.43212890625
242.61474609375
230.712890625
217.8955078125
192.2607421875
175.78125
161.1328125
159.3017578125
145.56884765625
129.08935546875
113.525390625
94.29931640625
74.15771484375
68.66455078125
60.4248046875
48.52294921875
43.02978515625
32.04345703125
25.634765625
12.8173828125
7.32421875
10.986328125
5.4931640625
-2.74658203125
-13.73291015625
-16.4794921875
-19.22607421875
-29.296875
-36.62109375
-37.53662109375
-43.02978515625
-46.69189453125
-39.36767578125
-38.4521484375
-33.87451171875
-43.9453125
-31.1279296875
-38.4521484375
-47.607421875
-41.19873046875
-42.1142578125
-52.18505859375
-48.52294921875
-43.9453125
-46.69189453125
-56.7626953125
-54.931640625
-58.59375
-56.7626953125
-54.01611328125
-49.4384765625
-47.607421875
-51.26953125
-46.69189453125
-43.02978515625
-46.69189453125
-55.84716796875
-52.18505859375
-53.1005859375
-62.255859375
-57.67822265625
-41.19873046875
-36.62109375
-51.26953125
-54.931640625
-41.19873046875
-32.04345703125
-27.4658203125
-26.55029296875
-22.88818359375
-21.97265625
-29.296875
-38.4521484375
-38.4521484375
-35.70556640625
-33.87451171875
-32.04345703125
-35.70556640625
-37.53662109375
-37.53662109375
-32.958984375
-33.87451171875
-35.70556640625
-37.53662109375
-27.4658203125
-12.8173828125
-11.90185546875
-18.310546875
-32.04345703125
-30.21240234375
-28.38134765625
-36.62109375
-33.87451171875
-15.56396484375
-18.310546875
-16.4794921875
-7.32421875
-10.986328125
-1.8310546875
-16.4794921875
-33.87451171875
-37.53662109375
-43.02978515625
-39.36767578125
-25.634765625
-17.39501953125
-10.986328125
-9.1552734375
-15.56396484375
-14.6484375
-17.39501953125
-17.39501953125
-17.39501953125
-21.05712890625
-32.04345703125
-32.04345703125
-24.71923828125
-31.1279296875
-35.70556640625
-42.1142578125
-40.283203125
-39.36767578125
-36.62109375
-49.4384765625
-43.9453125
-29.296875
-35.70556640625
-43.02978515625
-37.53662109375
-35.70556640625
-43.02978515625
-43.02978515625
-40.283203125
-46.69189453125
-43.9453125
-36.62109375
-26.55029296875
-32.958984375
-44.86083984375
-48.52294921875
-45.7763671875
-40.283203125
-47.607421875
-43.9453125
-35.70556640625
-39.36767578125
-43.9453125
-48.52294921875
-36.62109375
-39.36767578125
-43.02978515625
-42.1142578125
-58.59375
-75.0732421875
-61.34033203125
-32.958984375
-39.36767578125
-44.86083984375
-43.02978515625
-48.52294921875
-44.86083984375
-42.1142578125
-44.86083984375
-32.958984375
-22.88818359375
-9.1552734375
-0.91552734375
-0.91552734375
1.8310546875
13.73291015625
12.8173828125
17.39501953125
16.4794921875
22.88818359375
28.38134765625
29.296875
43.02978515625
42.1142578125
43.02978515625
46.69189453125
38.4521484375
32.04345703125
21.05712890625
17.39501953125
21.05712890625
30.21240234375
31.1279296875
31.1279296875
29.296875
24.71923828125
15.56396484375
0.91552734375
-9.1552734375
-29.296875
-43.02978515625
-57.67822265625
-60.4248046875
-71.4111328125
-77.81982421875
-70.49560546875
-45.7763671875
-41.19873046875
-46.69189453125
-44.86083984375
-42.1142578125
-61.34033203125
-56.7626953125
-43.02978515625
-47.607421875
-45.7763671875
-47.607421875
-54.931640625
-57.67822265625
-52.18505859375
-51.26953125
-56.7626953125
-63.17138671875
-59.50927734375
-64.0869140625
-84.228515625
-94.29931640625
-89.7216796875
-102.5390625
-129.08935546875
-129.08935546875
-115.3564453125
-58.59375
-12.8173828125
38.4521484375
107.11669921875
178.52783203125
268.24951171875
366.2109375
476.98974609375
605.16357421875
721.435546875
829.4677734375
950.3173828125
1071.1669921875
1105.95703125
1040.95458984375
908.203125
718.68896484375
504.45556640625
280.1513671875
97.0458984375
-63.17138671875
-208.740234375
-283.8134765625
-271.91162109375
-247.1923828125
-237.12158203125
-224.30419921875
-185.85205078125
-151.06201171875
-114.44091796875
-75.98876953125
-62.255859375
-39.36767578125
-10.07080078125
0.91552734375
12.8173828125
26.55029296875
33.87451171875
28.38134765625
21.05712890625
16.4794921875
17.39501953125
25.634765625
20.1416015625
19.22607421875
32.958984375
23.8037109375
18.310546875
20.1416015625
21.05712890625
17.39501953125
21.05712890625
28.38134765625
32.04345703125
39.36767578125
31.1279296875
25.634765625
28.38134765625
25.634765625
32.958984375
23.8037109375
34.7900390625
31.1279296875
30.21240234375
25.634765625
32.04345703125
34.7900390625
21.97265625
40.283203125
44.86083984375
49.4384765625
33.87451171875
41.19873046875
56.7626953125
56.7626953125
61.34033203125
52.18505859375
49.4384765625
53.1005859375
66.83349609375
76.904296875
90.63720703125
85.14404296875
74.15771484375
94.29931640625
109.86328125
90.63720703125
89.7216796875
95.21484375
95.21484375
109.86328125
116.27197265625
123.59619140625
123.59619140625
128.173828125
131.8359375
138.24462890625
134.58251953125
139.16015625
160.21728515625
172.119140625
173.9501953125
182.18994140625
190.4296875
199.5849609375
210.5712890625
223.388671875
233.45947265625
235.29052734375
251.77001953125
244.44580078125
245.361328125
255.43212890625
276.4892578125
271.91162109375
265.5029296875
286.56005859375
297.54638671875
301.20849609375
299.37744140625
307.6171875
306.70166015625
314.02587890625
324.0966796875
315.85693359375
301.20849609375
314.94140625
324.0966796875
319.51904296875
325.01220703125
303.03955078125
281.06689453125
297.54638671875
290.22216796875
270.99609375
254.5166015625
255.43212890625
248.10791015625
234.375
238.95263671875
213.31787109375
192.2607421875
196.83837890625
184.02099609375
157.470703125
146.484375
128.173828125
118.10302734375
104.3701171875
94.29931640625
79.65087890625
66.83349609375
56.7626953125
44.86083984375
23.8037109375
20.1416015625
10.986328125
-0.91552734375
-12.8173828125
-10.07080078125
-13.73291015625
-21.97265625
-29.296875
-35.70556640625
-41.19873046875
-36.62109375
-39.36767578125
-32.04345703125
-34.7900390625
-31.1279296875
-33.87451171875
-54.01611328125
-63.17138671875
-64.0869140625
-57.67822265625
-69.580078125
-77.81982421875
-67.7490234375
-61.34033203125
-48.52294921875
-42.1142578125
-49.4384765625
-57.67822265625
-59.50927734375
-65.91796875
-54.01611328125
-63.17138671875
-47.607421875
-46.69189453125
-54.01611328125
-67.7490234375
-73.2421875
-65.91796875
-56.7626953125
-66.83349609375
-63.17138671875
-55.84716796875
-52.18505859375
-41.19873046875
-51.26953125
-54.01611328125
-58.59375
-60.4248046875
-63.17138671875
-52.18505859375
-50.35400390625
-44.86083984375
-43.02978515625
-44.86083984375
-41.19873046875
-19.22607421875
-21.05712890625
-33.87451171875
-43.02978515625
-32.958984375
-35.70556640625
-45.7763671875
-38.4521484375
-43.9453125
-46.69189453125
-33.87451171875
-26.55029296875
-32.958984375
-24.71923828125
-19.22607421875
-21.97265625
-22.88818359375
-30.21240234375
-27.4658203125
-21.05712890625
-34.7900390625
-47.607421875
-27.4658203125
-13.73291015625
-10.986328125
-14.6484375
-35.70556640625
-43.9453125
-25.634765625
-22.88818359375
-22.88818359375
-26.55029296875
-24.71923828125
-27.4658203125
-40.283203125
-29.296875
-34.7900390625
-33.87451171875
-27.4658203125
-43.9453125
-35.70556640625
-43.9453125
-34.7900390625
-37.53662109375
-35.70556640625
-34.7900390625
-43.02978515625
-53.1005859375
-42.1142578125
-44.86083984375
-37.53662109375
-34.7900390625
-33.87451171875
-32.958984375
-38.4521484375
-43.02978515625
-50.35400390625
-55.84716796875
-62.255859375
-58.59375
-69.580078125
-47.607421875
-32.04345703125
-41.19873046875
-43.9453125
-25.634765625
-17.39501953125
-22.88818359375
-39.36767578125
-43.02978515625
-34.7900390625
-50.35400390625
-56.7626953125
-47.607421875
-36.62109375
-43.02978515625
-50.35400390625
-44.86083984375
-46.69189453125
-58.59375
-48.52294921875
-44.86083984375
-48.52294921875
-51.26953125
-49.4384765625
-48.52294921875
-44.86083984375
-49.4384765625
-49.4384765625
-42.1142578125
-38.4521484375
-36.62109375
-34.7900390625
-39.36767578125
-53.1005859375
-47.607421875
-36.62109375
-1.8310546875
10.07080078125
19.22607421875
27.4658203125
38.4521484375
24.71923828125
15.56396484375
17.39501953125
31.1279296875
42.1142578125
44.86083984375
57.67822265625
64.0869140625
65.00244140625
59.50927734375
63.17138671875
58.59375
42.1142578125
35.70556640625
42.1142578125
39.36767578125
35.70556640625
38.4521484375
41.19873046875
25.634765625
5.4931640625
3.662109375
3.662109375
-9.1552734375
-32.04345703125
-33.87451171875
-32.958984375
-39.36767578125
-33.87451171875
-31.1279296875
-34.7900390625
-35.70556640625
-49.4384765625
-48.52294921875
-47.607421875
-46.69189453125
-46.69189453125
-40.283203125
-39.36767578125
-54.931640625
-53.1005859375
-51.26953125
-45.7763671875
-44.86083984375
-47.607421875
-56.7626953125
-59.50927734375
-59.50927734375
-60.4248046875
-70.49560546875
-91.552734375
-97.96142578125
-102.5390625
-117.1875
-106.201171875
-67.7490234375
-8.23974609375
27.4658203125
101.62353515625
185.85205078125
263.671875
367.12646484375
476.98974609375
597.83935546875
731.50634765625
856.01806640625
977.783203125
1094.05517578125
1192.93212890625
1181.94580078125
1104.1259765625
937.5
716.85791015625
471.49658203125
248.10791015625
39.36767578125
-160.21728515625
-293.88427734375
-318.603515625
-280.1513671875
-238.037109375
-202.33154296875
-173.03466796875
-124.51171875
-89.7216796875
-67.7490234375
-43.9453125
-6.40869140625
17.39501953125
24.71923828125
26.55029296875
28.38134765625
46.69189453125
40.283203125
24.71923828125
12.8173828125
6.40869140625
9.1552734375
16.4794921875
16.4794921875
12.8173828125
24.71923828125
28.38134765625
31.1279296875
29.296875
28.38134765625
30.21240234375
36.62109375
45.7763671875
32.958984375
31.1279296875
35.70556640625
35.70556640625
30.21240234375
32.958984375
41.19873046875
50.35400390625
51.26953125
54.01611328125
51.26953125
53.1005859375
46.69189453125
52.18505859375
59.50927734375
45.7763671875
48.52294921875
48.52294921875
54.01611328125
62.255859375
59.50927734375
64.0869140625
71.4111328125
78.7353515625
71.4111328125
75.98876953125
86.0595703125
100.7080078125
88.80615234375
96.13037109375
85.14404296875
88.80615234375
100.7080078125
113.525390625
122.6806640625
126.3427734375
120.849609375
116.27197265625
119.0185546875
136.41357421875
139.16015625
142.822265625
153.80859375
163.87939453125
163.87939453125
160.21728515625
167.54150390625
173.03466796875
184.9365234375
205.99365234375
216.97998046875
220.64208984375
236.2060546875
240.78369140625
231.62841796875
237.12158203125
251.77001953125
262.75634765625
263.671875
263.671875
274.658203125
297.54638671875
319.51904296875
321.35009765625
322.265625
311.279296875
315.85693359375
319.51904296875
333.251953125
339.66064453125
343.32275390625
345.15380859375
338.7451171875
329.58984375
317.68798828125
325.927734375
321.35009765625
316.7724609375
313.1103515625
310.36376953125
305.7861328125
298.4619140625
289.306640625
272.8271484375
258.1787109375
231.62841796875
221.5576171875
222.47314453125
218.81103515625
201.416015625
185.85205078125
163.87939453125
142.822265625
130.92041015625
107.11669921875
95.21484375
79.65087890625
69.580078125
57.67822265625
49.4384765625
39.36767578125
22.88818359375
13.73291015625
8.23974609375
-4.57763671875
-10.986328125
-19.22607421875
-10.986328125
-17.39501953125
-17.39501953125
-13.73291015625
-28.38134765625
-34.7900390625
-34.7900390625
-32.04345703125
-33.87451171875
-50.35400390625
-56.7626953125
-62.255859375
-66.83349609375
-61.34033203125
-45.7763671875
-47.607421875
-47.607421875
-54.931640625
-54.01611328125
-44.86083984375
-56.7626953125
-58.59375
-60.4248046875
-69.580078125
-69.580078125
-65.00244140625
-68.66455078125
-70.49560546875
-65.00244140625
-52.18505859375
-56.7626953125
-53.1005859375
-51.26953125
-51.26953125
-51.26953125
-58.59375
-61.34033203125
-62.255859375
-65.00244140625
-75.0732421875
-72.32666015625
-63.17138671875
-57.67822265625
-54.931640625
-60.4248046875
-49.4384765625
-48.52294921875
-45.7763671875
-55.84716796875
-55.84716796875
-54.01611328125
-44.86083984375
-39.36767578125
-35.70556640625
-32.958984375
-36.62109375
-36.62109375
-34.7900390625
-24.71923828125
-21.97265625
-11.90185546875
-38.4521484375
-54.931640625
-51.26953125
-52.18505859375
-43.02978515625
-32.958984375
-23.8037109375
-21.05712890625
-26.55029296875
-29.296875
-21.97265625
-26.55029296875
-22.88818359375
-15.56396484375
-21.97265625
-21.97265625
-32.958984375
-34.7900390625
-31.1279296875
-32.958984375
-33.87451171875
-32.958984375
-34.7900390625
-23.8037109375
-21.97265625
-29.296875
-38.4521484375
-43.9453125
-38.4521484375
-34.7900390625
-39.36767578125
-41.19873046875
-44.86083984375
-42.1142578125
-41.19873046875
-41.19873046875
-38.4521484375
-39.36767578125
-42.1142578125
-43.9453125
-50.35400390625
-51.26953125
-51.26953125
-47.607421875
-48.52294921875
-44.86083984375
-36.62109375
-40.283203125
-40.283203125
-48.52294921875
-54.931640625
-47.607421875
-46.69189453125
-46.69189453125
-38.4521484375
-40.283203125
-54.01611328125
-56.7626953125
-48.52294921875
-41.19873046875
-41.19873046875
-44.86083984375
-40.283203125
-37.53662109375
-52.18505859375
-59.50927734375
-53.1005859375
-52.18505859375
-50.35400390625
-44.86083984375
-43.02978515625
-41.19873046875
-45.7763671875
-48.52294921875
-49.4384765625
-54.01611328125
-48.52294921875
-52.18505859375
-49.4384765625
-54.01611328125
-53.1005859375
-56.7626953125
-58.59375
-49.4384765625
-45.7763671875
-49.4384765625
-52.18505859375
-52.18505859375
-59.50927734375
-57.67822265625
-47.607421875
-28.38134765625
-30.21240234375
-17.39501953125
-3.662109375
-7.32421875
-6.40869140625
16.4794921875
16.4794921875
2.74658203125
5.4931640625
20.1416015625
6.40869140625
-5.4931640625
38.4521484375
68.66455078125
67.7490234375
59.50927734375
59.50927734375
56.7626953125
54.01611328125
41.19873046875
46.69189453125
40.283203125
37.53662109375
32.958984375
26.55029296875
25.634765625
18.310546875
9.1552734375
-9.1552734375
-29.296875
-39.36767578125
-52.18505859375
-50.35400390625
-45.7763671875
-46.69189453125
-47.607421875
-65.91796875
-54.931640625
-50.35400390625
-56.7626953125
-54.931640625
-51.26953125
-58.59375
-66.83349609375
-68.66455078125
-86.0595703125
-93.3837890625
-75.98876953125
-58.59375
-47.607421875
-27.4658203125
-47.607421875
-77.81982421875
-72.32666015625
-78.7353515625
-89.7216796875
-93.3837890625
-104.3701171875
-115.3564453125
-126.3427734375
-134.58251953125
-113.525390625
-73.2421875
-21.05712890625
28.38134765625
90.63720703125
169.37255859375
255.43212890625
366.2109375
476.98974609375
607.91015625
738.83056640625
885.31494140625
1001.5869140625
1111.4501953125
1211.24267578125
1190.185546875
1100.4638671875
928.3447265625
694.88525390625
444.9462890625
220.64208984375
-10.07080078125
-205.99365234375
-324.0966796875
-345.15380859375
-304.87060546875
-255.43212890625
-220.64208984375
-184.9365234375
-150.146484375
-102.5390625
-67.7490234375
-44.86083984375
-41.19873046875
-26.55029296875
-7.32421875
6.40869140625
8.23974609375
11.90185546875
13.73291015625
12.8173828125
5.4931640625
2.74658203125
0
-1.8310546875
-4.57763671875
9.1552734375
10.986328125
5.4931640625
5.4931640625
0
12.8173828125
21.97265625
19.22607421875
15.56396484375
19.22607421875
20.1416015625
17.39501953125
15.56396484375
22.88818359375
24.71923828125
27.4658203125
26.55029296875
17.39501953125
12.8173828125
20.1416015625
28.38134765625
26.55029296875
32.958984375
47.607421875
39.36767578125
42.1142578125
45.7763671875
41.19873046875
35.70556640625
40.283203125
54.931640625
65.91796875
74.15771484375
77.81982421875
73.2421875
67.7490234375
69.580078125
77.81982421875
79.65087890625
89.7216796875
98.876953125
110.77880859375
107.11669921875
105.28564453125
105.28564453125
107.11669921875
123.59619140625
117.1875
116.27197265625
128.173828125
138.24462890625
141.90673828125
147.39990234375
150.146484375
153.80859375
161.1328125
176.69677734375
189.51416015625
197.75390625
204.16259765625
192.2607421875
204.16259765625
230.712890625
231.62841796875
233.45947265625
251.77001953125
258.1787109375
269.1650390625
280.1513671875
279.23583984375
281.06689453125
292.96875
299.37744140625
311.279296875
314.02587890625
311.279296875
309.4482421875
325.927734375
336.9140625
335.99853515625
336.9140625
326.84326171875
330.50537109375
341.49169921875
325.01220703125
325.01220703125
328.67431640625
330.50537109375
323.18115234375
315.85693359375
299.37744140625
297.54638671875
285.64453125
271.91162109375
256.34765625
238.037109375
216.064453125
188.5986328125
176.69677734375
179.443359375
172.119140625
150.146484375
126.3427734375
107.11669921875
92.46826171875
80.56640625
80.56640625
61.34033203125
58.59375
49.4384765625
41.19873046875
28.38134765625
26.55029296875
10.986328125
-9.1552734375
-12.8173828125
-16.4794921875
-25.634765625
-31.1279296875
-39.36767578125
-34.7900390625
-35.70556640625
-38.4521484375
-37.53662109375
-45.7763671875
-49.4384765625
-51.26953125
-46.69189453125
-44.86083984375
-43.02978515625
-52.18505859375
-59.50927734375
-56.7626953125
-50.35400390625
-45.7763671875
-43.02978515625
-45.7763671875
-54.931640625
-54.01611328125
-47.607421875
-54.931640625
-65.91796875
-58.59375
-63.17138671875
-65.00244140625
-58.59375
-59.50927734375
-56.7626953125
-53.1005859375
-47.607421875
-47.607421875
-50.35400390625
-48.52294921875
-53.1005859375
-54.931640625
-56.7626953125
-58.59375
-49.4384765625
-48.52294921875
-44.86083984375
-44.86083984375
-47.607421875
-41.19873046875
-51.26953125
-54.01611328125
-51.26953125
-35.70556640625
-32.04345703125
-25.634765625
-32.958984375
-49.4384765625
-61.34033203125
-65.91796875
-46.69189453125
-32.04345703125
-32.04345703125
-29.296875
-21.97265625
-22.88818359375
-30.21240234375
-27.4658203125
-21.05712890625
-30.21240234375
-26.55029296875
-30.21240234375
-36.62109375
-32.958984375
-41.19873046875
-38.4521484375
-43.02978515625
-35.70556640625
-32.04345703125
-28.38134765625
-22.88818359375
-22.88818359375
-25.634765625
-28.38134765625
-28.38134765625
-30.21240234375
-32.04345703125
-30.21240234375
-35.70556640625
-37.53662109375
-43.02978515625
-38.4521484375
-43.02978515625
-52.18505859375
-52.18505859375
-44.86083984375
-36.62109375
-39.36767578125
-40.283203125
-45.7763671875
-56.7626953125
-50.35400390625
-48.52294921875
-46.69189453125
-65.91796875
-63.17138671875
-61.34033203125
-67.7490234375
-63.17138671875
-62.255859375
-72.32666015625
-72.32666015625
-62.255859375
-40.283203125
-51.26953125
-62.255859375
-60.4248046875
-62.255859375
-68.66455078125
-71.4111328125
-60.4248046875
-61.34033203125
-63.17138671875
-61.34033203125
-60.4248046875
-64.0869140625
-65.00244140625
-64.0869140625
-67.7490234375
-65.91796875
-62.255859375
-78.7353515625
-88.80615234375
-76.904296875
-64.0869140625
-75.0732421875
-85.14404296875
-83.31298828125
-66.83349609375
-60.4248046875
-65.91796875
-70.49560546875
-65.00244140625
-67.7490234375
-71.4111328125
-73.2421875
-68.66455078125
-74.15771484375
-71.4111328125
-75.0732421875
-84.228515625
-80.56640625
-66.83349609375
-57.67822265625
-60.4248046875
-65.91796875
-76.904296875
-77.81982421875
-67.7490234375
-67.7490234375
-65.00244140625
-56.7626953125
-44.86083984375
-42.1142578125
-43.9453125
-21.05712890625
-3.662109375
-7.32421875
1.8310546875
2.74658203125
-2.74658203125
-7.32421875
4.57763671875
13.73291015625
26.55029296875
28.38134765625
30.21240234375
29.296875
26.55029296875
22.88818359375
14.6484375
7.32421875
-1.8310546875
-8.23974609375
2.74658203125
8.23974609375
9.1552734375
2.74658203125
-11.90185546875
-21.97265625
-32.04345703125
-60.4248046875
-75.98876953125
-79.65087890625
-71.4111328125
-79.65087890625
-80.56640625
-72.32666015625
-62.255859375
-68.66455078125
-79.65087890625
-86.0595703125
-85.14404296875
-87.890625
-83.31298828125
-75.0732421875
-84.228515625
-91.552734375
-87.890625
-81.48193359375
-85.14404296875
-80.56640625
-85.14404296875
-88.80615234375
-87.890625
-83.31298828125
-90.63720703125
-95.21484375
-109.86328125
-138.24462890625
-143.73779296875
-150.146484375
-156.55517578125
-146.484375
-94.29931640625
-42.1142578125
-11.90185546875
66.83349609375
158.38623046875
267.333984375
378.11279296875
485.2294921875
610.65673828125
751.64794921875
884.3994140625
1006.16455078125
1118.7744140625
1193.84765625
1158.14208984375
1061.09619140625
868.83544921875
603.33251953125
347.900390625
144.6533203125
-61.34033203125
-255.43212890625
-369.873046875
-368.0419921875
-325.927734375
-285.64453125
-241.69921875
-199.5849609375
-151.06201171875
-117.1875
-95.21484375
-67.7490234375
-33.87451171875
-15.56396484375
-8.23974609375
-10.986328125
-18.310546875
-11.90185546875
-6.40869140625
-4.57763671875
-6.40869140625
-8.23974609375
-16.4794921875
-8.23974609375
-6.40869140625
-22.88818359375
-19.22607421875
-23.8037109375
-16.4794921875
-4.57763671875
-2.74658203125
-10.07080078125
-10.986328125
-6.40869140625
-1.8310546875
-0.91552734375
4.57763671875
6.40869140625
4.57763671875
0
-4.57763671875
4.57763671875
12.8173828125
14.6484375
14.6484375
22.88818359375
18.310546875
13.73291015625
22.88818359375
27.4658203125
22.88818359375
28.38134765625
24.71923828125
28.38134765625
37.53662109375
34.7900390625
40.283203125
42.1142578125
42.1142578125
47.607421875
54.931640625
59.50927734375
65.00244140625
56.7626953125
58.59375
65.91796875
69.580078125
72.32666015625
69.580078125
80.56640625
93.3837890625
101.62353515625
112.60986328125
118.10302734375
119.93408203125
122.6806640625
127.25830078125
133.6669921875
139.16015625
145.56884765625
152.89306640625
159.3017578125
160.21728515625
149.23095703125
165.71044921875
187.68310546875
198.66943359375
205.078125
210.5712890625
223.388671875
235.29052734375
249.0234375
255.43212890625
260.92529296875
267.333984375
264.58740234375
277.40478515625
288.39111328125
293.88427734375
298.4619140625
298.4619140625
297.54638671875
303.955078125
308.53271484375
311.279296875
317.68798828125
313.1103515625
304.87060546875
308.53271484375
302.1240234375
295.71533203125
300.29296875
292.05322265625
274.658203125
266.41845703125
276.4892578125
280.1513671875
261.8408203125
247.1923828125
229.79736328125
205.078125
194.091796875
182.18994140625
171.20361328125
158.38623046875
145.56884765625
126.3427734375
108.0322265625
86.0595703125
68.66455078125
65.00244140625
43.9453125
34.7900390625
43.02978515625
25.634765625
20.1416015625
14.6484375
-7.32421875
-15.56396484375
-20.1416015625
-19.22607421875
-36.62109375
-54.01611328125
-62.255859375
-53.1005859375
-54.01611328125
-54.01611328125
-49.4384765625
-53.1005859375
-55.84716796875
-52.18505859375
-63.17138671875
-65.00244140625
-62.255859375
-59.50927734375
-65.91796875
-73.2421875
-71.4111328125
-72.32666015625
-72.32666015625
-78.7353515625
-80.56640625
-76.904296875
-76.904296875
-78.7353515625
-72.32666015625
-75.0732421875
-76.904296875
-73.2421875
-69.580078125
-72.32666015625
-76.904296875
-85.14404296875
-78.7353515625
-74.15771484375
-66.83349609375
-73.2421875
-78.7353515625
-80.56640625
-74.15771484375
-69.580078125
-71.4111328125
-70.49560546875
-65.91796875
-69.580078125
-71.4111328125
-74.15771484375
-53.1005859375
-57.67822265625
-71.4111328125
-62.255859375
-59.50927734375
-63.17138671875
-66.83349609375
-58.59375
-61.34033203125
-65.00244140625
-62.255859375
-63.17138671875
-72.32666015625
-69.580078125
-60.4248046875
-51.26953125
-49.4384765625
-45.7763671875
-40.283203125
-47.607421875
-57.67822265625
-54.01611328125
-58.59375
-56.7626953125
-54.01611328125
-55.84716796875
-62.255859375
-69.580078125
-52.18505859375
-47.607421875
-50.35400390625
-50.35400390625
-61.34033203125
-59.50927734375
-56.7626953125
-49.4384765625
-43.9453125
-46.69189453125
-61.34033203125
-74.15771484375
-65.00244140625
-67.7490234375
-60.4248046875
-59.50927734375
-59.50927734375
-62.255859375
-72.32666015625
-70.49560546875
-66.83349609375
-63.17138671875
-70.49560546875
-66.83349609375
-61.34033203125
-73.2421875
-81.48193359375
-84.228515625
-80.56640625
-79.65087890625
-77.81982421875
-74.15771484375
-79.65087890625
-85.14404296875
-86.0595703125
-83.31298828125
-89.7216796875
-100.7080078125
-99.79248046875
-93.3837890625
-95.21484375
-94.29931640625
-89.7216796875
-85.14404296875
-99.79248046875
-94.29931640625
-99.79248046875
-92.46826171875
-85.14404296875
-84.228515625
-89.7216796875
-104.3701171875
-98.876953125
-110.77880859375
-114.44091796875
-102.5390625
-103.45458984375
-106.201171875
-103.45458984375
-101.62353515625
-103.45458984375
-114.44091796875
-112.60986328125
-108.94775390625
-114.44091796875
-122.6806640625
-119.93408203125
-111.6943359375
-106.201171875
-116.27197265625
-115.3564453125
-104.3701171875
-103.45458984375
-107.11669921875
-117.1875
-113.525390625
-120.849609375
-118.10302734375
-121.76513671875
-124.51171875
-119.93408203125
-126.3427734375
-125.42724609375
-109.86328125
-103.45458984375
-106.201171875
-105.28564453125
-97.0458984375
-87.890625
-92.46826171875
-91.552734375
-75.0732421875
-68.66455078125
-59.50927734375
-55.84716796875
-43.9453125
-45.7763671875
-49.4384765625
-47.607421875
-43.9453125
-26.55029296875
-20.1416015625
-10.986328125
-10.986328125
-10.986328125
-11.90185546875
-22.88818359375
-18.310546875
-21.97265625
-34.7900390625
-47.607421875
-54.931640625
-50.35400390625
-46.69189453125
-39.36767578125
-45.7763671875
-65.00244140625
-84.228515625
-92.46826171875
-99.79248046875
-103.45458984375
-105.28564453125
-110.77880859375
-115.3564453125
-119.0185546875
-120.849609375
-116.27197265625
-118.10302734375
-121.76513671875
-128.173828125
-127.25830078125
-121.76513671875
-118.10302734375
-123.59619140625
-120.849609375
-121.76513671875
-122.6806640625
-123.59619140625
-121.76513671875
-126.3427734375
-130.92041015625
-121.76513671875
-127.25830078125
-139.16015625
-150.146484375
-162.04833984375
-176.69677734375
-181.2744140625
-185.85205078125
-186.767578125
-175.78125
-153.80859375
-111.6943359375
-73.2421875
-12.8173828125
65.91796875
168.45703125
280.1513671875
382.6904296875
499.8779296875
639.95361328125
789.1845703125
906.3720703125
1013.48876953125
1135.25390625
1157.2265625
1092.22412109375
927.42919921875
703.125
442.19970703125
205.078125
-10.07080078125
-211.48681640625
-366.2109375
-416.56494140625
-378.11279296875
-352.47802734375
-313.1103515625
-257.26318359375
-211.48681640625
-178.52783203125
-151.06201171875
-122.6806640625
-91.552734375
-64.0869140625
-43.02978515625
-41.19873046875
-43.02978515625
-40.283203125
-42.1142578125
-43.02978515625
-49.4384765625
-51.26953125
-52.18505859375
-48.52294921875
-44.86083984375
-45.7763671875
-46.69189453125
-48.52294921875
-59.50927734375
-54.931640625
-43.9453125
-36.62109375
-39.36767578125
-51.26953125
-29.296875
-32.04345703125
-42.1142578125
-43.9453125
-26.55029296875
-17.39501953125
-30.21240234375
-43.9453125
-36.62109375
-29.296875
-30.21240234375
-39.36767578125
-41.19873046875
-27.4658203125
-2.74658203125
-7.32421875
-5.4931640625
-10.986328125
-11.90185546875
0.91552734375
3.662109375
5.4931640625
0
11.90185546875
18.310546875
18.310546875
17.39501953125
20.1416015625
18.310546875
24.71923828125
20.1416015625
29.296875
36.62109375
51.26953125
63.17138671875
59.50927734375
55.84716796875
64.0869140625
75.98876953125
75.98876953125
79.65087890625
86.0595703125
92.46826171875
105.28564453125
109.86328125
106.201171875
119.93408203125
129.08935546875
130.92041015625
140.07568359375
144.6533203125
151.06201171875
149.23095703125
171.20361328125
184.02099609375
197.75390625
208.740234375
213.31787109375
217.8955078125
229.79736328125
238.037109375
231.62841796875
238.037109375
251.77001953125
255.43212890625
249.0234375
248.10791015625
249.0234375
243.5302734375
267.333984375
279.23583984375
276.4892578125
283.8134765625
281.982421875
291.1376953125
280.1513671875
277.40478515625
277.40478515625
279.23583984375
282.89794921875
280.1513671875
255.43212890625
241.69921875
231.62841796875
218.81103515625
203.2470703125
202.33154296875
192.2607421875
173.9501953125
151.9775390625
145.56884765625
134.58251953125
120.849609375
97.0458984375
89.7216796875
83.31298828125
71.4111328125
38.4521484375
13.73291015625
8.23974609375
6.40869140625
-8.23974609375
-14.6484375
-25.634765625
-35.70556640625
-39.36767578125
-41.19873046875
-51.26953125
-60.4248046875
-55.84716796875
-69.580078125
-79.65087890625
-81.48193359375
-83.31298828125
-79.65087890625
-77.81982421875
-82.3974609375
-94.29931640625
-96.13037109375
-98.876953125
-92.46826171875
-99.79248046875
-115.3564453125
-95.21484375
-81.48193359375
-89.7216796875
-95.21484375
-89.7216796875
-87.890625
-84.228515625
-88.80615234375
-93.3837890625
-92.46826171875
-97.96142578125
-97.0458984375
-99.79248046875
-86.0595703125
-86.97509765625
-91.552734375
-91.552734375
-89.7216796875
-94.29931640625
-91.552734375
-85.14404296875
-81.48193359375
-86.0595703125
-86.97509765625
-88.80615234375
-88.80615234375
-96.13037109375
-84.228515625
-86.97509765625
-81.48193359375
-95.21484375
-98.876953125
-91.552734375
-87.890625
-80.56640625
-84.228515625
-75.0732421875
-61.34033203125
-65.00244140625
-70.49560546875
-72.32666015625
-68.66455078125
-71.4111328125
-75.98876953125
-73.2421875
-71.4111328125
-59.50927734375
-73.2421875
-77.81982421875
-75.0732421875
-60.4248046875
-69.580078125
-64.0869140625
-61.34033203125
-53.1005859375
-71.4111328125
-70.49560546875
-71.4111328125
-65.00244140625
-60.4248046875
-53.1005859375
-50.35400390625
-67.7490234375
-75.98876953125
-83.31298828125
-75.0732421875
-73.2421875
-70.49560546875
-75.0732421875
-76.904296875
-80.56640625
-67.7490234375
-82.3974609375
-78.7353515625
-68.66455078125
-65.91796875
-75.0732421875
-94.29931640625
-94.29931640625
-102.5390625
-113.525390625
-111.6943359375
-95.21484375
-86.97509765625
-81.48193359375
-75.98876953125
-86.97509765625
-100.7080078125
-104.3701171875
-117.1875
-118.10302734375
-117.1875
-95.21484375
-86.97509765625
-75.0732421875
-76.904296875
-82.3974609375
-86.0595703125
-88.80615234375
-83.31298828125
-89.7216796875
-87.890625
-89.7216796875
-93.3837890625
-90.63720703125
-97.96142578125
-88.80615234375
-92.46826171875
-93.3837890625
-96.13037109375
-107.11669921875
-99.79248046875
-99.79248046875
-93.3837890625
-110.77880859375
-109.86328125
-112.60986328125
-108.0322265625
-105.28564453125
-113.525390625
-120.849609375
-117.1875
-103.45458984375
-98.876953125
-108.94775390625
-117.1875
-119.0185546875
-120.849609375
-114.44091796875
-125.42724609375
-124.51171875
-115.3564453125
-116.27197265625
-121.76513671875
-113.525390625
-110.77880859375
-115.3564453125
-117.1875
-111.6943359375
-102.5390625
-106.201171875
-105.28564453125
-118.10302734375
-114.44091796875
-98.876953125
-97.96142578125
-92.46826171875
-64.0869140625
-53.1005859375
-48.52294921875
-45.7763671875
-53.1005859375
-60.4248046875
-69.580078125
-61.34033203125
-38.4521484375
-41.19873046875
-33.87451171875
-24.71923828125
-14.6484375
-7.32421875
-6.40869140625
-10.986328125
-15.56396484375
-21.97265625
-38.4521484375
-28.38134765625
-28.38134765625
-32.04345703125
-36.62109375
-38.4521484375
-48.52294921875
-66.83349609375
-87.890625
-119.93408203125
-140.07568359375
-111.6943359375
-88.80615234375
-94.29931640625
-102.5390625
-98.876953125
-114.44091796875
-119.0185546875
-104.3701171875
-100.7080078125
-112.60986328125
-108.94775390625
-104.3701171875
-106.201171875
-103.45458984375
-113.525390625
-98.876953125
-102.5390625
-108.0322265625
-112.60986328125
-110.77880859375
-109.86328125
-117.1875
-114.44091796875
-115.3564453125
-130.0048828125
-136.41357421875
-148.3154296875
-160.21728515625
-175.78125
-184.02099609375
-182.18994140625
-151.9775390625
-117.1875
-55.84716796875
21.05712890625
93.3837890625
189.51416015625
285.64453125
373.53515625
507.2021484375
657.3486328125
796.5087890625
904.541015625
1023.5595703125
1099.54833984375
1070.25146484375
988.76953125
805.6640625
604.248046875
366.2109375
149.23095703125
-27.4658203125
-215.14892578125
-333.251953125
-353.3935546875
-320.4345703125
-298.4619140625
-281.982421875
-249.0234375
-210.5712890625
-182.18994140625
-167.54150390625
-150.146484375
-132.75146484375
-92.46826171875
-65.00244140625
-56.7626953125
-62.255859375
-54.931640625
-50.35400390625
-50.35400390625
-45.7763671875
-56.7626953125
-57.67822265625
-61.34033203125
-49.4384765625
-53.1005859375
-60.4248046875
-58.59375
-50.35400390625
-45.7763671875
-43.9453125
-40.283203125
-35.70556640625
-50.35400390625
-55.84716796875
-53.1005859375
-40.283203125
-39.36767578125
-45.7763671875
-25.634765625
-23.8037109375
-23.8037109375
-35.70556640625
-39.36767578125
-45.7763671875
-42.1142578125
-27.4658203125
-31.1279296875
-17.39501953125
-7.32421875
-7.32421875
-7.32421875
-14.6484375
-15.56396484375
3.662109375
-8.23974609375
-21.05712890625
-20.1416015625
-6.40869140625
0.91552734375
-0.91552734375
17.39501953125
21.97265625
24.71923828125
32.04345703125
43.02978515625
54.931640625
65.91796875
60.4248046875
53.1005859375
63.17138671875
86.0595703125
89.7216796875
79.65087890625
77.81982421875
83.31298828125
86.0595703125
91.552734375
89.7216796875
109.86328125
117.1875
126.3427734375
130.0048828125
131.8359375
135.498046875
133.6669921875
128.173828125
131.8359375
173.03466796875
183.10546875
190.4296875
201.416015625
217.8955078125
231.62841796875
230.712890625
238.037109375
237.12158203125
238.95263671875
253.60107421875
253.60107421875
260.92529296875
262.75634765625
255.43212890625
262.75634765625
261.8408203125
264.58740234375
264.58740234375
264.58740234375
277.40478515625
270.08056640625
263.671875
244.44580078125
248.10791015625
256.34765625
246.27685546875
223.388671875
220.64208984375
229.79736328125
212.40234375
182.18994140625
165.71044921875
164.794921875
151.9775390625
140.9912109375
119.93408203125
94.29931640625
86.0595703125
73.2421875
48.52294921875
54.01611328125
44.86083984375
30.21240234375
14.6484375
14.6484375
16.4794921875
7.32421875
-0.91552734375
-19.22607421875
-17.39501953125
-25.634765625
-47.607421875
-54.01611328125
-59.50927734375
-58.59375
-53.1005859375
-57.67822265625
-86.97509765625
-106.201171875
-114.44091796875
-108.0322265625
-98.876953125
-86.97509765625
-77.81982421875
-84.228515625
-85.14404296875
-84.228515625
-91.552734375
-105.28564453125
-108.0322265625
-91.552734375
-97.96142578125
-107.11669921875
-107.11669921875
-113.525390625
-105.28564453125
-100.7080078125
-103.45458984375
-96.13037109375
-108.0322265625
-119.0185546875
-108.94775390625
-96.13037109375
-94.29931640625
-97.0458984375
-100.7080078125
-97.96142578125
-103.45458984375
-110.77880859375
-102.5390625
-96.13037109375
-91.552734375
-108.0322265625
-109.86328125
-111.6943359375
-101.62353515625
-90.63720703125
-92.46826171875
-92.46826171875
-96.13037109375
-100.7080078125
-97.96142578125
-96.13037109375
-101.62353515625
-91.552734375
-77.81982421875
-78.7353515625
-71.4111328125
-87.890625
-95.21484375
-94.29931640625
-83.31298828125
-69.580078125
-75.98876953125
-80.56640625
-92.46826171875
-82.3974609375
-65.00244140625
-73.2421875
-87.890625
-92.46826171875
-104.3701171875
-83.31298828125
-81.48193359375
-86.97509765625
-78.7353515625
-71.4111328125
-59.50927734375
-68.66455078125
-73.2421875
-78.7353515625
-83.31298828125
-79.65087890625
-80.56640625
-82.3974609375
-82.3974609375
-83.31298828125
-74.15771484375
-78.7353515625
-79.65087890625
-80.56640625
-79.65087890625
-103.45458984375
-108.0322265625
-89.7216796875
-90.63720703125
-93.3837890625
-84.228515625
-78.7353515625
-94.29931640625
-101.62353515625
-96.13037109375
-94.29931640625
-91.552734375
-84.228515625
-95.21484375
-100.7080078125
-108.0322265625
-113.525390625
-111.6943359375
-111.6943359375
-113.525390625
-100.7080078125
-97.96142578125
-105.28564453125
-110.77880859375
-111.6943359375
-117.1875
-114.44091796875
-97.0458984375
-101.62353515625
-102.5390625
-108.94775390625
-112.60986328125
-122.6806640625
-108.0322265625
-105.28564453125
-112.60986328125
-99.79248046875
-97.0458984375
-93.3837890625
-96.13037109375
-114.44091796875
-121.76513671875
-110.77880859375
-109.86328125
-107.11669921875
-107.11669921875
-115.3564453125
-108.0322265625
-108.94775390625
-112.60986328125
-119.93408203125
-102.5390625
-86.97509765625
-89.7216796875
-90.63720703125
-68.66455078125
-53.1005859375
-43.9453125
-37.53662109375
-34.7900390625
-43.02978515625
-56.7626953125
-54.931640625
-46.69189453125
-26.55029296875
-20.1416015625
-17.39501953125
-5.4931640625
-18.310546875
-39.36767578125
-36.62109375
-36.62109375
-26.55029296875
-18.310546875
-21.05712890625
-18.310546875
-38.4521484375
-46.69189453125
-43.02978515625
-45.7763671875
-73.2421875
-79.65087890625
-93.3837890625
-104.3701171875
-102.5390625
-116.27197265625
-110.77880859375
-117.1875
-120.849609375
-120.849609375
-111.6943359375
-98.876953125
-114.44091796875
-122.6806640625
-129.08935546875
-127.25830078125
-129.08935546875
-124.51171875
-118.10302734375
-119.0185546875
-115.3564453125
-123.59619140625
-132.75146484375
-132.75146484375
-127.25830078125
-136.41357421875
-136.41357421875
-136.41357421875
-140.07568359375
-148.3154296875
-155.6396484375
-185.85205078125
-201.416015625
-190.4296875
-197.75390625
-165.71044921875
-117.1875
-82.3974609375
-17.39501953125
66.83349609375
150.146484375
247.1923828125
344.23828125
466.00341796875
606.0791015625
726.01318359375
839.53857421875
957.6416015625
1069.3359375
1076.66015625
1014.404296875
856.93359375
640.869140625
397.3388671875
173.9501953125
-25.634765625
-212.40234375
-353.3935546875
-405.57861328125
-382.6904296875
-351.5625
-312.19482421875
-262.75634765625
-237.12158203125
-190.4296875
-166.6259765625
-151.06201171875
-129.08935546875
-89.7216796875
-60.4248046875
-47.607421875
-39.36767578125
-40.283203125
-45.7763671875
-45.7763671875
-47.607421875
-61.34033203125
-55.84716796875
-43.02978515625
-41.19873046875
-35.70556640625
-43.02978515625
-40.283203125
-60.4248046875
-61.34033203125
-47.607421875
-51.26953125
-45.7763671875
-41.19873046875
-39.36767578125
-32.958984375
-38.4521484375
-45.7763671875
-38.4521484375
-39.36767578125
-42.1142578125
-39.36767578125
-31.1279296875
-18.310546875
-20.1416015625
-22.88818359375
-17.39501953125
-19.22607421875
-18.310546875
-10.07080078125
-3.662109375
-4.57763671875
-4.57763671875
-4.57763671875
-5.4931640625
-1.8310546875
5.4931640625
10.07080078125
16.4794921875
14.6484375
16.4794921875
26.55029296875
27.4658203125
35.70556640625
20.1416015625
21.97265625
37.53662109375
39.36767578125
30.21240234375
33.87451171875
58.59375
74.15771484375
73.2421875
75.98876953125
63.17138671875
54.931640625
67.7490234375
80.56640625
96.13037109375
87.890625
95.21484375
113.525390625
125.42724609375
131.8359375
157.470703125
157.470703125
167.54150390625
167.54150390625
172.119140625
191.34521484375
200.50048828125
195.00732421875
191.34521484375
194.091796875
206.9091796875
227.05078125
227.96630859375
239.8681640625
245.361328125
250.8544921875
255.43212890625
260.009765625
260.92529296875
263.671875
260.009765625
264.58740234375
260.92529296875
260.009765625
256.34765625
263.671875
257.26318359375
249.0234375
234.375
231.62841796875
228.8818359375
215.14892578125
202.33154296875
200.50048828125
196.83837890625
186.767578125
175.78125
162.9638671875
149.23095703125
130.0048828125
117.1875
95.21484375
73.2421875
57.67822265625
41.19873046875
32.04345703125
22.88818359375
14.6484375
1.8310546875
3.662109375
-6.40869140625
-24.71923828125
-30.21240234375
-32.04345703125
-47.607421875
-55.84716796875
-55.84716796875
-61.34033203125
-66.83349609375
-74.15771484375
-83.31298828125
-79.65087890625
-85.14404296875
-92.46826171875
-87.890625
-87.890625
-95.21484375
-102.5390625
-99.79248046875
-103.45458984375
-111.6943359375
-109.86328125
-108.94775390625
-111.6943359375
-109.86328125
-97.96142578125
-91.552734375
-105.28564453125
-118.10302734375
-130.0048828125
-126.3427734375
-107.11669921875
-96.13037109375
-95.21484375
-108.94775390625
-95.21484375
-108.94775390625
-115.3564453125
-102.5390625
-103.45458984375
-94.29931640625
-108.94775390625
-110.77880859375
-98.876953125
-87.890625
-95.21484375
-97.0458984375
-87.890625
-93.3837890625
-100.7080078125
-104.3701171875
-115.3564453125
-104.3701171875
-88.80615234375
-92.46826171875
-97.96142578125
-101.62353515625
-102.5390625
-91.552734375
-78.7353515625
-73.2421875
-76.904296875
-77.81982421875
-75.98876953125
-75.98876953125
-74.15771484375
-84.228515625
-92.46826171875
-69.580078125
-68.66455078125
-73.2421875
-75.98876953125
-84.228515625
-87.890625
-79.65087890625
-85.14404296875
-79.65087890625
-65.00244140625
-60.4248046875
-58.59375
-70.49560546875
-81.48193359375
-76.904296875
-78.7353515625
-86.0595703125
-82.3974609375
-79.65087890625
-73.2421875
-81.48193359375
-84.228515625
-84.228515625
-76.904296875
-84.228515625
-82.3974609375
-75.0732421875
-64.0869140625
-65.91796875
-77.81982421875
-85.14404296875
-80.56640625
-87.890625
-87.890625
-84.228515625
-84.228515625
-82.3974609375
-78.7353515625
-81.48193359375
-83.31298828125
-88.80615234375
-88.80615234375
-82.3974609375
-93.3837890625
-95.21484375
-91.552734375
-80.56640625
-80.56640625
-86.0595703125
-83.31298828125
-90.63720703125
-78.7353515625
-86.0595703125
-111.6943359375
-123.59619140625
-109.86328125
-90.63720703125
-86.0595703125
-98.876953125
-102.5390625
-102.5390625
-104.3701171875
-96.13037109375
-99.79248046875
-114.44091796875
-97.96142578125
-86.97509765625
-89.7216796875
-90.63720703125
-86.0595703125
-86.0595703125
-87.890625
-87.890625
-89.7216796875
-94.29931640625
-101.62353515625
-98.876953125
-89.7216796875
-92.46826171875
-100.7080078125
-97.96142578125
-100.7080078125
-97.96142578125
-97.96142578125
-98.876953125
-102.5390625
-108.0322265625
-104.3701171875
-96.13037109375
-94.29931640625
-100.7080078125
-97.96142578125
-91.552734375
-81.48193359375
-63.17138671875
-38.4521484375
-37.53662109375
-26.55029296875
-19.22607421875
-25.634765625
-39.36767578125
-36.62109375
-28.38134765625
-20.1416015625
-10.986328125
2.74658203125
20.1416015625
22.88818359375
16.4794921875
26.55029296875
21.05712890625
16.4794921875
-6.40869140625
-30.21240234375
-21.97265625
-20.1416015625
-25.634765625
-34.7900390625
-39.36767578125
-32.958984375
-51.26953125
-75.0732421875
-89.7216796875
-84.228515625
-94.29931640625
-88.80615234375
-93.3837890625
-97.0458984375
-97.0458984375
-99.79248046875
-98.876953125
-103.45458984375
-101.62353515625
-105.28564453125
-104.3701171875
-107.11669921875
-112.60986328125
-109.86328125
-110.77880859375
-112.60986328125
-136.41357421875
-138.24462890625
-126.3427734375
-110.77880859375
-111.6943359375
-119.0185546875
-119.0185546875
-116.27197265625
-125.42724609375
-140.07568359375
-153.80859375
-156.55517578125
-162.9638671875
-157.470703125
-144.6533203125
-114.44091796875
-79.65087890625
-24.71923828125
35.70556640625
117.1875
198.66943359375
291.1376953125
373.53515625
500.79345703125
625.30517578125
737.9150390625
823.974609375
943.90869140625
1099.54833984375
1128.84521484375
1057.43408203125
910.94970703125
694.88525390625
441.2841796875
204.16259765625
-18.310546875
-211.48681640625
-364.3798828125
-426.6357421875
-387.26806640625
-329.58984375
-289.306640625
-238.95263671875
-191.34521484375
-151.9775390625
-118.10302734375
-79.65087890625
-57.67822265625
-58.59375
-43.9453125
-27.4658203125
-30.21240234375
-23.8037109375
-35.70556640625
-34.7900390625
-27.4658203125
-30.21240234375
-39.36767578125
-37.53662109375
-35.70556640625
-39.36767578125
-36.62109375
-35.70556640625
-31.1279296875
-29.296875
-27.4658203125
-36.62109375
-15.56396484375
-0.91552734375
-11.90185546875
-14.6484375
-14.6484375
-4.57763671875
-2.74658203125
-12.8173828125
-11.90185546875
-3.662109375
0.91552734375
-3.662109375
0
5.4931640625
11.90185546875
15.56396484375
14.6484375
16.4794921875
25.634765625
20.1416015625
20.1416015625
21.05712890625
12.8173828125
14.6484375
18.310546875
25.634765625
28.38134765625
45.7763671875
60.4248046875
54.01611328125
44.86083984375
44.86083984375
50.35400390625
59.50927734375
55.84716796875
67.7490234375
80.56640625
70.49560546875
64.0869140625
76.904296875
96.13037109375
92.46826171875
75.0732421875
77.81982421875
106.201171875
121.76513671875
120.849609375
123.59619140625
127.25830078125
126.3427734375
167.54150390625
173.03466796875
176.69677734375
195.00732421875
205.078125
209.65576171875
216.064453125
226.13525390625
227.96630859375
238.037109375
255.43212890625
249.93896484375
253.60107421875
257.26318359375
258.1787109375
265.5029296875
271.91162109375
270.08056640625
282.89794921875
291.1376953125
297.54638671875
294.7998046875
302.1240234375
299.37744140625
303.955078125
303.03955078125
281.982421875
270.99609375
271.91162109375
280.1513671875
280.1513671875
281.06689453125
274.658203125
260.92529296875
232.5439453125
229.79736328125
232.5439453125
231.62841796875
221.5576171875
209.65576171875
172.119140625
144.6533203125
150.146484375
145.56884765625
108.94775390625
105.28564453125
101.62353515625
97.96142578125
90.63720703125
78.7353515625
57.67822265625
28.38134765625
16.4794921875
10.986328125
2.74658203125
0.91552734375
-4.57763671875
-10.986328125
-13.73291015625
-21.05712890625
-22.88818359375
-31.1279296875
-42.1142578125
-51.26953125
-49.4384765625
-54.931640625
-55.84716796875
-56.7626953125
-48.52294921875
-52.18505859375
-54.01611328125
-62.255859375
-69.580078125
-67.7490234375
-64.0869140625
-60.4248046875
-67.7490234375
-75.0732421875
-78.7353515625
-73.2421875
-76.904296875
-70.49560546875
-63.17138671875
-62.255859375
-62.255859375
-56.7626953125
-57.67822265625
-77.81982421875
-97.0458984375
-96.13037109375
-73.2421875
-63.17138671875
-37.53662109375
-40.283203125
-55.84716796875
-61.34033203125
-61.34033203125
-63.17138671875
-55.84716796875
-46.69189453125
-46.69189453125
-69.580078125
-75.98876953125
-57.67822265625
-55.84716796875
-60.4248046875
-63.17138671875
-61.34033203125
-58.59375
-56.7626953125
-51.26953125
-47.607421875
-42.1142578125
-47.607421875
-53.1005859375
-57.67822265625
-58.59375
-44.86083984375
-45.7763671875
-50.35400390625
-48.52294921875
-46.69189453125
-47.607421875
-43.02978515625
-45.7763671875
-42.1142578125
-39.36767578125
-43.9453125
-45.7763671875
-34.7900390625
-37.53662109375
-44.86083984375
-43.9453125
-42.1142578125
-44.86083984375
-59.50927734375
-59.50927734375
-58.59375
-51.26953125
-36.62109375
-45.7763671875
-39.36767578125
-47.607421875
-51.26953125
-42.1142578125
-51.26953125
-61.34033203125
-56.7626953125
-63.17138671875
-62.255859375
-57.67822265625
-63.17138671875
-49.4384765625
-54.931640625
-52.18505859375
-59.50927734375
-67.7490234375
-66.83349609375
-72.32666015625
-68.66455078125
-65.91796875
-66.83349609375
-67.7490234375
-72.32666015625
-84.228515625
-88.80615234375
-95.21484375
-85.14404296875
-72.32666015625
-75.98876953125
-86.0595703125
-92.46826171875
-86.97509765625
-93.3837890625
-91.552734375
-88.80615234375
-86.97509765625
-86.97509765625
-79.65087890625
-78.7353515625
-86.97509765625
-93.3837890625
-101.62353515625
-100.7080078125
-96.13037109375
-102.5390625
-108.94775390625
-96.13037109375
-93.3837890625
-86.97509765625
-87.890625
-94.29931640625
-102.5390625
-109.86328125
-97.96142578125
-104.3701171875
-105.28564453125
-106.201171875
-99.79248046875
-97.96142578125
-93.3837890625
-93.3837890625
-97.96142578125
-112.60986328125
-106.201171875
-97.96142578125
-97.0458984375
-92.46826171875
-85.14404296875
-88.80615234375
-88.80615234375
-88.80615234375
-93.3837890625
-97.96142578125
-86.0595703125
-91.552734375
-94.29931640625
-96.13037109375
-97.96142578125
-103.45458984375
-102.5390625
-112.60986328125
-113.525390625
-107.11669921875
-98.876953125
-92.46826171875
-88.80615234375
-88.80615234375
-91.552734375
-101.62353515625
-106.201171875
-106.201171875
-95.21484375
-93.3837890625
-95.21484375
-101.62353515625
-94.29931640625
-89.7216796875
-94.29931640625
-101.62353515625
-96.13037109375
-95.21484375
-91.552734375
-95.21484375
-94.29931640625
-97.96142578125
-97.96142578125
-96.13037109375
-95.21484375
-86.97509765625
-73.2421875
-68.66455078125
-52.18505859375
-32.958984375
-25.634765625
-26.55029296875
-27.4658203125
-27.4658203125
-32.958984375
-45.7763671875
-20.1416015625
0.91552734375
7.32421875
21.05712890625
25.634765625
14.6484375
8.23974609375
7.32421875
-2.74658203125
-15.56396484375
-19.22607421875
-4.57763671875
-5.4931640625
-27.4658203125
-25.634765625
-22.88818359375
-30.21240234375
-40.283203125
-51.26953125
-63.17138671875
-61.34033203125
-65.91796875
-75.0732421875
-83.31298828125
-86.0595703125
-98.876953125
-109.86328125
-110.77880859375
-97.0458984375
-94.29931640625
-97.96142578125
-105.28564453125
-109.86328125
-115.3564453125
-116.27197265625
-107.11669921875
-107.11669921875
-105.28564453125
-106.201171875
-103.45458984375
-109.86328125
-113.525390625
-129.08935546875
-131.8359375
-114.44091796875
-114.44091796875
-132.75146484375
-147.39990234375
-154.72412109375
-158.38623046875
-159.3017578125
-159.3017578125
-128.173828125
-78.7353515625
-18.310546875
50.35400390625
97.96142578125
176.69677734375
280.1513671875
399.169921875
528.25927734375
666.50390625
804.74853515625
912.78076171875
1025.390625
1124.267578125
1130.67626953125
1056.5185546875
877.0751953125
636.29150390625
379.94384765625
127.25830078125
-95.21484375
-279.23583984375
-403.74755859375
-422.05810546875
-374.45068359375
-325.927734375
-289.306640625
-232.5439453125
-184.02099609375
-149.23095703125
-114.44091796875
-67.7490234375
-46.69189453125
-38.4521484375
-31.1279296875
-29.296875
-12.8173828125
-23.8037109375
-36.62109375
-38.4521484375
-34.7900390625
-32.958984375
-30.21240234375
-31.1279296875
-37.53662109375
-34.7900390625
-31.1279296875
-25.634765625
-24.71923828125
-23.8037109375
-22.88818359375
-33.87451171875
-35.70556640625
-32.958984375
-30.21240234375
-22.88818359375
-19.22607421875
-9.1552734375
-3.662109375
-8.23974609375
-16.4794921875
-11.90185546875
-10.986328125
-7.32421875
-6.40869140625
-7.32421875
0.91552734375
4.57763671875
7.32421875
5.4931640625
4.57763671875
2.74658203125
-0.91552734375
-0.91552734375
5.4931640625
12.8173828125
16.4794921875
21.97265625
19.22607421875
32.04345703125
53.1005859375
44.86083984375
34.7900390625
41.19873046875
38.4521484375
47.607421875
54.931640625
56.7626953125
56.7626953125
62.255859375
59.50927734375
65.00244140625
72.32666015625
85.14404296875
97.96142578125
103.45458984375
107.11669921875
97.96142578125
97.0458984375
108.0322265625
121.76513671875
138.24462890625
140.07568359375
146.484375
162.9638671875
162.9638671875
177.6123046875
183.10546875
184.02099609375
175.78125
191.34521484375
203.2470703125
208.740234375
217.8955078125
228.8818359375
240.78369140625
245.361328125
246.27685546875
247.1923828125
245.361328125
259.09423828125
265.5029296875
257.26318359375
254.5166015625
263.671875
269.1650390625
274.658203125
270.99609375
271.91162109375
270.99609375
272.8271484375
274.658203125
265.5029296875
245.361328125
238.95263671875
233.45947265625
224.30419921875
220.64208984375
211.48681640625
204.16259765625
199.5849609375
172.119140625
164.794921875
168.45703125
153.80859375
131.8359375
105.28564453125
89.7216796875
82.3974609375
68.66455078125
63.17138671875
40.283203125
19.22607421875
27.4658203125
36.62109375
19.22607421875
1.8310546875
-7.32421875
-10.986328125
-16.4794921875
-25.634765625
-39.36767578125
-49.4384765625
-55.84716796875
-68.66455078125
-61.34033203125
-59.50927734375
-69.580078125
-72.32666015625
-73.2421875
-80.56640625
-84.228515625
-83.31298828125
-80.56640625
-84.228515625
-81.48193359375
-82.3974609375
-81.48193359375
-76.904296875
-74.15771484375
-82.3974609375
-83.31298828125
-80.56640625
-83.31298828125
-90.63720703125
-94.29931640625
-69.580078125
-64.0869140625
-72.32666015625
-78.7353515625
-94.29931640625
-99.79248046875
-83.31298828125
-75.0732421875
-77.81982421875
-72.32666015625
-68.66455078125
-67.7490234375
-74.15771484375
-74.15771484375
-66.83349609375
-68.66455078125
-67.7490234375
-65.91796875
-66.83349609375
-69.580078125
-70.49560546875
-78.7353515625
-81.48193359375
-71.4111328125
-73.2421875
-73.2421875
-67.7490234375
-59.50927734375
-61.34033203125
-65.91796875
-52.18505859375
-49.4384765625
-47.607421875
-62.255859375
-75.0732421875
-63.17138671875
-54.931640625
-49.4384765625
-51.26953125
-61.34033203125
-57.67822265625
-53.1005859375
-46.69189453125
-43.9453125
-40.283203125
-47.607421875
-56.7626953125
-60.4248046875
-55.84716796875
-57.67822265625
-59.50927734375
-70.49560546875
-70.49560546875
-63.17138671875
-56.7626953125
-53.1005859375
-60.4248046875
-68.66455078125
-69.580078125
-78.7353515625
-71.4111328125
-65.91796875
-63.17138671875
-71.4111328125
-82.3974609375
-75.0732421875
-66.83349609375
-67.7490234375
-62.255859375
-74.15771484375
-78.7353515625
-82.3974609375
-89.7216796875
-68.66455078125
-66.83349609375
-69.580078125
-67.7490234375
-75.0732421875
-76.904296875
-75.98876953125
-74.15771484375
-77.81982421875
-77.81982421875
-75.0732421875
-78.7353515625
-78.7353515625
-80.56640625
-86.0595703125
-94.29931640625
-97.0458984375
-99.79248046875
-103.45458984375
-111.6943359375
-113.525390625
-103.45458984375
-96.13037109375
-86.97509765625
-78.7353515625
-75.0732421875
-85.14404296875
-86.97509765625
-86.0595703125
-107.11669921875
-92.46826171875
-77.81982421875
-94.29931640625
-97.96142578125
-89.7216796875
-97.96142578125
-97.96142578125
-92.46826171875
-89.7216796875
-86.97509765625
-88.80615234375
-110.77880859375
-123.59619140625
-127.25830078125
-109.86328125
-97.0458984375
-91.552734375
-91.552734375
-96.13037109375
-101.62353515625
-95.21484375
-97.96142578125
-95.21484375
-96.13037109375
-100.7080078125
-100.7080078125
-112.60986328125
-108.0322265625
-100.7080078125
-93.3837890625
-92.46826171875
-111.6943359375
-117.1875
-124.51171875
-123.59619140625
-116.27197265625
-116.27197265625
-103.45458984375
-95.21484375
-96.13037109375
-108.0322265625
-119.0185546875
-112.60986328125
-102.5390625
-101.62353515625
-99.79248046875
-98.876953125
-102.5390625
-90.63720703125
-94.29931640625
-115.3564453125
-123.59619140625
-114.44091796875
-104.3701171875
-115.3564453125
-120.849609375
-114.44091796875
-128.173828125
-124.51171875
-121.76513671875
-113.525390625
-97.96142578125
-84.228515625
-74.15771484375
-77.81982421875
-92.46826171875
-111.6943359375
-107.11669921875
-98.876953125
-104.3701171875
-92.46826171875
-82.3974609375
-76.904296875
-65.00244140625
-67.7490234375
-65.00244140625
-54.01611328125
-50.35400390625
-43.02978515625
-35.70556640625
-54.931640625
-63.17138671875
-53.1005859375
-25.634765625
-9.1552734375
-13.73291015625
-18.310546875
-7.32421875
3.662109375
1.8310546875
-12.8173828125
-22.88818359375
-38.4521484375
-43.02978515625
-46.69189453125
-46.69189453125
-47.607421875
-63.17138671875
-76.904296875
-98.876953125
-98.876953125
-110.77880859375
-120.849609375
-116.27197265625
-108.94775390625
-112.60986328125
-108.0322265625
-125.42724609375
-113.525390625
-116.27197265625
-125.42724609375
-137.3291015625
-133.6669921875
-128.173828125
-113.525390625
-120.849609375
-123.59619140625
-120.849609375
-112.60986328125
-116.27197265625
-120.849609375
-130.92041015625
-127.25830078125
-126.3427734375
-130.92041015625
-132.75146484375
-140.07568359375
-164.794921875
-174.86572265625
-180.35888671875
-178.52783203125
-160.21728515625
-108.0322265625
-50.35400390625
19.22607421875
98.876953125
186.767578125
279.23583984375
373.53515625
487.060546875
622.55859375
763.5498046875
870.66650390625
965.88134765625
1067.5048828125
1106.87255859375
1037.29248046875
868.83544921875
637.20703125
379.94384765625
126.3427734375
-83.31298828125
-272.8271484375
-413.818359375
-460.51025390625
-417.48046875
-354.30908203125
-315.85693359375
-270.08056640625
-227.96630859375
-181.2744140625
-137.3291015625
-92.46826171875
-46.69189453125
-21.97265625
-24.71923828125
-38.4521484375
-36.62109375
-37.53662109375
-62.255859375
-65.00244140625
-51.26953125
-50.35400390625
-37.53662109375
-38.4521484375
-44.86083984375
-42.1142578125
-44.86083984375
-52.18505859375
-46.69189453125
-43.02978515625
-46.69189453125
-47.607421875
-58.59375
-54.01611328125
-42.1142578125
-36.62109375
-37.53662109375
-10.07080078125
-8.23974609375
-1.8310546875
-7.32421875
-15.56396484375
-10.986328125
-19.22607421875
-32.04345703125
-23.8037109375
-21.97265625
-14.6484375
0.91552734375
6.40869140625
4.57763671875
5.4931640625
7.32421875
9.1552734375
1.8310546875
-25.634765625
-21.05712890625
-12.8173828125
0.91552734375
18.310546875
25.634765625
34.7900390625
32.04345703125
25.634765625
9.1552734375
10.986328125
32.958984375
47.607421875
48.52294921875
51.26953125
60.4248046875
51.26953125
43.9453125
65.00244140625
86.97509765625
97.0458984375
90.63720703125
88.80615234375
92.46826171875
99.79248046875
104.3701171875
115.3564453125
118.10302734375
121.76513671875
131.8359375
137.3291015625
149.23095703125
161.1328125
166.6259765625
173.03466796875
170.2880859375
173.03466796875
184.02099609375
195.00732421875
200.50048828125
205.078125
207.82470703125
211.48681640625
222.47314453125
216.064453125
205.078125
219.7265625
234.375
249.93896484375
242.61474609375
236.2060546875
263.671875
281.982421875
274.658203125
274.658203125
278.3203125
259.09423828125
244.44580078125
229.79736328125
225.2197265625
221.5576171875
213.31787109375
216.064453125
203.2470703125
181.2744140625
173.03466796875
154.72412109375
146.484375
130.92041015625
126.3427734375
125.42724609375
112.60986328125
86.0595703125
57.67822265625
37.53662109375
36.62109375
35.70556640625
35.70556640625
21.97265625
4.57763671875
2.74658203125
-13.73291015625
-26.55029296875
-24.71923828125
-17.39501953125
-46.69189453125
-74.15771484375
-72.32666015625
-62.255859375
-53.1005859375
-63.17138671875
-56.7626953125
-62.255859375
-74.15771484375
-80.56640625
-86.0595703125
-86.0595703125
-98.876953125
-102.5390625
-103.45458984375
-102.5390625
-99.79248046875
-96.13037109375
-84.228515625
-84.228515625
-103.45458984375
-117.1875
-114.44091796875
-102.5390625
-99.79248046875
-103.45458984375
-116.27197265625
-112.60986328125
-109.86328125
-113.525390625
-109.86328125
-102.5390625
-102.5390625
-104.3701171875
-110.77880859375
-110.77880859375
-111.6943359375
-93.3837890625
-85.14404296875
-82.3974609375
-72.32666015625
-53.1005859375
-62.255859375
-71.4111328125
-65.00244140625
-73.2421875
-80.56640625
-88.80615234375
-84.228515625
-69.580078125
-83.31298828125
-84.228515625
-78.7353515625
-67.7490234375
-55.84716796875
-64.0869140625
-72.32666015625
-78.7353515625
-94.29931640625
-97.96142578125
-88.80615234375
-75.0732421875
-86.97509765625
-93.3837890625
-88.80615234375
-65.91796875
-75.98876953125
-101.62353515625
-96.13037109375
-75.98876953125
-83.31298828125
-79.65087890625
-67.7490234375
-75.0732421875
-66.83349609375
-56.7626953125
-55.84716796875
-67.7490234375
-54.01611328125
-60.4248046875
-61.34033203125
-65.00244140625
-73.2421875
-76.904296875
-79.65087890625
-68.66455078125
-62.255859375
-67.7490234375
-80.56640625
-98.876953125
-100.7080078125
-91.552734375
-72.32666015625
-83.31298828125
-80.56640625
-91.552734375
-103.45458984375
-104.3701171875
-108.94775390625
-112.60986328125
-108.0322265625
-101.62353515625
-96.13037109375
-100.7080078125
-100.7080078125
-92.46826171875
-83.31298828125
-73.2421875
-83.31298828125
-90.63720703125
-100.7080078125
-111.6943359375
-113.525390625
-114.44091796875
-108.0322265625
-108.94775390625
-105.28564453125
-104.3701171875
-92.46826171875
-86.0595703125
-84.228515625
-89.7216796875
-99.79248046875
-108.94775390625
-114.44091796875
-108.0322265625
-100.7080078125
-101.62353515625
-115.3564453125
-121.76513671875
-129.08935546875
-124.51171875
-119.93408203125
-116.27197265625
-108.94775390625
-97.96142578125
-97.96142578125
-97.0458984375
-99.79248046875
-106.201171875
-110.77880859375
-126.3427734375
-149.23095703125
-140.9912109375
-126.3427734375
-116.27197265625
-114.44091796875
-100.7080078125
-106.201171875
-115.3564453125
-108.0322265625
-102.5390625
-100.7080078125
-95.21484375
-95.21484375
-105.28564453125
-108.94775390625
-130.92041015625
-139.16015625
-129.08935546875
-131.8359375
-121.76513671875
-107.11669921875
-104.3701171875
-112.60986328125
-122.6806640625
-117.1875
-102.5390625
-104.3701171875
-102.5390625
-103.45458984375
-121.76513671875
-114.44091796875
-104.3701171875
-100.7080078125
-112.60986328125
-139.16015625
-151.9775390625
-135.498046875
-123.59619140625
-110.77880859375
-93.3837890625
-85.14404296875
-75.0732421875
-60.4248046875
-45.7763671875
-42.1142578125
-44.86083984375
-49.4384765625
-63.17138671875
-54.01611328125
-37.53662109375
-29.296875
-22.88818359375
-17.39501953125
-22.88818359375
-33.87451171875
-19.22607421875
-14.6484375
-12.8173828125
-7.32421875
-12.8173828125
-23.8037109375
-34.7900390625
-37.53662109375
-53.1005859375
-61.34033203125
-68.66455078125
-67.7490234375
-83.31298828125
-100.7080078125
-99.79248046875
-108.0322265625
-108.0322265625
-104.3701171875
-97.96142578125
-114.44091796875
-127.25830078125
-145.56884765625
-146.484375
-151.9775390625
-130.0048828125
-125.42724609375
-126.3427734375
-138.24462890625
-138.24462890625
-127.25830078125
-123.59619140625
-119.0185546875
-130.92041015625
-140.07568359375
-130.0048828125
-131.8359375
-127.25830078125
-126.3427734375
-131.8359375
-145.56884765625
-169.37255859375
-187.68310546875
-189.51416015625
-208.740234375
-216.97998046875
-195.00732421875
-166.6259765625
-126.3427734375
-71.4111328125
9.1552734375
96.13037109375
174.86572265625
276.4892578125
380.859375
508.11767578125
646.3623046875
783.69140625
915.52734375
1012.5732421875
1083.06884765625
1071.1669921875
964.05029296875
777.28271484375
547.4853515625
280.1513671875
48.52294921875
-166.6259765625
-340.576171875
-435.791015625
-435.791015625
-404.6630859375
-365.29541015625
-317.68798828125
-281.06689453125
-228.8818359375
-188.5986328125
-167.54150390625
-136.41357421875
-95.21484375
-71.4111328125
-62.255859375
-55.84716796875
-56.7626953125
-54.01611328125
-58.59375
-63.17138671875
-66.83349609375
-55.84716796875
-52.18505859375
-55.84716796875
-54.01611328125
-61.34033203125
-63.17138671875
-61.34033203125
-62.255859375
-61.34033203125
-58.59375
-66.83349609375
-75.0732421875
-79.65087890625
-55.84716796875
-40.283203125
-63.17138671875
-54.931640625
-29.296875
-33.87451171875
-43.9453125
-43.9453125
-54.01611328125
-45.7763671875
-46.69189453125
-46.69189453125
-28.38134765625
-3.662109375
-9.1552734375
-2.74658203125
10.07080078125
10.986328125
-3.662109375
-6.40869140625
-9.1552734375
0
20.1416015625
8.23974609375
2.74658203125
6.40869140625
17.39501953125
16.4794921875
22.88818359375
25.634765625
34.7900390625
30.21240234375
30.21240234375
38.4521484375
44.86083984375
37.53662109375
21.05712890625
29.296875
37.53662109375
50.35400390625
60.4248046875
67.7490234375
87.890625
97.96142578125
103.45458984375
101.62353515625
99.79248046875
114.44091796875
128.173828125
125.42724609375
140.9912109375
151.9775390625
162.04833984375
167.54150390625
155.6396484375
159.3017578125
184.9365234375
194.091796875
196.83837890625
206.9091796875
212.40234375
214.2333984375
222.47314453125
223.388671875
213.31787109375
219.7265625
221.5576171875
244.44580078125
240.78369140625
237.12158203125
233.45947265625
229.79736328125
239.8681640625
240.78369140625
236.2060546875
235.29052734375
228.8818359375
233.45947265625
229.79736328125
231.62841796875
220.64208984375
192.2607421875
177.6123046875
185.85205078125
196.83837890625
182.18994140625
157.470703125
150.146484375
152.89306640625
144.6533203125
115.3564453125
93.3837890625
86.0595703125
79.65087890625
65.91796875
46.69189453125
27.4658203125
15.56396484375
11.90185546875
6.40869140625
-10.986328125
-17.39501953125
-18.310546875
-41.19873046875
-54.01611328125
-77.81982421875
-71.4111328125
-75.98876953125
-76.904296875
-96.13037109375
-96.13037109375
-89.7216796875
-92.46826171875
-107.11669921875
-125.42724609375
-126.3427734375
-108.0322265625
-87.890625
-66.83349609375
-75.98876953125
-117.1875
-131.8359375
-127.25830078125
-121.76513671875
-114.44091796875
-101.62353515625
-101.62353515625
-117.1875
-117.1875
-82.3974609375
-59.50927734375
-76.904296875
-93.3837890625
-99.79248046875
-102.5390625
-102.5390625
-100.7080078125
-92.46826171875
-99.79248046875
-101.62353515625
-95.21484375
-86.0595703125
-80.56640625
-90.63720703125
-90.63720703125
-94.29931640625
-93.3837890625
-112.60986328125
-109.86328125
-98.876953125
-84.228515625
-84.228515625
-92.46826171875
-101.62353515625
-94.29931640625
-91.552734375
-82.3974609375
-83.31298828125
-89.7216796875
-97.96142578125
-102.5390625
-78.7353515625
-60.4248046875
-68.66455078125
-86.0595703125
-86.0595703125
-91.552734375
-97.0458984375
-73.2421875
-79.65087890625
-86.97509765625
-84.228515625
-67.7490234375
-61.34033203125
-65.00244140625
-78.7353515625
-63.17138671875
-55.84716796875
-70.49560546875
-66.83349609375
-66.83349609375
-73.2421875
-77.81982421875
-75.98876953125
-81.48193359375
-86.0595703125
-76.904296875
-75.98876953125
-74.15771484375
-77.81982421875
-78.7353515625
-78.7353515625
-83.31298828125
-90.63720703125
-89.7216796875
-82.3974609375
-89.7216796875
-85.14404296875
-71.4111328125
-76.904296875
-91.552734375
-87.890625
-84.228515625
-101.62353515625
-105.28564453125
-107.11669921875
-88.80615234375
-87.890625
-98.876953125
-102.5390625
-100.7080078125
-101.62353515625
-109.86328125
-108.94775390625
-107.11669921875
-98.876953125
-103.45458984375
-116.27197265625
-116.27197265625
-104.3701171875
-105.28564453125
-106.201171875
-115.3564453125
-112.60986328125
-107.11669921875
-106.201171875
-119.93408203125
-115.3564453125
-115.3564453125
-114.44091796875
-108.94775390625
-109.86328125
-114.44091796875
-119.0185546875
-122.6806640625
-120.849609375
-119.93408203125
-100.7080078125
-95.21484375
-96.13037109375
-110.77880859375
-116.27197265625
-117.1875
-103.45458984375
-102.5390625
-107.11669921875
-108.94775390625
-126.3427734375
-130.92041015625
-114.44091796875
-115.3564453125
-120.849609375
-115.3564453125
-110.77880859375
-132.75146484375
-133.6669921875
-128.173828125
-120.849609375
-109.86328125
-105.28564453125
-105.28564453125
-115.3564453125
-119.0185546875
-118.10302734375
-112.60986328125
-120.849609375
-129.08935546875
-125.42724609375
-119.93408203125
-121.76513671875
-130.92041015625
-132.75146484375
-120.849609375
-119.93408203125
-119.93408203125
-132.75146484375
-132.75146484375
-125.42724609375
-119.0185546875
-125.42724609375
-128.173828125
-117.1875
-99.79248046875
-86.0595703125
-84.228515625
-81.48193359375
-73.2421875
-62.255859375
-40.283203125
-36.62109375
-43.02978515625
-43.9453125
-43.02978515625
-19.22607421875
-22.88818359375
-23.8037109375
-17.39501953125
-8.23974609375
-10.986328125
-22.88818359375
-35.70556640625
-39.36767578125
-36.62109375
-30.21240234375
-36.62109375
-43.9453125
-53.1005859375
-52.18505859375
-49.4384765625
-74.15771484375
-93.3837890625
-110.77880859375
-110.77880859375
-117.1875
-124.51171875
-119.0185546875
-117.1875
-121.76513671875
-115.3564453125
-115.3564453125
-125.42724609375
-132.75146484375
-133.6669921875
-131.8359375
-123.59619140625
-127.25830078125
-133.6669921875
-115.3564453125
-124.51171875
-132.75146484375
-129.08935546875
-114.44091796875
-119.93408203125
-119.93408203125
-124.51171875
-126.3427734375
-128.173828125
-140.07568359375
-149.23095703125
-171.20361328125
-185.85205078125
-201.416015625
-207.82470703125
-199.5849609375
-169.37255859375
-114.44091796875
-46.69189453125
33.87451171875
108.0322265625
211.48681640625
307.6171875
403.74755859375
527.34375
674.74365234375
803.8330078125
916.44287109375
1040.95458984375
1100.4638671875
1049.1943359375
939.3310546875
733.33740234375
515.44189453125
260.92529296875
35.70556640625
-166.6259765625
-334.16748046875
-410.15625
-406.494140625
-367.12646484375
-341.49169921875
-296.630859375
-250.8544921875
-216.97998046875
-183.10546875
-166.6259765625
-138.24462890625
-108.94775390625
-76.904296875
-65.91796875
-54.931640625
-51.26953125
-53.1005859375
-51.26953125
-51.26953125
-52.18505859375
-60.4248046875
-55.84716796875
-54.931640625
-53.1005859375
-51.26953125
-65.91796875
-66.83349609375
-54.931640625
-47.607421875
-46.69189453125
-48.52294921875
-45.7763671875
-39.36767578125
-39.36767578125
-33.87451171875
-26.55029296875
-37.53662109375
-43.9453125
-40.283203125
-50.35400390625
-43.02978515625
-38.4521484375
-26.55029296875
-11.90185546875
-13.73291015625
-24.71923828125
-12.8173828125
-8.23974609375
-11.90185546875
-8.23974609375
-5.4931640625
0.91552734375
8.23974609375
1.8310546875
10.07080078125
10.986328125
14.6484375
16.4794921875
18.310546875
21.05712890625
21.05712890625
21.05712890625
30.21240234375
36.62109375
39.36767578125
38.4521484375
36.62109375
33.87451171875
47.607421875
56.7626953125
63.17138671875
65.00244140625
57.67822265625
66.83349609375
65.00244140625
82.3974609375
97.96142578125
81.48193359375
95.21484375
119.0185546875
131.8359375
121.76513671875
121.76513671875
130.92041015625
153.80859375
162.04833984375
184.02099609375
184.9365234375
198.66943359375
196.83837890625
180.35888671875
194.091796875
212.40234375
227.05078125
238.95263671875
242.61474609375
238.95263671875
236.2060546875
241.69921875
242.61474609375
254.5166015625
254.5166015625
254.5166015625
255.43212890625
249.93896484375
254.5166015625
247.1923828125
238.95263671875
238.037109375
237.12158203125
253.60107421875
257.26318359375
240.78369140625
232.5439453125
215.14892578125
203.2470703125
197.75390625
199.5849609375
187.68310546875
164.794921875
161.1328125
158.38623046875
151.9775390625
120.849609375
107.11669921875
91.552734375
61.34033203125
54.931640625
60.4248046875
41.19873046875
23.8037109375
4.57763671875
-0.91552734375
0.91552734375
-21.05712890625
-21.05712890625
-18.310546875
-25.634765625
-43.02978515625
-53.1005859375
-55.84716796875
-67.7490234375
-84.228515625
-65.00244140625
-68.66455078125
-80.56640625
-81.48193359375
-65.00244140625
-76.904296875
-85.14404296875
-95.21484375
-106.201171875
-102.5390625
-90.63720703125
-94.29931640625
-111.6943359375
-101.62353515625
-100.7080078125
-95.21484375
-100.7080078125
-107.11669921875
-101.62353515625
-107.11669921875
-111.6943359375
-105.28564453125
-96.13037109375
-101.62353515625
-100.7080078125
-96.13037109375
-100.7080078125
-108.94775390625
-112.60986328125
-97.96142578125
-88.80615234375
-96.13037109375
-94.29931640625
-99.79248046875
-117.1875
-111.6943359375
-98.876953125
-79.65087890625
-86.97509765625
-105.28564453125
-84.228515625
-63.17138671875
-77.81982421875
-68.66455078125
-67.7490234375
-79.65087890625
-71.4111328125
-70.49560546875
-74.15771484375
-69.580078125
-70.49560546875
-78.7353515625
-81.48193359375
-81.48193359375
-71.4111328125
-59.50927734375
-64.0869140625
-67.7490234375
-62.255859375
-69.580078125
-65.00244140625
-65.00244140625
-62.255859375
-64.0869140625
-65.00244140625
-66.83349609375
-65.91796875
-68.66455078125
-63.17138671875
-60.4248046875
-65.00244140625
-66.83349609375
-66.83349609375
-68.66455078125
-91.552734375
-79.65087890625
-72.32666015625
-68.66455078125
-77.81982421875
-75.0732421875
-86.97509765625
-89.7216796875
-96.13037109375
-101.62353515625
-83.31298828125
-66.83349609375
-63.17138671875
-83.31298828125
-84.228515625
-79.65087890625
-81.48193359375
-77.81982421875
-83.31298828125
-90.63720703125
-86.0595703125
-82.3974609375
-76.904296875
-78.7353515625
-91.552734375
-86.97509765625
-98.876953125
-94.29931640625
-87.890625
-86.97509765625
-80.56640625
-90.63720703125
-94.29931640625
-84.228515625
-87.890625
-97.0458984375
-97.96142578125
-97.0458984375
-95.21484375
-95.21484375
-92.46826171875
-95.21484375
-93.3837890625
-100.7080078125
-108.0322265625
-105.28564453125
-97.0458984375
-99.79248046875
-100.7080078125
-101.62353515625
-102.5390625
-127.25830078125
-122.6806640625
-120.849609375
-114.44091796875
-102.5390625
-93.3837890625
-105.28564453125
-119.93408203125
-116.27197265625
-111.6943359375
-106.201171875
-104.3701171875
-105.28564453125
-93.3837890625
-110.77880859375
-104.3701171875
-95.21484375
-91.552734375
-92.46826171875
-107.11669921875
-97.0458984375
-96.13037109375
-111.6943359375
-108.0322265625
-102.5390625
-101.62353515625
-106.201171875
-103.45458984375
-101.62353515625
-96.13037109375
-97.0458984375
-104.3701171875
-107.11669921875
-106.201171875
-105.28564453125
-107.11669921875
-112.60986328125
-116.27197265625
-114.44091796875
-115.3564453125
-119.93408203125
-117.1875
-102.5390625
-98.876953125
-93.3837890625
-64.0869140625
-46.69189453125
-55.84716796875
-61.34033203125
-55.84716796875
-45.7763671875
-42.1142578125
-45.7763671875
-36.62109375
-23.8037109375
-32.04345703125
-23.8037109375
-10.07080078125
3.662109375
-3.662109375
-6.40869140625
-15.56396484375
-26.55029296875
-19.22607421875
-29.296875
-27.4658203125
-23.8037109375
-26.55029296875
-39.36767578125
-43.9453125
-45.7763671875
-56.7626953125
-54.931640625
-70.49560546875
-94.29931640625
-97.96142578125
-97.0458984375
-86.97509765625
-89.7216796875
-97.0458984375
-98.876953125
-111.6943359375
-117.1875
-105.28564453125
-113.525390625
-119.0185546875
-120.849609375
-119.93408203125
-117.1875
-115.3564453125
-104.3701171875
-117.1875
-119.0185546875
-114.44091796875
-116.27197265625
-114.44091796875
-120.849609375
-119.0185546875
-135.498046875
-140.07568359375
-139.16015625
-148.3154296875
-163.87939453125
-172.119140625
-175.78125
-171.20361328125
-126.3427734375
-85.14404296875
-26.55029296875
38.4521484375
111.6943359375
210.5712890625
320.4345703125
429.38232421875
566.71142578125
722.35107421875
823.05908203125
932.92236328125
1053.77197265625
1094.970703125
1028.13720703125
883.48388671875
690.3076171875
476.98974609375
248.10791015625
54.01611328125
-101.62353515625
-257.26318359375
-329.58984375
-329.58984375
-307.6171875
-282.89794921875
-261.8408203125
-226.13525390625
-187.68310546875
-167.54150390625
-149.23095703125
-139.16015625
-112.60986328125
-91.552734375
-71.4111328125
-50.35400390625
-46.69189453125
-52.18505859375
-36.62109375
-46.69189453125
-54.01611328125
-40.283203125
-46.69189453125
-48.52294921875
-59.50927734375
-54.931640625
-52.18505859375
-49.4384765625
-29.296875
-26.55029296875
-17.39501953125
-21.97265625
-40.283203125
-32.958984375
-15.56396484375
-17.39501953125
-14.6484375
-5.4931640625
-7.32421875
-9.1552734375
-12.8173828125
-7.32421875
-2.74658203125
-11.90185546875
-14.6484375
-5.4931640625
-6.40869140625
14.6484375
3.662109375
-2.74658203125
-4.57763671875
0
21.05712890625
22.88818359375
2.74658203125
5.4931640625
23.8037109375
34.7900390625
31.1279296875
34.7900390625
25.634765625
31.1279296875
32.958984375
46.69189453125
48.52294921875
32.04345703125
43.02978515625
60.4248046875
70.49560546875
74.15771484375
73.2421875
78.7353515625
74.15771484375
87.890625
106.201171875
111.6943359375
103.45458984375
100.7080078125
119.93408203125
132.75146484375
132.75146484375
135.498046875
153.80859375
160.21728515625
160.21728515625
173.9501953125
173.03466796875
172.119140625
181.2744140625
178.52783203125
200.50048828125
210.5712890625
217.8955078125
223.388671875
231.62841796875
237.12158203125
247.1923828125
248.10791015625
243.5302734375
261.8408203125
254.5166015625
255.43212890625
260.92529296875
265.5029296875
259.09423828125
275.57373046875
273.74267578125
268.24951171875
270.08056640625
260.009765625
258.1787109375
260.009765625
259.09423828125
258.1787109375
255.43212890625
232.5439453125
219.7265625
214.2333984375
210.5712890625
203.2470703125
196.83837890625
173.9501953125
162.9638671875
145.56884765625
140.07568359375
127.25830078125
104.3701171875
76.904296875
57.67822265625
52.18505859375
43.9453125
27.4658203125
29.296875
13.73291015625
10.986328125
9.1552734375
-9.1552734375
-27.4658203125
-37.53662109375
-36.62109375
-39.36767578125
-54.01611328125
-56.7626953125
-79.65087890625
-92.46826171875
-75.98876953125
-55.84716796875
-48.52294921875
-55.84716796875
-62.255859375
-75.0732421875
-89.7216796875
-85.14404296875
-73.2421875
-75.0732421875
-69.580078125
-76.904296875
-88.80615234375
-88.80615234375
-78.7353515625
-86.97509765625
-87.890625
-91.552734375
-92.46826171875
-86.97509765625
-100.7080078125
-101.62353515625
-95.21484375
-77.81982421875
-73.2421875
-86.0595703125
-87.890625
-82.3974609375
-77.81982421875
-91.552734375
-103.45458984375
-89.7216796875
-77.81982421875
-79.65087890625
-85.14404296875
-86.0595703125
-86.97509765625
-83.31298828125
-75.0732421875
-68.66455078125
-75.0732421875
-81.48193359375
-85.14404296875
-75.0732421875
-71.4111328125
-65.00244140625
-77.81982421875
-82.3974609375
-74.15771484375
-57.67822265625
-54.01611328125
-56.7626953125
-56.7626953125
-68.66455078125
-73.2421875
-63.17138671875
-43.9453125
-52.18505859375
-61.34033203125
-52.18505859375
-54.931640625
-58.59375
-52.18505859375
-45.7763671875
-51.26953125
-51.26953125
-56.7626953125
-62.255859375
-63.17138671875
-59.50927734375
-60.4248046875
-61.34033203125
-61.34033203125
-57.67822265625
-54.01611328125
-50.35400390625
-62.255859375
-58.59375
-69.580078125
-67.7490234375
-61.34033203125
-68.66455078125
-57.67822265625
-69.580078125
-82.3974609375
-81.48193359375
-63.17138671875
-56.7626953125
-61.34033203125
-61.34033203125
-70.49560546875
-79.65087890625
-72.32666015625
-60.4248046875
-64.0869140625
-87.890625
-83.31298828125
-72.32666015625
-77.81982421875
-82.3974609375
-75.98876953125
-68.66455078125
-82.3974609375
-84.228515625
-79.65087890625
-76.904296875
-81.48193359375
-75.98876953125
-82.3974609375
-84.228515625
-89.7216796875
-97.96142578125
-93.3837890625
-89.7216796875
-82.3974609375
-78.7353515625
-88.80615234375
-84.228515625
-75.0732421875
-86.97509765625
-92.46826171875
-78.7353515625
-76.904296875
-75.0732421875
-80.56640625
-90.63720703125
-94.29931640625
-98.876953125
-89.7216796875
-79.65087890625
-78.7353515625
-76.904296875
-91.552734375
-105.28564453125
-94.29931640625
-78.7353515625
-73.2421875
-72.32666015625
-67.7490234375
-58.59375
-55.84716796875
-51.26953125
-41.19873046875
-37.53662109375
-42.1142578125
-47.607421875
-43.02978515625
-21.97265625
-32.958984375
-21.05712890625
-0.91552734375
-9.1552734375
8.23974609375
19.22607421875
16.4794921875
21.05712890625
21.05712890625
11.90185546875
5.4931640625
-5.4931640625
-14.6484375
-14.6484375
-14.6484375
-16.4794921875
-16.4794921875
-18.310546875
-31.1279296875
-55.84716796875
-71.4111328125
-84.228515625
-85.14404296875
-76.904296875
-70.49560546875
-83.31298828125
-85.14404296875
-71.4111328125
-77.81982421875
-78.7353515625
-73.2421875
-89.7216796875
-95.21484375
-90.63720703125
-95.21484375
-104.3701171875
-99.79248046875
-93.3837890625
-91.552734375
-81.48193359375
-99.79248046875
-112.60986328125
-107.11669921875
-95.21484375
-91.552734375
-97.96142578125
-111.6943359375
-125.42724609375
-131.8359375
-140.9912109375
-154.72412109375
-165.71044921875
-165.71044921875
-145.56884765625
-113.525390625
-66.83349609375
0
72.32666015625
151.06201171875
256.34765625
346.98486328125
437.6220703125
565.7958984375
711.36474609375
834.9609375
936.58447265625
1045.5322265625
1082.1533203125
1026.30615234375
904.541015625
703.125
459.5947265625
237.12158203125
54.931640625
-126.3427734375
-270.08056640625
-332.33642578125
-323.18115234375
-302.1240234375
-281.982421875
-246.27685546875
-210.5712890625
-179.443359375
-148.3154296875
-129.08935546875
-109.86328125
-84.228515625
-55.84716796875
-38.4521484375
-26.55029296875
-16.4794921875
-15.56396484375
-15.56396484375
-15.56396484375
-21.97265625
-26.55029296875
-22.88818359375
-24.71923828125
-25.634765625
-13.73291015625
-7.32421875
-3.662109375
-11.90185546875
-10.07080078125
2.74658203125
-8.23974609375
-21.05712890625
-12.8173828125
-10.07080078125
-14.6484375
-10.07080078125
-0.91552734375
-22.88818359375
-16.4794921875
10.986328125
29.296875
32.958984375
29.296875
27.4658203125
20.1416015625
27.4658203125
29.296875
22.88818359375
28.38134765625
33.87451171875
43.9453125
41.19873046875
35.70556640625
38.4521484375
34.7900390625
54.01611328125
59.50927734375
54.01611328125
53.1005859375
53.1005859375
59.50927734375
66.83349609375
72.32666015625
73.2421875
84.228515625
84.228515625
77.81982421875
71.4111328125
72.32666015625
75.98876953125
83.31298828125
96.13037109375
115.3564453125
120.849609375
124.51171875
133.6669921875
142.822265625
150.146484375
146.484375
159.3017578125
168.45703125
178.52783203125
185.85205078125
197.75390625
205.078125
206.9091796875
214.2333984375
222.47314453125
226.13525390625
240.78369140625
238.95263671875
244.44580078125
240.78369140625
247.1923828125
273.74267578125
284.72900390625
286.56005859375
286.56005859375
284.72900390625
289.306640625
296.630859375
304.87060546875
311.279296875
306.70166015625
303.955078125
302.1240234375
299.37744140625
294.7998046875
300.29296875
301.20849609375
294.7998046875
280.1513671875
269.1650390625
259.09423828125
257.26318359375
250.8544921875
247.1923828125
227.05078125
212.40234375
199.5849609375
185.85205078125
173.9501953125
157.470703125
136.41357421875
119.0185546875
110.77880859375
116.27197265625
97.0458984375
74.15771484375
65.91796875
56.7626953125
47.607421875
31.1279296875
13.73291015625
11.90185546875
-4.57763671875
-11.90185546875
-20.1416015625
-22.88818359375
-15.56396484375
-23.8037109375
-32.04345703125
-31.1279296875
-41.19873046875
-46.69189453125
-49.4384765625
-62.255859375
-61.34033203125
-65.91796875
-61.34033203125
-54.931640625
-57.67822265625
-59.50927734375
-62.255859375
-67.7490234375
-64.0869140625
-70.49560546875
-75.0732421875
-84.228515625
-75.98876953125
-68.66455078125
-70.49560546875
-76.904296875
-85.14404296875
-77.81982421875
-72.32666015625
-79.65087890625
-74.15771484375
-68.66455078125
-70.49560546875
-75.0732421875
-69.580078125
-70.49560546875
-66.83349609375
-55.84716796875
-47.607421875
-48.52294921875
-56.7626953125
-59.50927734375
-70.49560546875
-79.65087890625
-67.7490234375
-66.83349609375
-69.580078125
-49.4384765625
-35.70556640625
-48.52294921875
-53.1005859375
-50.35400390625
-54.01611328125
-50.35400390625
-52.18505859375
-45.7763671875
-43.9453125
-64.0869140625
-54.01611328125
-48.52294921875
-46.69189453125
-54.931640625
-46.69189453125
-37.53662109375
-29.296875
-32.958984375
-42.1142578125
-45.7763671875
-44.86083984375
-45.7763671875
-42.1142578125
-43.02978515625
-45.7763671875
-53.1005859375
-48.52294921875
-51.26953125
-53.1005859375
-37.53662109375
-34.7900390625
-43.02978515625
-46.69189453125
-51.26953125
-43.9453125
-41.19873046875
-42.1142578125
-46.69189453125
-45.7763671875
-45.7763671875
-52.18505859375
-61.34033203125
-61.34033203125
-65.91796875
-54.931640625
-50.35400390625
-44.86083984375
-49.4384765625
-52.18505859375
-57.67822265625
-61.34033203125
-72.32666015625
-73.2421875
-68.66455078125
-57.67822265625
-66.83349609375
-68.66455078125
-72.32666015625
-73.2421875
-64.0869140625
-65.00244140625
-69.580078125
-71.4111328125
-70.49560546875
-74.15771484375
-65.91796875
-60.4248046875
-61.34033203125
-60.4248046875
-66.83349609375
-62.255859375
-65.00244140625
-75.98876953125
-78.7353515625
-78.7353515625
-77.81982421875
-70.49560546875
-71.4111328125
-77.81982421875
-75.98876953125
-77.81982421875
-72.32666015625
-76.904296875
-85.14404296875
-86.97509765625
-87.890625
-85.14404296875
-76.904296875
-72.32666015625
-65.91796875
-68.66455078125
-80.56640625
-82.3974609375
-77.81982421875
-75.0732421875
-74.15771484375
-75.98876953125
-82.3974609375
-79.65087890625
-77.81982421875
-85.14404296875
-83.31298828125
-89.7216796875
-83.31298828125
-78.7353515625
-77.81982421875
-77.81982421875
-68.66455078125
-66.83349609375
-76.904296875
-64.0869140625
-50.35400390625
-36.62109375
-31.1279296875
-26.55029296875
-10.07080078125
-6.40869140625
-7.32421875
-13.73291015625
-8.23974609375
-5.4931640625
-2.74658203125
1.8310546875
0
11.90185546875
22.88818359375
21.97265625
16.4794921875
10.07080078125
12.8173828125
12.8173828125
11.90185546875
14.6484375
11.90185546875
3.662109375
-4.57763671875
-9.1552734375
-10.07080078125
-8.23974609375
-23.8037109375
-42.1142578125
-65.00244140625
-75.98876953125
-78.7353515625
-73.2421875
-65.00244140625
-64.0869140625
-70.49560546875
-79.65087890625
-82.3974609375
-89.7216796875
-85.14404296875
-86.97509765625
-88.80615234375
-90.63720703125
-87.890625
-92.46826171875
-94.29931640625
-87.890625
-86.0595703125
-90.63720703125
-89.7216796875
-90.63720703125
-97.96142578125
-96.13037109375
-92.46826171875
-94.29931640625
-99.79248046875
-119.0185546875
-139.16015625
-151.06201171875
-150.146484375
-135.498046875
-111.6943359375
-66.83349609375
-19.22607421875
36.62109375
119.93408203125
199.5849609375
302.1240234375
409.24072265625
515.44189453125
654.60205078125
799.25537109375
923.76708984375
1029.96826171875
1149.90234375
