ECG
-3.662109375
0.91552734375
12.8173828125
20.1416015625
23.8037109375
13.73291015625
24.71923828125
19.22607421875
17.39501953125
24.71923828125
27.4658203125
31.1279296875
26.55029296875
19.22607421875
28.38134765625
33.87451171875
38.4521484375
38.4521484375
40.283203125
41.19873046875
43.9453125
43.9453125
57.67822265625
56.7626953125
43.9453125
42.1142578125
45.7763671875
63.17138671875
65.91796875
74.15771484375
79.65087890625
78.7353515625
86.0595703125
82.3974609375
90.63720703125
93.3837890625
86.97509765625
95.21484375
94.29931640625
96.13037109375
101.62353515625
107.11669921875
118.10302734375
130.92041015625
138.24462890625
141.90673828125
141.90673828125
142.822265625
148.3154296875
149.23095703125
140.9912109375
156.55517578125
174.86572265625
179.443359375
190.4296875
196.83837890625
205.078125
227.96630859375
231.62841796875
234.375
240.78369140625
241.69921875
248.10791015625
250.8544921875
254.5166015625
258.1787109375
269.1650390625
270.08056640625
265.5029296875
271.91162109375
270.99609375
278.3203125
274.658203125
271.91162109375
275.57373046875
278.3203125
269.1650390625
263.671875
262.75634765625
270.99609375
270.99609375
264.58740234375
259.09423828125
245.361328125
248.10791015625
245.361328125
230.712890625
216.064453125
211.48681640625
200.50048828125
199.5849609375
177.6123046875
172.119140625
160.21728515625
141.90673828125
135.498046875
123.59619140625
108.94775390625
92.46826171875
84.228515625
75.0732421875
61.34033203125
64.0869140625
44.86083984375
30.21240234375
23.8037109375
10.986328125
6.40869140625
-1.8310546875
-13.73291015625
-17.39501953125
-25.634765625
-23.8037109375
-16.4794921875
-21.05712890625
-37.53662109375
-40.283203125
-38.4521484375
-38.4521484375
-43.02978515625
-46.69189453125
-51.26953125
-61.34033203125
-63.17138671875
-55.84716796875
-49.4384765625
-48.52294921875
-44.86083984375
-49.4384765625
-56.7626953125
-55.84716796875
-52.18505859375
-51.26953125
-49.4384765625
-46.69189453125
-45.7763671875
-60.4248046875
-55.84716796875
-39.36767578125
-40.283203125
-54.01611328125
-59.50927734375
-38.4521484375
-50.35400390625
-52.18505859375
-54.01611328125
-53.1005859375
-47.607421875
-44.86083984375
-41.19873046875
-38.4521484375
-37.53662109375
-35.70556640625
-39.36767578125
-46.69189453125
-52.18505859375
-44.86083984375
-32.04345703125
-26.55029296875
-25.634765625
-22.88818359375
-24.71923828125
-35.70556640625
-40.283203125
-35.70556640625
-32.958984375
-31.1279296875
-32.04345703125
-26.55029296875
-25.634765625
-34.7900390625
-28.38134765625
-36.62109375
-38.4521484375
-25.634765625
-30.21240234375
-33.87451171875
-23.8037109375
-19.22607421875
-20.1416015625
-29.296875
-24.71923828125
-21.97265625
-21.05712890625
-31.1279296875
-36.62109375
-32.958984375
-36.62109375
-40.283203125
-35.70556640625
-31.1279296875
-32.04345703125
-34.7900390625
-28.38134765625
-35.70556640625
-43.02978515625
-47.607421875
-41.19873046875
-35.70556640625
-33.87451171875
-43.9453125
-44.86083984375
-38.4521484375
-40.283203125
-43.02978515625
-48.52294921875
-54.01611328125
-53.1005859375
-45.7763671875
-49.4384765625
-46.69189453125
-54.01611328125
-56.7626953125
-51.26953125
-42.1142578125
-42.1142578125
-55.84716796875
-58.59375
-55.84716796875
-58.59375
-55.84716796875
-55.84716796875
-59.50927734375
-54.931640625
-60.4248046875
-60.4248046875
-52.18505859375
-71.4111328125
-65.00244140625
-47.607421875
-55.84716796875
-75.0732421875
-70.49560546875
-60.4248046875
-55.84716796875
-57.67822265625
-61.34033203125
-63.17138671875
-67.7490234375
-60.4248046875
-57.67822265625
-62.255859375
-57.67822265625
-62.255859375
-72.32666015625
-76.904296875
-69.580078125
-65.91796875
-58.59375
-67.7490234375
-61.34033203125
-58.59375
-57.67822265625
-60.4248046875
-64.0869140625
-63.17138671875
-57.67822265625
-55.84716796875
-62.255859375
-74.15771484375
-59.50927734375
-69.580078125
-75.98876953125
-78.7353515625
-82.3974609375
-73.2421875
-67.7490234375
-68.66455078125
-63.17138671875
-62.255859375
-65.91796875
-65.91796875
-65.00244140625
-66.83349609375
-61.34033203125
-63.17138671875
-68.66455078125
-55.84716796875
-65.00244140625
-73.2421875
-68.66455078125
-75.0732421875
-80.56640625
-63.17138671875
-65.00244140625
-60.4248046875
-59.50927734375
-54.931640625
-66.83349609375
-71.4111328125
-79.65087890625
-73.2421875
-67.7490234375
-78.7353515625
-70.49560546875
-74.15771484375
-73.2421875
-65.00244140625
-61.34033203125
-64.0869140625
-58.59375
-58.59375
-73.2421875
-67.7490234375
-75.0732421875
-79.65087890625
-65.91796875
-66.83349609375
-65.91796875
-61.34033203125
-57.67822265625
-58.59375
-66.83349609375
-70.49560546875
-65.91796875
-70.49560546875
-74.15771484375
-75.98876953125
-66.83349609375
-53.1005859375
-62.255859375
-61.34033203125
-44.86083984375
-41.19873046875
-37.53662109375
-17.39501953125
-24.71923828125
-18.310546875
-10.986328125
-0.91552734375
1.8310546875
-17.39501953125
-15.56396484375
-1.8310546875
6.40869140625
20.1416015625
30.21240234375
33.87451171875
37.53662109375
33.87451171875
32.04345703125
38.4521484375
21.05712890625
18.310546875
8.23974609375
3.662109375
6.40869140625
4.57763671875
-16.4794921875
-31.1279296875
-42.1142578125
-54.01611328125
-66.83349609375
-62.255859375
-54.931640625
-60.4248046875
-61.34033203125
-64.0869140625
-65.00244140625
-75.0732421875
-75.0732421875
-65.91796875
-66.83349609375
-75.98876953125
-71.4111328125
-68.66455078125
-72.32666015625
-71.4111328125
-71.4111328125
-75.98876953125
-75.0732421875
-75.0732421875
-71.4111328125
-75.0732421875
-77.81982421875
-81.48193359375
-85.14404296875
-100.7080078125
-117.1875
-130.0048828125
-137.3291015625
-138.24462890625
-122.6806640625
-76.904296875
-21.97265625
35.70556640625
112.60986328125
190.4296875
272.8271484375
382.6904296875
518.1884765625
650.93994140625
783.69140625
917.3583984375
1026.30615234375
1134.33837890625
1203.0029296875
1148.0712890625
1007.080078125
779.11376953125
511.77978515625
273.74267578125
36.62109375
-170.2880859375
-330.50537109375
-395.5078125
-370.78857421875
-320.4345703125
-275.57373046875
-230.712890625
-189.51416015625
-141.90673828125
-111.6943359375
-98.876953125
-60.4248046875
-21.05712890625
-7.32421875
6.40869140625
10.07080078125
7.32421875
2.74658203125
6.40869140625
1.8310546875
-3.662109375
-1.8310546875
1.8310546875
-12.8173828125
-10.07080078125
-2.74658203125
4.57763671875
12.8173828125
6.40869140625
1.8310546875
9.1552734375
-2.74658203125
-5.4931640625
11.90185546875
13.73291015625
11.90185546875
23.8037109375
15.56396484375
3.662109375
17.39501953125
26.55029296875
30.21240234375
35.70556640625
31.1279296875
32.04345703125
27.4658203125
26.55029296875
32.04345703125
40.283203125
38.4521484375
35.70556640625
42.1142578125
50.35400390625
60.4248046875
57.67822265625
53.1005859375
54.931640625
55.84716796875
67.7490234375
72.32666015625
65.91796875
68.66455078125
74.15771484375
75.98876953125
80.56640625
93.3837890625
86.0595703125
88.80615234375
95.21484375
106.201171875
107.11669921875
106.201171875
106.201171875
116.27197265625
123.59619140625
125.42724609375
132.75146484375
144.6533203125
144.6533203125
153.80859375
152.89306640625
154.72412109375
162.9638671875
164.794921875
178.52783203125
185.85205078125
195.00732421875
202.33154296875
204.16259765625
216.064453125
218.81103515625
225.2197265625
228.8818359375
227.05078125
249.0234375
255.43212890625
260.009765625
268.24951171875
272.8271484375
270.99609375
268.24951171875
271.91162109375
273.74267578125
270.99609375
270.99609375
281.982421875
279.23583984375
281.982421875
291.1376953125
287.4755859375
287.4755859375
279.23583984375
275.57373046875
271.91162109375
272.8271484375
266.41845703125
260.92529296875
255.43212890625
240.78369140625
230.712890625
222.47314453125
216.064453125
215.14892578125
191.34521484375
177.6123046875
158.38623046875
147.39990234375
147.39990234375
135.498046875
121.76513671875
113.525390625
99.79248046875
80.56640625
71.4111328125
61.34033203125
50.35400390625
39.36767578125
36.62109375
17.39501953125
12.8173828125
9.1552734375
8.23974609375
10.07080078125
-14.6484375
-23.8037109375
-6.40869140625
-19.22607421875
-21.97265625
-21.97265625
-30.21240234375
-37.53662109375
-38.4521484375
-36.62109375
-41.19873046875
-43.02978515625
-47.607421875
-42.1142578125
-34.7900390625
-37.53662109375
-45.7763671875
-51.26953125
-53.1005859375
-54.931640625
-46.69189453125
-42.1142578125
-42.1142578125
-43.9453125
-43.9453125
-43.02978515625
-42.1142578125
-51.26953125
-48.52294921875
-42.1142578125
-40.283203125
-54.01611328125
-41.19873046875
-41.19873046875
-36.62109375
-30.21240234375
-39.36767578125
-45.7763671875
-41.19873046875
-24.71923828125
-32.04345703125
-44.86083984375
-41.19873046875
-31.1279296875
-30.21240234375
-25.634765625
-23.8037109375
-26.55029296875
-21.97265625
-24.71923828125
-21.97265625
-26.55029296875
-23.8037109375
-27.4658203125
-30.21240234375
-14.6484375
-17.39501953125
-29.296875
-31.1279296875
-32.958984375
-23.8037109375
-17.39501953125
-19.22607421875
-15.56396484375
-19.22607421875
-31.1279296875
-35.70556640625
-24.71923828125
-21.05712890625
-21.97265625
-21.97265625
-17.39501953125
-23.8037109375
-25.634765625
-25.634765625
-28.38134765625
-21.97265625
-32.04345703125
-32.958984375
-22.88818359375
-25.634765625
-39.36767578125
-38.4521484375
-31.1279296875
-37.53662109375
-43.9453125
-39.36767578125
-30.21240234375
-24.71923828125
-31.1279296875
-42.1142578125
-46.69189453125
-46.69189453125
-49.4384765625
-34.7900390625
-32.958984375
-36.62109375
-55.84716796875
-57.67822265625
-48.52294921875
-42.1142578125
-43.02978515625
-43.02978515625
-42.1142578125
-46.69189453125
-44.86083984375
-43.9453125
-43.02978515625
-48.52294921875
-56.7626953125
-57.67822265625
-46.69189453125
-47.607421875
-46.69189453125
-54.931640625
-58.59375
-62.255859375
-63.17138671875
-56.7626953125
-51.26953125
-53.1005859375
-60.4248046875
-66.83349609375
-63.17138671875
-52.18505859375
-58.59375
-54.01611328125
-49.4384765625
-59.50927734375
-57.67822265625
-57.67822265625
-62.255859375
-61.34033203125
-67.7490234375
-65.91796875
-50.35400390625
-52.18505859375
-58.59375
-66.83349609375
-68.66455078125
-54.931640625
-50.35400390625
-52.18505859375
-60.4248046875
-55.84716796875
-53.1005859375
-54.931640625
-58.59375
-61.34033203125
-61.34033203125
-67.7490234375
-56.7626953125
-55.84716796875
-62.255859375
-62.255859375
-61.34033203125
-65.91796875
-69.580078125
-63.17138671875
-70.49560546875
-63.17138671875
-54.931640625
-64.0869140625
-61.34033203125
-57.67822265625
-50.35400390625
-52.18505859375
-55.84716796875
-58.59375
-57.67822265625
-62.255859375
-65.91796875
-57.67822265625
-55.84716796875
-60.4248046875
-62.255859375
-65.91796875
-64.0869140625
-59.50927734375
-48.52294921875
-70.49560546875
-68.66455078125
-60.4248046875
-63.17138671875
-64.0869140625
-69.580078125
-68.66455078125
-71.4111328125
-61.34033203125
-54.01611328125
-56.7626953125
-64.0869140625
-69.580078125
-61.34033203125
-57.67822265625
-63.17138671875
-61.34033203125
-65.00244140625
-62.255859375
-57.67822265625
-53.1005859375
-54.01611328125
-43.02978515625
-45.7763671875
-39.36767578125
-25.634765625
-16.4794921875
-10.986328125
-1.8310546875
6.40869140625
6.40869140625
6.40869140625
0.91552734375
6.40869140625
11.90185546875
7.32421875
18.310546875
40.283203125
45.7763671875
41.19873046875
33.87451171875
32.958984375
38.4521484375
33.87451171875
26.55029296875
25.634765625
10.986328125
11.90185546875
-0.91552734375
-19.22607421875
-36.62109375
-41.19873046875
-50.35400390625
-73.2421875
-86.0595703125
-70.49560546875
-60.4248046875
-49.4384765625
-46.69189453125
-57.67822265625
-65.00244140625
-67.7490234375
-63.17138671875
-57.67822265625
-71.4111328125
-89.7216796875
-75.98876953125
-61.34033203125
-65.00244140625
-60.4248046875
-57.67822265625
-64.0869140625
-71.4111328125
-68.66455078125
-69.580078125
-75.0732421875
-86.0595703125
-98.876953125
-112.60986328125
-125.42724609375
-146.484375
-147.39990234375
-133.6669921875
-89.7216796875
-32.04345703125
15.56396484375
80.56640625
141.90673828125
237.12158203125
332.33642578125
439.453125
584.1064453125
739.74609375
865.17333984375
984.19189453125
1092.22412109375
1178.28369140625
1158.14208984375
1056.5185546875
863.34228515625
629.8828125
358.88671875
112.60986328125
-108.0322265625
-272.8271484375
-382.6904296875
-383.60595703125
-347.900390625
-311.279296875
-272.8271484375
-223.388671875
-172.119140625
-142.822265625
-119.0185546875
-73.2421875
-24.71923828125
-7.32421875
1.8310546875
8.23974609375
10.986328125
0.91552734375
-6.40869140625
0.91552734375
5.4931640625
7.32421875
12.8173828125
7.32421875
0
0
1.8310546875
5.4931640625
1.8310546875
6.40869140625
14.6484375
22.88818359375
23.8037109375
19.22607421875
8.23974609375
3.662109375
8.23974609375
7.32421875
16.4794921875
26.55029296875
19.22607421875
28.38134765625
29.296875
13.73291015625
23.8037109375
28.38134765625
33.87451171875
39.36767578125
43.02978515625
40.283203125
40.283203125
37.53662109375
48.52294921875
54.931640625
54.931640625
62.255859375
65.00244140625
63.17138671875
73.2421875
66.83349609375
73.2421875
66.83349609375
70.49560546875
70.49560546875
74.15771484375
81.48193359375
90.63720703125
99.79248046875
99.79248046875
99.79248046875
97.96142578125
119.93408203125
116.27197265625
110.77880859375
118.10302734375
134.58251953125
142.822265625
143.73779296875
143.73779296875
150.146484375
156.55517578125
164.794921875
169.37255859375
173.9501953125
174.86572265625
185.85205078125
195.9228515625
205.078125
216.064453125
224.30419921875
229.79736328125
238.95263671875
249.93896484375
246.27685546875
249.93896484375
253.60107421875
249.93896484375
257.26318359375
266.41845703125
274.658203125
279.23583984375
282.89794921875
282.89794921875
287.4755859375
283.8134765625
285.64453125
285.64453125
282.89794921875
284.72900390625
287.4755859375
280.1513671875
274.658203125
280.1513671875
276.4892578125
268.24951171875
270.99609375
263.671875
260.009765625
248.10791015625
245.361328125
235.29052734375
224.30419921875
215.14892578125
201.416015625
194.091796875
189.51416015625
158.38623046875
137.3291015625
131.8359375
128.173828125
120.849609375
111.6943359375
93.3837890625
86.0595703125
73.2421875
56.7626953125
53.1005859375
50.35400390625
42.1142578125
27.4658203125
15.56396484375
11.90185546875
1.8310546875
-7.32421875
-10.07080078125
-20.1416015625
-27.4658203125
-21.97265625
-23.8037109375
-22.88818359375
-26.55029296875
-19.22607421875
-31.1279296875
-32.958984375
-47.607421875
-48.52294921875
-47.607421875
-43.9453125
-48.52294921875
-45.7763671875
-41.19873046875
-35.70556640625
-45.7763671875
-43.9453125
-43.02978515625
-43.02978515625
-43.02978515625
-45.7763671875
-45.7763671875
-44.86083984375
-46.69189453125
-46.69189453125
-57.67822265625
-51.26953125
-41.19873046875
-35.70556640625
-52.18505859375
-43.02978515625
-39.36767578125
-42.1142578125
-33.87451171875
-28.38134765625
-24.71923828125
-27.4658203125
-29.296875
-35.70556640625
-33.87451171875
-32.958984375
-39.36767578125
-40.283203125
-33.87451171875
-28.38134765625
-27.4658203125
-32.958984375
-26.55029296875
-18.310546875
-14.6484375
-23.8037109375
-28.38134765625
-28.38134765625
-29.296875
-21.97265625
-32.04345703125
-25.634765625
-21.97265625
-15.56396484375
-19.22607421875
-18.310546875
-17.39501953125
-9.1552734375
-18.310546875
-29.296875
-11.90185546875
-17.39501953125
-28.38134765625
-36.62109375
-26.55029296875
-21.05712890625
-29.296875
-30.21240234375
-38.4521484375
-26.55029296875
-25.634765625
-28.38134765625
-29.296875
-31.1279296875
-32.958984375
-37.53662109375
-49.4384765625
-54.01611328125
-45.7763671875
-39.36767578125
-26.55029296875
-35.70556640625
-36.62109375
-30.21240234375
-40.283203125
-48.52294921875
-38.4521484375
-35.70556640625
-42.1142578125
-40.283203125
-45.7763671875
-50.35400390625
-54.01611328125
-54.931640625
-50.35400390625
-44.86083984375
-36.62109375
-42.1142578125
-57.67822265625
-59.50927734375
-51.26953125
-50.35400390625
-57.67822265625
-60.4248046875
-50.35400390625
-53.1005859375
-67.7490234375
-71.4111328125
-65.91796875
-61.34033203125
-53.1005859375
-53.1005859375
-49.4384765625
-55.84716796875
-71.4111328125
-63.17138671875
-54.01611328125
-62.255859375
-50.35400390625
-54.01611328125
-63.17138671875
-65.00244140625
-60.4248046875
-64.0869140625
-64.0869140625
-67.7490234375
-63.17138671875
-61.34033203125
-52.18505859375
-57.67822265625
-58.59375
-61.34033203125
-63.17138671875
-56.7626953125
-65.00244140625
-73.2421875
-81.48193359375
-77.81982421875
-70.49560546875
-66.83349609375
-68.66455078125
-65.91796875
-62.255859375
-63.17138671875
-69.580078125
-65.00244140625
-78.7353515625
-86.0595703125
-76.904296875
-68.66455078125
-57.67822265625
-61.34033203125
-65.91796875
-62.255859375
-71.4111328125
-76.904296875
-75.98876953125
-59.50927734375
-62.255859375
-63.17138671875
-66.83349609375
-68.66455078125
-63.17138671875
-84.228515625
-68.66455078125
-72.32666015625
-73.2421875
-65.91796875
-65.91796875
-73.2421875
-68.66455078125
-57.67822265625
-59.50927734375
-66.83349609375
-70.49560546875
-74.15771484375
-64.0869140625
-57.67822265625
-58.59375
-61.34033203125
-64.0869140625
-65.00244140625
-68.66455078125
-61.34033203125
-65.91796875
-72.32666015625
-68.66455078125
-65.00244140625
-62.255859375
-55.84716796875
-54.931640625
-47.607421875
-39.36767578125
-30.21240234375
-14.6484375
-13.73291015625
-1.8310546875
-4.57763671875
-8.23974609375
4.57763671875
-4.57763671875
7.32421875
10.986328125
26.55029296875
36.62109375
43.02978515625
44.86083984375
34.7900390625
31.1279296875
36.62109375
32.958984375
21.97265625
21.97265625
8.23974609375
7.32421875
12.8173828125
-3.662109375
-20.1416015625
-28.38134765625
-32.04345703125
-47.607421875
-54.01611328125
-63.17138671875
-63.17138671875
-68.66455078125
-66.83349609375
-63.17138671875
-74.15771484375
-76.904296875
-68.66455078125
-73.2421875
-69.580078125
-71.4111328125
-78.7353515625
-77.81982421875
-76.904296875
-75.0732421875
-68.66455078125
-65.91796875
-75.0732421875
-74.15771484375
-70.49560546875
-72.32666015625
-76.904296875
-86.0595703125
-97.96142578125
-112.60986328125
-122.6806640625
-134.58251953125
-151.9775390625
-129.08935546875
-92.46826171875
-51.26953125
-1.8310546875
75.0732421875
146.484375
250.8544921875
354.30908203125
472.412109375
611.572265625
755.31005859375
876.15966796875
985.107421875
1103.21044921875
1190.185546875
1160.888671875
1047.36328125
834.9609375
596.00830078125
339.66064453125
96.13037109375
-123.59619140625
-295.71533203125
-390.0146484375
-383.60595703125
-345.15380859375
-312.19482421875
-264.58740234375
-217.8955078125
-169.37255859375
-135.498046875
-109.86328125
-74.15771484375
-39.36767578125
-19.22607421875
10.07080078125
21.05712890625
9.1552734375
0.91552734375
6.40869140625
5.4931640625
-3.662109375
-7.32421875
-13.73291015625
-12.8173828125
-1.8310546875
0.91552734375
2.74658203125
-1.8310546875
-0.91552734375
2.74658203125
7.32421875
10.986328125
18.310546875
11.90185546875
3.662109375
10.986328125
19.22607421875
20.1416015625
21.97265625
25.634765625
28.38134765625
19.22607421875
21.97265625
27.4658203125
33.87451171875
15.56396484375
16.4794921875
40.283203125
48.52294921875
49.4384765625
51.26953125
44.86083984375
43.9453125
42.1142578125
43.02978515625
49.4384765625
58.59375
52.18505859375
57.67822265625
64.0869140625
64.0869140625
78.7353515625
80.56640625
74.15771484375
70.49560546875
86.0595703125
95.21484375
84.228515625
92.46826171875
99.79248046875
100.7080078125
108.0322265625
105.28564453125
113.525390625
124.51171875
126.3427734375
124.51171875
130.92041015625
133.6669921875
140.9912109375
155.6396484375
165.71044921875
169.37255859375
165.71044921875
178.52783203125
180.35888671875
183.10546875
191.34521484375
193.17626953125
205.99365234375
222.47314453125
221.5576171875
228.8818359375
232.5439453125
237.12158203125
248.10791015625
255.43212890625
245.361328125
246.27685546875
255.43212890625
265.5029296875
269.1650390625
258.1787109375
261.8408203125
271.91162109375
264.58740234375
256.34765625
263.671875
272.8271484375
259.09423828125
251.77001953125
255.43212890625
258.1787109375
246.27685546875
238.037109375
240.78369140625
244.44580078125
233.45947265625
227.05078125
219.7265625
205.99365234375
191.34521484375
192.2607421875
185.85205078125
161.1328125
141.90673828125
139.16015625
130.92041015625
110.77880859375
107.11669921875
85.14404296875
74.15771484375
73.2421875
68.66455078125
45.7763671875
38.4521484375
28.38134765625
12.8173828125
-10.986328125
-16.4794921875
-23.8037109375
-29.296875
-42.1142578125
-48.52294921875
-38.4521484375
-43.9453125
-53.1005859375
-61.34033203125
-49.4384765625
-42.1142578125
-53.1005859375
-58.59375
-54.931640625
-61.34033203125
-74.15771484375
-68.66455078125
-62.255859375
-67.7490234375
-65.91796875
-65.00244140625
-62.255859375
-63.17138671875
-77.81982421875
-77.81982421875
-73.2421875
-75.0732421875
-76.904296875
-69.580078125
-74.15771484375
-81.48193359375
-89.7216796875
-81.48193359375
-73.2421875
-65.00244140625
-72.32666015625
-77.81982421875
-84.228515625
-76.904296875
-73.2421875
-66.83349609375
-75.0732421875
-57.67822265625
-49.4384765625
-54.01611328125
-55.84716796875
-61.34033203125
-69.580078125
-68.66455078125
-56.7626953125
-50.35400390625
-53.1005859375
-62.255859375
-68.66455078125
-66.83349609375
-57.67822265625
-64.0869140625
-65.00244140625
-71.4111328125
-52.18505859375
-68.66455078125
-68.66455078125
-48.52294921875
-43.02978515625
-42.1142578125
-55.84716796875
-58.59375
-63.17138671875
-62.255859375
-64.0869140625
-58.59375
-64.0869140625
-54.931640625
-51.26953125
-45.7763671875
-46.69189453125
-54.01611328125
-54.931640625
-56.7626953125
-64.0869140625
-63.17138671875
-56.7626953125
-54.931640625
-46.69189453125
-51.26953125
-54.01611328125
-67.7490234375
-78.7353515625
-73.2421875
-61.34033203125
-63.17138671875
-63.17138671875
-57.67822265625
-54.931640625
-70.49560546875
-86.0595703125
-86.0595703125
-86.0595703125
-77.81982421875
-75.0732421875
-78.7353515625
-78.7353515625
-85.14404296875
-78.7353515625
-62.255859375
-70.49560546875
-68.66455078125
-68.66455078125
-72.32666015625
-80.56640625
-83.31298828125
-81.48193359375
-79.65087890625
-83.31298828125
-86.97509765625
-78.7353515625
-85.14404296875
-90.63720703125
-89.7216796875
-90.63720703125
-84.228515625
-89.7216796875
-89.7216796875
-88.80615234375
-93.3837890625
-94.29931640625
-105.28564453125
-107.11669921875
-119.93408203125
-123.59619140625
-108.94775390625
-106.201171875
-109.86328125
-90.63720703125
-89.7216796875
-95.21484375
-103.45458984375
-94.29931640625
-88.80615234375
-103.45458984375
-101.62353515625
-96.13037109375
-103.45458984375
-98.876953125
-91.552734375
-86.97509765625
-92.46826171875
-102.5390625
-98.876953125
-97.0458984375
-100.7080078125
-104.3701171875
-96.13037109375
-108.0322265625
-106.201171875
-104.3701171875
-104.3701171875
-97.96142578125
-99.79248046875
-105.28564453125
-101.62353515625
-106.201171875
-102.5390625
-98.876953125
-101.62353515625
-96.13037109375
-108.0322265625
-103.45458984375
-95.21484375
-97.0458984375
-91.552734375
-97.0458984375
-95.21484375
-96.13037109375
-88.80615234375
-102.5390625
-111.6943359375
-108.94775390625
-108.0322265625
-104.3701171875
-103.45458984375
-98.876953125
-96.13037109375
-101.62353515625
-101.62353515625
-115.3564453125
-121.76513671875
-111.6943359375
-108.0322265625
-97.96142578125
-95.21484375
-96.13037109375
-95.21484375
-97.0458984375
-96.13037109375
-94.29931640625
-94.29931640625
-88.80615234375
-95.21484375
-91.552734375
-86.0595703125
-75.0732421875
-64.0869140625
-58.59375
-47.607421875
-39.36767578125
-38.4521484375
-35.70556640625
-45.7763671875
-37.53662109375
-32.04345703125
-36.62109375
-28.38134765625
-18.310546875
-6.40869140625
-2.74658203125
3.662109375
-2.74658203125
-7.32421875
-19.22607421875
-15.56396484375
-13.73291015625
-12.8173828125
-17.39501953125
-18.310546875
-17.39501953125
-33.87451171875
-46.69189453125
-62.255859375
-75.0732421875
-76.904296875
-88.80615234375
-105.28564453125
-102.5390625
-83.31298828125
-82.3974609375
-86.97509765625
-91.552734375
-101.62353515625
-112.60986328125
-123.59619140625
-118.10302734375
-96.13037109375
-90.63720703125
-98.876953125
-95.21484375
-90.63720703125
-104.3701171875
-112.60986328125
-108.0322265625
-102.5390625
-91.552734375
-94.29931640625
-103.45458984375
-114.44091796875
-128.173828125
-137.3291015625
-159.3017578125
-177.6123046875
-167.54150390625
-162.04833984375
-126.3427734375
-72.32666015625
-32.04345703125
32.958984375
113.525390625
207.82470703125
307.6171875
410.15625
545.654296875
704.9560546875
840.4541015625
957.6416015625
1068.42041015625
1137.0849609375
1140.7470703125
1041.8701171875
847.7783203125
611.572265625
338.7451171875
104.3701171875
-103.45458984375
-279.23583984375
-386.3525390625
-400.08544921875
-367.12646484375
-347.900390625
-299.37744140625
-247.1923828125
-205.078125
-171.20361328125
-144.6533203125
-111.6943359375
-69.580078125
-34.7900390625
-28.38134765625
-20.1416015625
-21.05712890625
-23.8037109375
-28.38134765625
-17.39501953125
-13.73291015625
-10.986328125
-21.05712890625
-28.38134765625
-24.71923828125
-24.71923828125
-22.88818359375
-17.39501953125
-16.4794921875
-27.4658203125
-26.55029296875
-12.8173828125
-14.6484375
-22.88818359375
-28.38134765625
-28.38134765625
-20.1416015625
-6.40869140625
-10.07080078125
-20.1416015625
-18.310546875
-5.4931640625
2.74658203125
2.74658203125
5.4931640625
-1.8310546875
-8.23974609375
10.07080078125
7.32421875
15.56396484375
23.8037109375
21.05712890625
17.39501953125
24.71923828125
28.38134765625
18.310546875
16.4794921875
21.97265625
22.88818359375
27.4658203125
27.4658203125
29.296875
35.70556640625
33.87451171875
45.7763671875
67.7490234375
75.0732421875
77.81982421875
68.66455078125
76.904296875
79.65087890625
83.31298828125
94.29931640625
97.96142578125
102.5390625
95.21484375
97.0458984375
101.62353515625
117.1875
125.42724609375
130.92041015625
130.0048828125
138.24462890625
145.56884765625
153.80859375
163.87939453125
162.9638671875
167.54150390625
181.2744140625
187.68310546875
198.66943359375
208.740234375
206.9091796875
205.078125
209.65576171875
208.740234375
210.5712890625
220.64208984375
243.5302734375
243.5302734375
250.8544921875
249.93896484375
240.78369140625
251.77001953125
240.78369140625
238.95263671875
254.5166015625
263.671875
245.361328125
241.69921875
234.375
238.037109375
242.61474609375
247.1923828125
247.1923828125
241.69921875
233.45947265625
216.064453125
207.82470703125
207.82470703125
200.50048828125
193.17626953125
172.119140625
163.87939453125
145.56884765625
136.41357421875
133.6669921875
126.3427734375
110.77880859375
94.29931640625
84.228515625
82.3974609375
67.7490234375
47.607421875
25.634765625
11.90185546875
5.4931640625
5.4931640625
9.1552734375
-3.662109375
-5.4931640625
-22.88818359375
-40.283203125
-40.283203125
-32.04345703125
-33.87451171875
-41.19873046875
-56.7626953125
-64.0869140625
-70.49560546875
-76.904296875
-70.49560546875
-68.66455078125
-76.904296875
-81.48193359375
-76.904296875
-75.0732421875
-75.0732421875
-73.2421875
-78.7353515625
-74.15771484375
-74.15771484375
-75.0732421875
-74.15771484375
-69.580078125
-83.31298828125
-89.7216796875
-92.46826171875
-80.56640625
-73.2421875
-75.0732421875
-69.580078125
-75.98876953125
-75.0732421875
-65.91796875
-72.32666015625
-65.00244140625
-71.4111328125
-75.0732421875
-66.83349609375
-64.0869140625
-63.17138671875
-65.00244140625
-62.255859375
-69.580078125
-66.83349609375
-58.59375
-61.34033203125
-70.49560546875
-64.0869140625
-59.50927734375
-61.34033203125
-55.84716796875
-51.26953125
-59.50927734375
-65.91796875
-54.931640625
-37.53662109375
-35.70556640625
-40.283203125
-53.1005859375
-53.1005859375
-51.26953125
-60.4248046875
-56.7626953125
-54.01611328125
-54.01611328125
-48.52294921875
-44.86083984375
-45.7763671875
-57.67822265625
-61.34033203125
-55.84716796875
-55.84716796875
-53.1005859375
-48.52294921875
-54.01611328125
-56.7626953125
-66.83349609375
-60.4248046875
-50.35400390625
-48.52294921875
-53.1005859375
-63.17138671875
-51.26953125
-48.52294921875
-54.931640625
-57.67822265625
-61.34033203125
-55.84716796875
-53.1005859375
-54.01611328125
-56.7626953125
-61.34033203125
-65.91796875
-75.0732421875
-75.0732421875
-64.0869140625
-73.2421875
-74.15771484375
-75.98876953125
-78.7353515625
-85.14404296875
-83.31298828125
-65.91796875
-78.7353515625
-81.48193359375
-76.904296875
-77.81982421875
-74.15771484375
-67.7490234375
-73.2421875
-79.65087890625
-87.890625
-86.0595703125
-82.3974609375
-86.0595703125
-84.228515625
-81.48193359375
-75.0732421875
-80.56640625
-84.228515625
-93.3837890625
-90.63720703125
-77.81982421875
-74.15771484375
-84.228515625
-94.29931640625
-106.201171875
-100.7080078125
-96.13037109375
-103.45458984375
-93.3837890625
-83.31298828125
-89.7216796875
-84.228515625
-78.7353515625
-81.48193359375
-92.46826171875
-96.13037109375
-94.29931640625
-84.228515625
-82.3974609375
-78.7353515625
-83.31298828125
-98.876953125
-90.63720703125
-86.0595703125
-94.29931640625
-93.3837890625
-94.29931640625
-96.13037109375
-104.3701171875
-98.876953125
-91.552734375
-92.46826171875
-98.876953125
-91.552734375
-89.7216796875
-99.79248046875
-96.13037109375
-96.13037109375
-97.96142578125
-88.80615234375
-91.552734375
-97.0458984375
-88.80615234375
-94.29931640625
-95.21484375
-99.79248046875
-98.876953125
-100.7080078125
-96.13037109375
-89.7216796875
-88.80615234375
-86.0595703125
-75.0732421875
-74.15771484375
-63.17138671875
-43.02978515625
-38.4521484375
-29.296875
-20.1416015625
-26.55029296875
-29.296875
-21.97265625
-27.4658203125
-17.39501953125
-9.1552734375
-12.8173828125
10.07080078125
9.1552734375
-10.986328125
6.40869140625
16.4794921875
16.4794921875
15.56396484375
9.1552734375
8.23974609375
-8.23974609375
-10.986328125
-17.39501953125
-23.8037109375
-41.19873046875
-57.67822265625
-62.255859375
-77.81982421875
-95.21484375
-97.0458984375
-88.80615234375
-94.29931640625
-105.28564453125
-93.3837890625
-93.3837890625
-87.890625
-93.3837890625
-93.3837890625
-99.79248046875
-103.45458984375
-102.5390625
-112.60986328125
-109.86328125
-115.3564453125
-113.525390625
-116.27197265625
-108.0322265625
-93.3837890625
-111.6943359375
-108.0322265625
-105.28564453125
-113.525390625
-109.86328125
-130.92041015625
-149.23095703125
-170.2880859375
-176.69677734375
-186.767578125
-172.119140625
-137.3291015625
-94.29931640625
-51.26953125
21.05712890625
108.94775390625
184.02099609375
286.56005859375
405.57861328125
533.75244140625
694.88525390625
822.1435546875
930.17578125
1043.701171875
1140.7470703125
1137.0849609375
1031.79931640625
834.04541015625
604.248046875
334.16748046875
96.13037109375
-113.525390625
-294.7998046875
-394.59228515625
-401.91650390625
-379.0283203125
-343.32275390625
-292.96875
-253.60107421875
-210.5712890625
-184.9365234375
-151.06201171875
-126.3427734375
-85.14404296875
-53.1005859375
-38.4521484375
-27.4658203125
-28.38134765625
-32.958984375
-35.70556640625
-34.7900390625
-42.1142578125
-43.9453125
-36.62109375
-37.53662109375
-49.4384765625
-51.26953125
-49.4384765625
-45.7763671875
-43.02978515625
-41.19873046875
-36.62109375
-39.36767578125
-30.21240234375
-32.04345703125
-41.19873046875
-37.53662109375
-37.53662109375
-35.70556640625
-27.4658203125
-24.71923828125
-27.4658203125
-15.56396484375
-18.310546875
-32.958984375
-19.22607421875
-13.73291015625
7.32421875
1.8310546875
-12.8173828125
5.4931640625
12.8173828125
16.4794921875
23.8037109375
9.1552734375
6.40869140625
3.662109375
21.97265625
30.21240234375
32.958984375
32.04345703125
25.634765625
39.36767578125
44.86083984375
45.7763671875
49.4384765625
43.9453125
42.1142578125
68.66455078125
70.49560546875
68.66455078125
70.49560546875
78.7353515625
80.56640625
71.4111328125
75.98876953125
86.97509765625
86.0595703125
96.13037109375
109.86328125
109.86328125
109.86328125
124.51171875
137.3291015625
136.41357421875
140.9912109375
145.56884765625
164.794921875
169.37255859375
173.9501953125
184.9365234375
202.33154296875
201.416015625
208.740234375
213.31787109375
205.99365234375
213.31787109375
230.712890625
239.8681640625
237.12158203125
238.95263671875
243.5302734375
240.78369140625
227.96630859375
230.712890625
242.61474609375
244.44580078125
232.5439453125
233.45947265625
243.5302734375
248.10791015625
245.361328125
250.8544921875
252.685546875
235.29052734375
232.5439453125
241.69921875
222.47314453125
206.9091796875
212.40234375
205.078125
191.34521484375
177.6123046875
162.04833984375
157.470703125
136.41357421875
125.42724609375
127.25830078125
105.28564453125
91.552734375
79.65087890625
69.580078125
53.1005859375
44.86083984375
41.19873046875
31.1279296875
24.71923828125
10.986328125
-6.40869140625
-16.4794921875
-27.4658203125
-39.36767578125
-36.62109375
-45.7763671875
-45.7763671875
-40.283203125
-45.7763671875
-55.84716796875
-58.59375
-74.15771484375
-79.65087890625
-63.17138671875
-57.67822265625
-61.34033203125
-68.66455078125
-87.890625
-77.81982421875
-84.228515625
-81.48193359375
-76.904296875
-77.81982421875
-65.91796875
-74.15771484375
-86.0595703125
-91.552734375
-90.63720703125
-90.63720703125
-79.65087890625
-71.4111328125
-65.00244140625
-75.0732421875
-75.0732421875
-80.56640625
-96.13037109375
-81.48193359375
-69.580078125
-68.66455078125
-76.904296875
-75.98876953125
-83.31298828125
-84.228515625
-76.904296875
-77.81982421875
-75.98876953125
-71.4111328125
-63.17138671875
-65.91796875
-63.17138671875
-65.91796875
-56.7626953125
-59.50927734375
-65.00244140625
-59.50927734375
-62.255859375
-58.59375
-53.1005859375
-54.01611328125
-64.0869140625
-57.67822265625
-53.1005859375
-47.607421875
-54.01611328125
-64.0869140625
-56.7626953125
-47.607421875
-50.35400390625
-59.50927734375
-58.59375
-61.34033203125
-60.4248046875
-58.59375
-51.26953125
-44.86083984375
-52.18505859375
-60.4248046875
-62.255859375
-63.17138671875
-62.255859375
-56.7626953125
-64.0869140625
-58.59375
-45.7763671875
-62.255859375
-64.0869140625
-67.7490234375
-66.83349609375
-69.580078125
-68.66455078125
-60.4248046875
-65.91796875
-56.7626953125
-54.931640625
-58.59375
-64.0869140625
-75.98876953125
-70.49560546875
-71.4111328125
-69.580078125
-70.49560546875
-69.580078125
-72.32666015625
-77.81982421875
-75.98876953125
-73.2421875
-80.56640625
-76.904296875
-75.98876953125
-77.81982421875
-75.98876953125
-81.48193359375
-87.890625
-82.3974609375
-90.63720703125
-86.0595703125
-84.228515625
-83.31298828125
-78.7353515625
-81.48193359375
-77.81982421875
-86.0595703125
-93.3837890625
-101.62353515625
-106.201171875
-100.7080078125
-94.29931640625
-97.96142578125
-83.31298828125
-80.56640625
-89.7216796875
-90.63720703125
-85.14404296875
-88.80615234375
-88.80615234375
-90.63720703125
-89.7216796875
-79.65087890625
-96.13037109375
-102.5390625
-100.7080078125
-94.29931640625
-89.7216796875
-94.29931640625
-96.13037109375
-93.3837890625
-87.890625
-86.97509765625
-85.14404296875
-85.14404296875
-89.7216796875
-92.46826171875
-88.80615234375
-90.63720703125
-92.46826171875
-96.13037109375
-96.13037109375
-96.13037109375
-87.890625
-86.0595703125
-87.890625
-94.29931640625
-94.29931640625
-87.890625
-88.80615234375
-95.21484375
-95.21484375
-90.63720703125
-81.48193359375
-73.2421875
-68.66455078125
-69.580078125
-59.50927734375
-45.7763671875
-26.55029296875
-28.38134765625
-31.1279296875
-41.19873046875
-46.69189453125
-52.18505859375
-31.1279296875
-10.986328125
-0.91552734375
7.32421875
12.8173828125
12.8173828125
21.05712890625
21.97265625
11.90185546875
-8.23974609375
-21.05712890625
0
2.74658203125
-24.71923828125
-19.22607421875
-17.39501953125
-21.97265625
-36.62109375
-51.26953125
-76.904296875
-93.3837890625
-85.14404296875
-81.48193359375
-83.31298828125
-86.97509765625
-95.21484375
-88.80615234375
-84.228515625
-92.46826171875
-86.97509765625
-97.0458984375
-96.13037109375
-102.5390625
-97.0458984375
-97.96142578125
-108.94775390625
-106.201171875
-106.201171875
-109.86328125
-103.45458984375
-103.45458984375
-100.7080078125
-101.62353515625
-100.7080078125
-111.6943359375
-116.27197265625
-121.76513671875
-140.07568359375
-154.72412109375
-163.87939453125
-176.69677734375
-172.119140625
-143.73779296875
-95.21484375
-47.607421875
21.97265625
94.29931640625
182.18994140625
281.06689453125
381.77490234375
510.8642578125
654.60205078125
780.94482421875
904.541015625
1027.2216796875
1121.52099609375
1096.8017578125
1004.33349609375
813.90380859375
604.248046875
344.23828125
119.0185546875
-70.49560546875
-248.10791015625
-342.4072265625
-357.0556640625
-338.7451171875
-314.94140625
-287.4755859375
-247.1923828125
-217.8955078125
-176.69677734375
-142.822265625
-136.41357421875
-111.6943359375
-72.32666015625
-49.4384765625
-32.04345703125
-21.97265625
-21.97265625
-24.71923828125
-29.296875
-32.04345703125
-35.70556640625
-32.04345703125
-25.634765625
-28.38134765625
-29.296875
-29.296875
-32.958984375
-31.1279296875
-21.97265625
-26.55029296875
-18.310546875
-8.23974609375
-10.986328125
-19.22607421875
-16.4794921875
-18.310546875
-35.70556640625
-31.1279296875
-10.986328125
-6.40869140625
0.91552734375
6.40869140625
8.23974609375
13.73291015625
18.310546875
16.4794921875
9.1552734375
6.40869140625
18.310546875
20.1416015625
26.55029296875
26.55029296875
29.296875
28.38134765625
31.1279296875
32.04345703125
38.4521484375
41.19873046875
46.69189453125
53.1005859375
56.7626953125
54.931640625
54.01611328125
55.84716796875
57.67822265625
59.50927734375
70.49560546875
64.0869140625
69.580078125
82.3974609375
76.904296875
95.21484375
110.77880859375
108.0322265625
106.201171875
115.3564453125
119.0185546875
119.93408203125
122.6806640625
121.76513671875
126.3427734375
141.90673828125
159.3017578125
158.38623046875
162.9638671875
169.37255859375
178.52783203125
194.091796875
193.17626953125
197.75390625
208.740234375
215.14892578125
220.64208984375
229.79736328125
237.12158203125
238.95263671875
238.037109375
255.43212890625
257.26318359375
261.8408203125
252.685546875
247.1923828125
250.8544921875
260.92529296875
273.74267578125
274.658203125
265.5029296875
257.26318359375
244.44580078125
242.61474609375
250.8544921875
258.1787109375
251.77001953125
247.1923828125
234.375
232.5439453125
221.5576171875
220.64208984375
215.14892578125
203.2470703125
184.02099609375
173.03466796875
163.87939453125
156.55517578125
145.56884765625
130.0048828125
114.44091796875
108.94775390625
98.876953125
91.552734375
75.0732421875
56.7626953125
43.02978515625
33.87451171875
21.05712890625
12.8173828125
10.07080078125
-2.74658203125
-3.662109375
-8.23974609375
-13.73291015625
-21.97265625
-32.04345703125
-32.958984375
-28.38134765625
-46.69189453125
-58.59375
-56.7626953125
-56.7626953125
-48.52294921875
-54.01611328125
-59.50927734375
-63.17138671875
-63.17138671875
-60.4248046875
-61.34033203125
-61.34033203125
-56.7626953125
-68.66455078125
-71.4111328125
-65.00244140625
-65.91796875
-75.98876953125
-71.4111328125
-70.49560546875
-65.91796875
-60.4248046875
-65.00244140625
-69.580078125
-80.56640625
-76.904296875
-63.17138671875
-65.91796875
-62.255859375
-54.01611328125
-60.4248046875
-61.34033203125
-61.34033203125
-61.34033203125
-56.7626953125
-56.7626953125
-57.67822265625
-58.59375
-48.52294921875
-47.607421875
-38.4521484375
-46.69189453125
-49.4384765625
-43.02978515625
-40.283203125
-41.19873046875
-46.69189453125
-43.9453125
-33.87451171875
-35.70556640625
-32.958984375
-30.21240234375
-25.634765625
-28.38134765625
-26.55029296875
-28.38134765625
-28.38134765625
-24.71923828125
-28.38134765625
-47.607421875
-65.00244140625
-52.18505859375
-37.53662109375
-26.55029296875
-25.634765625
-32.958984375
-32.958984375
-29.296875
-27.4658203125
-31.1279296875
-31.1279296875
-25.634765625
-35.70556640625
-46.69189453125
-46.69189453125
-42.1142578125
-32.958984375
-43.02978515625
-41.19873046875
-37.53662109375
-37.53662109375
-44.86083984375
-46.69189453125
-38.4521484375
-37.53662109375
-43.9453125
-42.1142578125
-39.36767578125
-43.9453125
-47.607421875
-48.52294921875
-49.4384765625
-61.34033203125
-54.931640625
-56.7626953125
-48.52294921875
-51.26953125
-58.59375
-59.50927734375
-65.00244140625
-59.50927734375
-63.17138671875
-62.255859375
-46.69189453125
-61.34033203125
-66.83349609375
-67.7490234375
-65.91796875
-64.0869140625
-72.32666015625
-73.2421875
-70.49560546875
-70.49560546875
-72.32666015625
-61.34033203125
-61.34033203125
-57.67822265625
-57.67822265625
-75.0732421875
-79.65087890625
-69.580078125
-65.00244140625
-75.0732421875
-72.32666015625
-73.2421875
-74.15771484375
-75.0732421875
-69.580078125
-73.2421875
-74.15771484375
-75.0732421875
-71.4111328125
-75.98876953125
-76.904296875
-73.2421875
-64.0869140625
-72.32666015625
-84.228515625
-86.97509765625
-76.904296875
-79.65087890625
-70.49560546875
-70.49560546875
-75.98876953125
-83.31298828125
-79.65087890625
-75.98876953125
-75.0732421875
-75.98876953125
-72.32666015625
-71.4111328125
-76.904296875
-78.7353515625
-78.7353515625
-83.31298828125
-78.7353515625
-84.228515625
-77.81982421875
-82.3974609375
-95.21484375
-90.63720703125
-75.98876953125
-69.580078125
-69.580078125
-75.0732421875
-73.2421875
-72.32666015625
-54.01611328125
-32.04345703125
-21.05712890625
-6.40869140625
-8.23974609375
-5.4931640625
-0.91552734375
-8.23974609375
-10.07080078125
-8.23974609375
2.74658203125
1.8310546875
17.39501953125
46.69189453125
38.4521484375
26.55029296875
28.38134765625
33.87451171875
29.296875
22.88818359375
21.97265625
7.32421875
5.4931640625
0.91552734375
3.662109375
-1.8310546875
-21.97265625
-40.283203125
-51.26953125
-65.00244140625
-74.15771484375
-86.97509765625
-91.552734375
-82.3974609375
-75.98876953125
-80.56640625
-82.3974609375
-94.29931640625
-95.21484375
-88.80615234375
-89.7216796875
-88.80615234375
-90.63720703125
-83.31298828125
-79.65087890625
-78.7353515625
-78.7353515625
-79.65087890625
-99.79248046875
-113.525390625
-98.876953125
-90.63720703125
-88.80615234375
-88.80615234375
-98.876953125
-108.94775390625
-124.51171875
-140.07568359375
-155.6396484375
-158.38623046875
-142.822265625
-117.1875
-67.7490234375
-20.1416015625
29.296875
103.45458984375
204.16259765625
310.36376953125
413.818359375
543.8232421875
684.814453125
824.89013671875
947.57080078125
1040.95458984375
1154.47998046875
1187.43896484375
1116.02783203125
946.6552734375
725.09765625
465.087890625
211.48681640625
-14.6484375
-212.40234375
-362.548828125
-398.25439453125
-379.0283203125
-340.576171875
-295.71533203125
-250.8544921875
-200.50048828125
-165.71044921875
-131.8359375
-90.63720703125
-54.931640625
-28.38134765625
-17.39501953125
-12.8173828125
-9.1552734375
-22.88818359375
-32.04345703125
-34.7900390625
-32.04345703125
-29.296875
-21.97265625
-22.88818359375
-22.88818359375
-24.71923828125
-34.7900390625
-31.1279296875
-24.71923828125
-13.73291015625
-17.39501953125
-5.4931640625
-9.1552734375
-8.23974609375
-13.73291015625
-10.986328125
-16.4794921875
-21.97265625
-23.8037109375
-13.73291015625
-9.1552734375
-2.74658203125
10.986328125
9.1552734375
10.07080078125
4.57763671875
13.73291015625
14.6484375
-2.74658203125
3.662109375
15.56396484375
21.05712890625
25.634765625
29.296875
34.7900390625
35.70556640625
41.19873046875
41.19873046875
40.283203125
43.9453125
44.86083984375
53.1005859375
49.4384765625
53.1005859375
61.34033203125
54.01611328125
61.34033203125
76.904296875
75.0732421875
76.904296875
81.48193359375
88.80615234375
80.56640625
85.14404296875
93.3837890625
101.62353515625
107.11669921875
119.0185546875
124.51171875
123.59619140625
127.25830078125
135.498046875
128.173828125
138.24462890625
152.89306640625
160.21728515625
179.443359375
183.10546875
195.9228515625
209.65576171875
206.9091796875
209.65576171875
216.97998046875
218.81103515625
233.45947265625
240.78369140625
242.61474609375
243.5302734375
249.0234375
261.8408203125
251.77001953125
260.92529296875
269.1650390625
270.08056640625
264.58740234375
264.58740234375
264.58740234375
273.74267578125
267.333984375
263.671875
258.1787109375
250.8544921875
251.77001953125
251.77001953125
251.77001953125
244.44580078125
236.2060546875
230.712890625
214.2333984375
217.8955078125
217.8955078125
208.740234375
192.2607421875
185.85205078125
173.9501953125
155.6396484375
140.9912109375
128.173828125
108.94775390625
96.13037109375
96.13037109375
88.80615234375
64.0869140625
53.1005859375
32.04345703125
22.88818359375
28.38134765625
23.8037109375
13.73291015625
-9.1552734375
-19.22607421875
-21.97265625
-25.634765625
-23.8037109375
-24.71923828125
-33.87451171875
-43.9453125
-54.931640625
-63.17138671875
-54.01611328125
-58.59375
-60.4248046875
-65.00244140625
-68.66455078125
-58.59375
-51.26953125
-57.67822265625
-66.83349609375
-69.580078125
-72.32666015625
-74.15771484375
-75.98876953125
-70.49560546875
-71.4111328125
-80.56640625
-84.228515625
-69.580078125
-64.0869140625
-70.49560546875
-72.32666015625
-52.18505859375
-61.34033203125
-72.32666015625
-67.7490234375
-69.580078125
-62.255859375
-66.83349609375
-81.48193359375
-66.83349609375
-59.50927734375
-61.34033203125
-64.0869140625
-56.7626953125
-50.35400390625
-52.18505859375
-52.18505859375
-59.50927734375
-61.34033203125
-45.7763671875
-41.19873046875
-48.52294921875
-54.931640625
-45.7763671875
-49.4384765625
-50.35400390625
-50.35400390625
-43.9453125
-43.9453125
-46.69189453125
-42.1142578125
-47.607421875
-47.607421875
-40.283203125
-40.283203125
-43.9453125
-28.38134765625
-44.86083984375
-47.607421875
-47.607421875
-40.283203125
-39.36767578125
-33.87451171875
-33.87451171875
-37.53662109375
-43.9453125
-39.36767578125
-43.9453125
-47.607421875
-50.35400390625
-47.607421875
-45.7763671875
-48.52294921875
-39.36767578125
-37.53662109375
-38.4521484375
-45.7763671875
-60.4248046875
-54.931640625
-57.67822265625
-57.67822265625
-67.7490234375
-61.34033203125
-57.67822265625
-49.4384765625
-48.52294921875
-65.00244140625
-60.4248046875
-58.59375
-54.931640625
-59.50927734375
-54.931640625
-59.50927734375
-63.17138671875
-58.59375
-54.931640625
-50.35400390625
-45.7763671875
-52.18505859375
-50.35400390625
-61.34033203125
-62.255859375
-72.32666015625
-70.49560546875
-68.66455078125
-69.580078125
-70.49560546875
-68.66455078125
-61.34033203125
-56.7626953125
-62.255859375
-71.4111328125
-75.0732421875
-82.3974609375
-72.32666015625
-67.7490234375
-67.7490234375
-65.91796875
-65.00244140625
-63.17138671875
-66.83349609375
-79.65087890625
-81.48193359375
-87.890625
-71.4111328125
-78.7353515625
-87.890625
-86.0595703125
-84.228515625
-79.65087890625
-77.81982421875
-73.2421875
-61.34033203125
-83.31298828125
-86.0595703125
-76.904296875
-77.81982421875
-75.0732421875
-69.580078125
-61.34033203125
-63.17138671875
-66.83349609375
-62.255859375
-65.00244140625
-73.2421875
-78.7353515625
-78.7353515625
-80.56640625
-79.65087890625
-89.7216796875
-104.3701171875
-90.63720703125
-78.7353515625
-75.0732421875
-69.580078125
-74.15771484375
-76.904296875
-78.7353515625
-89.7216796875
-77.81982421875
-82.3974609375
-90.63720703125
-81.48193359375
-93.3837890625
-77.81982421875
-57.67822265625
-54.931640625
-58.59375
-49.4384765625
-33.87451171875
-15.56396484375
-8.23974609375
2.74658203125
-0.91552734375
-5.4931640625
-3.662109375
-1.8310546875
10.986328125
31.1279296875
22.88818359375
26.55029296875
27.4658203125
30.21240234375
36.62109375
46.69189453125
41.19873046875
21.05712890625
19.22607421875
8.23974609375
5.4931640625
2.74658203125
-6.40869140625
14.6484375
-10.986328125
-42.1142578125
-43.9453125
-54.931640625
-75.0732421875
-81.48193359375
-79.65087890625
-73.2421875
-65.91796875
-65.91796875
-68.66455078125
-69.580078125
-76.904296875
-97.0458984375
-90.63720703125
-81.48193359375
-77.81982421875
-82.3974609375
-96.13037109375
-97.96142578125
-86.0595703125
-88.80615234375
-89.7216796875
-102.5390625
-109.86328125
-97.0458984375
-93.3837890625
-81.48193359375
-81.48193359375
-90.63720703125
-100.7080078125
-116.27197265625
-125.42724609375
-149.23095703125
-162.04833984375
-160.21728515625
-136.41357421875
-80.56640625
-29.296875
40.283203125
129.08935546875
210.5712890625
306.70166015625
413.818359375
543.8232421875
685.72998046875
831.298828125
946.6552734375
1049.1943359375
1159.0576171875
1197.509765625
1124.267578125
962.21923828125
742.49267578125
479.736328125
233.45947265625
7.32421875
-194.091796875
-360.7177734375
-409.24072265625
-379.94384765625
-331.4208984375
-284.72900390625
-249.93896484375
-216.064453125
-186.767578125
-149.23095703125
-108.94775390625
-64.0869140625
-49.4384765625
-15.56396484375
-0.91552734375
-11.90185546875
-8.23974609375
-23.8037109375
-21.05712890625
-20.1416015625
-25.634765625
-21.97265625
-29.296875
-22.88818359375
-22.88818359375
-41.19873046875
-34.7900390625
-16.4794921875
-11.90185546875
-14.6484375
-17.39501953125
-19.22607421875
-18.310546875
-6.40869140625
-4.57763671875
-18.310546875
-13.73291015625
-15.56396484375
-6.40869140625
-3.662109375
-4.57763671875
-5.4931640625
-7.32421875
1.8310546875
5.4931640625
1.8310546875
12.8173828125
24.71923828125
20.1416015625
21.97265625
22.88818359375
21.97265625
22.88818359375
34.7900390625
32.958984375
34.7900390625
32.958984375
37.53662109375
47.607421875
43.9453125
57.67822265625
55.84716796875
57.67822265625
54.01611328125
60.4248046875
64.0869140625
69.580078125
70.49560546875
60.4248046875
87.890625
86.0595703125
87.890625
90.63720703125
102.5390625
114.44091796875
117.1875
119.0185546875
122.6806640625
130.0048828125
131.8359375
148.3154296875
162.9638671875
163.87939453125
157.470703125
171.20361328125
187.68310546875
199.5849609375
199.5849609375
210.5712890625
227.05078125
228.8818359375
242.61474609375
238.037109375
241.69921875
254.5166015625
263.671875
261.8408203125
272.8271484375
270.08056640625
264.58740234375
258.1787109375
265.5029296875
282.89794921875
288.39111328125
283.8134765625
292.05322265625
305.7861328125
294.7998046875
292.05322265625
294.7998046875
287.4755859375
270.08056640625
270.99609375
272.8271484375
270.08056640625
278.3203125
267.333984375
259.09423828125
251.77001953125
233.45947265625
226.13525390625
209.65576171875
196.83837890625
173.03466796875
173.03466796875
167.54150390625
157.470703125
142.822265625
135.498046875
119.93408203125
99.79248046875
93.3837890625
90.63720703125
66.83349609375
54.01611328125
37.53662109375
21.05712890625
31.1279296875
18.310546875
5.4931640625
2.74658203125
-4.57763671875
6.40869140625
-9.1552734375
-27.4658203125
-21.05712890625
-22.88818359375
-16.4794921875
-27.4658203125
-32.958984375
-31.1279296875
-39.36767578125
-33.87451171875
-36.62109375
-45.7763671875
-39.36767578125
-32.958984375
-35.70556640625
-53.1005859375
-55.84716796875
-49.4384765625
-49.4384765625
-47.607421875
-54.931640625
-55.84716796875
-65.00244140625
-64.0869140625
-57.67822265625
-40.283203125
-41.19873046875
-42.1142578125
-46.69189453125
-55.84716796875
-47.607421875
-43.9453125
-41.19873046875
-38.4521484375
-35.70556640625
-43.9453125
-46.69189453125
-39.36767578125
-45.7763671875
-43.02978515625
-43.02978515625
-50.35400390625
-33.87451171875
-27.4658203125
-28.38134765625
-23.8037109375
-29.296875
-30.21240234375
-23.8037109375
-30.21240234375
-28.38134765625
-26.55029296875
-29.296875
-31.1279296875
-26.55029296875
-20.1416015625
-29.296875
-27.4658203125
-32.958984375
-32.958984375
-26.55029296875
-18.310546875
-9.1552734375
-12.8173828125
-16.4794921875
-21.97265625
-26.55029296875
-21.05712890625
-26.55029296875
-23.8037109375
-18.310546875
-31.1279296875
-25.634765625
-16.4794921875
-3.662109375
-14.6484375
-21.97265625
-43.9453125
-22.88818359375
-14.6484375
-21.05712890625
-23.8037109375
-24.71923828125
-30.21240234375
-37.53662109375
-38.4521484375
-43.02978515625
-37.53662109375
-43.9453125
-32.04345703125
-43.02978515625
-39.36767578125
-33.87451171875
-31.1279296875
-41.19873046875
-52.18505859375
-57.67822265625
-51.26953125
-41.19873046875
-45.7763671875
-52.18505859375
-55.84716796875
-58.59375
-46.69189453125
-57.67822265625
-65.91796875
-69.580078125
-59.50927734375
-47.607421875
-54.931640625
-49.4384765625
-42.1142578125
-52.18505859375
-52.18505859375
-47.607421875
-50.35400390625
-48.52294921875
-51.26953125
-59.50927734375
-59.50927734375
-58.59375
-57.67822265625
-51.26953125
-63.17138671875
-51.26953125
-52.18505859375
-48.52294921875
-53.1005859375
-65.91796875
-69.580078125
-64.0869140625
-72.32666015625
-59.50927734375
-55.84716796875
-67.7490234375
-80.56640625
-79.65087890625
-76.904296875
-68.66455078125
-63.17138671875
-65.00244140625
-77.81982421875
-87.890625
-78.7353515625
-65.91796875
-82.3974609375
-64.0869140625
-65.00244140625
-66.83349609375
-75.0732421875
-85.14404296875
-83.31298828125
-81.48193359375
-79.65087890625
-65.00244140625
-57.67822265625
-54.01611328125
-57.67822265625
-52.18505859375
-29.296875
-7.32421875
-18.310546875
-20.1416015625
-26.55029296875
-29.296875
-19.22607421875
-7.32421875
0
17.39501953125
21.05712890625
27.4658203125
33.87451171875
28.38134765625
29.296875
19.22607421875
8.23974609375
11.90185546875
5.4931640625
2.74658203125
-12.8173828125
-9.1552734375
-11.90185546875
-17.39501953125
-42.1142578125
-45.7763671875
-66.83349609375
-81.48193359375
-73.2421875
-69.580078125
-67.7490234375
-77.81982421875
-70.49560546875
-77.81982421875
-86.97509765625
-89.7216796875
-86.0595703125
-97.96142578125
-108.0322265625
-93.3837890625
-92.46826171875
-97.0458984375
-88.80615234375
-95.21484375
-96.13037109375
-88.80615234375
-91.552734375
-87.890625
-81.48193359375
-80.56640625
-89.7216796875
-107.11669921875
-120.849609375
-134.58251953125
-139.16015625
-153.80859375
-182.18994140625
-179.443359375
-163.87939453125
-137.3291015625
-84.228515625
-33.87451171875
35.70556640625
106.201171875
180.35888671875
285.64453125
396.42333984375
524.59716796875
676.57470703125
785.5224609375
892.63916015625
1029.96826171875
1131.591796875
1105.04150390625
998.84033203125
792.8466796875
594.17724609375
363.46435546875
148.3154296875
-32.04345703125
-197.75390625
-307.6171875
-322.265625
-302.1240234375
-278.3203125
-261.8408203125
-225.2197265625
-192.2607421875
-167.54150390625
-135.498046875
-123.59619140625
-97.96142578125
-75.0732421875
-49.4384765625
-43.9453125
-37.53662109375
-25.634765625
-28.38134765625
-28.38134765625
-32.04345703125
-21.05712890625
-30.21240234375
-36.62109375
-23.8037109375
-20.1416015625
-30.21240234375
-29.296875
-28.38134765625
-39.36767578125
-33.87451171875
-28.38134765625
-24.71923828125
-17.39501953125
-27.4658203125
-19.22607421875
-9.1552734375
-19.22607421875
-32.04345703125
-32.958984375
-32.958984375
-32.958984375
-10.986328125
-5.4931640625
-14.6484375
-10.986328125
-8.23974609375
0.91552734375
-1.8310546875
-6.40869140625
-0.91552734375
-6.40869140625
-14.6484375
0
6.40869140625
4.57763671875
11.90185546875
24.71923828125
32.04345703125
40.283203125
42.1142578125
32.04345703125
26.55029296875
36.62109375
41.19873046875
45.7763671875
45.7763671875
50.35400390625
54.01611328125
58.59375
65.00244140625
68.66455078125
70.49560546875
70.49560546875
86.97509765625
93.3837890625
82.3974609375
92.46826171875
102.5390625
108.0322265625
99.79248046875
109.86328125
120.849609375
121.76513671875
135.498046875
159.3017578125
162.9638671875
159.3017578125
154.72412109375
167.54150390625
191.34521484375
195.9228515625
201.416015625
211.48681640625
216.97998046875
217.8955078125
214.2333984375
228.8818359375
228.8818359375
228.8818359375
235.29052734375
236.2060546875
239.8681640625
238.95263671875
232.5439453125
232.5439453125
233.45947265625
231.62841796875
236.2060546875
233.45947265625
232.5439453125
232.5439453125
231.62841796875
233.45947265625
229.79736328125
213.31787109375
204.16259765625
198.66943359375
188.5986328125
170.2880859375
165.71044921875
158.38623046875
145.56884765625
132.75146484375
130.92041015625
120.849609375
106.201171875
88.80615234375
77.81982421875
66.83349609375
41.19873046875
35.70556640625
35.70556640625
29.296875
11.90185546875
6.40869140625
-0.91552734375
-14.6484375
-15.56396484375
-32.04345703125
-47.607421875
-55.84716796875
-55.84716796875
-61.34033203125
-56.7626953125
-54.931640625
-65.00244140625
-65.00244140625
-65.91796875
-72.32666015625
-81.48193359375
-78.7353515625
-69.580078125
-87.890625
-89.7216796875
-84.228515625
-81.48193359375
-100.7080078125
-96.13037109375
-89.7216796875
-97.0458984375
-93.3837890625
-96.13037109375
-99.79248046875
-100.7080078125
-89.7216796875
-92.46826171875
-91.552734375
-85.14404296875
-85.14404296875
-89.7216796875
-107.11669921875
-116.27197265625
-94.29931640625
-88.80615234375
-86.97509765625
-81.48193359375
-75.0732421875
-75.0732421875
-77.81982421875
-70.49560546875
-72.32666015625
-81.48193359375
-89.7216796875
-94.29931640625
-103.45458984375
-81.48193359375
-60.4248046875
-78.7353515625
-83.31298828125
-74.15771484375
-65.00244140625
-74.15771484375
-68.66455078125
-64.0869140625
-62.255859375
-61.34033203125
-61.34033203125
-64.0869140625
-57.67822265625
-57.67822265625
-67.7490234375
-59.50927734375
-63.17138671875
-56.7626953125
-68.66455078125
-69.580078125
-66.83349609375
-61.34033203125
-51.26953125
-54.931640625
-59.50927734375
-55.84716796875
-57.67822265625
-57.67822265625
-59.50927734375
-61.34033203125
-61.34033203125
-78.7353515625
-68.66455078125
-57.67822265625
-61.34033203125
-65.91796875
-71.4111328125
-75.0732421875
-65.00244140625
-65.91796875
-69.580078125
-65.00244140625
-70.49560546875
-81.48193359375
-85.14404296875
-74.15771484375
-69.580078125
-66.83349609375
-74.15771484375
-76.904296875
-78.7353515625
-86.0595703125
-69.580078125
-75.98876953125
-86.97509765625
-86.0595703125
-80.56640625
-86.0595703125
-84.228515625
-86.97509765625
-92.46826171875
-85.14404296875
-83.31298828125
-89.7216796875
-90.63720703125
-101.62353515625
-87.890625
-76.904296875
-76.904296875
-86.97509765625
-83.31298828125
-98.876953125
-90.63720703125
-80.56640625
-89.7216796875
-91.552734375
-93.3837890625
-96.13037109375
-94.29931640625
-89.7216796875
-89.7216796875
-100.7080078125
-104.3701171875
-107.11669921875
-94.29931640625
-88.80615234375
-100.7080078125
-103.45458984375
-98.876953125
-103.45458984375
-89.7216796875
-88.80615234375
-91.552734375
-100.7080078125
-99.79248046875
-97.96142578125
-98.876953125
-105.28564453125
-98.876953125
-94.29931640625
-102.5390625
-95.21484375
-94.29931640625
-92.46826171875
-96.13037109375
-94.29931640625
-91.552734375
-87.890625
-78.7353515625
-75.0732421875
-71.4111328125
-64.0869140625
-59.50927734375
-42.1142578125
-26.55029296875
-28.38134765625
-42.1142578125
-43.9453125
-40.283203125
-21.97265625
-7.32421875
-4.57763671875
10.07080078125
10.986328125
0
-0.91552734375
-1.8310546875
-4.57763671875
-5.4931640625
-8.23974609375
-10.986328125
-10.986328125
-22.88818359375
-29.296875
-22.88818359375
-27.4658203125
-41.19873046875
-64.0869140625
-87.890625
-102.5390625
-112.60986328125
-109.86328125
-104.3701171875
-99.79248046875
-90.63720703125
-88.80615234375
-95.21484375
-102.5390625
-113.525390625
-103.45458984375
-110.77880859375
-106.201171875
-101.62353515625
-102.5390625
-108.94775390625
-109.86328125
-115.3564453125
-119.0185546875
-126.3427734375
-119.93408203125
-107.11669921875
-112.60986328125
-108.0322265625
-108.0322265625
-122.6806640625
-128.173828125
-145.56884765625
-162.04833984375
-179.443359375
-183.10546875
-173.9501953125
-122.6806640625
-76.904296875
-33.87451171875
47.607421875
123.59619140625
217.8955078125
317.68798828125
427.55126953125
557.55615234375
704.04052734375
823.05908203125
923.76708984375
1033.63037109375
1126.0986328125
1109.619140625
1014.404296875
821.22802734375
585.9375
334.16748046875
112.60986328125
-91.552734375
-261.8408203125
-378.11279296875
-379.94384765625
-347.900390625
-314.94140625
-265.5029296875
-227.05078125
-188.5986328125
-168.45703125
-148.3154296875
-116.27197265625
-79.65087890625
-45.7763671875
-34.7900390625
-27.4658203125
-31.1279296875
-24.71923828125
-25.634765625
-32.958984375
-34.7900390625
-37.53662109375
-36.62109375
-42.1142578125
-40.283203125
-43.9453125
-38.4521484375
-32.958984375
-30.21240234375
-34.7900390625
-33.87451171875
-31.1279296875
-29.296875
-28.38134765625
-20.1416015625
-26.55029296875
-18.310546875
-13.73291015625
-27.4658203125
-21.05712890625
-37.53662109375
-33.87451171875
-20.1416015625
-12.8173828125
-7.32421875
-15.56396484375
-8.23974609375
0
7.32421875
-2.74658203125
-8.23974609375
0.91552734375
5.4931640625
3.662109375
16.4794921875
19.22607421875
19.22607421875
19.22607421875
26.55029296875
31.1279296875
28.38134765625
21.05712890625
25.634765625
42.1142578125
44.86083984375
47.607421875
55.84716796875
59.50927734375
54.01611328125
52.18505859375
58.59375
72.32666015625
77.81982421875
76.904296875
70.49560546875
88.80615234375
105.28564453125
110.77880859375
117.1875
121.76513671875
125.42724609375
128.173828125
135.498046875
145.56884765625
140.07568359375
145.56884765625
151.9775390625
160.21728515625
173.03466796875
186.767578125
177.6123046875
184.9365234375
200.50048828125
210.5712890625
213.31787109375
214.2333984375
216.97998046875
219.7265625
223.388671875
231.62841796875
237.12158203125
242.61474609375
241.69921875
233.45947265625
239.8681640625
244.44580078125
245.361328125
242.61474609375
241.69921875
242.61474609375
238.95263671875
238.037109375
244.44580078125
237.12158203125
216.064453125
212.40234375
198.66943359375
182.18994140625
180.35888671875
176.69677734375
172.119140625
170.2880859375
156.55517578125
151.9775390625
135.498046875
124.51171875
103.45458984375
92.46826171875
83.31298828125
75.98876953125
58.59375
43.9453125
33.87451171875
17.39501953125
0
-13.73291015625
-24.71923828125
-21.97265625
-27.4658203125
-31.1279296875
-38.4521484375
-43.9453125
-43.02978515625
-48.52294921875
-56.7626953125
-65.00244140625
-71.4111328125
-66.83349609375
-76.904296875
-83.31298828125
-86.0595703125
-83.31298828125
-79.65087890625
-85.14404296875
-81.48193359375
-86.97509765625
-86.97509765625
-94.29931640625
-99.79248046875
-100.7080078125
-97.96142578125
-105.28564453125
-100.7080078125
-88.80615234375
-92.46826171875
-88.80615234375
-85.14404296875
-83.31298828125
-77.81982421875
-79.65087890625
-91.552734375
-93.3837890625
-90.63720703125
-93.3837890625
-88.80615234375
-83.31298828125
-86.97509765625
-91.552734375
-93.3837890625
-81.48193359375
-82.3974609375
-75.98876953125
-75.0732421875
-80.56640625
-79.65087890625
-67.7490234375
-61.34033203125
-76.904296875
-83.31298828125
-75.0732421875
-66.83349609375
-76.904296875
-78.7353515625
-79.65087890625
-81.48193359375
-75.0732421875
-66.83349609375
-71.4111328125
-67.7490234375
-72.32666015625
-65.91796875
-59.50927734375
-63.17138671875
-64.0869140625
-57.67822265625
-69.580078125
-81.48193359375
-73.2421875
-65.91796875
-70.49560546875
-72.32666015625
-63.17138671875
-63.17138671875
-59.50927734375
-67.7490234375
-71.4111328125
-71.4111328125
-80.56640625
-76.904296875
-85.14404296875
-79.65087890625
-67.7490234375
-71.4111328125
-75.0732421875
-74.15771484375
-69.580078125
-71.4111328125
-70.49560546875
-66.83349609375
-79.65087890625
-82.3974609375
-85.14404296875
-82.3974609375
-84.228515625
-85.14404296875
-76.904296875
-72.32666015625
-80.56640625
-82.3974609375
-77.81982421875
-86.97509765625
-98.876953125
-94.29931640625
-86.97509765625
-96.13037109375
-93.3837890625
-92.46826171875
-100.7080078125
-103.45458984375
-99.79248046875
-96.13037109375
-90.63720703125
-82.3974609375
-84.228515625
-85.14404296875
-86.97509765625
-90.63720703125
-97.0458984375
-106.201171875
-99.79248046875
-103.45458984375
-93.3837890625
-89.7216796875
-86.97509765625
-97.0458984375
-97.0458984375
-95.21484375
-98.876953125
-87.890625
-97.0458984375
-100.7080078125
-97.96142578125
-101.62353515625
-98.876953125
-104.3701171875
-106.201171875
-106.201171875
-97.96142578125
-99.79248046875
-107.11669921875
-106.201171875
-100.7080078125
-104.3701171875
-103.45458984375
-95.21484375
-97.96142578125
-101.62353515625
-112.60986328125
-113.525390625
-108.94775390625
-103.45458984375
-102.5390625
-98.876953125
-113.525390625
-109.86328125
-100.7080078125
-87.890625
-95.21484375
-108.94775390625
-107.11669921875
-111.6943359375
-102.5390625
-101.62353515625
-104.3701171875
-108.94775390625
-109.86328125
-108.0322265625
-111.6943359375
-111.6943359375
-105.28564453125
-93.3837890625
-94.29931640625
-84.228515625
-87.890625
-86.97509765625
-75.0732421875
-59.50927734375
-46.69189453125
-41.19873046875
-36.62109375
-31.1279296875
-34.7900390625
-42.1142578125
-37.53662109375
-29.296875
-12.8173828125
-2.74658203125
6.40869140625
11.90185546875
7.32421875
4.57763671875
-4.57763671875
-14.6484375
-15.56396484375
-17.39501953125
-20.1416015625
-18.310546875
-17.39501953125
-21.97265625
-27.4658203125
-45.7763671875
-67.7490234375
-78.7353515625
-94.29931640625
-97.0458984375
-96.13037109375
-103.45458984375
-100.7080078125
-106.201171875
-98.876953125
-105.28564453125
-114.44091796875
-117.1875
-110.77880859375
-117.1875
-123.59619140625
-128.173828125
-125.42724609375
-122.6806640625
-123.59619140625
-114.44091796875
-116.27197265625
-121.76513671875
-123.59619140625
-115.3564453125
-114.44091796875
-114.44091796875
-125.42724609375
-136.41357421875
-137.3291015625
-143.73779296875
-160.21728515625
-167.54150390625
-179.443359375
-184.02099609375
-177.6123046875
-148.3154296875
-95.21484375
-43.02978515625
11.90185546875
97.96142578125
192.2607421875
287.4755859375
377.197265625
503.5400390625
642.7001953125
770.8740234375
888.97705078125
1006.16455078125
1125.18310546875
1174.62158203125
1116.943359375
975.03662109375
748.9013671875
482.48291015625
226.13525390625
-4.57763671875
-200.50048828125
-368.0419921875
-435.791015625
-406.494140625
-369.873046875
-322.265625
-260.009765625
-208.740234375
-165.71044921875
-132.75146484375
-101.62353515625
-72.32666015625
-53.1005859375
-49.4384765625
-41.19873046875
-40.283203125
-41.19873046875
-43.02978515625
-43.02978515625
-55.84716796875
-52.18505859375
-53.1005859375
-62.255859375
-51.26953125
-53.1005859375
-54.931640625
-43.9453125
-38.4521484375
-38.4521484375
-48.52294921875
-46.69189453125
-38.4521484375
-27.4658203125
-32.04345703125
-31.1279296875
-29.296875
-30.21240234375
-25.634765625
-23.8037109375
-22.88818359375
-15.56396484375
-20.1416015625
-29.296875
-22.88818359375
-17.39501953125
-22.88818359375
-17.39501953125
-0.91552734375
3.662109375
-1.8310546875
10.07080078125
3.662109375
1.8310546875
5.4931640625
10.07080078125
10.07080078125
15.56396484375
16.4794921875
18.310546875
24.71923828125
20.1416015625
25.634765625
37.53662109375
32.04345703125
39.36767578125
41.19873046875
57.67822265625
53.1005859375
43.02978515625
44.86083984375
58.59375
70.49560546875
60.4248046875
69.580078125
84.228515625
92.46826171875
92.46826171875
96.13037109375
103.45458984375
120.849609375
125.42724609375
123.59619140625
122.6806640625
125.42724609375
141.90673828125
137.3291015625
140.07568359375
164.794921875
174.86572265625
185.85205078125
192.2607421875
200.50048828125
200.50048828125
202.33154296875
216.064453125
218.81103515625
227.96630859375
234.375
237.12158203125
239.8681640625
242.61474609375
241.69921875
247.1923828125
256.34765625
254.5166015625
249.93896484375
251.77001953125
258.1787109375
257.26318359375
253.60107421875
246.27685546875
244.44580078125
239.8681640625
231.62841796875
232.5439453125
232.5439453125
224.30419921875
214.2333984375
206.9091796875
194.091796875
175.78125
156.55517578125
142.822265625
141.90673828125
135.498046875
123.59619140625
108.94775390625
90.63720703125
69.580078125
65.91796875
59.50927734375
47.607421875
36.62109375
28.38134765625
21.05712890625
8.23974609375
-2.74658203125
-9.1552734375
-21.05712890625
-22.88818359375
-26.55029296875
-32.04345703125
-33.87451171875
-42.1142578125
-47.607421875
-66.83349609375
-83.31298828125
-89.7216796875
-83.31298828125
-80.56640625
-75.98876953125
-79.65087890625
-76.904296875
-79.65087890625
-83.31298828125
-88.80615234375
-83.31298828125
-94.29931640625
-93.3837890625
-86.97509765625
-88.80615234375
-93.3837890625
-88.80615234375
-85.14404296875
-88.80615234375
-87.890625
-92.46826171875
-86.0595703125
-87.890625
-82.3974609375
-80.56640625
-83.31298828125
-78.7353515625
-83.31298828125
-97.96142578125
-92.46826171875
-84.228515625
-86.0595703125
-80.56640625
-76.904296875
-80.56640625
-75.0732421875
-78.7353515625
-72.32666015625
-80.56640625
-78.7353515625
-74.15771484375
-72.32666015625
-67.7490234375
-70.49560546875
-75.0732421875
-70.49560546875
-69.580078125
-71.4111328125
-64.0869140625
-60.4248046875
-75.0732421875
-75.98876953125
-65.00244140625
-62.255859375
-72.32666015625
-75.0732421875
-65.91796875
-55.84716796875
-60.4248046875
-63.17138671875
-64.0869140625
-65.91796875
-73.2421875
-72.32666015625
-71.4111328125
-63.17138671875
-64.0869140625
-64.0869140625
-67.7490234375
-64.0869140625
-68.66455078125
-74.15771484375
-76.904296875
-73.2421875
-87.890625
-75.98876953125
-56.7626953125
-60.4248046875
-65.91796875
-68.66455078125
-70.49560546875
-73.2421875
-69.580078125
-73.2421875
-75.0732421875
-74.15771484375
-75.98876953125
-88.80615234375
-82.3974609375
-83.31298828125
-86.97509765625
-80.56640625
-78.7353515625
-90.63720703125
-82.3974609375
-72.32666015625
-86.0595703125
-95.21484375
-91.552734375
-85.14404296875
-94.29931640625
-99.79248046875
-92.46826171875
-83.31298828125
-81.48193359375
-89.7216796875
-98.876953125
-95.21484375
-97.0458984375
-97.96142578125
-102.5390625
-97.0458984375
-86.0595703125
-87.890625
-101.62353515625
-99.79248046875
-95.21484375
-101.62353515625
-105.28564453125
-106.201171875
-105.28564453125
-101.62353515625
-101.62353515625
-101.62353515625
-101.62353515625
-93.3837890625
-93.3837890625
-91.552734375
-94.29931640625
-100.7080078125
-107.11669921875
-92.46826171875
-89.7216796875
-103.45458984375
-99.79248046875
-97.0458984375
-105.28564453125
-105.28564453125
-105.28564453125
-101.62353515625
-95.21484375
-95.21484375
-95.21484375
-102.5390625
-104.3701171875
-109.86328125
-102.5390625
-100.7080078125
-110.77880859375
-102.5390625
-98.876953125
-101.62353515625
-102.5390625
-114.44091796875
-113.525390625
-107.11669921875
-101.62353515625
-109.86328125
-110.77880859375
-108.0322265625
-109.86328125
-107.11669921875
-111.6943359375
-112.60986328125
-114.44091796875
-113.525390625
-116.27197265625
-112.60986328125
-100.7080078125
-95.21484375
-101.62353515625
-106.201171875
-105.28564453125
-106.201171875
-104.3701171875
-105.28564453125
-97.96142578125
-98.876953125
-95.21484375
-92.46826171875
-89.7216796875
-82.3974609375
-82.3974609375
-72.32666015625
-64.0869140625
-53.1005859375
-38.4521484375
-30.21240234375
-27.4658203125
-30.21240234375
-38.4521484375
-34.7900390625
-26.55029296875
-6.40869140625
0
9.1552734375
10.07080078125
9.1552734375
5.4931640625
-10.986328125
-22.88818359375
-21.97265625
-17.39501953125
-14.6484375
-14.6484375
-21.97265625
-36.62109375
-35.70556640625
-45.7763671875
-66.83349609375
-79.65087890625
-79.65087890625
-87.890625
-98.876953125
-100.7080078125
-101.62353515625
-100.7080078125
-98.876953125
-98.876953125
-108.0322265625
-110.77880859375
-115.3564453125
-119.0185546875
-108.0322265625
-110.77880859375
-117.1875
-119.0185546875
-124.51171875
-119.0185546875
-118.10302734375
-107.11669921875
-120.849609375
-120.849609375
-111.6943359375
-113.525390625
-108.94775390625
-106.201171875
-118.10302734375
-130.0048828125
-140.07568359375
-151.9775390625
-171.20361328125
-181.2744140625
-171.20361328125
-156.55517578125
-103.45458984375
-41.19873046875
11.90185546875
85.14404296875
162.9638671875
268.24951171875
369.873046875
479.736328125
619.81201171875
781.8603515625
899.96337890625
993.34716796875
1124.267578125
1190.185546875
1136.16943359375
991.51611328125
769.04296875
506.28662109375
253.60107421875
-0.91552734375
-200.50048828125
-369.873046875
-437.6220703125
-408.3251953125
-357.97119140625
-315.85693359375
-279.23583984375
-227.05078125
-183.10546875
-142.822265625
-107.11669921875
-69.580078125
-47.607421875
-36.62109375
-32.958984375
-29.296875
-42.1142578125
-44.86083984375
-44.86083984375
-44.86083984375
-45.7763671875
-47.607421875
-46.69189453125
-60.4248046875
-47.607421875
-39.36767578125
-32.04345703125
-32.04345703125
-28.38134765625
-28.38134765625
-32.958984375
-32.958984375
-36.62109375
-29.296875
-25.634765625
-22.88818359375
-23.8037109375
-15.56396484375
-10.07080078125
-18.310546875
-31.1279296875
-16.4794921875
-21.05712890625
-21.05712890625
-10.07080078125
-8.23974609375
-16.4794921875
-13.73291015625
-9.1552734375
-2.74658203125
0
-0.91552734375
5.4931640625
10.986328125
12.8173828125
2.74658203125
10.986328125
15.56396484375
15.56396484375
13.73291015625
26.55029296875
31.1279296875
28.38134765625
37.53662109375
37.53662109375
38.4521484375
45.7763671875
43.02978515625
45.7763671875
53.1005859375
45.7763671875
50.35400390625
76.904296875
81.48193359375
86.0595703125
93.3837890625
89.7216796875
95.21484375
97.96142578125
103.45458984375
113.525390625
125.42724609375
123.59619140625
128.173828125
140.07568359375
152.89306640625
163.87939453125
162.9638671875
159.3017578125
162.9638671875
164.794921875
179.443359375
183.10546875
202.33154296875
218.81103515625
213.31787109375
227.05078125
227.96630859375
234.375
248.10791015625
238.95263671875
237.12158203125
240.78369140625
245.361328125
249.0234375
244.44580078125
249.93896484375
256.34765625
251.77001953125
247.1923828125
244.44580078125
250.8544921875
248.10791015625
241.69921875
231.62841796875
223.388671875
216.064453125
206.9091796875
206.9091796875
201.416015625
192.2607421875
171.20361328125
152.89306640625
144.6533203125
132.75146484375
118.10302734375
108.94775390625
101.62353515625
81.48193359375
59.50927734375
52.18505859375
35.70556640625
35.70556640625
21.05712890625
9.1552734375
7.32421875
-6.40869140625
-12.8173828125
-26.55029296875
-33.87451171875
-40.283203125
-43.9453125
-45.7763671875
-52.18505859375
-61.34033203125
-70.49560546875
-71.4111328125
-74.15771484375
-74.15771484375
-67.7490234375
-81.48193359375
-98.876953125
-97.0458984375
-101.62353515625
-93.3837890625
-87.890625
-89.7216796875
-82.3974609375
-82.3974609375
-96.13037109375
-102.5390625
-107.11669921875
-99.79248046875
-86.0595703125
-93.3837890625
-95.21484375
-98.876953125
-105.28564453125
-99.79248046875
-87.890625
-88.80615234375
-88.80615234375
-88.80615234375
-89.7216796875
-85.14404296875
-92.46826171875
-92.46826171875
-91.552734375
-90.63720703125
-93.3837890625
-96.13037109375
-79.65087890625
-75.0732421875
-81.48193359375
-87.890625
-95.21484375
-86.0595703125
-76.904296875
-78.7353515625
-78.7353515625
-71.4111328125
-70.49560546875
-75.0732421875
-78.7353515625
-75.0732421875
-80.56640625
-87.890625
-84.228515625
-76.904296875
-76.904296875
-74.15771484375
-71.4111328125
-76.904296875
-73.2421875
-74.15771484375
-80.56640625
-74.15771484375
-71.4111328125
-66.83349609375
-72.32666015625
-85.14404296875
-77.81982421875
-70.49560546875
-79.65087890625
-78.7353515625
-88.80615234375
-98.876953125
-93.3837890625
-79.65087890625
-74.15771484375
-75.98876953125
-83.31298828125
-84.228515625
-83.31298828125
-73.2421875
-80.56640625
-76.904296875
-86.0595703125
-85.14404296875
-73.2421875
-79.65087890625
-80.56640625
-78.7353515625
-85.14404296875
-85.14404296875
-93.3837890625
-94.29931640625
-86.97509765625
-83.31298828125
-85.14404296875
-99.79248046875
-93.3837890625
-86.97509765625
-106.201171875
-104.3701171875
-89.7216796875
-87.890625
-88.80615234375
-97.0458984375
-90.63720703125
-91.552734375
-93.3837890625
-95.21484375
-92.46826171875
-108.0322265625
-118.10302734375
-98.876953125
-104.3701171875
-101.62353515625
-92.46826171875
-93.3837890625
-99.79248046875
-99.79248046875
-110.77880859375
-105.28564453125
-101.62353515625
-108.94775390625
-104.3701171875
-119.93408203125
-117.1875
-111.6943359375
-106.201171875
-108.0322265625
-118.10302734375
-113.525390625
-116.27197265625
-108.94775390625
-107.11669921875
-111.6943359375
-111.6943359375
-110.77880859375
-127.25830078125
-114.44091796875
-106.201171875
-109.86328125
-115.3564453125
-117.1875
-116.27197265625
-98.876953125
-101.62353515625
-99.79248046875
-110.77880859375
-121.76513671875
-115.3564453125
-112.60986328125
-103.45458984375
-96.13037109375
-105.28564453125
-107.11669921875
-117.1875
-119.93408203125
-116.27197265625
-120.849609375
-130.92041015625
-104.3701171875
-98.876953125
-123.59619140625
-143.73779296875
-130.92041015625
-123.59619140625
-114.44091796875
-100.7080078125
-96.13037109375
-101.62353515625
-122.6806640625
-119.0185546875
-115.3564453125
-114.44091796875
-122.6806640625
-108.0322265625
-106.201171875
-111.6943359375
-116.27197265625
-125.42724609375
-126.3427734375
-119.0185546875
-100.7080078125
-102.5390625
-107.11669921875
-115.3564453125
-119.0185546875
-112.60986328125
-108.94775390625
-106.201171875
-100.7080078125
-95.21484375
-86.97509765625
-74.15771484375
-59.50927734375
-45.7763671875
-42.1142578125
-38.4521484375
-44.86083984375
-49.4384765625
-50.35400390625
-32.04345703125
-22.88818359375
-14.6484375
-10.986328125
-0.91552734375
1.8310546875
0.91552734375
-3.662109375
-1.8310546875
-11.90185546875
-25.634765625
-32.958984375
-35.70556640625
-40.283203125
-46.69189453125
-41.19873046875
-43.9453125
-56.7626953125
-61.34033203125
-75.0732421875
-82.3974609375
-106.201171875
-104.3701171875
-98.876953125
-108.0322265625
-108.0322265625
-108.94775390625
-110.77880859375
-111.6943359375
-105.28564453125
-103.45458984375
-110.77880859375
-107.11669921875
-108.0322265625
-108.0322265625
-107.11669921875
-112.60986328125
-129.08935546875
-138.24462890625
-146.484375
-134.58251953125
-127.25830078125
-129.08935546875
-137.3291015625
-133.6669921875
-132.75146484375
-139.16015625
-144.6533203125
-151.9775390625
-165.71044921875
-179.443359375
-182.18994140625
-166.6259765625
-128.173828125
-80.56640625
-30.21240234375
43.02978515625
124.51171875
216.97998046875
317.68798828125
423.88916015625
560.302734375
706.787109375
834.04541015625
946.6552734375
1052.8564453125
1140.7470703125
1122.4365234375
1023.5595703125
838.623046875
598.7548828125
325.01220703125
75.0732421875
-152.89306640625
-317.68798828125
-428.466796875
-448.6083984375
-392.76123046875
-338.7451171875
-295.71533203125
-247.1923828125
-201.416015625
-184.02099609375
-154.72412109375
-118.10302734375
-74.15771484375
-42.1142578125
-31.1279296875
-32.958984375
-39.36767578125
-46.69189453125
-64.0869140625
-59.50927734375
-54.931640625
-48.52294921875
-48.52294921875
-48.52294921875
-46.69189453125
-48.52294921875
-45.7763671875
-46.69189453125
-45.7763671875
-41.19873046875
-45.7763671875
-45.7763671875
-43.02978515625
-43.9453125
-44.86083984375
-41.19873046875
-51.26953125
-47.607421875
-32.04345703125
-29.296875
-25.634765625
-25.634765625
-29.296875
-29.296875
-20.1416015625
-18.310546875
-24.71923828125
-32.04345703125
-28.38134765625
-25.634765625
-20.1416015625
-11.90185546875
0
-20.1416015625
1.8310546875
11.90185546875
4.57763671875
0.91552734375
5.4931640625
7.32421875
10.07080078125
20.1416015625
29.296875
23.8037109375
21.97265625
30.21240234375
32.958984375
33.87451171875
38.4521484375
40.283203125
43.9453125
52.18505859375
57.67822265625
65.00244140625
68.66455078125
71.4111328125
82.3974609375
87.890625
84.228515625
92.46826171875
96.13037109375
103.45458984375
109.86328125
118.10302734375
120.849609375
133.6669921875
133.6669921875
140.9912109375
158.38623046875
162.04833984375
156.55517578125
160.21728515625
174.86572265625
178.52783203125
190.4296875
198.66943359375
194.091796875
198.66943359375
221.5576171875
231.62841796875
216.064453125
212.40234375
218.81103515625
235.29052734375
246.27685546875
241.69921875
220.64208984375
236.2060546875
231.62841796875
234.375
229.79736328125
233.45947265625
235.29052734375
232.5439453125
227.96630859375
223.388671875
195.9228515625
197.75390625
198.66943359375
189.51416015625
180.35888671875
173.9501953125
162.04833984375
137.3291015625
121.76513671875
118.10302734375
115.3564453125
98.876953125
78.7353515625
74.15771484375
61.34033203125
41.19873046875
20.1416015625
19.22607421875
19.22607421875
11.90185546875
-12.8173828125
-21.97265625
-39.36767578125
-40.283203125
-32.958984375
-49.4384765625
-54.01611328125
-43.02978515625
-46.69189453125
-72.32666015625
-81.48193359375
-89.7216796875
-78.7353515625
-75.0732421875
-85.14404296875
-89.7216796875
-86.0595703125
-89.7216796875
-88.80615234375
-86.97509765625
-87.890625
-94.29931640625
-105.28564453125
-108.0322265625
-98.876953125
-97.0458984375
-89.7216796875
-97.0458984375
-106.201171875
-104.3701171875
-94.29931640625
-100.7080078125
-98.876953125
-97.96142578125
-99.79248046875
-103.45458984375
-106.201171875
-105.28564453125
-97.0458984375
-96.13037109375
-105.28564453125
-114.44091796875
-107.11669921875
-77.81982421875
-66.83349609375
-71.4111328125
-79.65087890625
-84.228515625
-92.46826171875
-95.21484375
-86.97509765625
-86.0595703125
-85.14404296875
-79.65087890625
-83.31298828125
-81.48193359375
-74.15771484375
-81.48193359375
-83.31298828125
-82.3974609375
-70.49560546875
-64.0869140625
-69.580078125
-68.66455078125
-62.255859375
-56.7626953125
-55.84716796875
-67.7490234375
-64.0869140625
-77.81982421875
-93.3837890625
-87.890625
-95.21484375
-90.63720703125
-57.67822265625
-54.01611328125
-69.580078125
-71.4111328125
-71.4111328125
-75.0732421875
-77.81982421875
-78.7353515625
-80.56640625
-71.4111328125
-74.15771484375
-82.3974609375
-77.81982421875
-78.7353515625
-86.0595703125
-76.904296875
-73.2421875
-83.31298828125
-77.81982421875
-84.228515625
-93.3837890625
-73.2421875
-82.3974609375
-83.31298828125
-82.3974609375
-105.28564453125
-103.45458984375
-96.13037109375
-97.96142578125
-97.0458984375
-97.0458984375
-92.46826171875
-89.7216796875
-94.29931640625
-95.21484375
-91.552734375
-91.552734375
-110.77880859375
-108.0322265625
-97.0458984375
-107.11669921875
-119.93408203125
-110.77880859375
-105.28564453125
-112.60986328125
-108.0322265625
-113.525390625
-110.77880859375
-117.1875
-122.6806640625
-106.201171875
-108.0322265625
-108.0322265625
-109.86328125
-108.0322265625
-116.27197265625
-123.59619140625
-112.60986328125
-110.77880859375
-109.86328125
-102.5390625
-111.6943359375
-111.6943359375
-109.86328125
-100.7080078125
-111.6943359375
-112.60986328125
-117.1875
-113.525390625
-120.849609375
-121.76513671875
-113.525390625
-115.3564453125
-114.44091796875
-115.3564453125
-109.86328125
-111.6943359375
-119.93408203125
-124.51171875
-117.1875
-108.0322265625
-115.3564453125
-118.10302734375
-118.10302734375
-112.60986328125
-122.6806640625
-123.59619140625
-113.525390625
-115.3564453125
-123.59619140625
-124.51171875
-120.849609375
-119.93408203125
-124.51171875
-132.75146484375
-120.849609375
-129.08935546875
-129.08935546875
-124.51171875
-123.59619140625
-114.44091796875
-119.0185546875
-119.93408203125
-125.42724609375
-117.1875
-110.77880859375
-114.44091796875
-106.201171875
-121.76513671875
-130.0048828125
-120.849609375
-104.3701171875
-88.80615234375
-74.15771484375
-52.18505859375
-41.19873046875
-40.283203125
-51.26953125
-57.67822265625
-61.34033203125
-52.18505859375
-35.70556640625
-23.8037109375
-12.8173828125
-9.1552734375
0
-7.32421875
-8.23974609375
-17.39501953125
-26.55029296875
-35.70556640625
-40.283203125
-42.1142578125
-24.71923828125
-29.296875
-43.9453125
-46.69189453125
-57.67822265625
-75.98876953125
-83.31298828125
-100.7080078125
-112.60986328125
-116.27197265625
-122.6806640625
-112.60986328125
-108.94775390625
-109.86328125
-118.10302734375
-130.92041015625
-124.51171875
-124.51171875
-122.6806640625
-125.42724609375
-124.51171875
-119.93408203125
-127.25830078125
-140.9912109375
-147.39990234375
-140.07568359375
-132.75146484375
-137.3291015625
-140.9912109375
-130.92041015625
-132.75146484375
-142.822265625
-140.9912109375
-140.07568359375
-157.470703125
-172.119140625
-187.68310546875
-197.75390625
-200.50048828125
-184.02099609375
-149.23095703125
-90.63720703125
-38.4521484375
34.7900390625
108.94775390625
197.75390625
305.7861328125
412.90283203125
554.8095703125
715.02685546875
847.7783203125
953.06396484375
1071.1669921875
1167.29736328125
1135.25390625
1034.5458984375
825.8056640625
579.52880859375
318.603515625
72.32666015625
-158.38623046875
-339.66064453125
-443.115234375
-434.87548828125
-394.59228515625
-348.81591796875
-304.87060546875
-261.8408203125
-208.740234375
-170.2880859375
-139.16015625
-108.0322265625
-79.65087890625
-53.1005859375
-45.7763671875
-43.9453125
-38.4521484375
-51.26953125
-60.4248046875
-60.4248046875
-57.67822265625
-58.59375
-59.50927734375
-60.4248046875
-51.26953125
-50.35400390625
-56.7626953125
-65.91796875
-50.35400390625
-38.4521484375
-44.86083984375
-47.607421875
-46.69189453125
-39.36767578125
-28.38134765625
-31.1279296875
-32.958984375
-32.958984375
-25.634765625
-20.1416015625
-20.1416015625
-11.90185546875
-11.90185546875
-19.22607421875
-24.71923828125
-23.8037109375
-11.90185546875
-17.39501953125
-15.56396484375
-7.32421875
-7.32421875
-4.57763671875
-6.40869140625
-12.8173828125
-10.986328125
-7.32421875
6.40869140625
14.6484375
12.8173828125
15.56396484375
15.56396484375
6.40869140625
16.4794921875
22.88818359375
24.71923828125
29.296875
23.8037109375
24.71923828125
35.70556640625
48.52294921875
60.4248046875
69.580078125
69.580078125
71.4111328125
73.2421875
82.3974609375
78.7353515625
75.0732421875
70.49560546875
78.7353515625
97.0458984375
111.6943359375
131.8359375
134.58251953125
130.0048828125
138.24462890625
143.73779296875
158.38623046875
173.03466796875
163.87939453125
158.38623046875
159.3017578125
170.2880859375
195.00732421875
210.5712890625
216.97998046875
219.7265625
216.064453125
216.064453125
228.8818359375
231.62841796875
231.62841796875
238.95263671875
236.2060546875
240.78369140625
243.5302734375
236.2060546875
237.12158203125
238.95263671875
238.95263671875
233.45947265625
228.8818359375
227.05078125
226.13525390625
223.388671875
216.064453125
205.99365234375
202.33154296875
195.9228515625
182.18994140625
176.69677734375
156.55517578125
144.6533203125
128.173828125
120.849609375
110.77880859375
100.7080078125
91.552734375
87.890625
74.15771484375
66.83349609375
43.9453125
30.21240234375
24.71923828125
11.90185546875
-2.74658203125
-12.8173828125
-18.310546875
-18.310546875
-29.296875
-30.21240234375
-34.7900390625
-58.59375
-65.00244140625
-67.7490234375
-65.00244140625
-65.00244140625
-70.49560546875
-79.65087890625
-89.7216796875
-84.228515625
-72.32666015625
-72.32666015625
-79.65087890625
-83.31298828125
-86.97509765625
-91.552734375
-92.46826171875
-87.890625
-100.7080078125
-101.62353515625
-97.96142578125
-89.7216796875
-80.56640625
-76.904296875
-75.98876953125
-99.79248046875
-108.0322265625
-107.11669921875
-98.876953125
-81.48193359375
-70.49560546875
-78.7353515625
-79.65087890625
-67.7490234375
-65.00244140625
-70.49560546875
-70.49560546875
-74.15771484375
-81.48193359375
-97.0458984375
-79.65087890625
-60.4248046875
-60.4248046875
-56.7626953125
-61.34033203125
-56.7626953125
-56.7626953125
-54.931640625
-66.83349609375
-63.17138671875
-59.50927734375
-60.4248046875
-55.84716796875
-59.50927734375
-61.34033203125
-53.1005859375
-45.7763671875
-45.7763671875
-56.7626953125
-61.34033203125
-58.59375
-51.26953125
-53.1005859375
-55.84716796875
-66.83349609375
-75.98876953125
-66.83349609375
-59.50927734375
-58.59375
-55.84716796875
-50.35400390625
-43.9453125
-43.02978515625
-48.52294921875
-54.01611328125
-48.52294921875
-55.84716796875
-48.52294921875
-43.9453125
-55.84716796875
-58.59375
-61.34033203125
-65.91796875
-65.91796875
-59.50927734375
-61.34033203125
-58.59375
-72.32666015625
-71.4111328125
-68.66455078125
-78.7353515625
-84.228515625
-74.15771484375
-70.49560546875
-71.4111328125
-73.2421875
-65.91796875
-63.17138671875
-75.0732421875
-73.2421875
-67.7490234375
-69.580078125
-69.580078125
-66.83349609375
-77.81982421875
-90.63720703125
-105.28564453125
-104.3701171875
-82.3974609375
-70.49560546875
-75.0732421875
-74.15771484375
-82.3974609375
-86.97509765625
-93.3837890625
-98.876953125
-98.876953125
-95.21484375
-83.31298828125
-78.7353515625
-86.97509765625
-85.14404296875
-77.81982421875
-74.15771484375
-85.14404296875
-89.7216796875
-91.552734375
-99.79248046875
-92.46826171875
-89.7216796875
-94.29931640625
-86.97509765625
-87.890625
-87.890625
-93.3837890625
-92.46826171875
-91.552734375
-95.21484375
-87.890625
-97.0458984375
-97.0458984375
-93.3837890625
-90.63720703125
-91.552734375
-85.14404296875
-94.29931640625
-93.3837890625
-88.80615234375
-85.14404296875
-85.14404296875
-68.66455078125
-92.46826171875
-100.7080078125
-90.63720703125
-84.228515625
-78.7353515625
-90.63720703125
-92.46826171875
-98.876953125
-98.876953125
-93.3837890625
-91.552734375
-94.29931640625
-95.21484375
-93.3837890625
-93.3837890625
-92.46826171875
-99.79248046875
-90.63720703125
-89.7216796875
-101.62353515625
-98.876953125
-88.80615234375
-94.29931640625
-88.80615234375
-85.14404296875
-95.21484375
-88.80615234375
-67.7490234375
-66.83349609375
-61.34033203125
-35.70556640625
-25.634765625
-19.22607421875
-28.38134765625
-29.296875
-27.4658203125
-11.90185546875
-2.74658203125
0
5.4931640625
14.6484375
22.88818359375
18.310546875
24.71923828125
22.88818359375
21.97265625
24.71923828125
14.6484375
6.40869140625
-7.32421875
-3.662109375
-16.4794921875
-29.296875
-23.8037109375
-38.4521484375
-56.7626953125
-61.34033203125
-70.49560546875
-93.3837890625
-92.46826171875
-86.0595703125
-95.21484375
-93.3837890625
-89.7216796875
-101.62353515625
-106.201171875
-100.7080078125
-99.79248046875
-96.13037109375
-93.3837890625
-103.45458984375
-109.86328125
-106.201171875
-120.849609375
-130.0048828125
-123.59619140625
-115.3564453125
-108.94775390625
-120.849609375
-125.42724609375
-121.76513671875
-112.60986328125
-125.42724609375
-141.90673828125
-150.146484375
-160.21728515625
-184.02099609375
-200.50048828125
-189.51416015625
-173.9501953125
-129.08935546875
-84.228515625
-35.70556640625
38.4521484375
136.41357421875
250.8544921875
359.80224609375
481.5673828125
627.13623046875
776.3671875
897.216796875
1007.080078125
1123.35205078125
1183.77685546875
1121.52099609375
973.20556640625
771.78955078125
506.28662109375
254.5166015625
13.73291015625
-217.8955078125
-379.0283203125
-436.70654296875
-411.9873046875
-374.45068359375
-339.66064453125
-288.39111328125
-235.29052734375
-192.2607421875
-161.1328125
-130.0048828125
-93.3837890625
-63.17138671875
-46.69189453125
-44.86083984375
-43.02978515625
-47.607421875
-47.607421875
-42.1142578125
-56.7626953125
-60.4248046875
-54.931640625
-55.84716796875
-47.607421875
-48.52294921875
-55.84716796875
-49.4384765625
-41.19873046875
-37.53662109375
-53.1005859375
-55.84716796875
-45.7763671875
-27.4658203125
-12.8173828125
-27.4658203125
-39.36767578125
-34.7900390625
-32.958984375
-29.296875
-30.21240234375
-28.38134765625
-22.88818359375
-16.4794921875
-20.1416015625
-17.39501953125
-13.73291015625
-10.07080078125
-12.8173828125
-11.90185546875
-8.23974609375
-4.57763671875
0
-3.662109375
0.91552734375
8.23974609375
10.07080078125
10.986328125
6.40869140625
17.39501953125
15.56396484375
11.90185546875
24.71923828125
23.8037109375
29.296875
34.7900390625
37.53662109375
49.4384765625
47.607421875
49.4384765625
61.34033203125
58.59375
64.0869140625
69.580078125
66.83349609375
71.4111328125
77.81982421875
88.80615234375
97.0458984375
105.28564453125
114.44091796875
108.94775390625
107.11669921875
114.44091796875
119.93408203125
125.42724609375
143.73779296875
162.04833984375
170.2880859375
166.6259765625
163.87939453125
170.2880859375
170.2880859375
184.02099609375
189.51416015625
202.33154296875
210.5712890625
212.40234375
222.47314453125
229.79736328125
229.79736328125
229.79736328125
234.375
232.5439453125
229.79736328125
229.79736328125
234.375
238.037109375
232.5439453125
235.29052734375
233.45947265625
229.79736328125
224.30419921875
216.064453125
209.65576171875
216.064453125
218.81103515625
215.14892578125
211.48681640625
194.091796875
186.767578125
173.9501953125
164.794921875
146.484375
140.9912109375
128.173828125
118.10302734375
116.27197265625
97.0458984375
70.49560546875
54.01611328125
46.69189453125
45.7763671875
30.21240234375
27.4658203125
16.4794921875
4.57763671875
-11.90185546875
-20.1416015625
-28.38134765625
-29.296875
-30.21240234375
-43.9453125
-54.931640625
-56.7626953125
-67.7490234375
-65.91796875
-65.00244140625
-74.15771484375
-78.7353515625
-80.56640625
-86.0595703125
-87.890625
-94.29931640625
-105.28564453125
-100.7080078125
-92.46826171875
-80.56640625
-91.552734375
-91.552734375
-86.97509765625
-84.228515625
-89.7216796875
-91.552734375
-96.13037109375
-103.45458984375
-106.201171875
-111.6943359375
-101.62353515625
-106.201171875
-92.46826171875
-90.63720703125
-81.48193359375
-74.15771484375
-76.904296875
-83.31298828125
-86.0595703125
-85.14404296875
-86.97509765625
-80.56640625
-77.81982421875
-79.65087890625
-91.552734375
-88.80615234375
-84.228515625
-91.552734375
-83.31298828125
-75.98876953125
-79.65087890625
-80.56640625
-66.83349609375
-70.49560546875
-69.580078125
-60.4248046875
-65.00244140625
-71.4111328125
-68.66455078125
-65.00244140625
-61.34033203125
-61.34033203125
-64.0869140625
-68.66455078125
-74.15771484375
-73.2421875
-65.00244140625
-64.0869140625
-65.00244140625
-63.17138671875
-60.4248046875
-70.49560546875
-77.81982421875
-77.81982421875
-81.48193359375
-64.0869140625
-67.7490234375
-69.580078125
-76.904296875
-73.2421875
-70.49560546875
-76.904296875
-78.7353515625
-73.2421875
-75.98876953125
-86.97509765625
-79.65087890625
-74.15771484375
-78.7353515625
-73.2421875
-77.81982421875
-89.7216796875
-90.63720703125
-83.31298828125
-91.552734375
-94.29931640625
-87.890625
-84.228515625
-81.48193359375
-84.228515625
-85.14404296875
-86.0595703125
-90.63720703125
-93.3837890625
-87.890625
-90.63720703125
-96.13037109375
-97.96142578125
-91.552734375
-94.29931640625
-92.46826171875
-89.7216796875
-97.0458984375
-108.0322265625
-115.3564453125
-112.60986328125
-112.60986328125
-119.0185546875
-111.6943359375
-99.79248046875
-96.13037109375
-109.86328125
-115.3564453125
-103.45458984375
-108.94775390625
-110.77880859375
-111.6943359375
-113.525390625
-108.94775390625
-106.201171875
-103.45458984375
-103.45458984375
-99.79248046875
-115.3564453125
-114.44091796875
-118.10302734375
-124.51171875
-121.76513671875
-107.11669921875
-111.6943359375
-113.525390625
-115.3564453125
-118.10302734375
-123.59619140625
-117.1875
-117.1875
-117.1875
-115.3564453125
-123.59619140625
-118.10302734375
-114.44091796875
-109.86328125
-106.201171875
-114.44091796875
-118.10302734375
-108.0322265625
-111.6943359375
-121.76513671875
-127.25830078125
-116.27197265625
-122.6806640625
-122.6806640625
-123.59619140625
-119.0185546875
-119.93408203125
-116.27197265625
-118.10302734375
-111.6943359375
-119.93408203125
-115.3564453125
-118.10302734375
-124.51171875
-126.3427734375
-115.3564453125
-119.93408203125
-119.0185546875
-109.86328125
-105.28564453125
-92.46826171875
-86.97509765625
-70.49560546875
-51.26953125
-35.70556640625
-36.62109375
-43.9453125
-59.50927734375
-47.607421875
-32.958984375
-27.4658203125
-25.634765625
-17.39501953125
-21.05712890625
-21.05712890625
-6.40869140625
-9.1552734375
-19.22607421875
-25.634765625
-23.8037109375
-13.73291015625
-29.296875
-46.69189453125
-55.84716796875
-56.7626953125
-54.931640625
-68.66455078125
-85.14404296875
-98.876953125
-107.11669921875
-116.27197265625
-115.3564453125
-114.44091796875
-108.94775390625
-111.6943359375
-113.525390625
-128.173828125
-125.42724609375
-125.42724609375
-127.25830078125
-127.25830078125
-118.10302734375
-119.0185546875
-141.90673828125
-140.9912109375
-140.07568359375
-140.9912109375
-131.8359375
-130.0048828125
-128.173828125
-130.0048828125
-127.25830078125
-128.173828125
-138.24462890625
-144.6533203125
-160.21728515625
-174.86572265625
-187.68310546875
-205.078125
-213.31787109375
-201.416015625
-166.6259765625
-102.5390625
-53.1005859375
10.986328125
91.552734375
195.9228515625
301.20849609375
409.24072265625
541.9921875
706.787109375
836.7919921875
946.6552734375
1069.3359375
1171.875
1143.49365234375
1011.65771484375
800.1708984375
550.23193359375
296.630859375
61.34033203125
-161.1328125
-344.23828125
-448.6083984375
-445.86181640625
-397.3388671875
-364.3798828125
-321.35009765625
-278.3203125
-229.79736328125
-188.5986328125
-144.6533203125
-114.44091796875
-89.7216796875
-65.00244140625
-38.4521484375
-44.86083984375
-48.52294921875
-53.1005859375
-58.59375
-74.15771484375
-77.81982421875
-76.904296875
-66.83349609375
-64.0869140625
-57.67822265625
-61.34033203125
-59.50927734375
-50.35400390625
-52.18505859375
-55.84716796875
-49.4384765625
-51.26953125
-57.67822265625
-46.69189453125
-49.4384765625
-50.35400390625
-52.18505859375
-43.02978515625
-40.283203125
-45.7763671875
-34.7900390625
-43.02978515625
-37.53662109375
-30.21240234375
-23.8037109375
-35.70556640625
-34.7900390625
-17.39501953125
-21.97265625
-10.986328125
-18.310546875
-14.6484375
-11.90185546875
-16.4794921875
-12.8173828125
-0.91552734375
2.74658203125
-4.57763671875
0.91552734375
8.23974609375
6.40869140625
10.986328125
15.56396484375
14.6484375
21.97265625
36.62109375
34.7900390625
35.70556640625
42.1142578125
46.69189453125
47.607421875
44.86083984375
54.01611328125
60.4248046875
61.34033203125
65.00244140625
77.81982421875
79.65087890625
85.14404296875
82.3974609375
89.7216796875
93.3837890625
98.876953125
110.77880859375
120.849609375
128.173828125
131.8359375
134.58251953125
141.90673828125
145.56884765625
164.794921875
171.20361328125
179.443359375
184.02099609375
187.68310546875
196.83837890625
197.75390625
194.091796875
199.5849609375
215.14892578125
221.5576171875
216.064453125
214.2333984375
216.064453125
217.8955078125
212.40234375
226.13525390625
227.96630859375
216.064453125
216.064453125
216.064453125
212.40234375
209.65576171875
216.97998046875
207.82470703125
193.17626953125
185.85205078125
173.03466796875
180.35888671875
177.6123046875
162.9638671875
151.9775390625
138.24462890625
130.0048828125
114.44091796875
97.96142578125
89.7216796875
83.31298828125
69.580078125
58.59375
46.69189453125
32.958984375
14.6484375
3.662109375
-3.662109375
-10.986328125
-14.6484375
-20.1416015625
-30.21240234375
-42.1142578125
-43.02978515625
-47.607421875
-51.26953125
-63.17138671875
-72.32666015625
-77.81982421875
-79.65087890625
-84.228515625
-92.46826171875
-101.62353515625
-93.3837890625
-97.0458984375
-102.5390625
-102.5390625
-90.63720703125
-99.79248046875
-108.0322265625
-97.96142578125
-100.7080078125
-110.77880859375
-108.0322265625
-102.5390625
-110.77880859375
-115.3564453125
-111.6943359375
-109.86328125
-106.201171875
-111.6943359375
-108.0322265625
-108.94775390625
-99.79248046875
-96.13037109375
-102.5390625
-102.5390625
-96.13037109375
-94.29931640625
-98.876953125
-91.552734375
-84.228515625
-86.0595703125
-89.7216796875
-97.0458984375
-100.7080078125
-99.79248046875
-86.97509765625
-86.97509765625
-91.552734375
-88.80615234375
-86.97509765625
-81.48193359375
-91.552734375
-91.552734375
-89.7216796875
-90.63720703125
-88.80615234375
-80.56640625
-81.48193359375
-75.0732421875
-75.0732421875
-79.65087890625
-86.0595703125
-91.552734375
-83.31298828125
-78.7353515625
-71.4111328125
-78.7353515625
-83.31298828125
-84.228515625
-83.31298828125
-84.228515625
-79.65087890625
-86.97509765625
-86.97509765625
-93.3837890625
-97.96142578125
-89.7216796875
-82.3974609375
-81.48193359375
-86.0595703125
-81.48193359375
-77.81982421875
-84.228515625
-86.97509765625
-84.228515625
-89.7216796875
-90.63720703125
-99.79248046875
-92.46826171875
-99.79248046875
-102.5390625
-97.96142578125
-93.3837890625
-97.0458984375
-102.5390625
-108.94775390625
-103.45458984375
-93.3837890625
-110.77880859375
-125.42724609375
-112.60986328125
-97.0458984375
-101.62353515625
-97.0458984375
-97.96142578125
-106.201171875
-108.0322265625
-102.5390625
-117.1875
-123.59619140625
-113.525390625
-113.525390625
-131.8359375
-119.0185546875
-113.525390625
-110.77880859375
-110.77880859375
-110.77880859375
-109.86328125
-113.525390625
-118.10302734375
-127.25830078125
-124.51171875
-135.498046875
-129.08935546875
-120.849609375
-111.6943359375
-112.60986328125
-118.10302734375
-120.849609375
-120.849609375
-118.10302734375
-119.0185546875
-126.3427734375
-138.24462890625
-130.0048828125
-121.76513671875
-116.27197265625
-118.10302734375
-116.27197265625
-115.3564453125
-113.525390625
-119.0185546875
-120.849609375
-117.1875
-117.1875
-111.6943359375
-121.76513671875
-122.6806640625
-122.6806640625
-119.93408203125
-117.1875
-127.25830078125
-133.6669921875
-131.8359375
-123.59619140625
-127.25830078125
-124.51171875
-114.44091796875
-123.59619140625
-129.08935546875
-125.42724609375
-124.51171875
-122.6806640625
-118.10302734375
-113.525390625
-103.45458984375
-95.21484375
-86.97509765625
-68.66455078125
-56.7626953125
-57.67822265625
-55.84716796875
-68.66455078125
-58.59375
-52.18505859375
-36.62109375
-35.70556640625
-21.97265625
-12.8173828125
-12.8173828125
-8.23974609375
-16.4794921875
-30.21240234375
-39.36767578125
-52.18505859375
-52.18505859375
-43.9453125
-44.86083984375
-43.9453125
-37.53662109375
-45.7763671875
-72.32666015625
-96.13037109375
-98.876953125
-108.94775390625
-120.849609375
-125.42724609375
-127.25830078125
-121.76513671875
-121.76513671875
-127.25830078125
-132.75146484375
-140.07568359375
-135.498046875
-127.25830078125
-131.8359375
-140.9912109375
-130.0048828125
-142.822265625
-146.484375
-140.9912109375
-134.58251953125
-130.92041015625
-130.92041015625
-133.6669921875
-133.6669921875
-134.58251953125
-132.75146484375
-133.6669921875
-144.6533203125
-162.9638671875
-179.443359375
-187.68310546875
-205.99365234375
-205.078125
-200.50048828125
-172.119140625
-123.59619140625
-77.81982421875
-30.21240234375
35.70556640625
141.90673828125
251.77001953125
357.0556640625
491.63818359375
639.0380859375
760.80322265625
868.83544921875
1000.67138671875
1100.4638671875
1079.40673828125
972.2900390625
770.8740234375
561.21826171875
304.87060546875
77.81982421875
-97.96142578125
-270.08056640625
-366.2109375
-385.43701171875
-359.80224609375
-337.82958984375
-312.19482421875
-277.40478515625
-248.10791015625
-208.740234375
-199.5849609375
-183.10546875
-145.56884765625
-108.94775390625
-75.98876953125
-71.4111328125
-64.0869140625
-68.66455078125
-69.580078125
-76.904296875
-74.15771484375
-68.66455078125
-65.91796875
-67.7490234375
-66.83349609375
-70.49560546875
-72.32666015625
-69.580078125
-65.00244140625
-56.7626953125
-63.17138671875
-65.00244140625
-54.931640625
-54.01611328125
-58.59375
-61.34033203125
-65.91796875
-53.1005859375
-42.1142578125
-46.69189453125
-45.7763671875
-45.7763671875
-48.52294921875
-42.1142578125
-42.1142578125
-42.1142578125
-30.21240234375
-24.71923828125
-26.55029296875
-29.296875
-29.296875
-21.97265625
-20.1416015625
-10.986328125
-7.32421875
-13.73291015625
-14.6484375
-6.40869140625
-9.1552734375
-7.32421875
-11.90185546875
-4.57763671875
3.662109375
13.73291015625
14.6484375
7.32421875
-0.91552734375
2.74658203125
21.97265625
41.19873046875
47.607421875
41.19873046875
45.7763671875
52.18505859375
54.01611328125
58.59375
64.0869140625
65.91796875
70.49560546875
79.65087890625
82.3974609375
88.80615234375
92.46826171875
100.7080078125
113.525390625
117.1875
133.6669921875
143.73779296875
141.90673828125
151.06201171875
149.23095703125
151.06201171875
152.89306640625
163.87939453125
173.9501953125
177.6123046875
177.6123046875
187.68310546875
195.00732421875
200.50048828125
196.83837890625
190.4296875
196.83837890625
198.66943359375
206.9091796875
203.2470703125
206.9091796875
206.9091796875
195.9228515625
201.416015625
194.091796875
179.443359375
180.35888671875
184.02099609375
189.51416015625
182.18994140625
169.37255859375
161.1328125
154.72412109375
150.146484375
142.822265625
130.92041015625
110.77880859375
110.77880859375
95.21484375
86.0595703125
82.3974609375
70.49560546875
65.91796875
48.52294921875
22.88818359375
14.6484375
15.56396484375
8.23974609375
-6.40869140625
-20.1416015625
-25.634765625
-32.04345703125
-42.1142578125
-57.67822265625
-58.59375
-74.15771484375
-70.49560546875
-76.904296875
-86.0595703125
-81.48193359375
-84.228515625
-94.29931640625
-94.29931640625
-97.0458984375
-108.94775390625
-101.62353515625
-108.0322265625
-111.6943359375
-108.94775390625
-108.94775390625
-110.77880859375
-111.6943359375
-121.76513671875
-119.93408203125
-122.6806640625
-120.849609375
-119.0185546875
-106.201171875
-108.0322265625
-106.201171875
-108.94775390625
-117.1875
-119.0185546875
-119.0185546875
-127.25830078125
-112.60986328125
-108.94775390625
-100.7080078125
-101.62353515625
-105.28564453125
-106.201171875
-97.96142578125
-94.29931640625
-94.29931640625
-94.29931640625
-94.29931640625
-97.0458984375
-99.79248046875
-97.0458984375
-97.96142578125
-88.80615234375
-95.21484375
-95.21484375
-97.0458984375
-94.29931640625
-77.81982421875
-86.97509765625
-92.46826171875
-86.97509765625
-90.63720703125
-87.890625
-90.63720703125
-99.79248046875
-99.79248046875
-91.552734375
-94.29931640625
-86.97509765625
-88.80615234375
-86.0595703125
-76.904296875
-86.0595703125
-86.0595703125
-79.65087890625
-76.904296875
-68.66455078125
-78.7353515625
-84.228515625
-91.552734375
-88.80615234375
-81.48193359375
-78.7353515625
-86.0595703125
-88.80615234375
-86.97509765625
-85.14404296875
-86.0595703125
-83.31298828125
-88.80615234375
-90.63720703125
-97.0458984375
-100.7080078125
-92.46826171875
-89.7216796875
-86.97509765625
-97.0458984375
-101.62353515625
-97.96142578125
-100.7080078125
-108.0322265625
-103.45458984375
-97.0458984375
-104.3701171875
-101.62353515625
-97.0458984375
-97.96142578125
-99.79248046875
-98.876953125
-109.86328125
-110.77880859375
-110.77880859375
-108.0322265625
-118.10302734375
-113.525390625
-100.7080078125
-113.525390625
-106.201171875
-100.7080078125
-106.201171875
-105.28564453125
-105.28564453125
-108.94775390625
-106.201171875
-115.3564453125
-119.0185546875
-116.27197265625
-122.6806640625
-118.10302734375
-115.3564453125
-118.10302734375
-115.3564453125
-110.77880859375
-119.93408203125
-126.3427734375
-115.3564453125
-113.525390625
-105.28564453125
-107.11669921875
-108.94775390625
-115.3564453125
-129.08935546875
-122.6806640625
-119.0185546875
-125.42724609375
-123.59619140625
-114.44091796875
-114.44091796875
-107.11669921875
-108.0322265625
-108.0322265625
-106.201171875
-108.94775390625
-109.86328125
-112.60986328125
-108.0322265625
-113.525390625
-114.44091796875
-115.3564453125
-116.27197265625
-114.44091796875
-99.79248046875
-80.56640625
-68.66455078125
-64.0869140625
-54.931640625
-43.02978515625
-37.53662109375
-43.9453125
-43.9453125
-48.52294921875
-49.4384765625
-33.87451171875
-17.39501953125
-10.986328125
-5.4931640625
-6.40869140625
-3.662109375
3.662109375
-7.32421875
-23.8037109375
-23.8037109375
-21.05712890625
-27.4658203125
-40.283203125
-47.607421875
-36.62109375
-43.02978515625
-67.7490234375
-85.14404296875
-93.3837890625
-101.62353515625
-124.51171875
-119.93408203125
-111.6943359375
-108.94775390625
-106.201171875
-110.77880859375
-121.76513671875
-126.3427734375
-126.3427734375
-121.76513671875
-118.10302734375
-116.27197265625
-112.60986328125
-119.0185546875
-124.51171875
-122.6806640625
-119.0185546875
-122.6806640625
-136.41357421875
-130.92041015625
-122.6806640625
-130.0048828125
-136.41357421875
-124.51171875
-128.173828125
-143.73779296875
-158.38623046875
-173.03466796875
-190.4296875
-202.33154296875
-197.75390625
-177.6123046875
-130.0048828125
-82.3974609375
-19.22607421875
51.26953125
131.8359375
238.037109375
344.23828125
455.01708984375
584.1064453125
732.421875
847.7783203125
962.21923828125
1081.23779296875
1137.0849609375
1075.74462890625
924.6826171875
707.70263671875
449.52392578125
198.66943359375
-27.4658203125
-227.96630859375
-374.45068359375
-431.21337890625
-406.494140625
-370.78857421875
-329.58984375
-283.8134765625
-231.62841796875
-184.9365234375
-158.38623046875
-136.41357421875
-98.876953125
-71.4111328125
-58.59375
-43.02978515625
-38.4521484375
-41.19873046875
-39.36767578125
-48.52294921875
-58.59375
-59.50927734375
-54.01611328125
-56.7626953125
-57.67822265625
-48.52294921875
-45.7763671875
-50.35400390625
-55.84716796875
-44.86083984375
-37.53662109375
-44.86083984375
-56.7626953125
-54.931640625
-52.18505859375
-48.52294921875
-37.53662109375
-33.87451171875
-36.62109375
-28.38134765625
-39.36767578125
-43.02978515625
-39.36767578125
-32.04345703125
-26.55029296875
-24.71923828125
-17.39501953125
-21.05712890625
-17.39501953125
-17.39501953125
-9.1552734375
-4.57763671875
-10.07080078125
-18.310546875
-14.6484375
-17.39501953125
-6.40869140625
1.8310546875
9.1552734375
5.4931640625
3.662109375
18.310546875
31.1279296875
24.71923828125
24.71923828125
25.634765625
31.1279296875
38.4521484375
45.7763671875
44.86083984375
43.9453125
36.62109375
49.4384765625
60.4248046875
64.0869140625
75.0732421875
86.0595703125
86.97509765625
81.48193359375
98.876953125
111.6943359375
108.0322265625
105.28564453125
109.86328125
119.93408203125
131.8359375
140.07568359375
139.16015625
154.72412109375
158.38623046875
159.3017578125
183.10546875
190.4296875
187.68310546875
201.416015625
205.99365234375
206.9091796875
211.48681640625
201.416015625
205.078125
215.14892578125
220.64208984375
229.79736328125
223.388671875
204.16259765625
216.064453125
227.05078125
235.29052734375
227.05078125
222.47314453125
217.8955078125
218.81103515625
215.14892578125
217.8955078125
211.48681640625
198.66943359375
197.75390625
188.5986328125
184.02099609375
175.78125
156.55517578125
149.23095703125
148.3154296875
130.92041015625
124.51171875
116.27197265625
105.28564453125
97.0458984375
84.228515625
59.50927734375
39.36767578125
21.05712890625
17.39501953125
12.8173828125
3.662109375
-5.4931640625
-17.39501953125
-21.97265625
-23.8037109375
-38.4521484375
-41.19873046875
-62.255859375
-55.84716796875
-62.255859375
-65.91796875
-68.66455078125
-78.7353515625
-84.228515625
-79.65087890625
-86.97509765625
-94.29931640625
-92.46826171875
-96.13037109375
-96.13037109375
-100.7080078125
-99.79248046875
-102.5390625
-102.5390625
-100.7080078125
-104.3701171875
-108.0322265625
-102.5390625
-103.45458984375
-100.7080078125
-105.28564453125
-99.79248046875
-99.79248046875
-97.0458984375
-103.45458984375
-111.6943359375
-111.6943359375
-106.201171875
-100.7080078125
-97.0458984375
-102.5390625
-105.28564453125
-99.79248046875
-94.29931640625
-95.21484375
-103.45458984375
-102.5390625
-96.13037109375
-97.0458984375
-91.552734375
-86.0595703125
-85.14404296875
-87.890625
-87.890625
-81.48193359375
-82.3974609375
-80.56640625
-75.98876953125
-75.98876953125
-87.890625
-86.0595703125
-79.65087890625
-77.81982421875
-71.4111328125
-66.83349609375
-71.4111328125
-80.56640625
-77.81982421875
-75.98876953125
-75.0732421875
-81.48193359375
-81.48193359375
-77.81982421875
-82.3974609375
-80.56640625
-77.81982421875
-79.65087890625
-79.65087890625
-89.7216796875
-79.65087890625
-81.48193359375
-85.14404296875
-85.14404296875
-81.48193359375
-82.3974609375
-93.3837890625
-98.876953125
-87.890625
-82.3974609375
-86.0595703125
-80.56640625
-83.31298828125
-90.63720703125
-87.890625
-86.97509765625
-87.890625
-99.79248046875
-97.96142578125
-98.876953125
-100.7080078125
-91.552734375
-98.876953125
-89.7216796875
-96.13037109375
-95.21484375
-95.21484375
-102.5390625
-100.7080078125
-103.45458984375
-98.876953125
-108.0322265625
-109.86328125
-108.0322265625
-97.0458984375
-102.5390625
-104.3701171875
-105.28564453125
-105.28564453125
-104.3701171875
-107.11669921875
-108.94775390625
-109.86328125
-98.876953125
-97.0458984375
-104.3701171875
-108.0322265625
-108.0322265625
-127.25830078125
-130.92041015625
-119.0185546875
-111.6943359375
-118.10302734375
-118.10302734375
-116.27197265625
-116.27197265625
-106.201171875
-110.77880859375
-111.6943359375
-113.525390625
-120.849609375
-123.59619140625
-118.10302734375
-105.28564453125
-105.28564453125
-110.77880859375
-112.60986328125
-111.6943359375
-116.27197265625
-122.6806640625
-129.08935546875
-127.25830078125
-121.76513671875
-107.11669921875
-105.28564453125
-110.77880859375
-108.0322265625
-108.0322265625
-111.6943359375
-117.1875
-117.1875
-107.11669921875
-115.3564453125
-122.6806640625
-119.93408203125
-117.1875
-117.1875
-111.6943359375
-116.27197265625
-109.86328125
-113.525390625
-117.1875
-118.10302734375
-117.1875
-111.6943359375
-108.94775390625
-106.201171875
-98.876953125
-93.3837890625
-69.580078125
-54.931640625
-59.50927734375
-47.607421875
-44.86083984375
-49.4384765625
-53.1005859375
-43.02978515625
-25.634765625
-12.8173828125
-10.07080078125
0
0.91552734375
-16.4794921875
-17.39501953125
-18.310546875
-21.05712890625
-33.87451171875
-33.87451171875
-28.38134765625
-31.1279296875
-24.71923828125
-39.36767578125
-53.1005859375
-56.7626953125
-66.83349609375
-80.56640625
-91.552734375
-100.7080078125
-105.28564453125
-111.6943359375
-112.60986328125
-119.93408203125
-114.44091796875
-115.3564453125
-120.849609375
-120.849609375
-120.849609375
-119.93408203125
-123.59619140625
-132.75146484375
-131.8359375
-129.08935546875
-128.173828125
-131.8359375
-126.3427734375
-132.75146484375
-135.498046875
-135.498046875
-130.92041015625
-136.41357421875
-147.39990234375
-136.41357421875
-138.24462890625
-153.80859375
-168.45703125
-193.17626953125
-202.33154296875
-201.416015625
-184.9365234375
-140.9912109375
-83.31298828125
-20.1416015625
60.4248046875
149.23095703125
249.0234375
355.224609375
467.83447265625
607.91015625
757.14111328125
877.0751953125
991.51611328125
1110.53466796875
1182.861328125
1137.0849609375
997.00927734375
788.26904296875
522.76611328125
263.671875
15.56396484375
-205.99365234375
-372.61962890625
-456.84814453125
-426.6357421875
-371.7041015625
-333.251953125
-291.1376953125
-243.5302734375
-201.416015625
-171.20361328125
-130.0048828125
-86.0595703125
-62.255859375
-56.7626953125
-59.50927734375
-54.931640625
-50.35400390625
-51.26953125
-56.7626953125
-63.17138671875
-68.66455078125
-64.0869140625
-54.931640625
-60.4248046875
-58.59375
-53.1005859375
-51.26953125
-50.35400390625
-43.02978515625
-47.607421875
-49.4384765625
-52.18505859375
-43.02978515625
-33.87451171875
-35.70556640625
-38.4521484375
-36.62109375
-39.36767578125
-35.70556640625
-32.958984375
-38.4521484375
-37.53662109375
-33.87451171875
-32.04345703125
-19.22607421875
-5.4931640625
-12.8173828125
-12.8173828125
-12.8173828125
-1.8310546875
-6.40869140625
-11.90185546875
-11.90185546875
-2.74658203125
-7.32421875
-3.662109375
2.74658203125
1.8310546875
-2.74658203125
9.1552734375
19.22607421875
12.8173828125
8.23974609375
11.90185546875
11.90185546875
33.87451171875
33.87451171875
39.36767578125
48.52294921875
51.26953125
56.7626953125
55.84716796875
59.50927734375
63.17138671875
65.91796875
75.0732421875
75.98876953125
91.552734375
94.29931640625
104.3701171875
108.0322265625
107.11669921875
112.60986328125
110.77880859375
123.59619140625
138.24462890625
146.484375
147.39990234375
152.89306640625
154.72412109375
159.3017578125
179.443359375
183.10546875
188.5986328125
194.091796875
200.50048828125
212.40234375
215.14892578125
215.14892578125
217.8955078125
221.5576171875
216.97998046875
222.47314453125
232.5439453125
239.8681640625
233.45947265625
234.375
228.8818359375
229.79736328125
223.388671875
227.05078125
217.8955078125
223.388671875
225.2197265625
219.7265625
213.31787109375
205.99365234375
191.34521484375
186.767578125
173.9501953125
169.37255859375
158.38623046875
138.24462890625
126.3427734375
119.93408203125
117.1875
93.3837890625
77.81982421875
62.255859375
62.255859375
55.84716796875
36.62109375
23.8037109375
9.1552734375
1.8310546875
-10.07080078125
-18.310546875
-19.22607421875
-35.70556640625
-43.9453125
-43.9453125
-51.26953125
-54.931640625
-61.34033203125
-72.32666015625
-77.81982421875
-79.65087890625
-83.31298828125
-83.31298828125
-90.63720703125
-83.31298828125
-98.876953125
-100.7080078125
-88.80615234375
-88.80615234375
-98.876953125
-96.13037109375
-102.5390625
-101.62353515625
-88.80615234375
-92.46826171875
-107.11669921875
-100.7080078125
-92.46826171875
-95.21484375
-101.62353515625
-98.876953125
-101.62353515625
-100.7080078125
-104.3701171875
-95.21484375
-94.29931640625
-87.890625
-92.46826171875
-89.7216796875
-87.890625
-95.21484375
-99.79248046875
-101.62353515625
-96.13037109375
-95.21484375
-97.0458984375
-101.62353515625
-97.0458984375
-87.890625
-83.31298828125
-87.890625
-86.97509765625
-80.56640625
-75.98876953125
-71.4111328125
-74.15771484375
-72.32666015625
-76.904296875
-75.0732421875
-67.7490234375
-76.904296875
-79.65087890625
-81.48193359375
-74.15771484375
-75.0732421875
-74.15771484375
-83.31298828125
-75.0732421875
-72.32666015625
-82.3974609375
-85.14404296875
-78.7353515625
-75.0732421875
-81.48193359375
-77.81982421875
-83.31298828125
-83.31298828125
-81.48193359375
-80.56640625
-75.0732421875
-75.98876953125
-83.31298828125
-79.65087890625
-79.65087890625
-85.14404296875
-80.56640625
-82.3974609375
-82.3974609375
-75.0732421875
-77.81982421875
-91.552734375
-96.13037109375
-89.7216796875
-96.13037109375
-91.552734375
-89.7216796875
-89.7216796875
-97.0458984375
-97.96142578125
-95.21484375
-98.876953125
-103.45458984375
-100.7080078125
-97.96142578125
-96.13037109375
-96.13037109375
-102.5390625
-104.3701171875
-97.0458984375
-94.29931640625
-91.552734375
-91.552734375
-103.45458984375
-108.0322265625
-104.3701171875
-109.86328125
-108.94775390625
-107.11669921875
-108.94775390625
-106.201171875
-110.77880859375
-111.6943359375
-111.6943359375
-112.60986328125
-108.0322265625
-106.201171875
-115.3564453125
-106.201171875
-101.62353515625
-114.44091796875
-109.86328125
-111.6943359375
-118.10302734375
-113.525390625
-118.10302734375
-118.10302734375
-124.51171875
-124.51171875
-115.3564453125
-115.3564453125
-118.10302734375
-114.44091796875
-108.0322265625
-107.11669921875
-109.86328125
-115.3564453125
-120.849609375
-115.3564453125
-113.525390625
-109.86328125
-110.77880859375
-104.3701171875
-101.62353515625
-111.6943359375
-111.6943359375
-117.1875
-116.27197265625
-111.6943359375
-117.1875
-116.27197265625
-113.525390625
-117.1875
-119.93408203125
-114.44091796875
-113.525390625
-107.11669921875
-102.5390625
-101.62353515625
-110.77880859375
-108.94775390625
-110.77880859375
-109.86328125
-111.6943359375
-110.77880859375
-116.27197265625
-116.27197265625
-113.525390625
-114.44091796875
-108.94775390625
-97.96142578125
-105.28564453125
-107.11669921875
-99.79248046875
-86.97509765625
-85.14404296875
-73.2421875
-62.255859375
-48.52294921875
-43.02978515625
-39.36767578125
-44.86083984375
-57.67822265625
-56.7626953125
-41.19873046875
-24.71923828125
-16.4794921875
-9.1552734375
-6.40869140625
1.8310546875
3.662109375
-2.74658203125
0
-2.74658203125
-16.4794921875
-16.4794921875
-21.05712890625
-32.04345703125
-28.38134765625
-29.296875
-40.283203125
-50.35400390625
-66.83349609375
-80.56640625
-87.890625
-103.45458984375
-108.94775390625
-108.0322265625
-113.525390625
-115.3564453125
-105.28564453125
-108.94775390625
-111.6943359375
-117.1875
-118.10302734375
-117.1875
-119.93408203125
-115.3564453125
-116.27197265625
-118.10302734375
-110.77880859375
-124.51171875
-123.59619140625
-112.60986328125
-128.173828125
-130.92041015625
-132.75146484375
-135.498046875
-131.8359375
-139.16015625
-151.9775390625
-156.55517578125
-164.794921875
-173.9501953125
-184.02099609375
-185.85205078125
-169.37255859375
-124.51171875
-75.0732421875
-19.22607421875
69.580078125
154.72412109375
259.09423828125
364.3798828125
484.31396484375
628.96728515625
789.1845703125
907.28759765625
1014.404296875
1133.4228515625
1189.27001953125
1131.591796875
987.85400390625
767.2119140625
