ECG
-133.6669921875
-134.58251953125
-129.08935546875
-127.25830078125
-133.6669921875
-130.0048828125
-123.59619140625
-113.525390625
-129.08935546875
-146.484375
-141.90673828125
-151.06201171875
-151.06201171875
-146.484375
-135.498046875
-125.42724609375
-132.75146484375
-139.16015625
-141.90673828125
-135.498046875
-137.3291015625
-126.3427734375
-114.44091796875
-111.6943359375
-118.10302734375
-109.86328125
-115.3564453125
-100.7080078125
-93.3837890625
-79.65087890625
-65.91796875
-68.66455078125
-68.66455078125
-55.84716796875
-62.255859375
-67.7490234375
-67.7490234375
-44.86083984375
-31.1279296875
-33.87451171875
-27.4658203125
-29.296875
-28.38134765625
-29.296875
-35.70556640625
-38.4521484375
-40.283203125
-49.4384765625
-57.67822265625
-52.18505859375
-58.59375
-70.49560546875
-76.904296875
-94.29931640625
-91.552734375
-106.201171875
-120.849609375
-134.58251953125
-129.08935546875
-129.08935546875
-134.58251953125
-143.73779296875
-144.6533203125
-131.8359375
-129.08935546875
-134.58251953125
-136.41357421875
-128.173828125
-132.75146484375
-130.92041015625
-129.08935546875
-133.6669921875
-137.3291015625
-140.9912109375
-140.07568359375
-146.484375
-133.6669921875
-140.9912109375
-151.9775390625
-149.23095703125
-153.80859375
-169.37255859375
-181.2744140625
-195.00732421875
-195.9228515625
-208.740234375
-207.82470703125
-177.6123046875
-132.75146484375
-78.7353515625
-18.310546875
58.59375
140.07568359375
249.93896484375
356.14013671875
469.66552734375
612.48779296875
768.12744140625
889.892578125
996.09375
1113.28125
1156.31103515625
1092.22412109375
963.134765625
746.15478515625
495.30029296875
259.09423828125
26.55029296875
-184.9365234375
-356.14013671875
-443.115234375
-415.6494140625
-368.95751953125
-325.927734375
-286.56005859375
-249.93896484375
-207.82470703125
-158.38623046875
-119.0185546875
-76.904296875
-75.98876953125
-69.580078125
-54.931640625
-58.59375
-69.580078125
-62.255859375
-63.17138671875
-73.2421875
-79.65087890625
-69.580078125
-65.91796875
-65.00244140625
-69.580078125
-79.65087890625
-75.98876953125
-62.255859375
-52.18505859375
-61.34033203125
-63.17138671875
-61.34033203125
-64.0869140625
-65.00244140625
-64.0869140625
-65.00244140625
-58.59375
-60.4248046875
-54.01611328125
-48.52294921875
-45.7763671875
-48.52294921875
-43.9453125
-38.4521484375
-42.1142578125
-43.9453125
-38.4521484375
-43.9453125
-43.9453125
-19.22607421875
-21.97265625
-26.55029296875
-32.04345703125
-36.62109375
-24.71923828125
-10.986328125
-10.07080078125
-21.05712890625
-20.1416015625
-2.74658203125
-4.57763671875
-10.07080078125
0
16.4794921875
15.56396484375
13.73291015625
28.38134765625
27.4658203125
20.1416015625
29.296875
37.53662109375
34.7900390625
45.7763671875
48.52294921875
56.7626953125
54.01611328125
53.1005859375
58.59375
77.81982421875
90.63720703125
97.0458984375
103.45458984375
118.10302734375
115.3564453125
116.27197265625
129.08935546875
138.24462890625
149.23095703125
151.06201171875
165.71044921875
174.86572265625
187.68310546875
190.4296875
190.4296875
194.091796875
209.65576171875
212.40234375
218.81103515625
228.8818359375
226.13525390625
233.45947265625
237.12158203125
236.2060546875
243.5302734375
239.8681640625
252.685546875
252.685546875
236.2060546875
239.8681640625
247.1923828125
240.78369140625
244.44580078125
234.375
222.47314453125
226.13525390625
216.064453125
205.99365234375
195.00732421875
190.4296875
171.20361328125
165.71044921875
156.55517578125
160.21728515625
140.07568359375
123.59619140625
108.94775390625
81.48193359375
65.91796875
61.34033203125
47.607421875
34.7900390625
31.1279296875
4.57763671875
-13.73291015625
-12.8173828125
-26.55029296875
-43.9453125
-40.283203125
-45.7763671875
-56.7626953125
-62.255859375
-81.48193359375
-83.31298828125
-86.97509765625
-96.13037109375
-104.3701171875
-102.5390625
-99.79248046875
-103.45458984375
-114.44091796875
-119.0185546875
-123.59619140625
-114.44091796875
-115.3564453125
-120.849609375
-123.59619140625
-121.76513671875
-130.92041015625
-130.92041015625
-126.3427734375
-119.93408203125
-128.173828125
-121.76513671875
-124.51171875
-131.8359375
-132.75146484375
-128.173828125
-126.3427734375
-111.6943359375
-117.1875
-119.0185546875
-131.8359375
-138.24462890625
-130.92041015625
-127.25830078125
-127.25830078125
-127.25830078125
-121.76513671875
-120.849609375
-119.93408203125
-119.93408203125
-122.6806640625
-116.27197265625
-117.1875
-115.3564453125
-116.27197265625
-107.11669921875
-107.11669921875
-123.59619140625
-118.10302734375
-115.3564453125
-109.86328125
-107.11669921875
-115.3564453125
-111.6943359375
-113.525390625
-110.77880859375
-105.28564453125
-91.552734375
-82.3974609375
-84.228515625
-92.46826171875
-92.46826171875
-89.7216796875
-95.21484375
-103.45458984375
-97.96142578125
-83.31298828125
-91.552734375
-84.228515625
-95.21484375
-97.96142578125
-100.7080078125
-96.13037109375
-99.79248046875
-88.80615234375
-89.7216796875
-97.0458984375
-104.3701171875
-97.0458984375
-101.62353515625
-110.77880859375
-118.10302734375
-108.0322265625
-104.3701171875
-110.77880859375
-106.201171875
-105.28564453125
-105.28564453125
-106.201171875
-98.876953125
-98.876953125
-98.876953125
-102.5390625
-123.59619140625
-119.0185546875
-123.59619140625
-126.3427734375
-109.86328125
-108.0322265625
-121.76513671875
-120.849609375
-118.10302734375
-119.93408203125
-123.59619140625
-113.525390625
-123.59619140625
-133.6669921875
-122.6806640625
-123.59619140625
-126.3427734375
-128.173828125
-129.08935546875
-124.51171875
-129.08935546875
-139.16015625
-134.58251953125
-129.08935546875
-127.25830078125
-125.42724609375
-128.173828125
-127.25830078125
-127.25830078125
-132.75146484375
-141.90673828125
-132.75146484375
-128.173828125
-131.8359375
-137.3291015625
-138.24462890625
-134.58251953125
-138.24462890625
-136.41357421875
-150.146484375
-156.55517578125
-141.90673828125
-135.498046875
-136.41357421875
-132.75146484375
-139.16015625
-130.92041015625
-151.06201171875
-141.90673828125
-136.41357421875
-130.92041015625
-149.23095703125
-144.6533203125
-130.0048828125
-128.173828125
-128.173828125
-134.58251953125
-135.498046875
-138.24462890625
-132.75146484375
-130.0048828125
-132.75146484375
-137.3291015625
-143.73779296875
-151.9775390625
-150.146484375
-142.822265625
-145.56884765625
-133.6669921875
-131.8359375
-141.90673828125
-145.56884765625
-146.484375
-137.3291015625
-138.24462890625
-136.41357421875
-138.24462890625
-142.822265625
-133.6669921875
-138.24462890625
-145.56884765625
-142.822265625
-137.3291015625
-150.146484375
-146.484375
-138.24462890625
-142.822265625
-137.3291015625
-137.3291015625
-134.58251953125
-127.25830078125
-133.6669921875
-140.07568359375
-146.484375
-144.6533203125
-146.484375
-130.92041015625
-108.94775390625
-110.77880859375
-100.7080078125
-89.7216796875
-89.7216796875
-91.552734375
-90.63720703125
-87.890625
-80.56640625
-81.48193359375
-83.31298828125
-69.580078125
-62.255859375
-71.4111328125
-65.91796875
-49.4384765625
-43.02978515625
-46.69189453125
-49.4384765625
-75.98876953125
-84.228515625
-75.98876953125
-66.83349609375
-62.255859375
-56.7626953125
-63.17138671875
-77.81982421875
-96.13037109375
-106.201171875
-115.3564453125
-123.59619140625
-128.173828125
-126.3427734375
-136.41357421875
-134.58251953125
-141.90673828125
-151.06201171875
-143.73779296875
-153.80859375
-155.6396484375
-150.146484375
-150.146484375
-148.3154296875
-149.23095703125
-152.89306640625
-151.06201171875
-141.90673828125
-134.58251953125
-134.58251953125
-138.24462890625
-144.6533203125
-148.3154296875
-152.89306640625
-157.470703125
-162.9638671875
-180.35888671875
-195.9228515625
-205.99365234375
-216.97998046875
-209.65576171875
-191.34521484375
-153.80859375
-98.876953125
-32.958984375
54.01611328125
147.39990234375
258.1787109375
366.2109375
483.3984375
614.31884765625
758.97216796875
893.5546875
991.51611328125
1102.294921875
1162.7197265625
1107.7880859375
971.37451171875
753.47900390625
488.8916015625
246.27685546875
18.310546875
-184.02099609375
-354.30908203125
-442.19970703125
-440.36865234375
-388.18359375
-329.58984375
-289.306640625
-247.1923828125
-204.16259765625
-163.87939453125
-137.3291015625
-122.6806640625
-105.28564453125
-80.56640625
-57.67822265625
-61.34033203125
-61.34033203125
-72.32666015625
-71.4111328125
-72.32666015625
-69.580078125
-75.0732421875
-75.0732421875
-81.48193359375
-71.4111328125
-76.904296875
-75.0732421875
-71.4111328125
-69.580078125
-72.32666015625
-66.83349609375
-61.34033203125
-65.91796875
-73.2421875
-65.00244140625
-54.931640625
-54.01611328125
-46.69189453125
-45.7763671875
-51.26953125
-48.52294921875
-55.84716796875
-55.84716796875
-51.26953125
-52.18505859375
-54.01611328125
-48.52294921875
-41.19873046875
-33.87451171875
-38.4521484375
-32.958984375
-24.71923828125
-20.1416015625
-19.22607421875
-17.39501953125
-19.22607421875
-10.07080078125
-19.22607421875
-9.1552734375
-4.57763671875
-15.56396484375
-11.90185546875
-7.32421875
-1.8310546875
0.91552734375
-0.91552734375
10.07080078125
21.97265625
32.958984375
31.1279296875
24.71923828125
32.04345703125
38.4521484375
33.87451171875
40.283203125
53.1005859375
62.255859375
63.17138671875
77.81982421875
81.48193359375
85.14404296875
94.29931640625
107.11669921875
106.201171875
113.525390625
119.93408203125
126.3427734375
144.6533203125
154.72412109375
152.89306640625
151.06201171875
168.45703125
181.2744140625
177.6123046875
181.2744140625
195.00732421875
203.2470703125
210.5712890625
221.5576171875
236.2060546875
233.45947265625
235.29052734375
239.8681640625
236.2060546875
235.29052734375
231.62841796875
244.44580078125
240.78369140625
237.12158203125
231.62841796875
238.037109375
238.037109375
230.712890625
231.62841796875
219.7265625
207.82470703125
204.16259765625
195.9228515625
193.17626953125
180.35888671875
173.9501953125
156.55517578125
140.9912109375
119.93408203125
109.86328125
106.201171875
83.31298828125
67.7490234375
54.931640625
42.1142578125
37.53662109375
23.8037109375
9.1552734375
-0.91552734375
-9.1552734375
-24.71923828125
-40.283203125
-59.50927734375
-55.84716796875
-62.255859375
-69.580078125
-71.4111328125
-87.890625
-98.876953125
-102.5390625
-110.77880859375
-108.0322265625
-119.0185546875
-122.6806640625
-117.1875
-116.27197265625
-109.86328125
-115.3564453125
-125.42724609375
-123.59619140625
-130.0048828125
-126.3427734375
-119.0185546875
-123.59619140625
-130.0048828125
-130.0048828125
-132.75146484375
-135.498046875
-137.3291015625
-138.24462890625
-131.8359375
-127.25830078125
-137.3291015625
-134.58251953125
-128.173828125
-131.8359375
-136.41357421875
-139.16015625
-143.73779296875
-131.8359375
-131.8359375
-130.0048828125
-130.92041015625
-130.0048828125
-131.8359375
-126.3427734375
-128.173828125
-131.8359375
-133.6669921875
-125.42724609375
-127.25830078125
-135.498046875
-127.25830078125
-113.525390625
-107.11669921875
-115.3564453125
-114.44091796875
-109.86328125
-101.62353515625
-108.0322265625
-110.77880859375
-107.11669921875
-100.7080078125
-88.80615234375
-84.228515625
-87.890625
-85.14404296875
-94.29931640625
-93.3837890625
-104.3701171875
-97.96142578125
-94.29931640625
-89.7216796875
-87.890625
-86.97509765625
-90.63720703125
-95.21484375
-92.46826171875
-91.552734375
-81.48193359375
-81.48193359375
-86.97509765625
-94.29931640625
-105.28564453125
-101.62353515625
-96.13037109375
-92.46826171875
-99.79248046875
-95.21484375
-99.79248046875
-97.0458984375
-97.0458984375
-97.0458984375
-101.62353515625
-97.96142578125
-98.876953125
-108.0322265625
-108.0322265625
-107.11669921875
-98.876953125
-103.45458984375
-110.77880859375
-117.1875
-119.0185546875
-112.60986328125
-102.5390625
-106.201171875
-110.77880859375
-114.44091796875
-110.77880859375
-111.6943359375
-113.525390625
-117.1875
-109.86328125
-113.525390625
-115.3564453125
-114.44091796875
-127.25830078125
-125.42724609375
-132.75146484375
-130.0048828125
-122.6806640625
-127.25830078125
-121.76513671875
-118.10302734375
-119.93408203125
-127.25830078125
-131.8359375
-135.498046875
-130.92041015625
-133.6669921875
-127.25830078125
-122.6806640625
-131.8359375
-138.24462890625
-136.41357421875
-130.0048828125
-129.08935546875
-133.6669921875
-128.173828125
-130.92041015625
-127.25830078125
-132.75146484375
-137.3291015625
-133.6669921875
-140.9912109375
-140.9912109375
-137.3291015625
-143.73779296875
-140.07568359375
-136.41357421875
-139.16015625
-140.9912109375
-143.73779296875
-138.24462890625
-137.3291015625
-142.822265625
-139.16015625
-130.92041015625
-139.16015625
-141.90673828125
-143.73779296875
-142.822265625
-131.8359375
-130.92041015625
-135.498046875
-139.16015625
-139.16015625
-129.08935546875
-133.6669921875
-132.75146484375
-131.8359375
-141.90673828125
-136.41357421875
-130.92041015625
-143.73779296875
-157.470703125
-165.71044921875
-156.55517578125
-161.1328125
-132.75146484375
-122.6806640625
-123.59619140625
-127.25830078125
-142.822265625
-150.146484375
-141.90673828125
-131.8359375
-137.3291015625
-137.3291015625
-138.24462890625
-143.73779296875
-145.56884765625
-148.3154296875
-135.498046875
-130.0048828125
-141.90673828125
-145.56884765625
-143.73779296875
-140.9912109375
-134.58251953125
-131.8359375
-134.58251953125
-125.42724609375
-124.51171875
-120.849609375
-122.6806640625
-112.60986328125
-106.201171875
-106.201171875
-102.5390625
-100.7080078125
-103.45458984375
-96.13037109375
-75.98876953125
-65.00244140625
-67.7490234375
-73.2421875
-66.83349609375
-64.0869140625
-61.34033203125
-58.59375
-54.931640625
-53.1005859375
-63.17138671875
-75.0732421875
-80.56640625
-83.31298828125
-81.48193359375
-77.81982421875
-89.7216796875
-117.1875
-137.3291015625
-141.90673828125
-149.23095703125
-144.6533203125
-145.56884765625
-146.484375
-145.56884765625
-144.6533203125
-145.56884765625
-146.484375
-146.484375
-143.73779296875
-159.3017578125
-164.794921875
-152.89306640625
-149.23095703125
-153.80859375
-157.470703125
-165.71044921875
-160.21728515625
-148.3154296875
-145.56884765625
-151.9775390625
-155.6396484375
-155.6396484375
-162.9638671875
-174.86572265625
-193.17626953125
-204.16259765625
-215.14892578125
-210.5712890625
-210.5712890625
-181.2744140625
-127.25830078125
-71.4111328125
-2.74658203125
77.81982421875
178.52783203125
283.8134765625
393.6767578125
531.92138671875
671.9970703125
802.91748046875
926.513671875
1033.63037109375
1131.591796875
1093.1396484375
972.2900390625
771.78955078125
560.302734375
321.35009765625
96.13037109375
-94.29931640625
-257.26318359375
-365.29541015625
-393.6767578125
-368.0419921875
-346.98486328125
-311.279296875
-274.658203125
-241.69921875
-209.65576171875
-184.02099609375
-171.20361328125
-149.23095703125
-120.849609375
-102.5390625
-95.21484375
-74.15771484375
-76.904296875
-79.65087890625
-78.7353515625
-86.0595703125
-86.0595703125
-93.3837890625
-96.13037109375
-88.80615234375
-78.7353515625
-77.81982421875
-75.98876953125
-85.14404296875
-82.3974609375
-75.0732421875
-79.65087890625
-78.7353515625
-82.3974609375
-80.56640625
-74.15771484375
-69.580078125
-70.49560546875
-72.32666015625
-69.580078125
-69.580078125
-77.81982421875
-71.4111328125
-65.00244140625
-54.01611328125
-50.35400390625
-44.86083984375
-62.255859375
-54.931640625
-35.70556640625
-40.283203125
-47.607421875
-37.53662109375
-38.4521484375
-46.69189453125
-44.86083984375
-39.36767578125
-17.39501953125
-14.6484375
-23.8037109375
-24.71923828125
-15.56396484375
-16.4794921875
-10.07080078125
-3.662109375
-4.57763671875
0.91552734375
2.74658203125
9.1552734375
12.8173828125
14.6484375
18.310546875
17.39501953125
19.22607421875
24.71923828125
35.70556640625
39.36767578125
50.35400390625
57.67822265625
58.59375
67.7490234375
70.49560546875
61.34033203125
80.56640625
97.96142578125
100.7080078125
106.201171875
112.60986328125
128.173828125
131.8359375
142.822265625
148.3154296875
160.21728515625
164.794921875
164.794921875
170.2880859375
173.9501953125
187.68310546875
188.5986328125
198.66943359375
207.82470703125
217.8955078125
222.47314453125
225.2197265625
223.388671875
218.81103515625
219.7265625
219.7265625
219.7265625
221.5576171875
218.81103515625
215.14892578125
219.7265625
215.14892578125
204.16259765625
185.85205078125
183.10546875
178.52783203125
173.03466796875
168.45703125
150.146484375
137.3291015625
125.42724609375
118.10302734375
101.62353515625
88.80615234375
79.65087890625
74.15771484375
54.01611328125
42.1142578125
28.38134765625
5.4931640625
-18.310546875
-31.1279296875
-33.87451171875
-35.70556640625
-42.1142578125
-55.84716796875
-75.0732421875
-69.580078125
-81.48193359375
-95.21484375
-108.94775390625
-107.11669921875
-102.5390625
-103.45458984375
-109.86328125
-110.77880859375
-128.173828125
-130.0048828125
-130.0048828125
-139.16015625
-138.24462890625
-140.9912109375
-144.6533203125
-124.51171875
-130.92041015625
-139.16015625
-144.6533203125
-154.72412109375
-157.470703125
-153.80859375
-154.72412109375
-145.56884765625
-143.73779296875
-138.24462890625
-132.75146484375
-149.23095703125
-144.6533203125
-140.9912109375
-145.56884765625
-159.3017578125
-151.9775390625
-141.90673828125
-136.41357421875
-146.484375
-160.21728515625
-151.06201171875
-161.1328125
-146.484375
-134.58251953125
-134.58251953125
-141.90673828125
-140.07568359375
-134.58251953125
-133.6669921875
-138.24462890625
-140.9912109375
-139.16015625
-139.16015625
-132.75146484375
-124.51171875
-130.92041015625
-134.58251953125
-125.42724609375
-126.3427734375
-128.173828125
-122.6806640625
-119.93408203125
-122.6806640625
-124.51171875
-118.10302734375
-118.10302734375
-111.6943359375
-108.94775390625
-117.1875
-114.44091796875
-113.525390625
-113.525390625
-109.86328125
-123.59619140625
-120.849609375
-119.0185546875
-128.173828125
-139.16015625
-129.08935546875
-121.76513671875
-120.849609375
-114.44091796875
-115.3564453125
-117.1875
-124.51171875
-123.59619140625
-126.3427734375
-121.76513671875
-114.44091796875
-124.51171875
-122.6806640625
-123.59619140625
-125.42724609375
-127.25830078125
-124.51171875
-120.849609375
-133.6669921875
-133.6669921875
-127.25830078125
-123.59619140625
-122.6806640625
-135.498046875
-144.6533203125
-151.06201171875
-138.24462890625
-126.3427734375
-123.59619140625
-127.25830078125
-137.3291015625
-140.9912109375
-145.56884765625
-140.9912109375
-145.56884765625
-143.73779296875
-140.9912109375
-131.8359375
-139.16015625
-151.06201171875
-153.80859375
-148.3154296875
-158.38623046875
-151.06201171875
-138.24462890625
-141.90673828125
-151.06201171875
-143.73779296875
-140.07568359375
-148.3154296875
-160.21728515625
-154.72412109375
-154.72412109375
-151.9775390625
-155.6396484375
-151.06201171875
-152.89306640625
-151.06201171875
-163.87939453125
-171.20361328125
-159.3017578125
-161.1328125
-169.37255859375
-157.470703125
-151.9775390625
-153.80859375
-151.9775390625
-159.3017578125
-157.470703125
-152.89306640625
-152.89306640625
-162.04833984375
-158.38623046875
-148.3154296875
-151.06201171875
-156.55517578125
-151.06201171875
-143.73779296875
-151.9775390625
-153.80859375
-155.6396484375
-159.3017578125
-155.6396484375
-157.470703125
-164.794921875
-163.87939453125
-161.1328125
-160.21728515625
-161.1328125
-163.87939453125
-163.87939453125
-149.23095703125
-144.6533203125
-145.56884765625
-158.38623046875
-160.21728515625
-158.38623046875
-156.55517578125
-162.9638671875
-162.9638671875
-159.3017578125
-160.21728515625
-158.38623046875
-155.6396484375
-157.470703125
-141.90673828125
-134.58251953125
-140.07568359375
-132.75146484375
-122.6806640625
-108.0322265625
-91.552734375
-90.63720703125
-98.876953125
-98.876953125
-100.7080078125
-92.46826171875
-90.63720703125
-81.48193359375
-63.17138671875
-39.36767578125
-45.7763671875
-57.67822265625
-68.66455078125
-68.66455078125
-57.67822265625
-74.15771484375
-80.56640625
-79.65087890625
-80.56640625
-84.228515625
-86.97509765625
-98.876953125
-109.86328125
-128.173828125
-139.16015625
-142.822265625
-147.39990234375
-145.56884765625
-156.55517578125
-158.38623046875
-160.21728515625
-153.80859375
-163.87939453125
-169.37255859375
-171.20361328125
-168.45703125
-163.87939453125
-155.6396484375
-151.9775390625
-155.6396484375
-167.54150390625
-171.20361328125
-173.9501953125
-172.119140625
-168.45703125
-158.38623046875
-162.04833984375
-164.794921875
-167.54150390625
-175.78125
-182.18994140625
-187.68310546875
-202.33154296875
-212.40234375
-230.712890625
-235.29052734375
-224.30419921875
-188.5986328125
-132.75146484375
-78.7353515625
0.91552734375
80.56640625
165.71044921875
264.58740234375
380.859375
527.34375
670.166015625
799.25537109375
906.3720703125
1017.15087890625
1101.37939453125
1068.42041015625
965.88134765625
774.5361328125
548.40087890625
302.1240234375
88.80615234375
-110.77880859375
-282.89794921875
-396.42333984375
-415.6494140625
-382.6904296875
-350.64697265625
-317.68798828125
-287.4755859375
-242.61474609375
-198.66943359375
-189.51416015625
-161.1328125
-128.173828125
-98.876953125
-86.0595703125
-85.14404296875
-80.56640625
-77.81982421875
-79.65087890625
-90.63720703125
-95.21484375
-92.46826171875
-97.0458984375
-92.46826171875
-94.29931640625
-97.96142578125
-99.79248046875
-83.31298828125
-69.580078125
-81.48193359375
-92.46826171875
-83.31298828125
-82.3974609375
-77.81982421875
-85.14404296875
-83.31298828125
-77.81982421875
-75.98876953125
-69.580078125
-78.7353515625
-87.890625
-75.98876953125
-70.49560546875
-65.91796875
-60.4248046875
-58.59375
-55.84716796875
-54.01611328125
-50.35400390625
-57.67822265625
-59.50927734375
-58.59375
-47.607421875
-46.69189453125
-36.62109375
-40.283203125
-39.36767578125
-44.86083984375
-40.283203125
-33.87451171875
-21.97265625
-10.986328125
-10.986328125
-9.1552734375
-15.56396484375
-13.73291015625
-7.32421875
-1.8310546875
-2.74658203125
6.40869140625
10.986328125
21.05712890625
29.296875
36.62109375
32.958984375
39.36767578125
43.9453125
43.02978515625
45.7763671875
56.7626953125
71.4111328125
74.15771484375
77.81982421875
85.14404296875
94.29931640625
103.45458984375
109.86328125
119.93408203125
123.59619140625
135.498046875
150.146484375
158.38623046875
148.3154296875
158.38623046875
179.443359375
185.85205078125
184.02099609375
189.51416015625
200.50048828125
208.740234375
216.064453125
208.740234375
205.078125
211.48681640625
220.64208984375
224.30419921875
229.79736328125
242.61474609375
237.12158203125
230.712890625
230.712890625
219.7265625
216.97998046875
212.40234375
200.50048828125
208.740234375
200.50048828125
189.51416015625
173.03466796875
160.21728515625
157.470703125
160.21728515625
142.822265625
115.3564453125
97.0458984375
82.3974609375
72.32666015625
71.4111328125
55.84716796875
33.87451171875
14.6484375
-1.8310546875
-11.90185546875
-26.55029296875
-31.1279296875
-36.62109375
-46.69189453125
-62.255859375
-76.904296875
-86.0595703125
-93.3837890625
-96.13037109375
-100.7080078125
-103.45458984375
-115.3564453125
-123.59619140625
-124.51171875
-129.08935546875
-136.41357421875
-129.08935546875
-122.6806640625
-130.92041015625
-136.41357421875
-140.07568359375
-140.07568359375
-140.07568359375
-131.8359375
-147.39990234375
-153.80859375
-154.72412109375
-143.73779296875
-149.23095703125
-153.80859375
-154.72412109375
-152.89306640625
-145.56884765625
-140.07568359375
-144.6533203125
-156.55517578125
-145.56884765625
-140.9912109375
-146.484375
-151.06201171875
-145.56884765625
-151.9775390625
-156.55517578125
-154.72412109375
-151.9775390625
-145.56884765625
-140.9912109375
-143.73779296875
-145.56884765625
-147.39990234375
-142.822265625
-155.6396484375
-150.146484375
-143.73779296875
-143.73779296875
-130.92041015625
-122.6806640625
-118.10302734375
-126.3427734375
-126.3427734375
-122.6806640625
-125.42724609375
-132.75146484375
-129.08935546875
-131.8359375
-129.08935546875
-129.08935546875
-127.25830078125
-124.51171875
-118.10302734375
-117.1875
-119.0185546875
-113.525390625
-121.76513671875
-119.93408203125
-113.525390625
-116.27197265625
-120.849609375
-115.3564453125
-110.77880859375
-111.6943359375
-112.60986328125
-114.44091796875
-120.849609375
-111.6943359375
-111.6943359375
-118.10302734375
-120.849609375
-111.6943359375
-115.3564453125
-121.76513671875
-115.3564453125
-119.93408203125
-125.42724609375
-128.173828125
-131.8359375
-130.0048828125
-129.08935546875
-124.51171875
-129.08935546875
-126.3427734375
-121.76513671875
-133.6669921875
-137.3291015625
-141.90673828125
-134.58251953125
-137.3291015625
-144.6533203125
-134.58251953125
-138.24462890625
-144.6533203125
-151.06201171875
-144.6533203125
-135.498046875
-142.822265625
-140.07568359375
-143.73779296875
-141.90673828125
-139.16015625
-131.8359375
-145.56884765625
-142.822265625
-137.3291015625
-142.822265625
-141.90673828125
-142.822265625
-145.56884765625
-141.90673828125
-147.39990234375
-146.484375
-151.06201171875
-152.89306640625
-151.9775390625
-149.23095703125
-158.38623046875
-157.470703125
-156.55517578125
-157.470703125
-161.1328125
-154.72412109375
-155.6396484375
-151.06201171875
-141.90673828125
-149.23095703125
-158.38623046875
-154.72412109375
-153.80859375
-145.56884765625
-143.73779296875
-148.3154296875
-151.9775390625
-152.89306640625
-161.1328125
-162.9638671875
-156.55517578125
-151.9775390625
-148.3154296875
-149.23095703125
-150.146484375
-138.24462890625
-146.484375
-161.1328125
-164.794921875
-162.04833984375
-155.6396484375
-165.71044921875
-162.9638671875
-155.6396484375
-156.55517578125
-161.1328125
-158.38623046875
-146.484375
-152.89306640625
-154.72412109375
-148.3154296875
-154.72412109375
-152.89306640625
-146.484375
-152.89306640625
-151.06201171875
-146.484375
-151.9775390625
-152.89306640625
-151.9775390625
-155.6396484375
-158.38623046875
-162.9638671875
-162.04833984375
-153.80859375
-153.80859375
-157.470703125
-155.6396484375
-149.23095703125
-148.3154296875
-152.89306640625
-146.484375
-143.73779296875
-145.56884765625
-135.498046875
-129.08935546875
-127.25830078125
-119.0185546875
-121.76513671875
-118.10302734375
-104.3701171875
-97.0458984375
-93.3837890625
-93.3837890625
-94.29931640625
-82.3974609375
-87.890625
-80.56640625
-65.91796875
-72.32666015625
-78.7353515625
-81.48193359375
-77.81982421875
-78.7353515625
-71.4111328125
-81.48193359375
-91.552734375
-98.876953125
-108.94775390625
-106.201171875
-101.62353515625
-118.10302734375
-127.25830078125
-139.16015625
-153.80859375
-153.80859375
-158.38623046875
-160.21728515625
-150.146484375
-154.72412109375
-156.55517578125
-166.6259765625
-174.86572265625
-164.794921875
-158.38623046875
-155.6396484375
-167.54150390625
-172.119140625
-171.20361328125
-159.3017578125
-160.21728515625
-162.9638671875
-167.54150390625
-167.54150390625
-172.119140625
-184.9365234375
-175.78125
-174.86572265625
-187.68310546875
-193.17626953125
-196.83837890625
-206.9091796875
-217.8955078125
-222.47314453125
-216.97998046875
-190.4296875
-146.484375
-96.13037109375
-34.7900390625
55.84716796875
148.3154296875
256.34765625
363.46435546875
487.97607421875
629.8828125
777.28271484375
901.79443359375
1002.50244140625
1120.60546875
1145.32470703125
1085.8154296875
923.76708984375
693.05419921875
433.9599609375
199.5849609375
-14.6484375
-218.81103515625
-381.77490234375
-444.9462890625
-411.9873046875
-357.0556640625
-320.4345703125
-277.40478515625
-225.2197265625
-195.9228515625
-172.119140625
-147.39990234375
-112.60986328125
-88.80615234375
-75.98876953125
-74.15771484375
-75.0732421875
-84.228515625
-91.552734375
-97.96142578125
-99.79248046875
-100.7080078125
-99.79248046875
-103.45458984375
-97.96142578125
-87.890625
-79.65087890625
-93.3837890625
-91.552734375
-78.7353515625
-82.3974609375
-91.552734375
-90.63720703125
-77.81982421875
-78.7353515625
-86.97509765625
-77.81982421875
-75.98876953125
-79.65087890625
-82.3974609375
-71.4111328125
-63.17138671875
-65.00244140625
-63.17138671875
-68.66455078125
-54.931640625
-54.01611328125
-46.69189453125
-41.19873046875
-52.18505859375
-56.7626953125
-50.35400390625
-39.36767578125
-40.283203125
-43.9453125
-39.36767578125
-36.62109375
-33.87451171875
-34.7900390625
-34.7900390625
-21.97265625
-11.90185546875
-11.90185546875
-10.07080078125
-2.74658203125
-1.8310546875
-1.8310546875
-0.91552734375
5.4931640625
4.57763671875
1.8310546875
14.6484375
25.634765625
27.4658203125
29.296875
35.70556640625
39.36767578125
37.53662109375
34.7900390625
38.4521484375
54.931640625
74.15771484375
78.7353515625
81.48193359375
97.0458984375
104.3701171875
111.6943359375
112.60986328125
121.76513671875
140.9912109375
151.06201171875
151.9775390625
162.04833984375
173.03466796875
181.2744140625
173.03466796875
179.443359375
191.34521484375
205.99365234375
218.81103515625
222.47314453125
216.064453125
216.064453125
226.13525390625
225.2197265625
223.388671875
230.712890625
237.12158203125
235.29052734375
232.5439453125
234.375
234.375
236.2060546875
239.8681640625
225.2197265625
216.97998046875
206.9091796875
204.16259765625
204.16259765625
189.51416015625
176.69677734375
167.54150390625
160.21728515625
151.9775390625
132.75146484375
120.849609375
108.94775390625
89.7216796875
65.00244140625
39.36767578125
31.1279296875
11.90185546875
8.23974609375
-4.57763671875
-11.90185546875
-21.05712890625
-29.296875
-39.36767578125
-47.607421875
-62.255859375
-80.56640625
-89.7216796875
-90.63720703125
-104.3701171875
-113.525390625
-106.201171875
-114.44091796875
-122.6806640625
-121.76513671875
-125.42724609375
-136.41357421875
-133.6669921875
-137.3291015625
-143.73779296875
-140.07568359375
-140.9912109375
-135.498046875
-132.75146484375
-131.8359375
-141.90673828125
-143.73779296875
-138.24462890625
-137.3291015625
-139.16015625
-132.75146484375
-145.56884765625
-149.23095703125
-146.484375
-137.3291015625
-142.822265625
-142.822265625
-141.90673828125
-141.90673828125
-130.92041015625
-135.498046875
-136.41357421875
-132.75146484375
-130.0048828125
-140.9912109375
-146.484375
-137.3291015625
-131.8359375
-134.58251953125
-137.3291015625
-135.498046875
-131.8359375
-135.498046875
-137.3291015625
-137.3291015625
-130.0048828125
-123.59619140625
-118.10302734375
-114.44091796875
-121.76513671875
-130.92041015625
-124.51171875
-116.27197265625
-117.1875
-121.76513671875
-119.0185546875
-116.27197265625
-124.51171875
-125.42724609375
-119.0185546875
-120.849609375
-116.27197265625
-107.11669921875
-110.77880859375
-131.8359375
-140.07568359375
-122.6806640625
-106.201171875
-105.28564453125
-109.86328125
-108.0322265625
-114.44091796875
-121.76513671875
-114.44091796875
-108.0322265625
-113.525390625
-115.3564453125
-109.86328125
-117.1875
-108.94775390625
-102.5390625
-110.77880859375
-114.44091796875
-104.3701171875
-114.44091796875
-129.08935546875
-119.93408203125
-119.0185546875
-108.0322265625
-105.28564453125
-111.6943359375
-114.44091796875
-120.849609375
-118.10302734375
-119.93408203125
-130.0048828125
-130.92041015625
-126.3427734375
-125.42724609375
-137.3291015625
-135.498046875
-137.3291015625
-139.16015625
-136.41357421875
-131.8359375
-133.6669921875
-132.75146484375
-134.58251953125
-150.146484375
-151.9775390625
-136.41357421875
-138.24462890625
-138.24462890625
-138.24462890625
-149.23095703125
-149.23095703125
-143.73779296875
-142.822265625
-145.56884765625
-150.146484375
-140.07568359375
-139.16015625
-138.24462890625
-134.58251953125
-140.07568359375
-145.56884765625
-136.41357421875
-137.3291015625
-139.16015625
-142.822265625
-140.9912109375
-144.6533203125
-146.484375
-143.73779296875
-140.9912109375
-143.73779296875
-142.822265625
-142.822265625
-148.3154296875
-151.9775390625
-150.146484375
-147.39990234375
-143.73779296875
-141.90673828125
-136.41357421875
-144.6533203125
-140.9912109375
-146.484375
-142.822265625
-145.56884765625
-146.484375
-145.56884765625
-152.89306640625
-149.23095703125
-148.3154296875
-147.39990234375
-150.146484375
-158.38623046875
-151.06201171875
-151.06201171875
-149.23095703125
-143.73779296875
-143.73779296875
-140.9912109375
-145.56884765625
-145.56884765625
-146.484375
-149.23095703125
-155.6396484375
-157.470703125
-148.3154296875
-146.484375
-149.23095703125
-150.146484375
-153.80859375
-159.3017578125
-157.470703125
-153.80859375
-146.484375
-144.6533203125
-145.56884765625
-141.90673828125
-138.24462890625
-141.90673828125
-146.484375
-152.89306640625
-142.822265625
-152.89306640625
-161.1328125
-162.9638671875
-140.9912109375
-139.16015625
-151.9775390625
-153.80859375
-149.23095703125
-138.24462890625
-138.24462890625
-125.42724609375
-121.76513671875
-119.0185546875
-113.525390625
-98.876953125
-90.63720703125
-85.14404296875
-81.48193359375
-87.890625
-95.21484375
-108.0322265625
-106.201171875
-81.48193359375
-67.7490234375
-65.00244140625
-60.4248046875
-52.18505859375
-50.35400390625
-65.91796875
-64.0869140625
-62.255859375
-65.00244140625
-76.904296875
-77.81982421875
-86.97509765625
-88.80615234375
-86.97509765625
-105.28564453125
-118.10302734375
-137.3291015625
-138.24462890625
-138.24462890625
-136.41357421875
-136.41357421875
-134.58251953125
-135.498046875
-139.16015625
-153.80859375
-166.6259765625
-168.45703125
-150.146484375
-148.3154296875
-141.90673828125
-151.06201171875
-155.6396484375
-162.04833984375
-161.1328125
-151.06201171875
-151.06201171875
-150.146484375
-155.6396484375
-155.6396484375
-162.04833984375
-163.87939453125
-165.71044921875
-180.35888671875
-185.85205078125
-199.5849609375
-216.064453125
-210.5712890625
-205.078125
-176.69677734375
-114.44091796875
-62.255859375
10.986328125
104.3701171875
192.2607421875
295.71533203125
412.90283203125
549.31640625
689.39208984375
830.38330078125
941.162109375
1059.26513671875
1153.564453125
1133.4228515625
1050.10986328125
863.34228515625
625.30517578125
374.45068359375
138.24462890625
-92.46826171875
-285.64453125
-414.73388671875
-424.8046875
-380.859375
-326.84326171875
-281.06689453125
-249.0234375
-213.31787109375
-184.02099609375
-159.3017578125
-123.59619140625
-86.0595703125
-68.66455078125
-53.1005859375
-43.9453125
-57.67822265625
-65.91796875
-74.15771484375
-72.32666015625
-78.7353515625
-84.228515625
-82.3974609375
-82.3974609375
-80.56640625
-78.7353515625
-79.65087890625
-75.98876953125
-74.15771484375
-70.49560546875
-70.49560546875
-67.7490234375
-75.0732421875
-71.4111328125
-65.91796875
-58.59375
-54.931640625
-58.59375
-65.00244140625
-63.17138671875
-69.580078125
-53.1005859375
-52.18505859375
-48.52294921875
-36.62109375
-46.69189453125
-43.02978515625
-38.4521484375
-37.53662109375
-42.1142578125
-37.53662109375
-39.36767578125
-26.55029296875
-34.7900390625
-19.22607421875
-17.39501953125
-18.310546875
-11.90185546875
-9.1552734375
-15.56396484375
-10.986328125
-7.32421875
-0.91552734375
3.662109375
7.32421875
-1.8310546875
1.8310546875
18.310546875
32.04345703125
23.8037109375
16.4794921875
32.958984375
39.36767578125
48.52294921875
47.607421875
46.69189453125
48.52294921875
56.7626953125
67.7490234375
65.91796875
75.0732421875
86.97509765625
95.21484375
102.5390625
103.45458984375
108.94775390625
124.51171875
136.41357421875
143.73779296875
152.89306640625
155.6396484375
164.794921875
173.03466796875
179.443359375
190.4296875
198.66943359375
204.16259765625
215.14892578125
219.7265625
216.97998046875
220.64208984375
225.2197265625
227.05078125
242.61474609375
258.1787109375
249.0234375
244.44580078125
252.685546875
256.34765625
253.60107421875
248.10791015625
245.361328125
253.60107421875
251.77001953125
249.0234375
239.8681640625
227.05078125
213.31787109375
208.740234375
202.33154296875
192.2607421875
170.2880859375
162.9638671875
148.3154296875
139.16015625
129.08935546875
115.3564453125
96.13037109375
84.228515625
70.49560546875
48.52294921875
28.38134765625
19.22607421875
21.97265625
4.57763671875
-11.90185546875
-15.56396484375
-26.55029296875
-38.4521484375
-48.52294921875
-62.255859375
-68.66455078125
-70.49560546875
-83.31298828125
-82.3974609375
-86.0595703125
-99.79248046875
-100.7080078125
-98.876953125
-105.28564453125
-118.10302734375
-121.76513671875
-121.76513671875
-128.173828125
-124.51171875
-114.44091796875
-123.59619140625
-128.173828125
-122.6806640625
-121.76513671875
-112.60986328125
-117.1875
-119.93408203125
-122.6806640625
-119.93408203125
-124.51171875
-130.0048828125
-129.08935546875
-130.92041015625
-124.51171875
-125.42724609375
-121.76513671875
-120.849609375
-130.92041015625
-132.75146484375
-120.849609375
-123.59619140625
-132.75146484375
-134.58251953125
-122.6806640625
-117.1875
-115.3564453125
-111.6943359375
-107.11669921875
-113.525390625
-116.27197265625
-120.849609375
-120.849609375
-116.27197265625
-110.77880859375
-115.3564453125
-120.849609375
-122.6806640625
-119.93408203125
-106.201171875
-101.62353515625
-103.45458984375
-104.3701171875
-108.94775390625
-101.62353515625
-102.5390625
-103.45458984375
-101.62353515625
-102.5390625
-108.0322265625
-106.201171875
-108.0322265625
-109.86328125
-108.94775390625
-114.44091796875
-105.28564453125
-102.5390625
-105.28564453125
-95.21484375
-97.0458984375
-105.28564453125
-100.7080078125
-94.29931640625
-88.80615234375
-90.63720703125
-88.80615234375
-96.13037109375
-106.201171875
-114.44091796875
-112.60986328125
-98.876953125
-100.7080078125
-108.0322265625
-99.79248046875
-101.62353515625
-108.0322265625
-108.94775390625
-106.201171875
-107.11669921875
-105.28564453125
-108.94775390625
-108.94775390625
-114.44091796875
-115.3564453125
-120.849609375
-123.59619140625
-119.93408203125
-115.3564453125
-107.11669921875
-104.3701171875
-108.0322265625
-116.27197265625
-127.25830078125
-123.59619140625
-119.0185546875
-120.849609375
-116.27197265625
-119.93408203125
-118.10302734375
-118.10302734375
-121.76513671875
-116.27197265625
-116.27197265625
-120.849609375
-126.3427734375
-127.25830078125
-129.08935546875
-127.25830078125
-134.58251953125
-128.173828125
-127.25830078125
-132.75146484375
-133.6669921875
-136.41357421875
-147.39990234375
-140.07568359375
-137.3291015625
-140.07568359375
-137.3291015625
-130.0048828125
-129.08935546875
-126.3427734375
-132.75146484375
-140.07568359375
-137.3291015625
-123.59619140625
-123.59619140625
-126.3427734375
-130.0048828125
-130.0048828125
-132.75146484375
-136.41357421875
-134.58251953125
-130.92041015625
-130.92041015625
-143.73779296875
-140.07568359375
-137.3291015625
-134.58251953125
-133.6669921875
-135.498046875
-139.16015625
-146.484375
-142.822265625
-140.07568359375
-137.3291015625
-129.08935546875
-124.51171875
-129.08935546875
-133.6669921875
-134.58251953125
-140.07568359375
-134.58251953125
-149.23095703125
-140.07568359375
-135.498046875
-142.822265625
-140.9912109375
-132.75146484375
-132.75146484375
-131.8359375
-128.173828125
-128.173828125
-130.92041015625
-132.75146484375
-136.41357421875
-148.3154296875
-152.89306640625
-132.75146484375
-131.8359375
-130.92041015625
-137.3291015625
-136.41357421875
-139.16015625
-137.3291015625
-130.92041015625
-129.08935546875
-143.73779296875
-136.41357421875
-141.90673828125
-140.07568359375
-147.39990234375
-140.9912109375
-140.9912109375
-145.56884765625
-143.73779296875
-132.75146484375
-129.08935546875
-122.6806640625
-118.10302734375
-107.11669921875
-109.86328125
-92.46826171875
-85.14404296875
-90.63720703125
-85.14404296875
-76.904296875
-74.15771484375
-80.56640625
-77.81982421875
-65.91796875
-45.7763671875
-53.1005859375
-52.18505859375
-46.69189453125
-39.36767578125
-39.36767578125
-43.02978515625
-54.931640625
-54.931640625
-58.59375
-74.15771484375
-86.0595703125
-77.81982421875
-81.48193359375
-94.29931640625
-123.59619140625
-120.849609375
-112.60986328125
-116.27197265625
-115.3564453125
-119.93408203125
-126.3427734375
-122.6806640625
-137.3291015625
-139.16015625
-140.07568359375
-145.56884765625
-151.06201171875
-142.822265625
-136.41357421875
-135.498046875
-140.07568359375
-140.07568359375
-141.90673828125
-140.9912109375
-145.56884765625
-147.39990234375
-138.24462890625
-131.8359375
-134.58251953125
-138.24462890625
-154.72412109375
-171.20361328125
-183.10546875
-185.85205078125
-193.17626953125
-202.33154296875
-205.078125
-167.54150390625
-99.79248046875
-48.52294921875
11.90185546875
106.201171875
212.40234375
319.51904296875
416.56494140625
548.40087890625
702.20947265625
832.21435546875
938.41552734375
1057.43408203125
1148.0712890625
1119.68994140625
1025.390625
827.63671875
596.923828125
357.97119140625
151.06201171875
-45.7763671875
-234.375
-368.0419921875
-390.0146484375
-364.3798828125
-327.7587890625
-281.982421875
-244.44580078125
-205.078125
-173.03466796875
-158.38623046875
-125.42724609375
-91.552734375
-79.65087890625
-71.4111328125
-57.67822265625
-57.67822265625
-59.50927734375
-64.0869140625
-69.580078125
-67.7490234375
-62.255859375
-62.255859375
-63.17138671875
-63.17138671875
-61.34033203125
-67.7490234375
-64.0869140625
-61.34033203125
-62.255859375
-66.83349609375
-59.50927734375
-59.50927734375
-64.0869140625
-58.59375
-51.26953125
-45.7763671875
-47.607421875
-50.35400390625
-65.00244140625
-57.67822265625
-49.4384765625
-40.283203125
-44.86083984375
-32.958984375
-21.97265625
-12.8173828125
-24.71923828125
-33.87451171875
-38.4521484375
-24.71923828125
-21.05712890625
-28.38134765625
-24.71923828125
-5.4931640625
-2.74658203125
-14.6484375
-4.57763671875
0.91552734375
4.57763671875
0.91552734375
5.4931640625
9.1552734375
18.310546875
22.88818359375
26.55029296875
21.05712890625
20.1416015625
22.88818359375
30.21240234375
32.04345703125
37.53662109375
52.18505859375
43.9453125
49.4384765625
67.7490234375
70.49560546875
67.7490234375
71.4111328125
65.91796875
75.0732421875
90.63720703125
105.28564453125
119.93408203125
116.27197265625
122.6806640625
138.24462890625
132.75146484375
145.56884765625
158.38623046875
158.38623046875
164.794921875
178.52783203125
185.85205078125
197.75390625
195.00732421875
202.33154296875
210.5712890625
216.97998046875
222.47314453125
220.64208984375
218.81103515625
226.13525390625
240.78369140625
236.2060546875
240.78369140625
246.27685546875
258.1787109375
255.43212890625
254.5166015625
260.92529296875
258.1787109375
257.26318359375
251.77001953125
241.69921875
225.2197265625
222.47314453125
216.064453125
213.31787109375
204.16259765625
199.5849609375
187.68310546875
182.18994140625
164.794921875
142.822265625
131.8359375
123.59619140625
108.0322265625
98.876953125
88.80615234375
73.2421875
61.34033203125
47.607421875
28.38134765625
18.310546875
10.07080078125
-3.662109375
-15.56396484375
-30.21240234375
-43.02978515625
-45.7763671875
-52.18505859375
-67.7490234375
-73.2421875
-81.48193359375
-74.15771484375
-78.7353515625
-77.81982421875
-97.0458984375
-98.876953125
-94.29931640625
-95.21484375
-108.0322265625
-117.1875
-119.0185546875
-117.1875
-113.525390625
-112.60986328125
-112.60986328125
-107.11669921875
-105.28564453125
-101.62353515625
-112.60986328125
-113.525390625
-115.3564453125
-119.0185546875
-117.1875
-121.76513671875
-128.173828125
-134.58251953125
-129.08935546875
-118.10302734375
-113.525390625
-108.94775390625
-110.77880859375
-117.1875
-116.27197265625
-100.7080078125
-104.3701171875
-108.0322265625
-111.6943359375
-112.60986328125
-106.201171875
-107.11669921875
-114.44091796875
-108.0322265625
-96.13037109375
-104.3701171875
-109.86328125
-108.94775390625
-100.7080078125
-99.79248046875
-86.0595703125
-104.3701171875
-106.201171875
-103.45458984375
-100.7080078125
-97.96142578125
-99.79248046875
-91.552734375
-99.79248046875
-99.79248046875
-89.7216796875
-88.80615234375
-101.62353515625
-97.96142578125
-92.46826171875
-87.890625
-83.31298828125
-74.15771484375
-76.904296875
-81.48193359375
-81.48193359375
-79.65087890625
-85.14404296875
-97.0458984375
-96.13037109375
-88.80615234375
-93.3837890625
-86.0595703125
-86.97509765625
-89.7216796875
-85.14404296875
-86.97509765625
-81.48193359375
-78.7353515625
-76.904296875
-89.7216796875
-97.96142578125
-100.7080078125
-94.29931640625
-100.7080078125
-114.44091796875
-114.44091796875
-105.28564453125
-92.46826171875
-92.46826171875
-100.7080078125
-98.876953125
-97.96142578125
-108.94775390625
-109.86328125
-105.28564453125
-102.5390625
-99.79248046875
-101.62353515625
-111.6943359375
-111.6943359375
-113.525390625
-109.86328125
-113.525390625
-119.93408203125
-115.3564453125
-111.6943359375
-98.876953125
-101.62353515625
-108.94775390625
-107.11669921875
-107.11669921875
-98.876953125
-108.94775390625
-124.51171875
-127.25830078125
-122.6806640625
-119.0185546875
-136.41357421875
-119.93408203125
-113.525390625
-114.44091796875
-115.3564453125
-110.77880859375
-115.3564453125
-117.1875
-109.86328125
-112.60986328125
-128.173828125
-126.3427734375
-121.76513671875
-117.1875
-121.76513671875
-126.3427734375
-122.6806640625
-120.849609375
-120.849609375
-126.3427734375
-119.93408203125
-116.27197265625
-117.1875
-121.76513671875
-121.76513671875
-119.93408203125
-110.77880859375
-115.3564453125
-117.1875
-127.25830078125
-117.1875
-125.42724609375
-131.8359375
-125.42724609375
-128.173828125
-120.849609375
-124.51171875
-131.8359375
-124.51171875
-119.0185546875
-124.51171875
-110.77880859375
-110.77880859375
-122.6806640625
-122.6806640625
-125.42724609375
-125.42724609375
-122.6806640625
-119.93408203125
-112.60986328125
-106.201171875
-118.10302734375
-117.1875
-119.93408203125
-126.3427734375
-123.59619140625
-117.1875
-107.11669921875
-93.3837890625
-88.80615234375
-81.48193359375
-73.2421875
-70.49560546875
-68.66455078125
-72.32666015625
-69.580078125
-72.32666015625
-65.91796875
-57.67822265625
-37.53662109375
-31.1279296875
-29.296875
-26.55029296875
-19.22607421875
-21.05712890625
-25.634765625
-28.38134765625
-31.1279296875
-40.283203125
-40.283203125
-47.607421875
-50.35400390625
-46.69189453125
-47.607421875
-52.18505859375
-68.66455078125
-84.228515625
-100.7080078125
-117.1875
-126.3427734375
-117.1875
-111.6943359375
-118.10302734375
-117.1875
-113.525390625
-114.44091796875
-126.3427734375
-124.51171875
-125.42724609375
-128.173828125
-124.51171875
-121.76513671875
-117.1875
-117.1875
-121.76513671875
-120.849609375
-117.1875
-129.08935546875
-136.41357421875
-128.173828125
-119.0185546875
-134.58251953125
-139.16015625
-144.6533203125
-147.39990234375
-152.89306640625
-171.20361328125
-196.83837890625
-200.50048828125
-180.35888671875
-140.9912109375
-85.14404296875
-46.69189453125
9.1552734375
86.97509765625
186.767578125
297.54638671875
403.74755859375
521.8505859375
659.1796875
794.677734375
900.87890625
1012.5732421875
1116.02783203125
1100.4638671875
1011.65771484375
829.4677734375
610.65673828125
365.29541015625
154.72412109375
-33.87451171875
-219.7265625
-343.32275390625
-376.28173828125
-335.99853515625
-311.279296875
-284.72900390625
-240.78369140625
-202.33154296875
-174.86572265625
-154.72412109375
-151.9775390625
-136.41357421875
-99.79248046875
-57.67822265625
-50.35400390625
-62.255859375
-60.4248046875
-47.607421875
-54.01611328125
-55.84716796875
-54.01611328125
-49.4384765625
-52.18505859375
-60.4248046875
-54.01611328125
-51.26953125
-61.34033203125
-54.01611328125
-51.26953125
-58.59375
-58.59375
-49.4384765625
-39.36767578125
-41.19873046875
-36.62109375
-43.02978515625
-34.7900390625
-35.70556640625
-30.21240234375
-33.87451171875
-34.7900390625
-32.04345703125
-37.53662109375
-25.634765625
-24.71923828125
-22.88818359375
-21.97265625
-24.71923828125
-14.6484375
-11.90185546875
-22.88818359375
-20.1416015625
-0.91552734375
-5.4931640625
0.91552734375
-1.8310546875
0.91552734375
8.23974609375
9.1552734375
18.310546875
14.6484375
21.05712890625
18.310546875
15.56396484375
28.38134765625
33.87451171875
34.7900390625
31.1279296875
48.52294921875
62.255859375
60.4248046875
59.50927734375
59.50927734375
75.0732421875
81.48193359375
70.49560546875
78.7353515625
87.890625
101.62353515625
94.29931640625
107.11669921875
119.0185546875
127.25830078125
130.92041015625
133.6669921875
141.90673828125
142.822265625
151.06201171875
162.04833984375
169.37255859375
175.78125
188.5986328125
199.5849609375
195.9228515625
202.33154296875
219.7265625
228.8818359375
238.037109375
243.5302734375
241.69921875
253.60107421875
249.93896484375
251.77001953125
251.77001953125
251.77001953125
250.8544921875
249.93896484375
249.93896484375
256.34765625
258.1787109375
256.34765625
255.43212890625
247.1923828125
241.69921875
238.037109375
239.8681640625
238.037109375
234.375
216.97998046875
206.9091796875
201.416015625
179.443359375
158.38623046875
158.38623046875
153.80859375
135.498046875
109.86328125
93.3837890625
78.7353515625
68.66455078125
54.931640625
42.1142578125
36.62109375
27.4658203125
17.39501953125
9.1552734375
-2.74658203125
-15.56396484375
-28.38134765625
-27.4658203125
-42.1142578125
-56.7626953125
-65.00244140625
-67.7490234375
-56.7626953125
-59.50927734375
-69.580078125
-71.4111328125
-73.2421875
-80.56640625
-93.3837890625
-99.79248046875
-101.62353515625
-106.201171875
-98.876953125
-88.80615234375
-91.552734375
-93.3837890625
-93.3837890625
-87.890625
-90.63720703125
-97.0458984375
-103.45458984375
-97.96142578125
-93.3837890625
-103.45458984375
-100.7080078125
-93.3837890625
-102.5390625
-98.876953125
-97.96142578125
-98.876953125
-103.45458984375
-96.13037109375
-96.13037109375
-95.21484375
-86.97509765625
-91.552734375
-97.0458984375
-96.13037109375
-103.45458984375
-105.28564453125
-101.62353515625
-99.79248046875
-101.62353515625
-87.890625
-79.65087890625
-88.80615234375
-87.890625
-93.3837890625
-86.0595703125
-85.14404296875
-80.56640625
-80.56640625
-75.98876953125
-69.580078125
-65.00244140625
-73.2421875
-87.890625
-85.14404296875
-73.2421875
-75.0732421875
-72.32666015625
-62.255859375
-64.0869140625
-71.4111328125
-75.98876953125
-68.66455078125
-65.91796875
-66.83349609375
-74.15771484375
-77.81982421875
-75.98876953125
-65.91796875
-75.0732421875
-73.2421875
-69.580078125
-67.7490234375
-72.32666015625
-72.32666015625
-78.7353515625
-81.48193359375
-82.3974609375
-75.0732421875
-78.7353515625
-78.7353515625
-79.65087890625
-87.890625
-88.80615234375
-91.552734375
-85.14404296875
-82.3974609375
-90.63720703125
-88.80615234375
-97.0458984375
-95.21484375
-84.228515625
-78.7353515625
-80.56640625
-83.31298828125
-80.56640625
-75.98876953125
-79.65087890625
-83.31298828125
-86.97509765625
-95.21484375
-104.3701171875
-104.3701171875
-107.11669921875
-103.45458984375
-91.552734375
-82.3974609375
-92.46826171875
-94.29931640625
-108.0322265625
-106.201171875
-103.45458984375
-109.86328125
-104.3701171875
-94.29931640625
-104.3701171875
-108.0322265625
-104.3701171875
-97.96142578125
-96.13037109375
-97.96142578125
-108.94775390625
-108.0322265625
-99.79248046875
-98.876953125
-98.876953125
-98.876953125
-104.3701171875
-115.3564453125
-122.6806640625
-112.60986328125
-112.60986328125
-110.77880859375
-106.201171875
-111.6943359375
-109.86328125
-109.86328125
-113.525390625
-117.1875
-119.0185546875
-114.44091796875
-114.44091796875
-114.44091796875
-112.60986328125
-101.62353515625
-108.0322265625
-119.0185546875
-107.11669921875
-104.3701171875
-97.96142578125
-101.62353515625
-96.13037109375
-100.7080078125
-104.3701171875
-110.77880859375
-106.201171875
-111.6943359375
-118.10302734375
-118.10302734375
-108.0322265625
-99.79248046875
-107.11669921875
-112.60986328125
-108.94775390625
-113.525390625
-107.11669921875
-106.201171875
-107.11669921875
-106.201171875
-105.28564453125
-108.0322265625
-97.0458984375
-103.45458984375
-106.201171875
-109.86328125
-119.0185546875
-106.201171875
-106.201171875
-106.201171875
-107.11669921875
-110.77880859375
-108.0322265625
-90.63720703125
-81.48193359375
-80.56640625
-78.7353515625
-78.7353515625
-62.255859375
-67.7490234375
-74.15771484375
-85.14404296875
-73.2421875
-47.607421875
-29.296875
-15.56396484375
-10.07080078125
-4.57763671875
0
8.23974609375
1.8310546875
-0.91552734375
-14.6484375
-21.97265625
-20.1416015625
-18.310546875
-23.8037109375
-30.21240234375
-33.87451171875
-34.7900390625
-50.35400390625
-62.255859375
-66.83349609375
-78.7353515625
-87.890625
-88.80615234375
-86.0595703125
-91.552734375
-100.7080078125
-96.13037109375
-110.77880859375
-126.3427734375
-135.498046875
-123.59619140625
-124.51171875
-119.0185546875
-114.44091796875
-111.6943359375
-124.51171875
-120.849609375
-119.0185546875
-117.1875
-117.1875
-116.27197265625
-110.77880859375
-108.94775390625
-119.93408203125
-121.76513671875
-120.849609375
-127.25830078125
-137.3291015625
-150.146484375
-168.45703125
-184.9365234375
-195.9228515625
-184.02099609375
-150.146484375
-93.3837890625
-47.607421875
22.88818359375
106.201171875
192.2607421875
300.29296875
415.6494140625
550.23193359375
688.4765625
833.1298828125
944.82421875
1061.09619140625
1162.7197265625
1167.29736328125
1093.1396484375
914.61181640625
678.40576171875
422.9736328125
195.9228515625
-32.04345703125
-227.05078125
-377.197265625
-415.6494140625
-368.95751953125
-315.85693359375
-280.1513671875
-239.8681640625
-186.767578125
-147.39990234375
-127.25830078125
-101.62353515625
-65.91796875
-42.1142578125
-27.4658203125
-24.71923828125
-26.55029296875
-33.87451171875
-48.52294921875
-51.26953125
-43.02978515625
-46.69189453125
-57.67822265625
-59.50927734375
-65.00244140625
-61.34033203125
-52.18505859375
-44.86083984375
-43.02978515625
-42.1142578125
-38.4521484375
-39.36767578125
-41.19873046875
-41.19873046875
-38.4521484375
-37.53662109375
-43.02978515625
-37.53662109375
-35.70556640625
-31.1279296875
-19.22607421875
-15.56396484375
-14.6484375
-10.986328125
-15.56396484375
-27.4658203125
-23.8037109375
-4.57763671875
-7.32421875
0
5.4931640625
3.662109375
-11.90185546875
-4.57763671875
10.07080078125
12.8173828125
16.4794921875
21.97265625
19.22607421875
13.73291015625
20.1416015625
21.97265625
24.71923828125
11.90185546875
13.73291015625
44.86083984375
56.7626953125
64.0869140625
67.7490234375
59.50927734375
66.83349609375
68.66455078125
64.0869140625
69.580078125
78.7353515625
82.3974609375
93.3837890625
104.3701171875
107.11669921875
118.10302734375
111.6943359375
113.525390625
119.0185546875
130.0048828125
136.41357421875
150.146484375
162.04833984375
175.78125
174.86572265625
184.02099609375
192.2607421875
184.02099609375
186.767578125
186.767578125
205.99365234375
212.40234375
231.62841796875
243.5302734375
251.77001953125
263.671875
269.1650390625
253.60107421875
258.1787109375
271.91162109375
276.4892578125
288.39111328125
295.71533203125
297.54638671875
297.54638671875
297.54638671875
292.96875
286.56005859375
281.982421875
278.3203125
271.91162109375
274.658203125
265.5029296875
254.5166015625
254.5166015625
247.1923828125
238.95263671875
227.05078125
215.14892578125
202.33154296875
183.10546875
164.794921875
151.06201171875
142.822265625
123.59619140625
105.28564453125
92.46826171875
82.3974609375
82.3974609375
65.91796875
49.4384765625
30.21240234375
22.88818359375
23.8037109375
3.662109375
-10.07080078125
-13.73291015625
-20.1416015625
-27.4658203125
-27.4658203125
-32.958984375
-40.283203125
-54.931640625
-86.0595703125
-85.14404296875
-73.2421875
-58.59375
-56.7626953125
-54.931640625
-65.00244140625
-77.81982421875
-78.7353515625
-79.65087890625
-80.56640625
-79.65087890625
-70.49560546875
-73.2421875
-81.48193359375
-91.552734375
-83.31298828125
-89.7216796875
-91.552734375
-87.890625
-88.80615234375
-84.228515625
-80.56640625
-76.904296875
-74.15771484375
-78.7353515625
-83.31298828125
-77.81982421875
-75.98876953125
-76.904296875
-81.48193359375
-87.890625
-82.3974609375
-72.32666015625
-73.2421875
-78.7353515625
-77.81982421875
-69.580078125
-64.0869140625
-62.255859375
-60.4248046875
-73.2421875
-83.31298828125
-89.7216796875
-84.228515625
-75.98876953125
-71.4111328125
-64.0869140625
-64.0869140625
-68.66455078125
-73.2421875
-86.0595703125
-94.29931640625
-70.49560546875
-54.01611328125
-54.01611328125
-57.67822265625
-65.00244140625
-77.81982421875
-82.3974609375
-69.580078125
-57.67822265625
-46.69189453125
-59.50927734375
-77.81982421875
-94.29931640625
-87.890625
-64.0869140625
-57.67822265625
-57.67822265625
-50.35400390625
-53.1005859375
-61.34033203125
-66.83349609375
-65.91796875
-63.17138671875
-63.17138671875
-76.904296875
-82.3974609375
-75.98876953125
-70.49560546875
-66.83349609375
-74.15771484375
-83.31298828125
-69.580078125
-74.15771484375
-78.7353515625
-87.890625
-88.80615234375
-83.31298828125
-88.80615234375
-93.3837890625
-97.96142578125
-88.80615234375
-81.48193359375
-83.31298828125
-85.14404296875
-81.48193359375
-88.80615234375
-87.890625
-91.552734375
-82.3974609375
-83.31298828125
-84.228515625
-94.29931640625
-112.60986328125
-106.201171875
-96.13037109375
-88.80615234375
-86.97509765625
-86.0595703125
-78.7353515625
-87.890625
-96.13037109375
-103.45458984375
-103.45458984375
-83.31298828125
-85.14404296875
-96.13037109375
-86.97509765625
-87.890625
-105.28564453125
-107.11669921875
-86.97509765625
-100.7080078125
-116.27197265625
-101.62353515625
-98.876953125
-104.3701171875
-106.201171875
-106.201171875
-106.201171875
-100.7080078125
-99.79248046875
-94.29931640625
-97.96142578125
-100.7080078125
-101.62353515625
-97.96142578125
-97.0458984375
-96.13037109375
-110.77880859375
-124.51171875
-128.173828125
-114.44091796875
-95.21484375
-99.79248046875
-109.86328125
-99.79248046875
-99.79248046875
-108.94775390625
-119.0185546875
-111.6943359375
-102.5390625
-100.7080078125
-105.28564453125
-122.6806640625
-109.86328125
-85.14404296875
-89.7216796875
-98.876953125
-109.86328125
-121.76513671875
-135.498046875
-131.8359375
-125.42724609375
-118.10302734375
-92.46826171875
-90.63720703125
-89.7216796875
-83.31298828125
-80.56640625
-76.904296875
-83.31298828125
-85.14404296875
-67.7490234375
-79.65087890625
-82.3974609375
-73.2421875
-53.1005859375
-47.607421875
-33.87451171875
-31.1279296875
-34.7900390625
-40.283203125
-38.4521484375
-20.1416015625
-15.56396484375
-10.986328125
-15.56396484375
-5.4931640625
6.40869140625
1.8310546875
-11.90185546875
-3.662109375
-9.1552734375
-23.8037109375
-27.4658203125
-22.88818359375
-14.6484375
-11.90185546875
-15.56396484375
-25.634765625
-44.86083984375
-57.67822265625
-70.49560546875
-84.228515625
-103.45458984375
-103.45458984375
-103.45458984375
-85.14404296875
-74.15771484375
-86.97509765625
-101.62353515625
-110.77880859375
-104.3701171875
-115.3564453125
-131.8359375
-122.6806640625
-116.27197265625
-114.44091796875
-102.5390625
-100.7080078125
-98.876953125
-93.3837890625
-105.28564453125
-116.27197265625
-113.525390625
-115.3564453125
-110.77880859375
-119.0185546875
-123.59619140625
-140.9912109375
-139.16015625
-146.484375
-158.38623046875
-173.03466796875
-173.9501953125
-162.9638671875
-112.60986328125
-43.9453125
39.36767578125
121.76513671875
205.99365234375
302.1240234375
406.494140625
532.8369140625
670.166015625
811.1572265625
926.513671875
1037.29248046875
1153.564453125
1173.7060546875
1101.37939453125
943.90869140625
719.6044921875
466.9189453125
238.95263671875
11.90185546875
-196.83837890625
-358.88671875
-408.3251953125
-374.45068359375
-325.927734375
-270.08056640625
-219.7265625
-176.69677734375
-149.23095703125
-121.76513671875
-88.80615234375
-58.59375
-38.4521484375
-27.4658203125
-15.56396484375
-29.296875
-33.87451171875
-34.7900390625
-41.19873046875
-42.1142578125
-46.69189453125
-41.19873046875
-39.36767578125
-39.36767578125
-37.53662109375
-31.1279296875
-41.19873046875
-45.7763671875
-32.958984375
-45.7763671875
-58.59375
-45.7763671875
-23.8037109375
-14.6484375
-21.05712890625
-14.6484375
-10.986328125
-11.90185546875
-4.57763671875
-9.1552734375
-16.4794921875
-16.4794921875
-14.6484375
-15.56396484375
-15.56396484375
-8.23974609375
-1.8310546875
0
10.986328125
19.22607421875
19.22607421875
18.310546875
18.310546875
11.90185546875
5.4931640625
14.6484375
11.90185546875
10.986328125
21.05712890625
34.7900390625
31.1279296875
33.87451171875
32.04345703125
43.9453125
49.4384765625
47.607421875
38.4521484375
43.02978515625
48.52294921875
50.35400390625
54.931640625
65.91796875
67.7490234375
67.7490234375
75.98876953125
91.552734375
105.28564453125
107.11669921875
118.10302734375
122.6806640625
113.525390625
123.59619140625
135.498046875
136.41357421875
141.90673828125
153.80859375
168.45703125
175.78125
184.9365234375
180.35888671875
184.9365234375
193.17626953125
199.5849609375
204.16259765625
219.7265625
229.79736328125
245.361328125
246.27685546875
249.0234375
263.671875
273.74267578125
266.41845703125
275.57373046875
281.982421875
274.658203125
274.658203125
281.982421875
287.4755859375
288.39111328125
285.64453125
281.982421875
274.658203125
255.43212890625
256.34765625
266.41845703125
262.75634765625
252.685546875
249.93896484375
244.44580078125
227.96630859375
204.16259765625
185.85205078125
197.75390625
197.75390625
169.37255859375
141.90673828125
123.59619140625
115.3564453125
112.60986328125
110.77880859375
90.63720703125
70.49560546875
52.18505859375
43.02978515625
23.8037109375
24.71923828125
27.4658203125
28.38134765625
19.22607421875
-2.74658203125
-13.73291015625
-22.88818359375
-34.7900390625
-33.87451171875
-34.7900390625
-43.02978515625
-49.4384765625
-57.67822265625
-63.17138671875
-66.83349609375
-70.49560546875
-80.56640625
-79.65087890625
-84.228515625
-88.80615234375
-88.80615234375
-89.7216796875
-86.97509765625
-74.15771484375
-73.2421875
-89.7216796875
-90.63720703125
-78.7353515625
-72.32666015625
-75.98876953125
-82.3974609375
-92.46826171875
-104.3701171875
-84.228515625
-76.904296875
-84.228515625
-86.0595703125
-79.65087890625
-79.65087890625
-75.98876953125
-83.31298828125
-93.3837890625
-80.56640625
-90.63720703125
-90.63720703125
-88.80615234375
-86.97509765625
-79.65087890625
-72.32666015625
-74.15771484375
-80.56640625
-76.904296875
-83.31298828125
-75.98876953125
-75.98876953125
-82.3974609375
-77.81982421875
-71.4111328125
-75.0732421875
-67.7490234375
-61.34033203125
-55.84716796875
-54.01611328125
-64.0869140625
-67.7490234375
-62.255859375
-55.84716796875
-56.7626953125
-59.50927734375
-56.7626953125
-56.7626953125
-61.34033203125
-68.66455078125
-71.4111328125
-75.0732421875
-71.4111328125
-59.50927734375
-54.01611328125
-51.26953125
-48.52294921875
-44.86083984375
-54.01611328125
-53.1005859375
-49.4384765625
-48.52294921875
-64.0869140625
-65.91796875
-64.0869140625
-66.83349609375
-67.7490234375
-69.580078125
-65.91796875
-71.4111328125
-75.98876953125
-80.56640625
-72.32666015625
-74.15771484375
-75.98876953125
-67.7490234375
-66.83349609375
-71.4111328125
-80.56640625
-81.48193359375
-80.56640625
-72.32666015625
-88.80615234375
-99.79248046875
-99.79248046875
-94.29931640625
-85.14404296875
-86.0595703125
-93.3837890625
-83.31298828125
-75.98876953125
-83.31298828125
-86.97509765625
-80.56640625
-81.48193359375
-76.904296875
-84.228515625
-86.97509765625
-93.3837890625
-86.97509765625
-100.7080078125
-103.45458984375
-95.21484375
-92.46826171875
-100.7080078125
-96.13037109375
-94.29931640625
-97.96142578125
-93.3837890625
-95.21484375
-101.62353515625
-88.80615234375
-94.29931640625
-104.3701171875
-94.29931640625
-99.79248046875
-103.45458984375
-111.6943359375
-117.1875
-112.60986328125
-114.44091796875
-107.11669921875
-103.45458984375
-107.11669921875
-97.96142578125
-95.21484375
-103.45458984375
-106.201171875
-108.0322265625
-92.46826171875
-90.63720703125
-91.552734375
-96.13037109375
-90.63720703125
-97.0458984375
-104.3701171875
-107.11669921875
-105.28564453125
-113.525390625
-116.27197265625
-116.27197265625
-113.525390625
-105.28564453125
-98.876953125
-110.77880859375
-117.1875
-110.77880859375
-105.28564453125
-96.13037109375
-95.21484375
-105.28564453125
-105.28564453125
-102.5390625
-108.0322265625
-99.79248046875
-101.62353515625
-101.62353515625
-101.62353515625
-88.80615234375
-99.79248046875
-107.11669921875
-104.3701171875
-99.79248046875
-90.63720703125
-87.890625
-87.890625
-95.21484375
-96.13037109375
-95.21484375
-92.46826171875
-88.80615234375
-76.904296875
-71.4111328125
-74.15771484375
-75.98876953125
-59.50927734375
-42.1142578125
-52.18505859375
-51.26953125
-27.4658203125
1.8310546875
5.4931640625
4.57763671875
21.05712890625
32.958984375
13.73291015625
14.6484375
14.6484375
-0.91552734375
-18.310546875
-39.36767578125
-31.1279296875
-43.9453125
-51.26953125
-38.4521484375
-34.7900390625
-38.4521484375
-55.84716796875
-67.7490234375
-77.81982421875
-86.0595703125
-98.876953125
-119.0185546875
-140.9912109375
-142.822265625
-118.10302734375
-118.10302734375
-121.76513671875
-108.94775390625
-95.21484375
-93.3837890625
-104.3701171875
-110.77880859375
-117.1875
-114.44091796875
-115.3564453125
-119.93408203125
-123.59619140625
-121.76513671875
-106.201171875
-107.11669921875
-119.93408203125
-119.93408203125
-110.77880859375
-117.1875
-119.0185546875
-129.08935546875
-128.173828125
-138.24462890625
-149.23095703125
-174.86572265625
-199.5849609375
-191.34521484375
-140.9912109375
-40.283203125
53.1005859375
127.25830078125
216.064453125
298.4619140625
423.88916015625
585.9375
739.74609375
881.65283203125
1009.82666015625
1105.95703125
1177.3681640625
1125.18310546875
1018.98193359375
805.6640625
558.4716796875
315.85693359375
104.3701171875
-111.6943359375
-290.22216796875
-392.76123046875
-388.18359375
-335.99853515625
-284.72900390625
-216.97998046875
-174.86572265625
-157.470703125
-157.470703125
-177.6123046875
-148.3154296875
-102.5390625
-77.81982421875
-70.49560546875
-66.83349609375
-65.91796875
-68.66455078125
-61.34033203125
-60.4248046875
-64.0869140625
-55.84716796875
-40.283203125
-45.7763671875
-55.84716796875
-63.17138671875
-54.931640625
-42.1142578125
-38.4521484375
-29.296875
-33.87451171875
-37.53662109375
-38.4521484375
-42.1142578125
-44.86083984375
-45.7763671875
-36.62109375
-41.19873046875
-33.87451171875
-19.22607421875
-25.634765625
-22.88818359375
-17.39501953125
-6.40869140625
-21.97265625
-28.38134765625
-10.986328125
-21.05712890625
-32.04345703125
-6.40869140625
23.8037109375
43.02978515625
44.86083984375
46.69189453125
44.86083984375
11.90185546875
-21.97265625
-39.36767578125
-23.8037109375
-0.91552734375
1.8310546875
4.57763671875
18.310546875
10.07080078125
0.91552734375
8.23974609375
24.71923828125
25.634765625
21.05712890625
23.8037109375
51.26953125
70.49560546875
74.15771484375
68.66455078125
76.904296875
79.65087890625
87.890625
89.7216796875
82.3974609375
101.62353515625
114.44091796875
120.849609375
126.3427734375
138.24462890625
144.6533203125
149.23095703125
148.3154296875
150.146484375
159.3017578125
174.86572265625
180.35888671875
181.2744140625
186.767578125
183.10546875
193.17626953125
210.5712890625
223.388671875
240.78369140625
245.361328125
248.10791015625
255.43212890625
260.009765625
260.009765625
260.009765625
260.92529296875
249.93896484375
255.43212890625
270.99609375
262.75634765625
262.75634765625
247.1923828125
228.8818359375
235.29052734375
252.685546875
267.333984375
256.34765625
220.64208984375
195.9228515625
195.9228515625
220.64208984375
226.13525390625
217.8955078125
193.17626953125
167.54150390625
152.89306640625
145.56884765625
140.07568359375
126.3427734375
107.11669921875
93.3837890625
97.96142578125
71.4111328125
57.67822265625
65.91796875
50.35400390625
34.7900390625
29.296875
33.87451171875
11.90185546875
-24.71923828125
-29.296875
-20.1416015625
-26.55029296875
-19.22607421875
-31.1279296875
-40.283203125
-73.2421875
-73.2421875
-51.26953125
-43.02978515625
-55.84716796875
-64.0869140625
-74.15771484375
-78.7353515625
-80.56640625
-84.228515625
-92.46826171875
-87.890625
-76.904296875
-71.4111328125
-75.98876953125
-75.98876953125
-65.91796875
-65.91796875
-68.66455078125
-82.3974609375
-130.92041015625
-151.9775390625
-119.0185546875
-99.79248046875
-92.46826171875
-77.81982421875
-75.98876953125
-73.2421875
-76.904296875
-76.904296875
-78.7353515625
-72.32666015625
-82.3974609375
-89.7216796875
-95.21484375
-98.876953125
-96.13037109375
-84.228515625
-63.17138671875
-59.50927734375
-57.67822265625
-73.2421875
-78.7353515625
-80.56640625
-78.7353515625
-63.17138671875
-58.59375
-76.904296875
-72.32666015625
-75.0732421875
-66.83349609375
-62.255859375
-70.49560546875
-69.580078125
-67.7490234375
-68.66455078125
-54.931640625
-62.255859375
-64.0869140625
-59.50927734375
-67.7490234375
-75.0732421875
-83.31298828125
-75.0732421875
-73.2421875
-71.4111328125
-56.7626953125
-60.4248046875
-75.98876953125
-74.15771484375
-71.4111328125
-72.32666015625
-73.2421875
-77.81982421875
-83.31298828125
-78.7353515625
-77.81982421875
-72.32666015625
-72.32666015625
-83.31298828125
-103.45458984375
-97.96142578125
-82.3974609375
-90.63720703125
-93.3837890625
-87.890625
-74.15771484375
-74.15771484375
-74.15771484375
-87.890625
-105.28564453125
-118.10302734375
-100.7080078125
-82.3974609375
-97.0458984375
-80.56640625
-58.59375
-63.17138671875
-78.7353515625
-78.7353515625
-81.48193359375
-94.29931640625
-99.79248046875
-96.13037109375
-110.77880859375
-111.6943359375
-106.201171875
-101.62353515625
-87.890625
-98.876953125
-94.29931640625
-83.31298828125
-82.3974609375
-77.81982421875
-96.13037109375
-115.3564453125
-116.27197265625
-122.6806640625
-142.822265625
-142.822265625
-120.849609375
-97.96142578125
-96.13037109375
-107.11669921875
-108.94775390625
-109.86328125
-109.86328125
-104.3701171875
-97.0458984375
-114.44091796875
-139.16015625
-134.58251953125
-137.3291015625
-133.6669921875
-117.1875
-104.3701171875
-110.77880859375
-110.77880859375
-111.6943359375
-119.0185546875
-123.59619140625
-116.27197265625
-117.1875
-119.0185546875
-102.5390625
-96.13037109375
-87.890625
-100.7080078125
-109.86328125
-108.0322265625
-88.80615234375
-84.228515625
-102.5390625
-116.27197265625
-134.58251953125
-146.484375
-130.0048828125
-125.42724609375
-119.93408203125
-110.77880859375
-108.0322265625
-113.525390625
-119.0185546875
-121.76513671875
-111.6943359375
-114.44091796875
-123.59619140625
-122.6806640625
-130.0048828125
-145.56884765625
-137.3291015625
-126.3427734375
-99.79248046875
-80.56640625
-86.97509765625
-100.7080078125
-92.46826171875
-82.3974609375
-65.00244140625
-51.26953125
-52.18505859375
-40.283203125
-21.05712890625
-36.62109375
-41.19873046875
-43.9453125
-38.4521484375
-31.1279296875
-10.986328125
2.74658203125
0.91552734375
-21.05712890625
-45.7763671875
-75.98876953125
-61.34033203125
-34.7900390625
-30.21240234375
-34.7900390625
-45.7763671875
-51.26953125
-48.52294921875
-59.50927734375
-81.48193359375
-120.849609375
-132.75146484375
-130.0048828125
-118.10302734375
-105.28564453125
-109.86328125
-112.60986328125
-117.1875
-122.6806640625
-119.93408203125
-134.58251953125
-139.16015625
-145.56884765625
-130.92041015625
-124.51171875
-120.849609375
-121.76513671875
-137.3291015625
-139.16015625
-139.16015625
-135.498046875
-132.75146484375
-124.51171875
-127.25830078125
-119.93408203125
-119.93408203125
-126.3427734375
-144.6533203125
-155.6396484375
-169.37255859375
-191.34521484375
-196.83837890625
-185.85205078125
-150.146484375
-104.3701171875
-65.91796875
-2.74658203125
75.0732421875
160.21728515625
270.08056640625
375.3662109375
496.2158203125
637.20703125
769.04296875
890.80810546875
1000.67138671875
1104.1259765625
1091.30859375
1013.48876953125
829.4677734375
611.572265625
368.0419921875
141.90673828125
-64.0869140625
-251.77001953125
-372.61962890625
-394.59228515625
-367.12646484375
-342.4072265625
-320.4345703125
-275.57373046875
-238.037109375
-200.50048828125
-185.85205078125
-176.69677734375
-142.822265625
-97.0458984375
-63.17138671875
-46.69189453125
-43.02978515625
-42.1142578125
-48.52294921875
-62.255859375
-72.32666015625
-75.0732421875
-75.0732421875
-64.0869140625
-59.50927734375
-58.59375
-44.86083984375
-38.4521484375
-40.283203125
-47.607421875
-56.7626953125
-55.84716796875
-42.1142578125
-29.296875
-30.21240234375
-31.1279296875
-32.04345703125
-21.97265625
-21.97265625
-25.634765625
-31.1279296875
-43.02978515625
-42.1142578125
-25.634765625
-22.88818359375
-17.39501953125
-19.22607421875
-18.310546875
-4.57763671875
12.8173828125
20.1416015625
23.8037109375
15.56396484375
9.1552734375
-6.40869140625
-26.55029296875
-4.57763671875
7.32421875
29.296875
42.1142578125
19.22607421875
-12.8173828125
5.4931640625
32.04345703125
25.634765625
24.71923828125
21.05712890625
22.88818359375
35.70556640625
44.86083984375
74.15771484375
90.63720703125
90.63720703125
64.0869140625
50.35400390625
74.15771484375
103.45458984375
91.552734375
92.46826171875
127.25830078125
139.16015625
131.8359375
133.6669921875
150.146484375
152.89306640625
156.55517578125
148.3154296875
153.80859375
173.9501953125
183.10546875
184.9365234375
187.68310546875
186.767578125
195.00732421875
198.66943359375
216.97998046875
230.712890625
234.375
229.79736328125
245.361328125
237.12158203125
210.5712890625
211.48681640625
227.05078125
248.10791015625
272.8271484375
290.22216796875
290.22216796875
275.57373046875
258.1787109375
242.61474609375
240.78369140625
232.5439453125
216.064453125
223.388671875
238.95263671875
253.60107421875
252.685546875
243.5302734375
214.2333984375
202.33154296875
206.9091796875
203.2470703125
183.10546875
153.80859375
137.3291015625
123.59619140625
101.62353515625
101.62353515625
108.0322265625
105.28564453125
97.96142578125
81.48193359375
63.17138671875
50.35400390625
10.986328125
-32.04345703125
-30.21240234375
-17.39501953125
-20.1416015625
-12.8173828125
-15.56396484375
-21.05712890625
-14.6484375
-21.05712890625
-39.36767578125
-44.86083984375
-61.34033203125
-54.01611328125
-48.52294921875
-61.34033203125
-66.83349609375
-79.65087890625
-120.849609375
-123.59619140625
-97.96142578125
-98.876953125
-88.80615234375
-78.7353515625
-78.7353515625
-89.7216796875
-82.3974609375
-89.7216796875
-80.56640625
-77.81982421875
-88.80615234375
-88.80615234375
-88.80615234375
-87.890625
-83.31298828125
-74.15771484375
-97.0458984375
-96.13037109375
-74.15771484375
-54.931640625
-57.67822265625
-71.4111328125
-87.890625
-95.21484375
-88.80615234375
-117.1875
-136.41357421875
-119.0185546875
-86.97509765625
-73.2421875
-70.49560546875
-53.1005859375
-44.86083984375
-53.1005859375
-65.00244140625
-59.50927734375
-73.2421875
-71.4111328125
-77.81982421875
-73.2421875
-67.7490234375
-72.32666015625
-63.17138671875
-65.00244140625
-73.2421875
-75.98876953125
-74.15771484375
-61.34033203125
-54.931640625
-60.4248046875
-69.580078125
-75.98876953125
-84.228515625
-64.0869140625
-79.65087890625
-91.552734375
-91.552734375
-82.3974609375
-78.7353515625
-79.65087890625
-72.32666015625
-64.0869140625
-56.7626953125
-62.255859375
-55.84716796875
-46.69189453125
-46.69189453125
-69.580078125
-71.4111328125
-71.4111328125
-50.35400390625
-43.02978515625
-60.4248046875
-92.46826171875
-90.63720703125
-91.552734375
-89.7216796875
-92.46826171875
-93.3837890625
-87.890625
-80.56640625
-81.48193359375
-94.29931640625
-93.3837890625
-97.96142578125
-88.80615234375
-85.14404296875
-89.7216796875
-103.45458984375
-108.0322265625
-116.27197265625
-104.3701171875
-96.13037109375
-116.27197265625
-107.11669921875
-78.7353515625
-75.98876953125
-91.552734375
-81.48193359375
-72.32666015625
-70.49560546875
-73.2421875
-63.17138671875
-49.4384765625
-71.4111328125
-100.7080078125
-137.3291015625
-134.58251953125
-108.0322265625
-101.62353515625
-124.51171875
-126.3427734375
-103.45458984375
-84.228515625
-82.3974609375
-81.48193359375
-72.32666015625
-91.552734375
-125.42724609375
-139.16015625
-126.3427734375
-102.5390625
-92.46826171875
-95.21484375
-117.1875
-135.498046875
-135.498046875
-114.44091796875
-94.29931640625
-102.5390625
-100.7080078125
-97.96142578125
-119.0185546875
-117.1875
-102.5390625
-95.21484375
-95.21484375
-108.94775390625
-108.0322265625
-107.11669921875
-101.62353515625
-87.890625
-85.14404296875
-89.7216796875
-97.96142578125
-106.201171875
-82.3974609375
-58.59375
-103.45458984375
-116.27197265625
-80.56640625
-72.32666015625
-89.7216796875
-91.552734375
-84.228515625
-79.65087890625
-48.52294921875
-28.38134765625
-21.05712890625
-31.1279296875
-48.52294921875
-54.931640625
-49.4384765625
-33.87451171875
-13.73291015625
10.986328125
12.8173828125
-5.4931640625
-12.8173828125
-17.39501953125
-4.57763671875
6.40869140625
13.73291015625
3.662109375
-8.23974609375
-16.4794921875
-20.1416015625
-27.4658203125
-68.66455078125
-98.876953125
-86.97509765625
-87.890625
-97.96142578125
-102.5390625
-115.3564453125
-121.76513671875
-110.77880859375
-101.62353515625
-106.201171875
-106.201171875
-99.79248046875
-104.3701171875
-84.228515625
-81.48193359375
-84.228515625
-81.48193359375
-102.5390625
-115.3564453125
-121.76513671875
-118.10302734375
-127.25830078125
-123.59619140625
-130.0048828125
-135.498046875
-147.39990234375
-140.9912109375
-132.75146484375
-130.0048828125
-144.6533203125
-162.04833984375
-192.2607421875
-199.5849609375
-177.6123046875
-148.3154296875
-87.890625
-42.1142578125
27.4658203125
120.849609375
210.5712890625
313.1103515625
399.169921875
536.4990234375
686.6455078125
821.22802734375
928.3447265625
1039.12353515625
1163.63525390625
1174.62158203125
1111.4501953125
946.6552734375
718.68896484375
449.52392578125
225.2197265625
5.4931640625
-211.48681640625
-357.0556640625
-395.5078125
-348.81591796875
-311.279296875
-270.99609375
-239.8681640625
-210.5712890625
-186.767578125
-173.9501953125
-143.73779296875
-87.890625
-50.35400390625
-24.71923828125
1.8310546875
0
-10.07080078125
-30.21240234375
-52.18505859375
-51.26953125
-42.1142578125
-37.53662109375
-41.19873046875
-51.26953125
-61.34033203125
-35.70556640625
-17.39501953125
-30.21240234375
-39.36767578125
-33.87451171875
-28.38134765625
-21.97265625
-16.4794921875
-18.310546875
-16.4794921875
-22.88818359375
-10.07080078125
-16.4794921875
-22.88818359375
-15.56396484375
-8.23974609375
-3.662109375
6.40869140625
4.57763671875
9.1552734375
0.91552734375
-4.57763671875
-12.8173828125
-12.8173828125
4.57763671875
19.22607421875
8.23974609375
2.74658203125
8.23974609375
25.634765625
22.88818359375
23.8037109375
37.53662109375
41.19873046875
45.7763671875
50.35400390625
53.1005859375
46.69189453125
36.62109375
33.87451171875
48.52294921875
70.49560546875
65.91796875
68.66455078125
57.67822265625
54.931640625
58.59375
75.98876953125
81.48193359375
94.29931640625
107.11669921875
110.77880859375
111.6943359375
125.42724609375
133.6669921875
136.41357421875
143.73779296875
146.484375
144.6533203125
146.484375
161.1328125
165.71044921875
177.6123046875
184.02099609375
189.51416015625
196.83837890625
192.2607421875
205.99365234375
218.81103515625
222.47314453125
232.5439453125
239.8681640625
239.8681640625
253.60107421875
261.8408203125
246.27685546875
235.29052734375
245.361328125
247.1923828125
247.1923828125
250.8544921875
260.92529296875
260.92529296875
271.91162109375
268.24951171875
254.5166015625
254.5166015625
265.5029296875
249.0234375
238.95263671875
240.78369140625
245.361328125
250.8544921875
248.10791015625
234.375
220.64208984375
210.5712890625
195.9228515625
176.69677734375
166.6259765625
142.822265625
123.59619140625
118.10302734375
112.60986328125
96.13037109375
91.552734375
66.83349609375
61.34033203125
54.01611328125
31.1279296875
25.634765625
26.55029296875
11.90185546875
4.57763671875
-4.57763671875
-19.22607421875
-26.55029296875
-36.62109375
-40.283203125
-43.02978515625
-43.02978515625
-54.01611328125
-51.26953125
-45.7763671875
-54.01611328125
-56.7626953125
-55.84716796875
-53.1005859375
-66.83349609375
-73.2421875
-65.91796875
-73.2421875
-78.7353515625
-84.228515625
-93.3837890625
-88.80615234375
-83.31298828125
-76.904296875
-69.580078125
-66.83349609375
-74.15771484375
-78.7353515625
-77.81982421875
-64.0869140625
-57.67822265625
-70.49560546875
-71.4111328125
-69.580078125
-74.15771484375
-75.0732421875
-58.59375
-49.4384765625
-46.69189453125
-60.4248046875
-56.7626953125
-43.9453125
-37.53662109375
-37.53662109375
-33.87451171875
-40.283203125
-52.18505859375
-49.4384765625
-56.7626953125
-63.17138671875
-48.52294921875
-34.7900390625
-44.86083984375
-45.7763671875
-44.86083984375
-41.19873046875
-43.02978515625
-43.02978515625
-52.18505859375
-42.1142578125
-39.36767578125
-37.53662109375
-43.9453125
-38.4521484375
-43.02978515625
-51.26953125
-56.7626953125
-52.18505859375
-45.7763671875
-40.283203125
-35.70556640625
-34.7900390625
-42.1142578125
-44.86083984375
-41.19873046875
-37.53662109375
-28.38134765625
-30.21240234375
-39.36767578125
-41.19873046875
-30.21240234375
-37.53662109375
-48.52294921875
-57.67822265625
-48.52294921875
-36.62109375
-46.69189453125
-53.1005859375
-54.931640625
-41.19873046875
-38.4521484375
-54.01611328125
-78.7353515625
-76.904296875
-62.255859375
-54.01611328125
-65.00244140625
-60.4248046875
-51.26953125
-52.18505859375
-54.01611328125
-54.931640625
-60.4248046875
-54.931640625
-52.18505859375
-58.59375
-65.00244140625
-65.00244140625
-64.0869140625
-58.59375
-58.59375
-54.931640625
-43.9453125
-45.7763671875
-81.48193359375
-82.3974609375
-85.14404296875
-92.46826171875
-98.876953125
-97.0458984375
-83.31298828125
-82.3974609375
-85.14404296875
-76.904296875
-63.17138671875
-51.26953125
-70.49560546875
-85.14404296875
-86.97509765625
-95.21484375
-97.96142578125
-96.13037109375
-102.5390625
-96.13037109375
-77.81982421875
-77.81982421875
-90.63720703125
-103.45458984375
-102.5390625
-96.13037109375
-92.46826171875
-99.79248046875
-98.876953125
-86.0595703125
-85.14404296875
-83.31298828125
-100.7080078125
-100.7080078125
-92.46826171875
-90.63720703125
-97.0458984375
-97.0458984375
-90.63720703125
-100.7080078125
-107.11669921875
-108.94775390625
-108.94775390625
-112.60986328125
-120.849609375
-107.11669921875
-105.28564453125
-104.3701171875
-104.3701171875
-88.80615234375
-79.65087890625
-99.79248046875
-75.98876953125
-77.81982421875
-112.60986328125
-116.27197265625
-104.3701171875
-61.34033203125
-33.87451171875
-32.04345703125
-34.7900390625
-24.71923828125
-36.62109375
-43.9453125
-46.69189453125
-24.71923828125
-22.88818359375
0
12.8173828125
11.90185546875
0
-2.74658203125
-5.4931640625
-4.57763671875
-10.07080078125
-6.40869140625
-11.90185546875
-25.634765625
-31.1279296875
-43.02978515625
-23.8037109375
-28.38134765625
-43.02978515625
-56.7626953125
-75.98876953125
-84.228515625
-90.63720703125
-98.876953125
-100.7080078125
-98.876953125
-112.60986328125
-119.93408203125
-129.08935546875
-138.24462890625
-136.41357421875
-137.3291015625
-110.77880859375
-97.0458984375
-110.77880859375
-119.0185546875
-113.525390625
-120.849609375
-114.44091796875
-111.6943359375
-113.525390625
-119.0185546875
-108.94775390625
-107.11669921875
-106.201171875
-118.10302734375
-146.484375
-162.04833984375
-167.54150390625
-161.1328125
-159.3017578125
-162.9638671875
-153.80859375
-111.6943359375
-64.0869140625
-3.662109375
72.32666015625
143.73779296875
238.95263671875
336.9140625
452.2705078125
602.4169921875
746.15478515625
863.34228515625
970.458984375
1076.66015625
1149.90234375
1133.4228515625
1028.13720703125
836.7919921875
585.02197265625
325.01220703125
97.96142578125
-108.94775390625
-281.06689453125
-394.59228515625
-393.6767578125
-363.46435546875
-326.84326171875
-290.22216796875
-251.77001953125
-222.47314453125
-176.69677734375
-119.93408203125
-85.14404296875
-57.67822265625
-36.62109375
-28.38134765625
-22.88818359375
-31.1279296875
-37.53662109375
-32.958984375
-32.958984375
-43.9453125
-35.70556640625
-36.62109375
-29.296875
-43.02978515625
-47.607421875
-35.70556640625
-34.7900390625
-18.310546875
-22.88818359375
-19.22607421875
-32.958984375
-30.21240234375
-36.62109375
-39.36767578125
-38.4521484375
-51.26953125
-48.52294921875
-36.62109375
-21.97265625
-13.73291015625
-13.73291015625
-5.4931640625
2.74658203125
5.4931640625
-18.310546875
-30.21240234375
-15.56396484375
-12.8173828125
3.662109375
6.40869140625
-10.986328125
0.91552734375
7.32421875
19.22607421875
10.986328125
-1.8310546875
10.07080078125
31.1279296875
27.4658203125
29.296875
23.8037109375
28.38134765625
35.70556640625
54.01611328125
54.01611328125
50.35400390625
59.50927734375
53.1005859375
69.580078125
77.81982421875
66.83349609375
69.580078125
60.4248046875
78.7353515625
92.46826171875
87.890625
104.3701171875
102.5390625
115.3564453125
117.1875
123.59619140625
130.92041015625
141.90673828125
141.90673828125
146.484375
151.06201171875
145.56884765625
151.9775390625
155.6396484375
177.6123046875
186.767578125
202.33154296875
184.02099609375
180.35888671875
201.416015625
212.40234375
234.375
249.93896484375
239.8681640625
249.93896484375
249.93896484375
232.5439453125
229.79736328125
243.5302734375
263.671875
249.93896484375
243.5302734375
255.43212890625
260.009765625
247.1923828125
245.361328125
243.5302734375
240.78369140625
232.5439453125
225.2197265625
224.30419921875
210.5712890625
212.40234375
203.2470703125
184.9365234375
174.86572265625
161.1328125
174.86572265625
153.80859375
152.89306640625
141.90673828125
120.849609375
113.525390625
88.80615234375
81.48193359375
85.14404296875
58.59375
49.4384765625
50.35400390625
35.70556640625
28.38134765625
5.4931640625
-5.4931640625
-20.1416015625
-23.8037109375
-20.1416015625
-42.1142578125
-34.7900390625
-30.21240234375
-36.62109375
-44.86083984375
-42.1142578125
-50.35400390625
-57.67822265625
-60.4248046875
-63.17138671875
-62.255859375
-76.904296875
-87.890625
-91.552734375
-90.63720703125
-82.3974609375
-87.890625
-86.97509765625
-95.21484375
-97.96142578125
-88.80615234375
-87.890625
-80.56640625
-79.65087890625
-54.931640625
-54.931640625
-91.552734375
-101.62353515625
-85.14404296875
-69.580078125
-63.17138671875
-61.34033203125
-60.4248046875
-74.15771484375
-79.65087890625
-75.0732421875
-71.4111328125
-69.580078125
-69.580078125
-77.81982421875
-68.66455078125
-75.98876953125
-74.15771484375
-72.32666015625
-67.7490234375
-54.931640625
-65.00244140625
-65.00244140625
-65.00244140625
-62.255859375
-65.00244140625
-65.00244140625
-72.32666015625
-63.17138671875
-65.91796875
-35.70556640625
-51.26953125
-62.255859375
-66.83349609375
-48.52294921875
-60.4248046875
-56.7626953125
-57.67822265625
-65.00244140625
-53.1005859375
-48.52294921875
-53.1005859375
-45.7763671875
-60.4248046875
-81.48193359375
-85.14404296875
-65.00244140625
-55.84716796875
-45.7763671875
-62.255859375
-89.7216796875
-97.0458984375
-86.97509765625
-67.7490234375
-68.66455078125
-71.4111328125
-88.80615234375
-78.7353515625
-86.97509765625
-67.7490234375
-59.50927734375
-42.1142578125
-65.91796875
-93.3837890625
-70.49560546875
-84.228515625
-75.98876953125
-70.49560546875
-71.4111328125
-56.7626953125
-48.52294921875
-61.34033203125
-76.904296875
-83.31298828125
-72.32666015625
-84.228515625
-88.80615234375
-75.98876953125
-81.48193359375
-81.48193359375
-87.890625
-95.21484375
-86.97509765625
-99.79248046875
-102.5390625
-93.3837890625
-98.876953125
-86.97509765625
-90.63720703125
-94.29931640625
-93.3837890625
-102.5390625
-86.97509765625
-89.7216796875
-92.46826171875
-112.60986328125
-122.6806640625
-107.11669921875
-127.25830078125
-108.94775390625
-101.62353515625
-89.7216796875
-82.3974609375
-95.21484375
-97.0458984375
-103.45458984375
-89.7216796875
-80.56640625
-86.0595703125
-87.890625
-100.7080078125
-107.11669921875
-92.46826171875
-79.65087890625
-80.56640625
-63.17138671875
-43.02978515625
-30.21240234375
-32.958984375
-32.958984375
-25.634765625
-21.05712890625
-29.296875
-49.4384765625
-43.02978515625
-8.23974609375
-7.32421875
8.23974609375
2.74658203125
0
10.07080078125
-2.74658203125
-2.74658203125
-21.97265625
-24.71923828125
-31.1279296875
-39.36767578125
-48.52294921875
-29.296875
-19.22607421875
-46.69189453125
-52.18505859375
-67.7490234375
-86.97509765625
-86.0595703125
-100.7080078125
-108.0322265625
-108.94775390625
-107.11669921875
-106.201171875
-99.79248046875
-92.46826171875
-104.3701171875
-111.6943359375
-114.44091796875
-104.3701171875
-112.60986328125
-92.46826171875
-106.201171875
-94.29931640625
-94.29931640625
-108.0322265625
-97.0458984375
-93.3837890625
-116.27197265625
-119.93408203125
-128.173828125
-125.42724609375
-121.76513671875
-125.42724609375
-119.93408203125
-139.16015625
-149.23095703125
-155.6396484375
-160.21728515625
-168.45703125
-140.9912109375
-115.3564453125
-90.63720703125
-37.53662109375
28.38134765625
89.7216796875
186.767578125
298.4619140625
415.6494140625
555.72509765625
683.89892578125
797.42431640625
905.45654296875
1040.0390625
1075.74462890625
1014.404296875
860.595703125
632.62939453125
390.0146484375
187.68310546875
35.70556640625
-114.44091796875
-241.69921875
-314.94140625
-308.53271484375
-290.22216796875
-295.71533203125
-257.26318359375
-227.96630859375
-189.51416015625
-160.21728515625
-142.822265625
-132.75146484375
-121.76513671875
-99.79248046875
-78.7353515625
-66.83349609375
-68.66455078125
-54.01611328125
-45.7763671875
-50.35400390625
-64.0869140625
-43.02978515625
-46.69189453125
-51.26953125
-52.18505859375
-54.931640625
-54.01611328125
-41.19873046875
-49.4384765625
-42.1142578125
-47.607421875
-14.6484375
7.32421875
-54.931640625
-36.62109375
-41.19873046875
-51.26953125
-45.7763671875
-39.36767578125
-34.7900390625
-17.39501953125
-24.71923828125
-4.57763671875
-10.07080078125
-10.986328125
0.91552734375
8.23974609375
-3.662109375
-2.74658203125
-6.40869140625
15.56396484375
8.23974609375
-1.8310546875
23.8037109375
4.57763671875
9.1552734375
14.6484375
31.1279296875
24.71923828125
37.53662109375
45.7763671875
43.9453125
25.634765625
36.62109375
29.296875
28.38134765625
36.62109375
43.9453125
51.26953125
54.01611328125
54.01611328125
36.62109375
46.69189453125
59.50927734375
70.49560546875
67.7490234375
61.34033203125
99.79248046875
106.201171875
111.6943359375
120.849609375
131.8359375
133.6669921875
162.9638671875
147.39990234375
150.146484375
158.38623046875
145.56884765625
156.55517578125
161.1328125
168.45703125
163.87939453125
189.51416015625
198.66943359375
198.66943359375
198.66943359375
205.99365234375
203.2470703125
215.14892578125
230.712890625
215.14892578125
218.81103515625
228.8818359375
236.2060546875
233.45947265625
232.5439453125
241.69921875
242.61474609375
227.96630859375
229.79736328125
245.361328125
235.29052734375
243.5302734375
234.375
222.47314453125
209.65576171875
216.97998046875
200.50048828125
187.68310546875
200.50048828125
190.4296875
173.9501953125
162.9638671875
141.90673828125
130.0048828125
112.60986328125
96.13037109375
90.63720703125
86.0595703125
53.1005859375
59.50927734375
49.4384765625
54.01611328125
48.52294921875
17.39501953125
-3.662109375
-9.1552734375
0
-6.40869140625
-10.07080078125
-21.05712890625
-28.38134765625
-33.87451171875
-37.53662109375
-34.7900390625
-36.62109375
-42.1142578125
-52.18505859375
-38.4521484375
-38.4521484375
-56.7626953125
-61.34033203125
-56.7626953125
-65.00244140625
-73.2421875
-56.7626953125
-47.607421875
-67.7490234375
-67.7490234375
-58.59375
-68.66455078125
-54.01611328125
-61.34033203125
-49.4384765625
-72.32666015625
-60.4248046875
-70.49560546875
-66.83349609375
-65.91796875
-78.7353515625
-70.49560546875
-63.17138671875
-77.81982421875
-70.49560546875
-63.17138671875
-72.32666015625
-65.91796875
-45.7763671875
-49.4384765625
-56.7626953125
-53.1005859375
-51.26953125
-43.9453125
-30.21240234375
-40.283203125
-40.283203125
-30.21240234375
-33.87451171875
-40.283203125
-41.19873046875
-44.86083984375
-51.26953125
-41.19873046875
-43.9453125
-43.02978515625
-29.296875
-29.296875
-36.62109375
-32.04345703125
-31.1279296875
-39.36767578125
-32.958984375
-44.86083984375
-38.4521484375
-45.7763671875
-42.1142578125
-40.283203125
-44.86083984375
-43.02978515625
-42.1142578125
-45.7763671875
-56.7626953125
-40.283203125
-46.69189453125
-49.4384765625
-49.4384765625
-42.1142578125
-43.02978515625
-45.7763671875
-52.18505859375
-51.26953125
-41.19873046875
-60.4248046875
-65.91796875
-58.59375
-54.931640625
-53.1005859375
-49.4384765625
-44.86083984375
-43.9453125
-39.36767578125
-68.66455078125
-70.49560546875
-65.00244140625
-54.01611328125
-56.7626953125
-58.59375
-56.7626953125
-40.283203125
-40.283203125
-75.0732421875
-91.552734375
-77.81982421875
-77.81982421875
-75.98876953125
-64.0869140625
-62.255859375
-71.4111328125
-83.31298828125
-75.98876953125
-68.66455078125
-66.83349609375
-55.84716796875
-59.50927734375
-53.1005859375
-49.4384765625
-50.35400390625
-48.52294921875
-52.18505859375
-55.84716796875
-43.02978515625
-41.19873046875
-34.7900390625
-32.04345703125
-20.1416015625
1.8310546875
10.07080078125
10.986328125
13.73291015625
8.23974609375
15.56396484375
13.73291015625
8.23974609375
21.05712890625
26.55029296875
30.21240234375
27.4658203125
23.8037109375
8.23974609375
8.23974609375
21.05712890625
25.634765625
6.40869140625
6.40869140625
6.40869140625
7.32421875
3.662109375
-14.6484375
-24.71923828125
-51.26953125
-64.0869140625
-48.52294921875
-62.255859375
-78.7353515625
-70.49560546875
-74.15771484375
-63.17138671875
-65.91796875
-62.255859375
-69.580078125
-80.56640625
-78.7353515625
-86.97509765625
-82.3974609375
-69.580078125
-72.32666015625
-65.91796875
-73.2421875
-84.228515625
-85.14404296875
-85.14404296875
-89.7216796875
-83.31298828125
-79.65087890625
-78.7353515625
-81.48193359375
-84.228515625
-92.46826171875
-103.45458984375
-119.93408203125
-136.41357421875
-142.822265625
-134.58251953125
-144.6533203125
-131.8359375
-92.46826171875
-53.1005859375
8.23974609375
90.63720703125
184.02099609375
292.96875
395.5078125
509.94873046875
650.93994140625
737.9150390625
851.4404296875
969.54345703125
1069.3359375
1030.8837890625
913.6962890625
712.2802734375
517.27294921875
290.22216796875
117.1875
-17.39501953125
-167.54150390625
-248.10791015625
-254.5166015625
-236.2060546875
-227.05078125
-238.037109375
-219.7265625
-180.35888671875
-161.1328125
-175.78125
-159.3017578125
-109.86328125
-71.4111328125
-42.1142578125
-34.7900390625
-15.56396484375
4.57763671875
-2.74658203125
-9.1552734375
-15.56396484375
-4.57763671875
2.74658203125
13.73291015625
5.4931640625
0.91552734375
11.90185546875
9.1552734375
0.91552734375
-8.23974609375
0
6.40869140625
1.8310546875
-0.91552734375
-6.40869140625
-23.8037109375
-3.662109375
19.22607421875
28.38134765625
21.05712890625
-9.1552734375
-14.6484375
9.1552734375
27.4658203125
23.8037109375
6.40869140625
21.97265625
39.36767578125
21.97265625
21.05712890625
39.36767578125
43.9453125
59.50927734375
59.50927734375
43.02978515625
54.931640625
59.50927734375
56.7626953125
56.7626953125
66.83349609375
63.17138671875
63.17138671875
65.00244140625
74.15771484375
91.552734375
76.904296875
84.228515625
75.98876953125
86.97509765625
96.13037109375
96.13037109375
105.28564453125
118.10302734375
123.59619140625
124.51171875
116.27197265625
108.94775390625
113.525390625
118.10302734375
118.10302734375
142.822265625
150.146484375
139.16015625
153.80859375
169.37255859375
167.54150390625
173.03466796875
200.50048828125
210.5712890625
184.02099609375
186.767578125
217.8955078125
238.037109375
238.95263671875
229.79736328125
234.375
239.8681640625
238.037109375
231.62841796875
242.61474609375
257.26318359375
251.77001953125
262.75634765625
265.5029296875
258.1787109375
257.26318359375
256.34765625
250.8544921875
258.1787109375
258.1787109375
261.8408203125
267.333984375
259.09423828125
255.43212890625
251.77001953125
247.1923828125
222.47314453125
224.30419921875
227.96630859375
217.8955078125
195.00732421875
173.9501953125
170.2880859375
163.87939453125
154.72412109375
157.470703125
136.41357421875
122.6806640625
118.10302734375
96.13037109375
66.83349609375
82.3974609375
77.81982421875
68.66455078125
42.1142578125
19.22607421875
21.97265625
27.4658203125
12.8173828125
20.1416015625
6.40869140625
4.57763671875
20.1416015625
14.6484375
16.4794921875
-1.8310546875
-10.986328125
-12.8173828125
-15.56396484375
-21.05712890625
-27.4658203125
-28.38134765625
-19.22607421875
-19.22607421875
-29.296875
-37.53662109375
-35.70556640625
-27.4658203125
-24.71923828125
-33.87451171875
-33.87451171875
-30.21240234375
-21.05712890625
-19.22607421875
-33.87451171875
-40.283203125
-43.9453125
-29.296875
-12.8173828125
-10.07080078125
-15.56396484375
-21.97265625
-43.02978515625
-36.62109375
-25.634765625
-16.4794921875
-22.88818359375
-24.71923828125
-27.4658203125
-32.958984375
-20.1416015625
-11.90185546875
-10.07080078125
-17.39501953125
-6.40869140625
-10.07080078125
-12.8173828125
-1.8310546875
-5.4931640625
-21.97265625
-24.71923828125
-18.310546875
-11.90185546875
-1.8310546875
8.23974609375
0
2.74658203125
-1.8310546875
-5.4931640625
-1.8310546875
-5.4931640625
7.32421875
-3.662109375
-6.40869140625
-7.32421875
-10.986328125
-4.57763671875
-9.1552734375
-24.71923828125
-21.05712890625
-10.07080078125
-4.57763671875
-15.56396484375
-14.6484375
-24.71923828125
-27.4658203125
-15.56396484375
-12.8173828125
-9.1552734375
-21.97265625
-32.04345703125
-20.1416015625
-9.1552734375
-8.23974609375
-18.310546875
-21.97265625
-10.07080078125
-13.73291015625
-8.23974609375
-10.07080078125
-7.32421875
-15.56396484375
-15.56396484375
-25.634765625
-16.4794921875
-24.71923828125
-25.634765625
-22.88818359375
-30.21240234375
-21.05712890625
-13.73291015625
-32.958984375
-35.70556640625
-20.1416015625
-39.36767578125
-34.7900390625
-41.19873046875
-31.1279296875
-35.70556640625
-37.53662109375
-23.8037109375
-37.53662109375
-41.19873046875
-36.62109375
-39.36767578125
-41.19873046875
-19.22607421875
-19.22607421875
-23.8037109375
-18.310546875
-0.91552734375
-4.57763671875
-6.40869140625
-13.73291015625
8.23974609375
9.1552734375
11.90185546875
21.05712890625
33.87451171875
26.55029296875
24.71923828125
32.958984375
43.9453125
38.4521484375
47.607421875
44.86083984375
33.87451171875
32.04345703125
40.283203125
54.931640625
52.18505859375
56.7626953125
64.0869140625
59.50927734375
62.255859375
59.50927734375
59.50927734375
54.01611328125
40.283203125
32.04345703125
21.97265625
32.04345703125
32.04345703125
0
-33.87451171875
-49.4384765625
-56.7626953125
-53.1005859375
-38.4521484375
-40.283203125
-43.02978515625
-40.283203125
-34.7900390625
-34.7900390625
-38.4521484375
-35.70556640625
-48.52294921875
-45.7763671875
-39.36767578125
-42.1142578125
-40.283203125
-50.35400390625
-57.67822265625
-60.4248046875
-35.70556640625
-37.53662109375
-52.18505859375
-71.4111328125
-66.83349609375
-46.69189453125
-50.35400390625
-60.4248046875
-72.32666015625
-83.31298828125
-86.0595703125
-106.201171875
-112.60986328125
-106.201171875
-91.552734375
-57.67822265625
2.74658203125
44.86083984375
109.86328125
179.443359375
225.2197265625
312.19482421875
388.18359375
509.94873046875
639.0380859375
767.2119140625
879.82177734375
990.6005859375
1094.05517578125
1094.05517578125
1010.7421875
879.82177734375
684.814453125
455.01708984375
241.69921875
45.7763671875
-130.92041015625
-256.34765625
-301.20849609375
-270.99609375
-246.27685546875
-195.9228515625
-166.6259765625
-124.51171875
-86.97509765625
-55.84716796875
-54.01611328125
-21.97265625
3.662109375
35.70556640625
43.9453125
41.19873046875
43.9453125
43.02978515625
28.38134765625
24.71923828125
32.958984375
29.296875
37.53662109375
28.38134765625
32.04345703125
25.634765625
31.1279296875
22.88818359375
10.986328125
10.986328125
19.22607421875
22.88818359375
34.7900390625
46.69189453125
43.02978515625
42.1142578125
47.607421875
36.62109375
14.6484375
35.70556640625
57.67822265625
46.69189453125
26.55029296875
46.69189453125
55.84716796875
50.35400390625
50.35400390625
52.18505859375
46.69189453125
51.26953125
54.01611328125
61.34033203125
61.34033203125
73.2421875
66.83349609375
67.7490234375
68.66455078125
77.81982421875
91.552734375
96.13037109375
95.21484375
97.96142578125
80.56640625
86.97509765625
95.21484375
105.28564453125
107.11669921875
108.94775390625
114.44091796875
119.93408203125
124.51171875
130.92041015625
128.173828125
125.42724609375
121.76513671875
129.08935546875
130.92041015625
138.24462890625
151.06201171875
152.89306640625
157.470703125
161.1328125
167.54150390625
173.03466796875
171.20361328125
184.9365234375
200.50048828125
214.2333984375
209.65576171875
210.5712890625
206.9091796875
223.388671875
232.5439453125
239.8681640625
237.12158203125
227.96630859375
236.2060546875
249.0234375
247.1923828125
247.1923828125
254.5166015625
253.60107421875
259.09423828125
263.671875
268.24951171875
270.99609375
264.58740234375
263.671875
264.58740234375
253.60107421875
245.361328125
249.0234375
244.44580078125
238.95263671875
235.29052734375
223.388671875
210.5712890625
213.31787109375
201.416015625
195.9228515625
192.2607421875
193.17626953125
192.2607421875
175.78125
164.794921875
151.06201171875
140.9912109375
138.24462890625
116.27197265625
114.44091796875
93.3837890625
77.81982421875
57.67822265625
51.26953125
57.67822265625
53.1005859375
42.1142578125
22.88818359375
23.8037109375
22.88818359375
19.22607421875
20.1416015625
8.23974609375
0
-21.97265625
-31.1279296875
-17.39501953125
-16.4794921875
-23.8037109375
-18.310546875
-23.8037109375
-16.4794921875
-21.97265625
-23.8037109375
-12.8173828125
-12.8173828125
-24.71923828125
-39.36767578125
-40.283203125
-32.04345703125
-37.53662109375
-36.62109375
-25.634765625
-24.71923828125
-25.634765625
-23.8037109375
-29.296875
-27.4658203125
-12.8173828125
-5.4931640625
-20.1416015625
-16.4794921875
-16.4794921875
-19.22607421875
-19.22607421875
-22.88818359375
-13.73291015625
-18.310546875
-9.1552734375
-9.1552734375
-4.57763671875
2.74658203125
-1.8310546875
-6.40869140625
-10.986328125
-22.88818359375
-21.05712890625
-4.57763671875
0.91552734375
-0.91552734375
-5.4931640625
0
-2.74658203125
-7.32421875
-13.73291015625
-17.39501953125
-12.8173828125
-6.40869140625
-3.662109375
2.74658203125
2.74658203125
-11.90185546875
-12.8173828125
0.91552734375
3.662109375
-2.74658203125
-10.07080078125
-9.1552734375
-1.8310546875
10.986328125
-2.74658203125
-10.986328125
-21.05712890625
-27.4658203125
-16.4794921875
-1.8310546875
-5.4931640625
-7.32421875
-11.90185546875
-16.4794921875
-9.1552734375
-4.57763671875
-13.73291015625
-15.56396484375
-17.39501953125
-21.97265625
-21.97265625
-19.22607421875
-21.05712890625
-29.296875
-32.04345703125
-26.55029296875
-20.1416015625
-28.38134765625
-27.4658203125
-40.283203125
-27.4658203125
-22.88818359375
-24.71923828125
-25.634765625
-38.4521484375
-43.9453125
-35.70556640625
-32.958984375
-32.958984375
-25.634765625
-27.4658203125
-35.70556640625
-25.634765625
-22.88818359375
-30.21240234375
-29.296875
-30.21240234375
-30.21240234375
-37.53662109375
-22.88818359375
-32.04345703125
-41.19873046875
-48.52294921875
-43.02978515625
-27.4658203125
-30.21240234375
-28.38134765625
-32.04345703125
-31.1279296875
-21.97265625
-26.55029296875
-31.1279296875
-36.62109375
-33.87451171875
-29.296875
-38.4521484375
-48.52294921875
-35.70556640625
-30.21240234375
-19.22607421875
-11.90185546875
-2.74658203125
10.986328125
29.296875
34.7900390625
29.296875
32.958984375
26.55029296875
24.71923828125
25.634765625
43.02978515625
54.01611328125
65.00244140625
60.4248046875
48.52294921875
46.69189453125
47.607421875
59.50927734375
45.7763671875
50.35400390625
54.01611328125
57.67822265625
54.931640625
28.38134765625
11.90185546875
21.05712890625
-5.4931640625
-19.22607421875
-41.19873046875
-39.36767578125
-52.18505859375
-48.52294921875
-32.04345703125
-31.1279296875
-40.283203125
-43.9453125
-41.19873046875
-51.26953125
-50.35400390625
-52.18505859375
-55.84716796875
-55.84716796875
-59.50927734375
-59.50927734375
-61.34033203125
-54.01611328125
-45.7763671875
-52.18505859375
-55.84716796875
-63.17138671875
-65.91796875
-59.50927734375
-62.255859375
-65.91796875
-82.3974609375
-93.3837890625
-97.0458984375
-108.94775390625
-114.44091796875
-114.44091796875
-100.7080078125
-69.580078125
-3.662109375
41.19873046875
108.94775390625
162.9638671875
245.361328125
336.9140625
420.22705078125
535.58349609375
679.3212890625
802.91748046875
889.892578125
1002.50244140625
1099.54833984375
1078.4912109375
1004.33349609375
835.87646484375
624.3896484375
390.93017578125
182.18994140625
-3.662109375
-175.78125
-297.54638671875
-332.33642578125
-310.36376953125
-272.8271484375
-216.97998046875
-179.443359375
-137.3291015625
-90.63720703125
-61.34033203125
-30.21240234375
-3.662109375
13.73291015625
23.8037109375
23.8037109375
10.986328125
3.662109375
10.986328125
23.8037109375
18.310546875
21.97265625
17.39501953125
8.23974609375
12.8173828125
13.73291015625
5.4931640625
6.40869140625
10.986328125
21.05712890625
24.71923828125
21.97265625
10.07080078125
10.986328125
-0.91552734375
1.8310546875
26.55029296875
37.53662109375
34.7900390625
42.1142578125
29.296875
32.04345703125
33.87451171875
31.1279296875
37.53662109375
34.7900390625
43.02978515625
43.02978515625
40.283203125
39.36767578125
46.69189453125
45.7763671875
56.7626953125
54.01611328125
42.1142578125
33.87451171875
54.01611328125
65.91796875
63.17138671875
69.580078125
67.7490234375
61.34033203125
57.67822265625
71.4111328125
89.7216796875
90.63720703125
97.0458984375
87.890625
86.0595703125
78.7353515625
73.2421875
96.13037109375
115.3564453125
120.849609375
111.6943359375
120.849609375
138.24462890625
129.08935546875
132.75146484375
136.41357421875
142.822265625
158.38623046875
165.71044921875
173.9501953125
169.37255859375
171.20361328125
170.2880859375
180.35888671875
189.51416015625
196.83837890625
209.65576171875
218.81103515625
214.2333984375
218.81103515625
222.47314453125
224.30419921875
220.64208984375
216.97998046875
224.30419921875
244.44580078125
248.10791015625
240.78369140625
244.44580078125
241.69921875
248.10791015625
237.12158203125
233.45947265625
224.30419921875
226.13525390625
238.95263671875
246.27685546875
245.361328125
238.037109375
238.95263671875
228.8818359375
228.8818359375
240.78369140625
229.79736328125
208.740234375
201.416015625
194.091796875
179.443359375
189.51416015625
168.45703125
140.9912109375
136.41357421875
148.3154296875
146.484375
109.86328125
98.876953125
92.46826171875
90.63720703125
75.98876953125
55.84716796875
50.35400390625
46.69189453125
40.283203125
27.4658203125
22.88818359375
22.88818359375
16.4794921875
4.57763671875
-7.32421875
-15.56396484375
-21.97265625
-10.07080078125
-9.1552734375
-12.8173828125
-10.07080078125
-28.38134765625
-36.62109375
-26.55029296875
-34.7900390625
-32.04345703125
-29.296875
-33.87451171875
-33.87451171875
-33.87451171875
-24.71923828125
-30.21240234375
-32.958984375
-38.4521484375
-34.7900390625
-35.70556640625
-29.296875
-28.38134765625
-45.7763671875
-45.7763671875
-34.7900390625
-13.73291015625
-6.40869140625
-14.6484375
-34.7900390625
-35.70556640625
-21.05712890625
-21.05712890625
-27.4658203125
-23.8037109375
-28.38134765625
-24.71923828125
-20.1416015625
-21.97265625
-9.1552734375
-10.986328125
-11.90185546875
-25.634765625
-30.21240234375
-20.1416015625
-8.23974609375
-14.6484375
-17.39501953125
-0.91552734375
0.91552734375
-5.4931640625
5.4931640625
-3.662109375
-3.662109375
-9.1552734375
-5.4931640625
-6.40869140625
-8.23974609375
-15.56396484375
-8.23974609375
-6.40869140625
-6.40869140625
-7.32421875
-3.662109375
9.1552734375
-6.40869140625
-27.4658203125
-12.8173828125
-11.90185546875
-8.23974609375
-4.57763671875
-14.6484375
-15.56396484375
-13.73291015625
-18.310546875
-19.22607421875
-14.6484375
-14.6484375
-28.38134765625
-26.55029296875
-43.9453125
-54.931640625
-45.7763671875
-33.87451171875
-21.05712890625
-16.4794921875
-19.22607421875
-16.4794921875
-24.71923828125
-19.22607421875
-20.1416015625
-25.634765625
-36.62109375
-38.4521484375
-36.62109375
-32.04345703125
-29.296875
-35.70556640625
-35.70556640625
-34.7900390625
-34.7900390625
-28.38134765625
-31.1279296875
-32.958984375
-33.87451171875
-36.62109375
-38.4521484375
-34.7900390625
-35.70556640625
-43.02978515625
-44.86083984375
-44.86083984375
-44.86083984375
-44.86083984375
-54.931640625
-48.52294921875
-45.7763671875
-49.4384765625
-46.69189453125
-44.86083984375
-59.50927734375
-66.83349609375
-43.9453125
-42.1142578125
-38.4521484375
-54.01611328125
-65.00244140625
-69.580078125
-62.255859375
-38.4521484375
-46.69189453125
-51.26953125
-57.67822265625
-56.7626953125
-47.607421875
-53.1005859375
-54.01611328125
-46.69189453125
-40.283203125
-41.19873046875
-47.607421875
-60.4248046875
-54.931640625
-51.26953125
-55.84716796875
-56.7626953125
-58.59375
-60.4248046875
-54.931640625
-56.7626953125
-57.67822265625
-64.0869140625
-56.7626953125
-53.1005859375
-67.7490234375
-59.50927734375
-42.1142578125
-46.69189453125
-34.7900390625
-1.8310546875
4.57763671875
15.56396484375
20.1416015625
21.97265625
10.07080078125
21.05712890625
10.07080078125
10.07080078125
27.4658203125
39.36767578125
39.36767578125
42.1142578125
35.70556640625
43.02978515625
52.18505859375
46.69189453125
24.71923828125
36.62109375
31.1279296875
21.97265625
13.73291015625
12.8173828125
15.56396484375
-9.1552734375
-18.310546875
-21.97265625
-32.958984375
-56.7626953125
-67.7490234375
-58.59375
-47.607421875
-49.4384765625
-56.7626953125
-60.4248046875
-62.255859375
-60.4248046875
-67.7490234375
-65.91796875
-64.0869140625
-70.49560546875
-77.81982421875
-91.552734375
-90.63720703125
-76.904296875
-73.2421875
-76.904296875
-70.49560546875
-75.0732421875
-69.580078125
-69.580078125
-88.80615234375
-95.21484375
-86.97509765625
-102.5390625
-104.3701171875
-128.173828125
-131.8359375
-131.8359375
-119.0185546875
-55.84716796875
-7.32421875
54.931640625
112.60986328125
191.34521484375
290.22216796875
375.3662109375
486.14501953125
617.0654296875
754.39453125
861.51123046875
964.05029296875
1078.4912109375
1110.53466796875
1055.60302734375
896.30126953125
681.15234375
434.87548828125
203.2470703125
-8.23974609375
-195.00732421875
-324.0966796875
-363.46435546875
-346.98486328125
-307.6171875
-263.671875
-226.13525390625
-195.00732421875
-138.24462890625
-109.86328125
-80.56640625
-38.4521484375
-13.73291015625
8.23974609375
2.74658203125
4.57763671875
8.23974609375
4.57763671875
8.23974609375
5.4931640625
-12.8173828125
-8.23974609375
-8.23974609375
-6.40869140625
-8.23974609375
-10.07080078125
-10.07080078125
-9.1552734375
1.8310546875
-1.8310546875
-5.4931640625
-5.4931640625
-0.91552734375
0.91552734375
12.8173828125
21.05712890625
30.21240234375
23.8037109375
17.39501953125
20.1416015625
28.38134765625
26.55029296875
26.55029296875
27.4658203125
22.88818359375
10.986328125
21.97265625
25.634765625
17.39501953125
4.57763671875
10.07080078125
22.88818359375
30.21240234375
24.71923828125
25.634765625
45.7763671875
50.35400390625
52.18505859375
49.4384765625
50.35400390625
51.26953125
53.1005859375
60.4248046875
67.7490234375
65.91796875
68.66455078125
75.98876953125
80.56640625
76.904296875
68.66455078125
79.65087890625
91.552734375
92.46826171875
84.228515625
79.65087890625
100.7080078125
120.849609375
129.08935546875
124.51171875
117.1875
128.173828125
124.51171875
133.6669921875
150.146484375
152.89306640625
155.6396484375
169.37255859375
190.4296875
194.091796875
179.443359375
182.18994140625
190.4296875
192.2607421875
200.50048828125
198.66943359375
200.50048828125
215.14892578125
216.97998046875
204.16259765625
207.82470703125
214.2333984375
219.7265625
236.2060546875
230.712890625
227.05078125
228.8818359375
228.8818359375
238.037109375
240.78369140625
240.78369140625
234.375
232.5439453125
232.5439453125
225.2197265625
216.064453125
217.8955078125
212.40234375
201.416015625
183.10546875
157.470703125
154.72412109375
152.89306640625
155.6396484375
151.06201171875
124.51171875
117.1875
110.77880859375
96.13037109375
86.0595703125
83.31298828125
61.34033203125
46.69189453125
35.70556640625
31.1279296875
30.21240234375
28.38134765625
15.56396484375
5.4931640625
7.32421875
-4.57763671875
-10.07080078125
-2.74658203125
-6.40869140625
-29.296875
-43.02978515625
-42.1142578125
-50.35400390625
-64.0869140625
-46.69189453125
-45.7763671875
-51.26953125
-65.00244140625
-62.255859375
-67.7490234375
-75.0732421875
-75.0732421875
-71.4111328125
-72.32666015625
-69.580078125
-75.98876953125
-75.0732421875
-71.4111328125
-72.32666015625
-64.0869140625
-63.17138671875
-54.01611328125
-50.35400390625
-42.1142578125
-49.4384765625
-57.67822265625
-63.17138671875
-70.49560546875
-54.01611328125
-38.4521484375
-40.283203125
-49.4384765625
-43.02978515625
-38.4521484375
-35.70556640625
-38.4521484375
-39.36767578125
-34.7900390625
-38.4521484375
-41.19873046875
-58.59375
-60.4248046875
-40.283203125
-33.87451171875
-40.283203125
-41.19873046875
-44.86083984375
-39.36767578125
-36.62109375
-49.4384765625
-47.607421875
-54.931640625
-43.9453125
-25.634765625
-28.38134765625
-33.87451171875
-42.1142578125
-53.1005859375
-43.02978515625
-41.19873046875
-50.35400390625
-55.84716796875
-57.67822265625
-55.84716796875
-54.01611328125
-55.84716796875
-78.7353515625
-72.32666015625
-45.7763671875
-32.958984375
-39.36767578125
-40.283203125
-38.4521484375
-40.283203125
-48.52294921875
-53.1005859375
-58.59375
-56.7626953125
-52.18505859375
-50.35400390625
-50.35400390625
-54.931640625
-48.52294921875
-44.86083984375
-53.1005859375
-60.4248046875
-53.1005859375
-41.19873046875
-48.52294921875
-48.52294921875
-45.7763671875
-47.607421875
-56.7626953125
-75.98876953125
-100.7080078125
-99.79248046875
-96.13037109375
-97.96142578125
-82.3974609375
-77.81982421875
-78.7353515625
-76.904296875
-70.49560546875
-72.32666015625
-79.65087890625
-90.63720703125
-79.65087890625
-85.14404296875
-85.14404296875
-77.81982421875
-85.14404296875
-88.80615234375
-82.3974609375
-76.904296875
-74.15771484375
-81.48193359375
-95.21484375
-94.29931640625
-82.3974609375
-73.2421875
-73.2421875
-78.7353515625
-86.97509765625
-81.48193359375
-72.32666015625
-66.83349609375
-72.32666015625
-71.4111328125
-79.65087890625
-94.29931640625
-93.3837890625
-83.31298828125
-73.2421875
-81.48193359375
-80.56640625
-68.66455078125
-81.48193359375
-95.21484375
-99.79248046875
-100.7080078125
-88.80615234375
-92.46826171875
-97.0458984375
-99.79248046875
-99.79248046875
-107.11669921875
-111.6943359375
-105.28564453125
-93.3837890625
-89.7216796875
-86.0595703125
-86.97509765625
-88.80615234375
-89.7216796875
-86.0595703125
-78.7353515625
-79.65087890625
-102.5390625
-96.13037109375
-82.3974609375
-81.48193359375
-83.31298828125
-96.13037109375
-91.552734375
-91.552734375
-102.5390625
-91.552734375
-92.46826171875
-87.890625
-78.7353515625
-73.2421875
-64.0869140625
-57.67822265625
-48.52294921875
-32.04345703125
-18.310546875
-19.22607421875
-28.38134765625
-32.958984375
-26.55029296875
-5.4931640625
5.4931640625
13.73291015625
24.71923828125
27.4658203125
26.55029296875
12.8173828125
11.90185546875
-4.57763671875
-11.90185546875
-16.4794921875
-8.23974609375
-14.6484375
-21.05712890625
-14.6484375
-19.22607421875
-39.36767578125
-64.0869140625
-73.2421875
-69.580078125
-93.3837890625
-127.25830078125
-119.0185546875
-102.5390625
-88.80615234375
-87.890625
-92.46826171875
-101.62353515625
-103.45458984375
-93.3837890625
-99.79248046875
-102.5390625
-100.7080078125
-102.5390625
-105.28564453125
-110.77880859375
-112.60986328125
-111.6943359375
-109.86328125
-111.6943359375
-107.11669921875
-108.0322265625
-108.0322265625
-120.849609375
-140.07568359375
-141.90673828125
-149.23095703125
-157.470703125
-170.2880859375
-165.71044921875
-153.80859375
-108.0322265625
-54.01611328125
-8.23974609375
62.255859375
138.24462890625
229.79736328125
332.33642578125
437.6220703125
559.38720703125
711.36474609375
845.947265625
937.5
1026.30615234375
1112.36572265625
1106.87255859375
997.00927734375
786.43798828125
531.005859375
277.40478515625
44.86083984375
-159.3017578125
-330.50537109375
-430.2978515625
-415.6494140625
-375.3662109375
-325.01220703125
-281.982421875
-222.47314453125
-176.69677734375
-133.6669921875
-108.94775390625
-74.15771484375
-45.7763671875
-28.38134765625
-10.986328125
-13.73291015625
-21.97265625
-18.310546875
-22.88818359375
-30.21240234375
-44.86083984375
-52.18505859375
-54.931640625
-43.9453125
-34.7900390625
-33.87451171875
-32.958984375
-39.36767578125
-43.02978515625
-36.62109375
-38.4521484375
-40.283203125
-29.296875
-30.21240234375
-29.296875
-22.88818359375
-22.88818359375
-18.310546875
-22.88818359375
-21.97265625
-18.310546875
-11.90185546875
-10.07080078125
-12.8173828125
-15.56396484375
-12.8173828125
-8.23974609375
-5.4931640625
-3.662109375
-7.32421875
5.4931640625
0.91552734375
0
0
0.91552734375
9.1552734375
1.8310546875
7.32421875
23.8037109375
20.1416015625
11.90185546875
23.8037109375
27.4658203125
40.283203125
43.9453125
35.70556640625
41.19873046875
48.52294921875
54.931640625
57.67822265625
61.34033203125
61.34033203125
69.580078125
72.32666015625
77.81982421875
77.81982421875
76.904296875
80.56640625
89.7216796875
99.79248046875
107.11669921875
115.3564453125
120.849609375
122.6806640625
124.51171875
130.0048828125
129.08935546875
140.07568359375
155.6396484375
163.87939453125
168.45703125
173.03466796875
178.52783203125
172.119140625
173.9501953125
185.85205078125
196.83837890625
189.51416015625
187.68310546875
192.2607421875
202.33154296875
203.2470703125
198.66943359375
210.5712890625
214.2333984375
209.65576171875
210.5712890625
201.416015625
200.50048828125
215.14892578125
216.064453125
204.16259765625
204.16259765625
205.078125
199.5849609375
189.51416015625
191.34521484375
177.6123046875
173.9501953125
167.54150390625
161.1328125
148.3154296875
137.3291015625
137.3291015625
126.3427734375
115.3564453125
108.0322265625
92.46826171875
80.56640625
64.0869140625
44.86083984375
39.36767578125
30.21240234375
21.05712890625
10.07080078125
2.74658203125
-0.91552734375
-10.986328125
-19.22607421875
-35.70556640625
-54.01611328125
-57.67822265625
-59.50927734375
-54.931640625
-65.00244140625
-75.0732421875
-78.7353515625
-74.15771484375
-67.7490234375
-77.81982421875
-83.31298828125
-98.876953125
-98.876953125
-99.79248046875
-91.552734375
-81.48193359375
-86.97509765625
-86.97509765625
-89.7216796875
-99.79248046875
-100.7080078125
-94.29931640625
-86.0595703125
-89.7216796875
-89.7216796875
-96.13037109375
-98.876953125
-94.29931640625
-91.552734375
-85.14404296875
-93.3837890625
-86.0595703125
-75.0732421875
-75.98876953125
-78.7353515625
-81.48193359375
-80.56640625
-75.0732421875
-75.0732421875
-75.0732421875
-75.0732421875
-76.904296875
-78.7353515625
-74.15771484375
-69.580078125
-68.66455078125
-68.66455078125
-71.4111328125
-78.7353515625
-68.66455078125
-75.98876953125
-78.7353515625
-87.890625
-84.228515625
-89.7216796875
-92.46826171875
-84.228515625
-74.15771484375
-71.4111328125
-62.255859375
-65.00244140625
-70.49560546875
-78.7353515625
-87.890625
-90.63720703125
-81.48193359375
-79.65087890625
-86.97509765625
-87.890625
-77.81982421875
-66.83349609375
-70.49560546875
-73.2421875
-68.66455078125
-69.580078125
-74.15771484375
-78.7353515625
-79.65087890625
-83.31298828125
-86.97509765625
-83.31298828125
-81.48193359375
-81.48193359375
-82.3974609375
-86.97509765625
-87.890625
-90.63720703125
-88.80615234375
-85.14404296875
-85.14404296875
-78.7353515625
-82.3974609375
-78.7353515625
-78.7353515625
-91.552734375
-101.62353515625
-115.3564453125
-122.6806640625
-124.51171875
-113.525390625
-98.876953125
-101.62353515625
-97.0458984375
-95.21484375
-102.5390625
-113.525390625
-110.77880859375
-108.0322265625
-107.11669921875
-105.28564453125
-108.94775390625
-106.201171875
-105.28564453125
-101.62353515625
-98.876953125
-99.79248046875
-98.876953125
-112.60986328125
-108.94775390625
-103.45458984375
-100.7080078125
-105.28564453125
-109.86328125
-109.86328125
-108.0322265625
-108.0322265625
-114.44091796875
-115.3564453125
-106.201171875
-108.94775390625
-104.3701171875
-108.94775390625
-110.77880859375
-116.27197265625
-114.44091796875
-109.86328125
-109.86328125
-111.6943359375
-103.45458984375
-114.44091796875
-122.6806640625
-137.3291015625
-136.41357421875
-127.25830078125
-126.3427734375
-116.27197265625
-115.3564453125
-119.93408203125
-111.6943359375
-113.525390625
-118.10302734375
-124.51171875
-121.76513671875
-123.59619140625
-122.6806640625
-114.44091796875
-119.93408203125
-123.59619140625
-113.525390625
-101.62353515625
-97.96142578125
-75.98876953125
-53.1005859375
-47.607421875
-47.607421875
-42.1142578125
-43.02978515625
-45.7763671875
-49.4384765625
-48.52294921875
-32.958984375
-19.22607421875
-10.07080078125
-1.8310546875
-10.07080078125
-22.88818359375
-35.70556640625
-54.931640625
