ECG
36.62109375
16.4794921875
16.4794921875
36.62109375
40.283203125
19.22607421875
30.21240234375
53.1005859375
66.83349609375
72.32666015625
65.00244140625
59.50927734375
70.49560546875
78.7353515625
67.7490234375
62.255859375
75.0732421875
82.3974609375
73.2421875
71.4111328125
92.46826171875
97.0458984375
98.876953125
98.876953125
82.3974609375
71.4111328125
93.3837890625
139.16015625
166.6259765625
170.2880859375
157.470703125
154.72412109375
182.18994140625
183.10546875
166.6259765625
165.71044921875
178.52783203125
189.51416015625
192.2607421875
195.00732421875
249.93896484375
268.24951171875
255.43212890625
266.41845703125
261.8408203125
264.58740234375
284.72900390625
300.29296875
297.54638671875
288.39111328125
280.1513671875
281.06689453125
317.68798828125
324.0966796875
319.51904296875
325.927734375
336.9140625
345.15380859375
344.23828125
346.98486328125
357.0556640625
355.224609375
333.251953125
316.7724609375
324.0966796875
315.85693359375
296.630859375
288.39111328125
279.23583984375
274.658203125
258.1787109375
234.375
207.82470703125
182.18994140625
157.470703125
151.9775390625
124.51171875
108.0322265625
102.5390625
108.0322265625
102.5390625
78.7353515625
62.255859375
48.52294921875
41.19873046875
31.1279296875
13.73291015625
-13.73291015625
-35.70556640625
-21.05712890625
2.74658203125
-5.4931640625
-29.296875
-64.0869140625
-47.607421875
-15.56396484375
-10.07080078125
-28.38134765625
-41.19873046875
-39.36767578125
-19.22607421875
-21.05712890625
-38.4521484375
-63.17138671875
-75.98876953125
-97.96142578125
-73.2421875
-54.931640625
-51.26953125
-20.1416015625
-32.04345703125
-47.607421875
-48.52294921875
-69.580078125
-80.56640625
-42.1142578125
-27.4658203125
-34.7900390625
-45.7763671875
-60.4248046875
-65.00244140625
-50.35400390625
-51.26953125
-60.4248046875
-73.2421875
-68.66455078125
-64.0869140625
-62.255859375
-64.0869140625
-66.83349609375
-54.01611328125
-58.59375
-65.00244140625
-75.0732421875
-62.255859375
-61.34033203125
-63.17138671875
-73.2421875
-67.7490234375
-53.1005859375
-57.67822265625
-46.69189453125
-56.7626953125
-66.83349609375
-60.4248046875
-46.69189453125
-57.67822265625
-44.86083984375
-43.02978515625
-41.19873046875
-35.70556640625
-44.86083984375
-57.67822265625
-54.931640625
-52.18505859375
-57.67822265625
-52.18505859375
-54.931640625
-52.18505859375
-35.70556640625
-32.04345703125
-39.36767578125
-33.87451171875
-40.283203125
-54.931640625
-71.4111328125
-57.67822265625
-52.18505859375
-59.50927734375
-62.255859375
-42.1142578125
-46.69189453125
-48.52294921875
-56.7626953125
-79.65087890625
-67.7490234375
-55.84716796875
-59.50927734375
-50.35400390625
-38.4521484375
-34.7900390625
-49.4384765625
-67.7490234375
-69.580078125
-71.4111328125
-77.81982421875
-57.67822265625
-56.7626953125
-54.01611328125
-52.18505859375
-49.4384765625
-65.91796875
-58.59375
-60.4248046875
-75.0732421875
-69.580078125
-68.66455078125
-56.7626953125
-55.84716796875
-54.931640625
-60.4248046875
-65.91796875
-60.4248046875
-60.4248046875
-67.7490234375
-66.83349609375
-67.7490234375
-64.0869140625
-67.7490234375
-54.931640625
-45.7763671875
-54.931640625
-72.32666015625
-75.0732421875
-77.81982421875
-75.0732421875
-74.15771484375
-71.4111328125
-72.32666015625
-56.7626953125
-48.52294921875
-51.26953125
-62.255859375
-75.0732421875
-70.49560546875
-82.3974609375
-75.98876953125
-75.0732421875
-71.4111328125
-54.931640625
-47.607421875
-54.931640625
-61.34033203125
-65.91796875
-66.83349609375
-67.7490234375
-62.255859375
-53.1005859375
-37.53662109375
-44.86083984375
-28.38134765625
-17.39501953125
-10.07080078125
-7.32421875
-16.4794921875
-22.88818359375
-13.73291015625
-42.1142578125
-38.4521484375
-4.57763671875
2.74658203125
23.8037109375
28.38134765625
18.310546875
-0.91552734375
18.310546875
11.90185546875
-3.662109375
-9.1552734375
6.40869140625
4.57763671875
-10.07080078125
-17.39501953125
-16.4794921875
-4.57763671875
-2.74658203125
-7.32421875
-6.40869140625
-11.90185546875
-15.56396484375
-27.4658203125
-32.04345703125
-35.70556640625
-40.283203125
-60.4248046875
-74.15771484375
-69.580078125
-68.66455078125
-73.2421875
-75.98876953125
-66.83349609375
-86.97509765625
-87.890625
-65.91796875
-86.0595703125
-84.228515625
-75.98876953125
-81.48193359375
-86.97509765625
-78.7353515625
-75.0732421875
-74.15771484375
-89.7216796875
-89.7216796875
-76.904296875
-79.65087890625
-79.65087890625
-81.48193359375
-92.46826171875
-86.97509765625
-75.0732421875
-75.98876953125
-81.48193359375
-78.7353515625
-82.3974609375
-80.56640625
-84.228515625
-85.14404296875
-79.65087890625
-76.904296875
-78.7353515625
-82.3974609375
-93.3837890625
-110.77880859375
-128.173828125
-123.59619140625
-103.45458984375
-72.32666015625
-32.958984375
10.07080078125
62.255859375
152.89306640625
256.34765625
363.46435546875
478.82080078125
592.34619140625
671.9970703125
723.2666015625
720.52001953125
635.3759765625
498.96240234375
329.58984375
146.484375
-4.57763671875
-128.173828125
-183.10546875
-226.13525390625
-270.08056640625
-281.982421875
-247.1923828125
-203.2470703125
-170.2880859375
-134.58251953125
-117.1875
-98.876953125
-86.0595703125
-82.3974609375
-86.97509765625
-63.17138671875
-40.283203125
-39.36767578125
-33.87451171875
-39.36767578125
-43.02978515625
-34.7900390625
-35.70556640625
-32.04345703125
-43.02978515625
-53.1005859375
-34.7900390625
-20.1416015625
-26.55029296875
-28.38134765625
-25.634765625
-24.71923828125
-20.1416015625
-28.38134765625
-28.38134765625
-31.1279296875
-20.1416015625
1.8310546875
-6.40869140625
-6.40869140625
-5.4931640625
-13.73291015625
-21.05712890625
-25.634765625
-31.1279296875
-20.1416015625
-9.1552734375
-4.57763671875
-8.23974609375
-10.07080078125
-14.6484375
-23.8037109375
-20.1416015625
-1.8310546875
20.1416015625
16.4794921875
18.310546875
21.05712890625
21.05712890625
4.57763671875
1.8310546875
10.07080078125
17.39501953125
25.634765625
25.634765625
26.55029296875
35.70556640625
43.9453125
35.70556640625
32.04345703125
40.283203125
42.1142578125
38.4521484375
43.02978515625
50.35400390625
45.7763671875
64.0869140625
75.98876953125
71.4111328125
63.17138671875
69.580078125
62.255859375
64.0869140625
78.7353515625
88.80615234375
93.3837890625
103.45458984375
114.44091796875
118.10302734375
106.201171875
112.60986328125
121.76513671875
130.0048828125
141.90673828125
152.89306640625
166.6259765625
172.119140625
184.02099609375
195.9228515625
192.2607421875
186.767578125
195.9228515625
214.2333984375
239.8681640625
252.685546875
254.5166015625
275.57373046875
291.1376953125
289.306640625
281.982421875
293.88427734375
300.29296875
284.72900390625
297.54638671875
320.4345703125
327.7587890625
335.99853515625
330.50537109375
332.33642578125
343.32275390625
338.7451171875
326.84326171875
325.927734375
324.0966796875
321.35009765625
312.19482421875
303.955078125
303.03955078125
289.306640625
268.24951171875
249.0234375
235.29052734375
220.64208984375
205.078125
185.85205078125
171.20361328125
153.80859375
139.16015625
121.76513671875
105.28564453125
85.14404296875
68.66455078125
57.67822265625
43.02978515625
23.8037109375
15.56396484375
19.22607421875
0
-10.986328125
-4.57763671875
-15.56396484375
-32.958984375
-35.70556640625
-41.19873046875
-46.69189453125
-33.87451171875
-42.1142578125
-47.607421875
-48.52294921875
-56.7626953125
-66.83349609375
-71.4111328125
-60.4248046875
-56.7626953125
-57.67822265625
-65.00244140625
-54.931640625
-60.4248046875
-60.4248046875
-63.17138671875
-69.580078125
-81.48193359375
-82.3974609375
-87.890625
-71.4111328125
-54.931640625
-70.49560546875
-86.97509765625
-84.228515625
-75.98876953125
-70.49560546875
-67.7490234375
-70.49560546875
-78.7353515625
-85.14404296875
-86.0595703125
-76.904296875
-77.81982421875
-75.0732421875
-82.3974609375
-88.80615234375
-92.46826171875
-87.890625
-75.0732421875
-82.3974609375
-75.98876953125
-80.56640625
-78.7353515625
-77.81982421875
-76.904296875
-78.7353515625
-94.29931640625
-83.31298828125
-74.15771484375
-80.56640625
-72.32666015625
-61.34033203125
-65.91796875
-73.2421875
-84.228515625
-83.31298828125
-86.97509765625
-75.98876953125
-65.91796875
-70.49560546875
-81.48193359375
-73.2421875
-68.66455078125
-81.48193359375
-77.81982421875
-65.91796875
-69.580078125
-65.91796875
-65.00244140625
-75.0732421875
-68.66455078125
-63.17138671875
-65.00244140625
-65.00244140625
-66.83349609375
-69.580078125
-72.32666015625
-71.4111328125
-71.4111328125
-75.98876953125
-73.2421875
-70.49560546875
-64.0869140625
-64.0869140625
-63.17138671875
-74.15771484375
-78.7353515625
-72.32666015625
-71.4111328125
-73.2421875
-73.2421875
-65.00244140625
-65.91796875
-62.255859375
-69.580078125
-69.580078125
-65.00244140625
-75.98876953125
-61.34033203125
-68.66455078125
-62.255859375
-62.255859375
-62.255859375
-71.4111328125
-65.91796875
-64.0869140625
-67.7490234375
-87.890625
-77.81982421875
-66.83349609375
-62.255859375
-44.86083984375
-54.01611328125
-65.00244140625
-71.4111328125
-71.4111328125
-72.32666015625
-66.83349609375
-66.83349609375
-76.904296875
-72.32666015625
-69.580078125
-64.0869140625
-56.7626953125
-68.66455078125
-61.34033203125
-68.66455078125
-72.32666015625
-66.83349609375
-56.7626953125
-57.67822265625
-57.67822265625
-52.18505859375
-63.17138671875
-61.34033203125
-64.0869140625
-77.81982421875
-77.81982421875
-66.83349609375
-70.49560546875
-67.7490234375
-63.17138671875
-62.255859375
-59.50927734375
-65.00244140625
-74.15771484375
-64.0869140625
-63.17138671875
-76.904296875
-67.7490234375
-68.66455078125
-60.4248046875
-64.0869140625
-60.4248046875
-71.4111328125
-74.15771484375
-74.15771484375
-74.15771484375
-64.0869140625
-63.17138671875
-63.17138671875
-46.69189453125
-42.1142578125
-56.7626953125
-75.0732421875
-74.15771484375
-79.65087890625
-77.81982421875
-66.83349609375
-70.49560546875
-60.4248046875
-61.34033203125
-71.4111328125
-74.15771484375
-55.84716796875
-65.91796875
-73.2421875
-67.7490234375
-70.49560546875
-77.81982421875
-64.0869140625
-54.931640625
-58.59375
-64.0869140625
-69.580078125
-65.00244140625
-71.4111328125
-61.34033203125
-62.255859375
-68.66455078125
-60.4248046875
-45.7763671875
-37.53662109375
-38.4521484375
-33.87451171875
-34.7900390625
-34.7900390625
-15.56396484375
-13.73291015625
-5.4931640625
-11.90185546875
-15.56396484375
-23.8037109375
-24.71923828125
-30.21240234375
-31.1279296875
-27.4658203125
-10.07080078125
10.07080078125
14.6484375
23.8037109375
28.38134765625
21.97265625
18.310546875
9.1552734375
0.91552734375
-17.39501953125
-6.40869140625
3.662109375
-5.4931640625
-5.4931640625
-0.91552734375
-7.32421875
-3.662109375
-5.4931640625
-14.6484375
-28.38134765625
-31.1279296875
-32.958984375
-37.53662109375
-52.18505859375
-50.35400390625
-60.4248046875
-68.66455078125
-71.4111328125
-66.83349609375
-73.2421875
-65.91796875
-75.98876953125
-78.7353515625
-65.00244140625
-62.255859375
-66.83349609375
-76.904296875
-82.3974609375
-77.81982421875
-71.4111328125
-75.0732421875
-72.32666015625
-74.15771484375
-63.17138671875
-54.931640625
-62.255859375
-72.32666015625
-68.66455078125
-69.580078125
-79.65087890625
-79.65087890625
-73.2421875
-80.56640625
-69.580078125
-58.59375
-75.98876953125
-69.580078125
-78.7353515625
-92.46826171875
-80.56640625
-84.228515625
-102.5390625
-108.0322265625
-108.0322265625
-87.890625
-62.255859375
-36.62109375
-10.986328125
31.1279296875
108.94775390625
204.16259765625
283.8134765625
422.9736328125
557.55615234375
639.0380859375
708.6181640625
738.83056640625
682.06787109375
570.37353515625
408.3251953125
227.05078125
69.580078125
-66.83349609375
-137.3291015625
-177.6123046875
-227.05078125
-260.92529296875
-242.61474609375
-213.31787109375
-167.54150390625
-128.173828125
-105.28564453125
-82.3974609375
-53.1005859375
-39.36767578125
-46.69189453125
-41.19873046875
-30.21240234375
-41.19873046875
-36.62109375
-15.56396484375
-10.986328125
-15.56396484375
-10.07080078125
-20.1416015625
-12.8173828125
-14.6484375
-29.296875
-19.22607421875
-19.22607421875
-23.8037109375
-22.88818359375
-4.57763671875
-6.40869140625
-14.6484375
-6.40869140625
-2.74658203125
-10.986328125
-9.1552734375
-10.07080078125
-10.986328125
-2.74658203125
-11.90185546875
-0.91552734375
-1.8310546875
0
10.07080078125
15.56396484375
6.40869140625
5.4931640625
6.40869140625
7.32421875
2.74658203125
0.91552734375
17.39501953125
17.39501953125
17.39501953125
13.73291015625
4.57763671875
15.56396484375
27.4658203125
31.1279296875
26.55029296875
30.21240234375
32.04345703125
33.87451171875
43.02978515625
42.1142578125
39.36767578125
39.36767578125
21.05712890625
35.70556640625
28.38134765625
37.53662109375
48.52294921875
36.62109375
48.52294921875
43.9453125
50.35400390625
57.67822265625
46.69189453125
52.18505859375
64.0869140625
75.0732421875
81.48193359375
83.31298828125
77.81982421875
86.0595703125
90.63720703125
93.3837890625
94.29931640625
114.44091796875
106.201171875
117.1875
136.41357421875
140.9912109375
134.58251953125
152.89306640625
160.21728515625
160.21728515625
173.9501953125
184.9365234375
188.5986328125
215.14892578125
228.8818359375
230.712890625
231.62841796875
251.77001953125
242.61474609375
244.44580078125
260.92529296875
270.99609375
273.74267578125
292.05322265625
291.1376953125
299.37744140625
314.02587890625
309.4482421875
295.71533203125
312.19482421875
323.18115234375
325.01220703125
330.50537109375
335.0830078125
335.0830078125
316.7724609375
315.85693359375
307.6171875
314.94140625
296.630859375
285.64453125
275.57373046875
263.671875
248.10791015625
236.2060546875
215.14892578125
203.2470703125
191.34521484375
153.80859375
149.23095703125
138.24462890625
117.1875
86.97509765625
69.580078125
79.65087890625
73.2421875
57.67822265625
45.7763671875
21.97265625
11.90185546875
6.40869140625
-7.32421875
-19.22607421875
-12.8173828125
-13.73291015625
-23.8037109375
-40.283203125
-49.4384765625
-55.84716796875
-58.59375
-66.83349609375
-51.26953125
-43.9453125
-47.607421875
-49.4384765625
-49.4384765625
-51.26953125
-66.83349609375
-65.00244140625
-68.66455078125
-72.32666015625
-66.83349609375
-73.2421875
-63.17138671875
-61.34033203125
-67.7490234375
-66.83349609375
-69.580078125
-66.83349609375
-82.3974609375
-75.0732421875
-69.580078125
-63.17138671875
-69.580078125
-76.904296875
-77.81982421875
-67.7490234375
-61.34033203125
-72.32666015625
-76.904296875
-69.580078125
-64.0869140625
-72.32666015625
-66.83349609375
-60.4248046875
-60.4248046875
-65.00244140625
-80.56640625
-74.15771484375
-81.48193359375
-78.7353515625
-70.49560546875
-69.580078125
-60.4248046875
-81.48193359375
-72.32666015625
-66.83349609375
-81.48193359375
-78.7353515625
-73.2421875
-86.97509765625
-91.552734375
-81.48193359375
-70.49560546875
-70.49560546875
-83.31298828125
-80.56640625
-90.63720703125
-85.14404296875
-81.48193359375
-68.66455078125
-83.31298828125
-86.0595703125
-76.904296875
-70.49560546875
-67.7490234375
-78.7353515625
-64.0869140625
-80.56640625
-85.14404296875
-79.65087890625
-79.65087890625
-65.00244140625
-58.59375
-65.00244140625
-64.0869140625
-78.7353515625
-96.13037109375
-91.552734375
-89.7216796875
-73.2421875
-77.81982421875
-79.65087890625
-67.7490234375
-75.0732421875
-83.31298828125
-78.7353515625
-71.4111328125
-92.46826171875
-99.79248046875
-100.7080078125
-89.7216796875
-91.552734375
-69.580078125
-75.0732421875
-83.31298828125
-86.97509765625
-96.13037109375
-102.5390625
-97.96142578125
-86.97509765625
-105.28564453125
-104.3701171875
-85.14404296875
-107.11669921875
-101.62353515625
-100.7080078125
-80.56640625
-79.65087890625
-79.65087890625
-99.79248046875
-95.21484375
-95.21484375
-84.228515625
-80.56640625
-91.552734375
-94.29931640625
-81.48193359375
-95.21484375
-106.201171875
-86.97509765625
-90.63720703125
-97.96142578125
-91.552734375
-89.7216796875
-93.3837890625
-91.552734375
-94.29931640625
-97.96142578125
-96.13037109375
-93.3837890625
-90.63720703125
-103.45458984375
-89.7216796875
-99.79248046875
-85.14404296875
-92.46826171875
-93.3837890625
-108.0322265625
-105.28564453125
-91.552734375
-97.0458984375
-95.21484375
-97.0458984375
-94.29931640625
-96.13037109375
-104.3701171875
-87.890625
-82.3974609375
-105.28564453125
-92.46826171875
-97.0458984375
-99.79248046875
-100.7080078125
-104.3701171875
-108.0322265625
-116.27197265625
-103.45458984375
-119.93408203125
-110.77880859375
-100.7080078125
-106.201171875
-99.79248046875
-86.0595703125
-80.56640625
-96.13037109375
-98.876953125
-98.876953125
-112.60986328125
-107.11669921875
-114.44091796875
-106.201171875
-103.45458984375
-105.28564453125
-103.45458984375
-85.14404296875
-97.96142578125
-95.21484375
-98.876953125
-110.77880859375
-101.62353515625
-94.29931640625
-96.13037109375
-91.552734375
-73.2421875
-77.81982421875
-89.7216796875
-97.96142578125
-88.80615234375
-66.83349609375
-54.931640625
-65.00244140625
-54.01611328125
-43.9453125
-43.02978515625
-67.7490234375
-80.56640625
-75.0732421875
-54.931640625
-48.52294921875
-47.607421875
-32.958984375
-50.35400390625
-49.4384765625
-30.21240234375
-33.87451171875
-44.86083984375
-36.62109375
-50.35400390625
-49.4384765625
-45.7763671875
-57.67822265625
-58.59375
-43.9453125
-40.283203125
-62.255859375
-83.31298828125
-82.3974609375
-75.98876953125
-75.98876953125
-86.97509765625
-90.63720703125
-115.3564453125
-115.3564453125
-107.11669921875
-111.6943359375
-120.849609375
-114.44091796875
-107.11669921875
-110.77880859375
-118.10302734375
-119.0185546875
-113.525390625
-122.6806640625
-97.96142578125
-115.3564453125
-119.0185546875
-123.59619140625
-130.0048828125
-133.6669921875
-127.25830078125
-138.24462890625
-130.0048828125
-119.0185546875
-118.10302734375
-121.76513671875
-128.173828125
-125.42724609375
-123.59619140625
-135.498046875
-125.42724609375
-129.08935546875
-121.76513671875
-112.60986328125
-120.849609375
-108.0322265625
-117.1875
-106.201171875
-122.6806640625
-126.3427734375
-131.8359375
-146.484375
-157.470703125
-156.55517578125
-131.8359375
-107.11669921875
-84.228515625
-31.1279296875
29.296875
120.849609375
230.712890625
338.7451171875
456.84814453125
552.978515625
628.0517578125
632.62939453125
571.2890625
444.03076171875
279.23583984375
128.173828125
-19.22607421875
-152.89306640625
-230.712890625
-258.1787109375
-294.7998046875
-315.85693359375
-313.1103515625
-288.39111328125
-264.58740234375
-231.62841796875
-208.740234375
-161.1328125
-138.24462890625
-127.25830078125
-109.86328125
-94.29931640625
-91.552734375
-75.98876953125
-89.7216796875
-83.31298828125
-77.81982421875
-84.228515625
-79.65087890625
-68.66455078125
-63.17138671875
-71.4111328125
-56.7626953125
-59.50927734375
-70.49560546875
-69.580078125
-64.0869140625
-63.17138671875
-65.00244140625
-64.0869140625
-52.18505859375
-49.4384765625
-59.50927734375
-57.67822265625
-65.91796875
-77.81982421875
-66.83349609375
-61.34033203125
-54.931640625
-41.19873046875
-44.86083984375
-47.607421875
-48.52294921875
-47.607421875
-51.26953125
-62.255859375
-55.84716796875
-44.86083984375
-52.18505859375
-48.52294921875
-24.71923828125
-23.8037109375
-25.634765625
-38.4521484375
-49.4384765625
-39.36767578125
-26.55029296875
-39.36767578125
-26.55029296875
-18.310546875
-18.310546875
-21.05712890625
-11.90185546875
-34.7900390625
-26.55029296875
-26.55029296875
-21.05712890625
-17.39501953125
-15.56396484375
2.74658203125
-7.32421875
7.32421875
13.73291015625
4.57763671875
10.07080078125
21.97265625
13.73291015625
5.4931640625
21.05712890625
30.21240234375
43.02978515625
50.35400390625
53.1005859375
46.69189453125
53.1005859375
47.607421875
55.84716796875
65.91796875
70.49560546875
91.552734375
107.11669921875
97.0458984375
100.7080078125
115.3564453125
123.59619140625
126.3427734375
132.75146484375
145.56884765625
152.89306640625
172.119140625
189.51416015625
202.33154296875
206.9091796875
206.9091796875
216.97998046875
206.9091796875
223.388671875
227.05078125
233.45947265625
244.44580078125
249.93896484375
240.78369140625
262.75634765625
259.09423828125
258.1787109375
270.08056640625
270.08056640625
249.0234375
260.009765625
285.64453125
286.56005859375
256.34765625
255.43212890625
260.009765625
242.61474609375
233.45947265625
213.31787109375
191.34521484375
183.10546875
181.2744140625
160.21728515625
136.41357421875
123.59619140625
114.44091796875
96.13037109375
73.2421875
62.255859375
46.69189453125
37.53662109375
27.4658203125
28.38134765625
2.74658203125
-17.39501953125
-35.70556640625
-43.02978515625
-52.18505859375
-54.01611328125
-55.84716796875
-61.34033203125
-54.01611328125
-55.84716796875
-67.7490234375
-82.3974609375
-93.3837890625
-98.876953125
-99.79248046875
-89.7216796875
-103.45458984375
-105.28564453125
-87.890625
-79.65087890625
-100.7080078125
-107.11669921875
-106.201171875
-111.6943359375
-116.27197265625
-91.552734375
-93.3837890625
-105.28564453125
-105.28564453125
-107.11669921875
-101.62353515625
-101.62353515625
-112.60986328125
-120.849609375
-110.77880859375
-117.1875
-113.525390625
-112.60986328125
-101.62353515625
-109.86328125
-102.5390625
-103.45458984375
-108.0322265625
-119.0185546875
-112.60986328125
-107.11669921875
-97.96142578125
-105.28564453125
-97.96142578125
-95.21484375
-98.876953125
-107.11669921875
-108.0322265625
-101.62353515625
-103.45458984375
-103.45458984375
-104.3701171875
-101.62353515625
-95.21484375
-86.97509765625
-95.21484375
-98.876953125
-99.79248046875
-109.86328125
-112.60986328125
-101.62353515625
-86.0595703125
-97.0458984375
-108.0322265625
-84.228515625
-89.7216796875
-94.29931640625
-102.5390625
-116.27197265625
-108.0322265625
-102.5390625
-99.79248046875
-91.552734375
-101.62353515625
-84.228515625
-86.0595703125
-95.21484375
-99.79248046875
-109.86328125
-97.0458984375
-106.201171875
-104.3701171875
-90.63720703125
-92.46826171875
-81.48193359375
-95.21484375
-96.13037109375
-95.21484375
-93.3837890625
-94.29931640625
-107.11669921875
-102.5390625
-88.80615234375
-90.63720703125
-94.29931640625
-94.29931640625
-95.21484375
-102.5390625
-111.6943359375
-107.11669921875
-100.7080078125
-102.5390625
-107.11669921875
-103.45458984375
-98.876953125
-101.62353515625
-95.21484375
-97.96142578125
-102.5390625
-100.7080078125
-99.79248046875
-108.0322265625
-88.80615234375
-82.3974609375
-90.63720703125
-92.46826171875
-95.21484375
-101.62353515625
-113.525390625
-117.1875
-103.45458984375
-108.94775390625
-100.7080078125
-97.96142578125
-102.5390625
-97.0458984375
-102.5390625
-105.28564453125
-121.76513671875
-127.25830078125
-106.201171875
-109.86328125
-106.201171875
-97.96142578125
-95.21484375
-100.7080078125
-103.45458984375
-99.79248046875
-114.44091796875
-106.201171875
-94.29931640625
-100.7080078125
-81.48193359375
-75.98876953125
-71.4111328125
-65.00244140625
-56.7626953125
-53.1005859375
-54.931640625
-55.84716796875
-54.01611328125
-64.0869140625
-65.91796875
-62.255859375
-59.50927734375
-55.84716796875
-36.62109375
-38.4521484375
-33.87451171875
-30.21240234375
-18.310546875
-29.296875
-33.87451171875
-23.8037109375
-23.8037109375
-33.87451171875
-54.01611328125
-43.9453125
-58.59375
-65.00244140625
-55.84716796875
-49.4384765625
-61.34033203125
-43.9453125
-41.19873046875
-72.32666015625
-80.56640625
-75.98876953125
-85.14404296875
-101.62353515625
-108.0322265625
-114.44091796875
-123.59619140625
-110.77880859375
-107.11669921875
-105.28564453125
-119.93408203125
-119.93408203125
-117.1875
-119.0185546875
-119.93408203125
-118.10302734375
-115.3564453125
-108.94775390625
-106.201171875
-108.0322265625
-119.0185546875
-112.60986328125
-125.42724609375
-130.0048828125
-129.08935546875
-133.6669921875
-125.42724609375
-110.77880859375
-108.0322265625
-117.1875
-110.77880859375
-108.94775390625
-119.93408203125
-121.76513671875
-105.28564453125
-111.6943359375
-119.0185546875
-111.6943359375
-110.77880859375
-113.525390625
-122.6806640625
-135.498046875
-144.6533203125
-159.3017578125
-161.1328125
-151.06201171875
-120.849609375
-87.890625
-46.69189453125
0.91552734375
79.65087890625
172.119140625
262.75634765625
365.29541015625
486.14501953125
574.03564453125
624.3896484375
625.30517578125
556.640625
423.88916015625
258.1787109375
87.890625
-62.255859375
-178.52783203125
-231.62841796875
-261.8408203125
-292.96875
-297.54638671875
-283.8134765625
-270.99609375
-243.5302734375
-212.40234375
-181.2744140625
-152.89306640625
-126.3427734375
-117.1875
-102.5390625
-85.14404296875
-66.83349609375
-65.00244140625
-64.0869140625
-75.0732421875
-72.32666015625
-61.34033203125
-58.59375
-67.7490234375
-71.4111328125
-52.18505859375
-49.4384765625
-50.35400390625
-62.255859375
-59.50927734375
-65.91796875
-66.83349609375
-59.50927734375
-43.02978515625
-44.86083984375
-39.36767578125
-41.19873046875
-38.4521484375
-45.7763671875
-54.01611328125
-62.255859375
-50.35400390625
-40.283203125
-54.931640625
-34.7900390625
-39.36767578125
-36.62109375
-43.9453125
-43.02978515625
-51.26953125
-47.607421875
-42.1142578125
-38.4521484375
-32.04345703125
-24.71923828125
-21.97265625
-18.310546875
-27.4658203125
-14.6484375
-14.6484375
-23.8037109375
-15.56396484375
-5.4931640625
-16.4794921875
-10.986328125
4.57763671875
1.8310546875
-8.23974609375
-8.23974609375
-4.57763671875
-0.91552734375
8.23974609375
7.32421875
-1.8310546875
14.6484375
20.1416015625
33.87451171875
38.4521484375
35.70556640625
32.958984375
27.4658203125
32.958984375
32.04345703125
26.55029296875
50.35400390625
65.91796875
64.0869140625
56.7626953125
65.91796875
70.49560546875
70.49560546875
82.3974609375
97.0458984375
91.552734375
107.11669921875
119.93408203125
140.07568359375
142.822265625
147.39990234375
151.06201171875
158.38623046875
165.71044921875
179.443359375
171.20361328125
200.50048828125
220.64208984375
219.7265625
224.30419921875
238.037109375
236.2060546875
231.62841796875
238.95263671875
255.43212890625
256.34765625
258.1787109375
285.64453125
280.1513671875
276.4892578125
270.08056640625
269.1650390625
273.74267578125
275.57373046875
276.4892578125
268.24951171875
273.74267578125
272.8271484375
254.5166015625
242.61474609375
227.05078125
203.2470703125
187.68310546875
177.6123046875
166.6259765625
145.56884765625
134.58251953125
128.173828125
103.45458984375
84.228515625
69.580078125
54.01611328125
37.53662109375
29.296875
8.23974609375
0.91552734375
10.07080078125
-1.8310546875
-21.05712890625
-21.97265625
-27.4658203125
-50.35400390625
-74.15771484375
-65.00244140625
-59.50927734375
-76.904296875
-74.15771484375
-68.66455078125
-68.66455078125
-78.7353515625
-75.98876953125
-95.21484375
-99.79248046875
-96.13037109375
-92.46826171875
-89.7216796875
-93.3837890625
-86.97509765625
-93.3837890625
-108.0322265625
-97.96142578125
-97.96142578125
-102.5390625
-109.86328125
-122.6806640625
-108.0322265625
-100.7080078125
-92.46826171875
-97.96142578125
-116.27197265625
-100.7080078125
-105.28564453125
-106.201171875
-102.5390625
-109.86328125
-112.60986328125
-109.86328125
-108.0322265625
-109.86328125
-107.11669921875
-102.5390625
-108.94775390625
-105.28564453125
-106.201171875
-111.6943359375
-114.44091796875
-103.45458984375
-102.5390625
-97.0458984375
-97.96142578125
-101.62353515625
-110.77880859375
-121.76513671875
-114.44091796875
-101.62353515625
-108.94775390625
-100.7080078125
-91.552734375
-93.3837890625
-93.3837890625
-97.0458984375
-96.13037109375
-102.5390625
-108.94775390625
-103.45458984375
-95.21484375
-84.228515625
-87.890625
-86.0595703125
-94.29931640625
-94.29931640625
-108.94775390625
-114.44091796875
-103.45458984375
-93.3837890625
-95.21484375
-91.552734375
-86.97509765625
-75.98876953125
-87.890625
-104.3701171875
-103.45458984375
-109.86328125
-107.11669921875
-99.79248046875
-108.0322265625
-98.876953125
-89.7216796875
-92.46826171875
-100.7080078125
-103.45458984375
-89.7216796875
-103.45458984375
-108.0322265625
-98.876953125
-98.876953125
-91.552734375
-85.14404296875
-99.79248046875
-103.45458984375
-91.552734375
-100.7080078125
-109.86328125
-104.3701171875
-94.29931640625
-95.21484375
-103.45458984375
-98.876953125
-95.21484375
-97.96142578125
-98.876953125
-108.94775390625
-119.0185546875
-108.0322265625
-102.5390625
-113.525390625
-107.11669921875
-103.45458984375
-101.62353515625
-105.28564453125
-108.94775390625
-119.0185546875
-123.59619140625
-113.525390625
-102.5390625
-100.7080078125
-108.94775390625
-99.79248046875
-98.876953125
-115.3564453125
-108.94775390625
-103.45458984375
-114.44091796875
-114.44091796875
-108.0322265625
-117.1875
-107.11669921875
-94.29931640625
-101.62353515625
-109.86328125
-99.79248046875
-101.62353515625
-116.27197265625
-112.60986328125
-107.11669921875
-96.13037109375
-100.7080078125
-91.552734375
-82.3974609375
-79.65087890625
-67.7490234375
-65.91796875
-59.50927734375
-53.1005859375
-47.607421875
-55.84716796875
-54.01611328125
-54.931640625
-63.17138671875
-68.66455078125
-65.00244140625
-54.931640625
-41.19873046875
-40.283203125
-31.1279296875
-35.70556640625
-29.296875
-31.1279296875
-26.55029296875
-20.1416015625
-38.4521484375
-62.255859375
-71.4111328125
-52.18505859375
-56.7626953125
-56.7626953125
-50.35400390625
-45.7763671875
-55.84716796875
-56.7626953125
-70.49560546875
-77.81982421875
-86.97509765625
-88.80615234375
-102.5390625
-114.44091796875
-116.27197265625
-115.3564453125
-109.86328125
-116.27197265625
-116.27197265625
-121.76513671875
-122.6806640625
-123.59619140625
-130.0048828125
-123.59619140625
-116.27197265625
-109.86328125
-123.59619140625
-122.6806640625
-119.0185546875
-119.93408203125
-133.6669921875
-123.59619140625
-125.42724609375
-127.25830078125
-117.1875
-108.0322265625
-108.94775390625
-119.93408203125
-117.1875
-113.525390625
-119.0185546875
-134.58251953125
-128.173828125
-122.6806640625
-120.849609375
-108.94775390625
-119.0185546875
-116.27197265625
-124.51171875
-126.3427734375
-131.8359375
-140.9912109375
-149.23095703125
-154.72412109375
-153.80859375
-125.42724609375
-79.65087890625
-49.4384765625
-13.73291015625
49.4384765625
151.9775390625
254.5166015625
357.0556640625
468.75
581.35986328125
640.869140625
671.9970703125
616.14990234375
502.62451171875
343.32275390625
172.119140625
21.05712890625
-125.42724609375
-208.740234375
-233.45947265625
-277.40478515625
-296.630859375
-312.19482421875
-284.72900390625
-238.037109375
-201.416015625
-175.78125
-142.822265625
-117.1875
-100.7080078125
-86.0595703125
-86.97509765625
-78.7353515625
-72.32666015625
-78.7353515625
-73.2421875
-70.49560546875
-67.7490234375
-65.00244140625
-62.255859375
-66.83349609375
-56.7626953125
-67.7490234375
-56.7626953125
-65.00244140625
-72.32666015625
-61.34033203125
-61.34033203125
-65.91796875
-54.01611328125
-40.283203125
-37.53662109375
-51.26953125
-43.02978515625
-31.1279296875
-46.69189453125
-53.1005859375
-49.4384765625
-47.607421875
-41.19873046875
-13.73291015625
-28.38134765625
-27.4658203125
-32.958984375
-43.02978515625
-43.02978515625
-31.1279296875
-21.97265625
-25.634765625
-19.22607421875
-5.4931640625
4.57763671875
-21.97265625
-13.73291015625
-11.90185546875
-16.4794921875
-10.07080078125
-9.1552734375
-4.57763671875
2.74658203125
7.32421875
12.8173828125
-1.8310546875
14.6484375
0
9.1552734375
14.6484375
18.310546875
20.1416015625
27.4658203125
32.958984375
35.70556640625
43.9453125
40.283203125
32.958984375
21.05712890625
43.9453125
54.931640625
61.34033203125
75.0732421875
87.890625
91.552734375
83.31298828125
73.2421875
79.65087890625
92.46826171875
98.876953125
103.45458984375
110.77880859375
123.59619140625
146.484375
158.38623046875
159.3017578125
163.87939453125
162.9638671875
169.37255859375
175.78125
195.9228515625
199.5849609375
215.14892578125
230.712890625
230.712890625
245.361328125
252.685546875
253.60107421875
259.09423828125
261.8408203125
269.1650390625
293.88427734375
308.53271484375
311.279296875
301.20849609375
307.6171875
314.02587890625
313.1103515625
303.955078125
319.51904296875
320.4345703125
321.35009765625
325.01220703125
329.58984375
313.1103515625
309.4482421875
296.630859375
276.4892578125
249.93896484375
240.78369140625
241.69921875
228.8818359375
215.14892578125
201.416015625
174.86572265625
151.9775390625
138.24462890625
119.0185546875
105.28564453125
89.7216796875
66.83349609375
51.26953125
57.67822265625
52.18505859375
48.52294921875
29.296875
0.91552734375
-6.40869140625
-7.32421875
-15.56396484375
-19.22607421875
-25.634765625
-20.1416015625
-26.55029296875
-16.4794921875
-24.71923828125
-36.62109375
-38.4521484375
-48.52294921875
-46.69189453125
-51.26953125
-46.69189453125
-43.9453125
-35.70556640625
-54.01611328125
-55.84716796875
-51.26953125
-68.66455078125
-63.17138671875
-45.7763671875
-46.69189453125
-57.67822265625
-53.1005859375
-43.9453125
-49.4384765625
-57.67822265625
-50.35400390625
-55.84716796875
-53.1005859375
-54.01611328125
-58.59375
-59.50927734375
-59.50927734375
-43.02978515625
-47.607421875
-54.931640625
-60.4248046875
-58.59375
-62.255859375
-56.7626953125
-47.607421875
-61.34033203125
-50.35400390625
-51.26953125
-50.35400390625
-40.283203125
-61.34033203125
-65.00244140625
-62.255859375
-59.50927734375
-50.35400390625
-54.931640625
-47.607421875
-50.35400390625
-51.26953125
-48.52294921875
-49.4384765625
-54.931640625
-66.83349609375
-53.1005859375
-50.35400390625
-58.59375
-39.36767578125
-36.62109375
-45.7763671875
-47.607421875
-44.86083984375
-48.52294921875
-51.26953125
-46.69189453125
-54.01611328125
-51.26953125
-47.607421875
-37.53662109375
-39.36767578125
-41.19873046875
-40.283203125
-47.607421875
-43.9453125
-39.36767578125
-48.52294921875
-32.04345703125
-35.70556640625
-31.1279296875
-35.70556640625
-45.7763671875
-43.02978515625
-45.7763671875
-46.69189453125
-54.931640625
-56.7626953125
-47.607421875
-48.52294921875
-41.19873046875
-36.62109375
-52.18505859375
-47.607421875
-49.4384765625
-57.67822265625
-51.26953125
-42.1142578125
-44.86083984375
-39.36767578125
-28.38134765625
-32.04345703125
-55.84716796875
-37.53662109375
-46.69189453125
-43.9453125
-46.69189453125
-43.02978515625
-43.9453125
-39.36767578125
-36.62109375
-41.19873046875
-43.9453125
-34.7900390625
-49.4384765625
-53.1005859375
-52.18505859375
-43.02978515625
-43.9453125
-38.4521484375
-32.04345703125
-46.69189453125
-54.01611328125
-49.4384765625
-58.59375
-55.84716796875
-48.52294921875
-41.19873046875
-42.1142578125
-43.02978515625
-43.02978515625
-45.7763671875
-44.86083984375
-38.4521484375
-46.69189453125
-56.7626953125
-46.69189453125
-50.35400390625
-59.50927734375
-43.9453125
-38.4521484375
-39.36767578125
-59.50927734375
-54.931640625
-52.18505859375
-53.1005859375
-43.02978515625
-43.02978515625
-39.36767578125
-41.19873046875
-41.19873046875
-33.87451171875
-25.634765625
-28.38134765625
-32.04345703125
-39.36767578125
-28.38134765625
-8.23974609375
9.1552734375
18.310546875
29.296875
27.4658203125
15.56396484375
8.23974609375
-4.57763671875
-20.1416015625
-21.05712890625
-9.1552734375
8.23974609375
24.71923828125
43.02978515625
44.86083984375
43.9453125
26.55029296875
13.73291015625
21.97265625
22.88818359375
8.23974609375
11.90185546875
15.56396484375
19.22607421875
25.634765625
20.1416015625
6.40869140625
2.74658203125
0
5.4931640625
-6.40869140625
-15.56396484375
-4.57763671875
-1.8310546875
-29.296875
-40.283203125
-40.283203125
-53.1005859375
-57.67822265625
-48.52294921875
-52.18505859375
-48.52294921875
-41.19873046875
-44.86083984375
-49.4384765625
-43.9453125
-46.69189453125
-67.7490234375
-59.50927734375
-50.35400390625
-53.1005859375
-48.52294921875
-40.283203125
-39.36767578125
-48.52294921875
-50.35400390625
-50.35400390625
-63.17138671875
-64.0869140625
-63.17138671875
-62.255859375
-53.1005859375
-35.70556640625
-40.283203125
-49.4384765625
-50.35400390625
-50.35400390625
-54.931640625
-56.7626953125
-53.1005859375
-59.50927734375
-53.1005859375
-64.0869140625
-86.97509765625
-82.3974609375
-82.3974609375
-65.00244140625
-43.02978515625
-2.74658203125
37.53662109375
105.28564453125
204.16259765625
314.94140625
444.9462890625
547.4853515625
647.27783203125
714.111328125
759.8876953125
734.2529296875
639.95361328125
495.30029296875
316.7724609375
148.3154296875
7.32421875
-105.28564453125
-156.55517578125
-205.078125
-238.037109375
-238.95263671875
-207.82470703125
-172.119140625
-127.25830078125
-83.31298828125
-57.67822265625
-32.958984375
-42.1142578125
-42.1142578125
-34.7900390625
-26.55029296875
-16.4794921875
-11.90185546875
-13.73291015625
-12.8173828125
12.8173828125
16.4794921875
12.8173828125
5.4931640625
-14.6484375
-5.4931640625
-3.662109375
-4.57763671875
3.662109375
9.1552734375
7.32421875
10.07080078125
10.07080078125
15.56396484375
8.23974609375
4.57763671875
10.986328125
21.05712890625
23.8037109375
22.88818359375
42.1142578125
42.1142578125
37.53662109375
32.958984375
24.71923828125
27.4658203125
32.958984375
33.87451171875
38.4521484375
44.86083984375
46.69189453125
42.1142578125
37.53662109375
31.1279296875
39.36767578125
36.62109375
43.02978515625
41.19873046875
40.283203125
50.35400390625
61.34033203125
62.255859375
64.0869140625
62.255859375
60.4248046875
62.255859375
65.91796875
65.91796875
73.2421875
70.49560546875
85.14404296875
93.3837890625
91.552734375
78.7353515625
85.14404296875
88.80615234375
94.29931640625
104.3701171875
102.5390625
110.77880859375
122.6806640625
121.76513671875
112.60986328125
113.525390625
126.3427734375
128.173828125
138.24462890625
141.90673828125
147.39990234375
164.794921875
173.03466796875
172.119140625
181.2744140625
183.10546875
182.18994140625
196.83837890625
200.50048828125
204.16259765625
222.47314453125
242.61474609375
253.60107421875
260.92529296875
265.5029296875
275.57373046875
277.40478515625
289.306640625
300.29296875
307.6171875
312.19482421875
328.67431640625
341.49169921875
342.4072265625
350.64697265625
347.900390625
341.49169921875
350.64697265625
374.45068359375
370.78857421875
368.0419921875
382.6904296875
376.28173828125
364.3798828125
368.95751953125
360.7177734375
354.30908203125
353.3935546875
339.66064453125
331.4208984375
322.265625
324.0966796875
306.70166015625
280.1513671875
260.92529296875
244.44580078125
212.40234375
203.2470703125
185.85205078125
162.9638671875
148.3154296875
155.6396484375
141.90673828125
127.25830078125
108.94775390625
90.63720703125
71.4111328125
67.7490234375
64.0869140625
47.607421875
44.86083984375
46.69189453125
33.87451171875
21.05712890625
24.71923828125
9.1552734375
-3.662109375
5.4931640625
2.74658203125
-0.91552734375
-6.40869140625
8.23974609375
-5.4931640625
-11.90185546875
-17.39501953125
-23.8037109375
-33.87451171875
-28.38134765625
-18.310546875
-19.22607421875
-18.310546875
-10.07080078125
-9.1552734375
-18.310546875
-21.97265625
-20.1416015625
-32.958984375
-32.958984375
-21.97265625
-34.7900390625
-32.04345703125
-12.8173828125
-19.22607421875
-26.55029296875
-26.55029296875
-27.4658203125
-30.21240234375
-24.71923828125
-21.05712890625
-32.958984375
-29.296875
-13.73291015625
-11.90185546875
-20.1416015625
-25.634765625
-21.97265625
-32.958984375
-30.21240234375
-21.05712890625
-23.8037109375
-20.1416015625
-14.6484375
-14.6484375
-22.88818359375
-17.39501953125
-18.310546875
-29.296875
-33.87451171875
-32.958984375
-23.8037109375
-21.05712890625
-21.05712890625
-15.56396484375
-15.56396484375
-16.4794921875
-17.39501953125
-29.296875
-29.296875
-38.4521484375
-31.1279296875
-33.87451171875
-14.6484375
-3.662109375
-10.986328125
-20.1416015625
-21.05712890625
-26.55029296875
-10.986328125
-15.56396484375
-19.22607421875
-14.6484375
-4.57763671875
-9.1552734375
-16.4794921875
-12.8173828125
-11.90185546875
-9.1552734375
-15.56396484375
-21.97265625
-16.4794921875
-13.73291015625
-8.23974609375
-16.4794921875
-18.310546875
-19.22607421875
-12.8173828125
-19.22607421875
-24.71923828125
-30.21240234375
-26.55029296875
-20.1416015625
-16.4794921875
-15.56396484375
-12.8173828125
-18.310546875
-18.310546875
-35.70556640625
-27.4658203125
-19.22607421875
-19.22607421875
-14.6484375
-12.8173828125
-17.39501953125
-22.88818359375
-15.56396484375
-18.310546875
-33.87451171875
-32.958984375
-20.1416015625
-21.97265625
-29.296875
-22.88818359375
-10.986328125
-7.32421875
-10.07080078125
-21.97265625
-26.55029296875
-27.4658203125
-21.97265625
-21.05712890625
-16.4794921875
-18.310546875
-25.634765625
-25.634765625
-21.05712890625
-21.05712890625
-23.8037109375
-25.634765625
-20.1416015625
-28.38134765625
-20.1416015625
-2.74658203125
-12.8173828125
-21.97265625
-21.97265625
-21.97265625
-21.97265625
-28.38134765625
-19.22607421875
-25.634765625
-35.70556640625
-21.05712890625
-28.38134765625
-32.04345703125
-37.53662109375
-43.9453125
-39.36767578125
-32.04345703125
-36.62109375
-35.70556640625
-25.634765625
-25.634765625
-31.1279296875
-25.634765625
-30.21240234375
-38.4521484375
-47.607421875
-41.19873046875
-31.1279296875
-34.7900390625
-28.38134765625
-29.296875
-28.38134765625
-23.8037109375
-24.71923828125
-36.62109375
-46.69189453125
-64.0869140625
-40.283203125
-37.53662109375
-32.04345703125
-20.1416015625
-25.634765625
-34.7900390625
-40.283203125
-43.02978515625
-38.4521484375
-38.4521484375
-27.4658203125
-32.958984375
-32.958984375
-21.05712890625
-20.1416015625
-10.986328125
-21.05712890625
-10.986328125
9.1552734375
11.90185546875
2.74658203125
16.4794921875
31.1279296875
24.71923828125
6.40869140625
10.986328125
5.4931640625
5.4931640625
20.1416015625
28.38134765625
36.62109375
42.1142578125
37.53662109375
54.931640625
52.18505859375
41.19873046875
32.04345703125
26.55029296875
22.88818359375
27.4658203125
15.56396484375
24.71923828125
32.958984375
42.1142578125
35.70556640625
29.296875
14.6484375
2.74658203125
-2.74658203125
-7.32421875
0
0
-20.1416015625
-25.634765625
-38.4521484375
-35.70556640625
-31.1279296875
-32.04345703125
-43.02978515625
-45.7763671875
-37.53662109375
-30.21240234375
-37.53662109375
-31.1279296875
-29.296875
-40.283203125
-43.02978515625
-44.86083984375
-42.1142578125
-37.53662109375
-45.7763671875
-45.7763671875
-49.4384765625
-33.87451171875
-36.62109375
-22.88818359375
-32.958984375
-45.7763671875
-42.1142578125
-42.1142578125
-32.04345703125
-36.62109375
-38.4521484375
-30.21240234375
-32.958984375
-28.38134765625
-28.38134765625
-39.36767578125
-38.4521484375
-60.4248046875
-71.4111328125
-63.17138671875
-70.49560546875
-47.607421875
-20.1416015625
5.4931640625
41.19873046875
97.96142578125
188.5986328125
299.37744140625
404.6630859375
520.01953125
632.62939453125
709.53369140625
767.2119140625
766.29638671875
680.23681640625
555.72509765625
372.61962890625
195.9228515625
50.35400390625
-62.255859375
-122.6806640625
-169.37255859375
-204.16259765625
-216.97998046875
-196.83837890625
-147.39990234375
-104.3701171875
-63.17138671875
-51.26953125
-32.04345703125
-24.71923828125
-14.6484375
-14.6484375
-3.662109375
12.8173828125
6.40869140625
10.07080078125
19.22607421875
21.05712890625
18.310546875
10.986328125
18.310546875
24.71923828125
17.39501953125
19.22607421875
5.4931640625
-1.8310546875
19.22607421875
20.1416015625
27.4658203125
24.71923828125
22.88818359375
28.38134765625
30.21240234375
24.71923828125
19.22607421875
12.8173828125
17.39501953125
25.634765625
25.634765625
21.05712890625
28.38134765625
37.53662109375
41.19873046875
27.4658203125
17.39501953125
23.8037109375
28.38134765625
32.958984375
31.1279296875
46.69189453125
52.18505859375
34.7900390625
46.69189453125
39.36767578125
44.86083984375
41.19873046875
32.958984375
42.1142578125
54.01611328125
56.7626953125
61.34033203125
78.7353515625
61.34033203125
55.84716796875
47.607421875
61.34033203125
77.81982421875
67.7490234375
70.49560546875
66.83349609375
79.65087890625
91.552734375
86.0595703125
82.3974609375
85.14404296875
84.228515625
86.0595703125
94.29931640625
101.62353515625
108.0322265625
122.6806640625
126.3427734375
140.9912109375
130.92041015625
124.51171875
119.93408203125
137.3291015625
141.90673828125
139.16015625
162.9638671875
180.35888671875
184.9365234375
187.68310546875
199.5849609375
194.091796875
205.078125
228.8818359375
233.45947265625
239.8681640625
244.44580078125
262.75634765625
273.74267578125
274.658203125
283.8134765625
286.56005859375
303.03955078125
307.6171875
309.4482421875
314.94140625
329.58984375
347.900390625
347.900390625
348.81591796875
351.5625
355.224609375
361.63330078125
365.29541015625
357.97119140625
366.2109375
360.7177734375
372.61962890625
366.2109375
357.97119140625
344.23828125
331.4208984375
311.279296875
310.36376953125
308.53271484375
287.4755859375
281.06689453125
262.75634765625
248.10791015625
225.2197265625
202.33154296875
191.34521484375
165.71044921875
148.3154296875
132.75146484375
116.27197265625
100.7080078125
105.28564453125
97.96142578125
77.81982421875
66.83349609375
48.52294921875
29.296875
20.1416015625
20.1416015625
13.73291015625
10.07080078125
8.23974609375
10.986328125
5.4931640625
-5.4931640625
-19.22607421875
-22.88818359375
-34.7900390625
-22.88818359375
-23.8037109375
-17.39501953125
-11.90185546875
-13.73291015625
-24.71923828125
-28.38134765625
-31.1279296875
-42.1142578125
-39.36767578125
-41.19873046875
-35.70556640625
-19.22607421875
-26.55029296875
-36.62109375
-38.4521484375
-38.4521484375
-39.36767578125
-38.4521484375
-41.19873046875
-39.36767578125
-41.19873046875
-32.958984375
-20.1416015625
-21.97265625
-42.1142578125
-38.4521484375
-47.607421875
-64.0869140625
-51.26953125
-35.70556640625
-47.607421875
-38.4521484375
-30.21240234375
-36.62109375
-45.7763671875
-41.19873046875
-50.35400390625
-60.4248046875
-52.18505859375
-41.19873046875
-42.1142578125
-37.53662109375
-32.04345703125
-28.38134765625
-33.87451171875
-32.04345703125
-31.1279296875
-43.9453125
-32.04345703125
-28.38134765625
-25.634765625
-31.1279296875
-26.55029296875
-11.90185546875
-22.88818359375
-21.97265625
-18.310546875
-44.86083984375
-37.53662109375
-32.958984375
-32.04345703125
-34.7900390625
-29.296875
-44.86083984375
-38.4521484375
-36.62109375
-38.4521484375
-50.35400390625
-46.69189453125
-43.02978515625
-32.04345703125
-34.7900390625
-26.55029296875
-23.8037109375
-29.296875
-57.67822265625
-38.4521484375
-38.4521484375
-41.19873046875
-39.36767578125
-42.1142578125
-41.19873046875
-30.21240234375
-33.87451171875
-28.38134765625
-27.4658203125
-39.36767578125
-43.9453125
-35.70556640625
-48.52294921875
-44.86083984375
-38.4521484375
-36.62109375
-39.36767578125
-49.4384765625
-44.86083984375
-46.69189453125
-48.52294921875
-35.70556640625
-34.7900390625
-43.02978515625
-38.4521484375
-26.55029296875
-34.7900390625
-38.4521484375
-52.18505859375
-58.59375
-62.255859375
-55.84716796875
-50.35400390625
-32.958984375
-32.04345703125
-40.283203125
-43.9453125
-45.7763671875
-56.7626953125
-44.86083984375
-53.1005859375
-43.02978515625
-46.69189453125
-45.7763671875
-38.4521484375
-37.53662109375
-34.7900390625
-49.4384765625
-50.35400390625
-45.7763671875
-52.18505859375
-51.26953125
-53.1005859375
-42.1142578125
-46.69189453125
-43.02978515625
-32.958984375
-40.283203125
-35.70556640625
-53.1005859375
-54.931640625
-54.01611328125
-44.86083984375
-52.18505859375
-47.607421875
-29.296875
-42.1142578125
-51.26953125
-48.52294921875
-46.69189453125
-50.35400390625
-48.52294921875
-55.84716796875
-55.84716796875
-43.02978515625
-43.02978515625
-48.52294921875
-43.02978515625
-54.01611328125
-46.69189453125
-54.931640625
-70.49560546875
-64.0869140625
-59.50927734375
-64.0869140625
-43.02978515625
-38.4521484375
-44.86083984375
-59.50927734375
-54.931640625
-54.931640625
-42.1142578125
-48.52294921875
-53.1005859375
-35.70556640625
-37.53662109375
-35.70556640625
-36.62109375
-28.38134765625
-17.39501953125
-20.1416015625
-19.22607421875
-4.57763671875
4.57763671875
3.662109375
0
-11.90185546875
-19.22607421875
-24.71923828125
-5.4931640625
10.07080078125
-3.662109375
19.22607421875
23.8037109375
35.70556640625
43.02978515625
17.39501953125
25.634765625
22.88818359375
2.74658203125
-2.74658203125
5.4931640625
10.986328125
5.4931640625
16.4794921875
21.97265625
10.07080078125
0
-1.8310546875
-9.1552734375
-20.1416015625
-17.39501953125
-20.1416015625
-43.9453125
-50.35400390625
-39.36767578125
-44.86083984375
-53.1005859375
-48.52294921875
-57.67822265625
-71.4111328125
-62.255859375
-62.255859375
-58.59375
-43.02978515625
-35.70556640625
-49.4384765625
-52.18505859375
-59.50927734375
-52.18505859375
-49.4384765625
-54.01611328125
-54.931640625
-65.00244140625
-62.255859375
-42.1142578125
-49.4384765625
-59.50927734375
-55.84716796875
-58.59375
-58.59375
-65.00244140625
-60.4248046875
-53.1005859375
-55.84716796875
-51.26953125
-47.607421875
-52.18505859375
-49.4384765625
-62.255859375
-58.59375
-82.3974609375
-86.0595703125
-99.79248046875
-106.201171875
-81.48193359375
-57.67822265625
-32.958984375
3.662109375
52.18505859375
130.92041015625
238.037109375
319.51904296875
432.12890625
527.34375
628.96728515625
674.74365234375
661.0107421875
579.52880859375
454.1015625
294.7998046875
146.484375
16.4794921875
-115.3564453125
-162.04833984375
-183.10546875
-227.05078125
-244.44580078125
-220.64208984375
-208.740234375
-189.51416015625
-146.484375
-97.0458984375
-86.0595703125
-70.49560546875
-43.9453125
-30.21240234375
-30.21240234375
-19.22607421875
-21.05712890625
-14.6484375
3.662109375
4.57763671875
-4.57763671875
-3.662109375
-5.4931640625
-3.662109375
-5.4931640625
-9.1552734375
-8.23974609375
-10.986328125
5.4931640625
0.91552734375
1.8310546875
6.40869140625
11.90185546875
3.662109375
5.4931640625
1.8310546875
12.8173828125
2.74658203125
-1.8310546875
6.40869140625
0
12.8173828125
30.21240234375
22.88818359375
23.8037109375
17.39501953125
12.8173828125
20.1416015625
22.88818359375
20.1416015625
29.296875
35.70556640625
33.87451171875
35.70556640625
48.52294921875
41.19873046875
27.4658203125
21.97265625
32.04345703125
38.4521484375
33.87451171875
36.62109375
56.7626953125
47.607421875
52.18505859375
41.19873046875
54.931640625
57.67822265625
54.931640625
65.00244140625
65.91796875
65.00244140625
80.56640625
81.48193359375
75.0732421875
85.14404296875
75.0732421875
70.49560546875
77.81982421875
86.97509765625
83.31298828125
86.0595703125
100.7080078125
103.45458984375
109.86328125
115.3564453125
123.59619140625
123.59619140625
128.173828125
127.25830078125
135.498046875
145.56884765625
171.20361328125
173.9501953125
173.9501953125
178.52783203125
174.86572265625
178.52783203125
198.66943359375
213.31787109375
223.388671875
242.61474609375
255.43212890625
255.43212890625
267.333984375
272.8271484375
271.91162109375
287.4755859375
290.22216796875
294.7998046875
302.1240234375
311.279296875
329.58984375
327.7587890625
332.33642578125
332.33642578125
327.7587890625
332.33642578125
334.16748046875
343.32275390625
356.14013671875
358.88671875
346.98486328125
319.51904296875
331.4208984375
319.51904296875
316.7724609375
295.71533203125
281.06689453125
270.99609375
257.26318359375
257.26318359375
248.10791015625
237.12158203125
215.14892578125
182.18994140625
154.72412109375
138.24462890625
128.173828125
118.10302734375
109.86328125
106.201171875
84.228515625
77.81982421875
61.34033203125
47.607421875
42.1142578125
22.88818359375
15.56396484375
12.8173828125
-2.74658203125
0.91552734375
4.57763671875
14.6484375
-7.32421875
-10.986328125
-15.56396484375
-22.88818359375
-36.62109375
-26.55029296875
-30.21240234375
-24.71923828125
-26.55029296875
-30.21240234375
-33.87451171875
-40.283203125
-44.86083984375
-39.36767578125
-38.4521484375
-40.283203125
-48.52294921875
-41.19873046875
-25.634765625
-29.296875
-49.4384765625
-49.4384765625
-45.7763671875
-53.1005859375
-63.17138671875
-65.00244140625
-59.50927734375
-47.607421875
-48.52294921875
-51.26953125
-54.931640625
-58.59375
-65.00244140625
-70.49560546875
-74.15771484375
-60.4248046875
-56.7626953125
-60.4248046875
-54.931640625
-54.01611328125
-63.17138671875
-67.7490234375
-77.81982421875
-72.32666015625
-71.4111328125
-66.83349609375
-69.580078125
-69.580078125
-75.98876953125
-81.48193359375
-66.83349609375
-73.2421875
-72.32666015625
-70.49560546875
-75.98876953125
-68.66455078125
-79.65087890625
-68.66455078125
-47.607421875
-68.66455078125
-77.81982421875
-83.31298828125
-79.65087890625
-76.904296875
-65.00244140625
-64.0869140625
-77.81982421875
-75.0732421875
-69.580078125
-72.32666015625
-76.904296875
-73.2421875
-70.49560546875
-69.580078125
-69.580078125
-74.15771484375
-74.15771484375
-68.66455078125
-66.83349609375
-63.17138671875
-82.3974609375
-81.48193359375
-82.3974609375
-96.13037109375
-91.552734375
-80.56640625
-76.904296875
-79.65087890625
-82.3974609375
-72.32666015625
-83.31298828125
-97.96142578125
-97.96142578125
-90.63720703125
-100.7080078125
-94.29931640625
-86.97509765625
-86.0595703125
-94.29931640625
-91.552734375
-90.63720703125
-98.876953125
-106.201171875
-100.7080078125
-89.7216796875
-96.13037109375
-92.46826171875
-97.0458984375
-92.46826171875
-90.63720703125
-105.28564453125
-103.45458984375
-95.21484375
-98.876953125
-100.7080078125
-94.29931640625
-81.48193359375
-75.98876953125
-97.96142578125
-86.0595703125
-103.45458984375
-101.62353515625
-102.5390625
-100.7080078125
-108.0322265625
-97.96142578125
-101.62353515625
-95.21484375
-84.228515625
-75.0732421875
-82.3974609375
-85.14404296875
-89.7216796875
-99.79248046875
-91.552734375
-76.904296875
-65.91796875
-50.35400390625
-48.52294921875
-40.283203125
-49.4384765625
-54.01611328125
-51.26953125
-52.18505859375
-62.255859375
-65.00244140625
-43.9453125
-32.958984375
-12.8173828125
-10.986328125
-13.73291015625
-12.8173828125
-21.97265625
-21.97265625
-25.634765625
-48.52294921875
-60.4248046875
-52.18505859375
-44.86083984375
-42.1142578125
-37.53662109375
-29.296875
-43.9453125
-55.84716796875
-52.18505859375
-64.0869140625
-67.7490234375
-76.904296875
-61.34033203125
-79.65087890625
-92.46826171875
-106.201171875
-106.201171875
-108.94775390625
-105.28564453125
-101.62353515625
-118.10302734375
-108.0322265625
-100.7080078125
-97.96142578125
-94.29931640625
-106.201171875
-108.94775390625
-110.77880859375
-104.3701171875
-103.45458984375
-97.0458984375
-94.29931640625
-94.29931640625
-88.80615234375
-104.3701171875
-116.27197265625
-121.76513671875
-109.86328125
-107.11669921875
-108.94775390625
-107.11669921875
-113.525390625
-96.13037109375
-102.5390625
-101.62353515625
-103.45458984375
-102.5390625
-108.0322265625
-108.94775390625
-100.7080078125
-95.21484375
-88.80615234375
-102.5390625
-121.76513671875
-130.0048828125
-153.80859375
-148.3154296875
-125.42724609375
-88.80615234375
-54.931640625
0.91552734375
78.7353515625
189.51416015625
278.3203125
379.94384765625
476.98974609375
562.1337890625
620.7275390625
598.7548828125
518.1884765625
426.6357421875
287.4755859375
124.51171875
-36.62109375
-162.04833984375
-216.064453125
-250.8544921875
-301.20849609375
-290.22216796875
-267.333984375
-244.44580078125
-221.5576171875
-191.34521484375
-157.470703125
-119.93408203125
-98.876953125
-94.29931640625
-94.29931640625
-75.98876953125
-62.255859375
-54.931640625
-45.7763671875
-44.86083984375
-49.4384765625
-53.1005859375
-52.18505859375
-49.4384765625
-47.607421875
-41.19873046875
-46.69189453125
-43.9453125
-29.296875
-31.1279296875
-40.283203125
-42.1142578125
-38.4521484375
-43.02978515625
-41.19873046875
-31.1279296875
-22.88818359375
-30.21240234375
-18.310546875
-20.1416015625
-26.55029296875
-25.634765625
-19.22607421875
-26.55029296875
-22.88818359375
-16.4794921875
-27.4658203125
-28.38134765625
-17.39501953125
-15.56396484375
-8.23974609375
-10.07080078125
-11.90185546875
-19.22607421875
-10.986328125
-2.74658203125
-1.8310546875
8.23974609375
-1.8310546875
-13.73291015625
-5.4931640625
-15.56396484375
-26.55029296875
14.6484375
-16.4794921875
-15.56396484375
10.986328125
14.6484375
14.6484375
10.07080078125
17.39501953125
16.4794921875
23.8037109375
11.90185546875
21.97265625
16.4794921875
22.88818359375
33.87451171875
46.69189453125
43.02978515625
46.69189453125
46.69189453125
50.35400390625
44.86083984375
55.84716796875
72.32666015625
65.00244140625
75.98876953125
87.890625
86.97509765625
96.13037109375
105.28564453125
117.1875
119.0185546875
120.849609375
142.822265625
151.9775390625
156.55517578125
159.3017578125
176.69677734375
185.85205078125
184.9365234375
195.00732421875
210.5712890625
211.48681640625
223.388671875
243.5302734375
247.1923828125
265.5029296875
257.26318359375
263.671875
271.91162109375
278.3203125
263.671875
286.56005859375
293.88427734375
297.54638671875
293.88427734375
305.7861328125
317.68798828125
301.20849609375
314.02587890625
305.7861328125
296.630859375
297.54638671875
275.57373046875
251.77001953125
260.009765625
260.009765625
250.8544921875
229.79736328125
220.64208984375
187.68310546875
173.03466796875
167.54150390625
155.6396484375
124.51171875
109.86328125
100.7080078125
88.80615234375
63.17138671875
52.18505859375
49.4384765625
36.62109375
19.22607421875
14.6484375
15.56396484375
-4.57763671875
-5.4931640625
-5.4931640625
-8.23974609375
-20.1416015625
-22.88818359375
-37.53662109375
-37.53662109375
-36.62109375
-48.52294921875
-38.4521484375
-54.931640625
-42.1142578125
-44.86083984375
-45.7763671875
-45.7763671875
-52.18505859375
-45.7763671875
-45.7763671875
-39.36767578125
-46.69189453125
-44.86083984375
-52.18505859375
-60.4248046875
-54.01611328125
-51.26953125
-44.86083984375
-56.7626953125
-61.34033203125
-51.26953125
-56.7626953125
-64.0869140625
-49.4384765625
-51.26953125
-68.66455078125
-59.50927734375
-60.4248046875
-64.0869140625
-65.91796875
-58.59375
-55.84716796875
-43.02978515625
-43.9453125
-49.4384765625
-55.84716796875
-64.0869140625
-54.931640625
-54.01611328125
-46.69189453125
-43.02978515625
-46.69189453125
-42.1142578125
-44.86083984375
-41.19873046875
-47.607421875
-51.26953125
-39.36767578125
-39.36767578125
-54.931640625
-58.59375
-40.283203125
-28.38134765625
-41.19873046875
-43.02978515625
-44.86083984375
-37.53662109375
-32.958984375
-45.7763671875
-26.55029296875
-32.958984375
-31.1279296875
-19.22607421875
-25.634765625
-45.7763671875
-38.4521484375
-38.4521484375
-32.958984375
-17.39501953125
-19.22607421875
-30.21240234375
-32.04345703125
-25.634765625
-24.71923828125
-20.1416015625
-31.1279296875
-35.70556640625
-39.36767578125
-36.62109375
-35.70556640625
-26.55029296875
-25.634765625
-27.4658203125
-32.04345703125
-39.36767578125
-32.04345703125
-24.71923828125
-22.88818359375
-35.70556640625
-33.87451171875
-36.62109375
-32.04345703125
-25.634765625
-27.4658203125
-12.8173828125
-13.73291015625
-28.38134765625
-35.70556640625
-30.21240234375
-20.1416015625
-28.38134765625
-26.55029296875
-25.634765625
-23.8037109375
-20.1416015625
-30.21240234375
-29.296875
-27.4658203125
-38.4521484375
-32.04345703125
-32.04345703125
-26.55029296875
-25.634765625
-25.634765625
-29.296875
-21.97265625
-25.634765625
-43.02978515625
-43.9453125
-32.958984375
-29.296875
-25.634765625
-30.21240234375
-32.04345703125
-18.310546875
-23.8037109375
-23.8037109375
-28.38134765625
-32.958984375
-33.87451171875
-21.97265625
-26.55029296875
-13.73291015625
-35.70556640625
-43.02978515625
-32.04345703125
-36.62109375
-37.53662109375
-46.69189453125
-42.1142578125
-28.38134765625
-32.958984375
-21.97265625
-17.39501953125
-20.1416015625
-23.8037109375
-8.23974609375
13.73291015625
-1.8310546875
4.57763671875
13.73291015625
9.1552734375
-4.57763671875
-2.74658203125
0.91552734375
-11.90185546875
-20.1416015625
0.91552734375
13.73291015625
27.4658203125
21.05712890625
26.55029296875
42.1142578125
30.21240234375
32.04345703125
16.4794921875
23.8037109375
15.56396484375
0
5.4931640625
12.8173828125
6.40869140625
15.56396484375
7.32421875
-4.57763671875
0
-8.23974609375
-20.1416015625
-23.8037109375
-23.8037109375
-34.7900390625
-43.9453125
-37.53662109375
-54.01611328125
-64.0869140625
-61.34033203125
-60.4248046875
-61.34033203125
-57.67822265625
-59.50927734375
-65.91796875
-58.59375
-54.01611328125
-55.84716796875
-67.7490234375
-62.255859375
-73.2421875
-60.4248046875
-59.50927734375
-63.17138671875
-63.17138671875
-61.34033203125
-59.50927734375
-65.00244140625
-64.0869140625
-72.32666015625
-73.2421875
-66.83349609375
-66.83349609375
-65.00244140625
-63.17138671875
-62.255859375
-44.86083984375
-48.52294921875
-52.18505859375
-65.00244140625
-73.2421875
-68.66455078125
-65.91796875
-86.97509765625
-96.13037109375
-89.7216796875
-92.46826171875
-72.32666015625
-34.7900390625
-5.4931640625
27.4658203125
96.13037109375
211.48681640625
292.05322265625
406.494140625
533.75244140625
620.7275390625
690.3076171875
725.09765625
694.88525390625
575.86669921875
426.6357421875
265.5029296875
90.63720703125
-56.7626953125
-143.73779296875
-178.52783203125
-233.45947265625
-252.685546875
-265.5029296875
-241.69921875
-203.2470703125
-151.06201171875
-106.201171875
-89.7216796875
-65.00244140625
-54.01611328125
-62.255859375
-61.34033203125
-40.283203125
-28.38134765625
-23.8037109375
-21.97265625
-21.05712890625
-10.07080078125
-17.39501953125
-20.1416015625
-20.1416015625
-23.8037109375
-17.39501953125
-21.05712890625
-12.8173828125
-25.634765625
-24.71923828125
-15.56396484375
-8.23974609375
-5.4931640625
1.8310546875
-3.662109375
-12.8173828125
-5.4931640625
-6.40869140625
-12.8173828125
3.662109375
-7.32421875
-2.74658203125
10.07080078125
5.4931640625
-2.74658203125
5.4931640625
5.4931640625
0
2.74658203125
8.23974609375
11.90185546875
20.1416015625
21.97265625
18.310546875
22.88818359375
32.04345703125
21.97265625
17.39501953125
40.283203125
41.19873046875
36.62109375
43.02978515625
45.7763671875
40.283203125
49.4384765625
42.1142578125
37.53662109375
45.7763671875
54.931640625
56.7626953125
59.50927734375
64.0869140625
67.7490234375
71.4111328125
66.83349609375
77.81982421875
77.81982421875
84.228515625
98.876953125
108.0322265625
101.62353515625
100.7080078125
106.201171875
118.10302734375
114.44091796875
129.08935546875
130.92041015625
139.16015625
131.8359375
149.23095703125
154.72412109375
160.21728515625
167.54150390625
182.18994140625
191.34521484375
195.9228515625
208.740234375
216.064453125
214.2333984375
234.375
241.69921875
250.8544921875
261.8408203125
274.658203125
277.40478515625
282.89794921875
291.1376953125
307.6171875
305.7861328125
319.51904296875
335.0830078125
331.4208984375
341.49169921875
345.15380859375
346.0693359375
354.30908203125
355.224609375
356.14013671875
366.2109375
359.80224609375
362.548828125
362.548828125
367.12646484375
364.3798828125
347.900390625
337.82958984375
320.4345703125
315.85693359375
301.20849609375
289.306640625
278.3203125
263.671875
255.43212890625
237.12158203125
220.64208984375
203.2470703125
175.78125
159.3017578125
146.484375
135.498046875
117.1875
105.28564453125
104.3701171875
86.97509765625
71.4111328125
64.0869140625
38.4521484375
35.70556640625
37.53662109375
30.21240234375
20.1416015625
21.97265625
15.56396484375
0.91552734375
-2.74658203125
4.57763671875
-4.57763671875
-13.73291015625
-20.1416015625
-14.6484375
-6.40869140625
-11.90185546875
-13.73291015625
-22.88818359375
-32.04345703125
-29.296875
-24.71923828125
-32.04345703125
-32.04345703125
-24.71923828125
-21.05712890625
-29.296875
-33.87451171875
-33.87451171875
-22.88818359375
-26.55029296875
-25.634765625
-37.53662109375
-37.53662109375
-31.1279296875
-32.04345703125
-21.97265625
-19.22607421875
-24.71923828125
-23.8037109375
-27.4658203125
-31.1279296875
-30.21240234375
-24.71923828125
-19.22607421875
-23.8037109375
-22.88818359375
-10.986328125
-18.310546875
-16.4794921875
-26.55029296875
-26.55029296875
-21.05712890625
-21.97265625
-20.1416015625
-17.39501953125
-15.56396484375
-11.90185546875
-20.1416015625
-22.88818359375
-17.39501953125
-13.73291015625
-19.22607421875
-10.986328125
-11.90185546875
-15.56396484375
0.91552734375
-10.07080078125
-19.22607421875
-16.4794921875
-17.39501953125
-14.6484375
-11.90185546875
-21.05712890625
-10.07080078125
-15.56396484375
-21.05712890625
-5.4931640625
-0.91552734375
-15.56396484375
-17.39501953125
-15.56396484375
-17.39501953125
-16.4794921875
-13.73291015625
-17.39501953125
-10.986328125
-2.74658203125
-9.1552734375
-10.986328125
-12.8173828125
-15.56396484375
-13.73291015625
-13.73291015625
-13.73291015625
-10.07080078125
-8.23974609375
-3.662109375
-5.4931640625
-6.40869140625
-13.73291015625
-14.6484375
-12.8173828125
-14.6484375
-13.73291015625
-16.4794921875
-9.1552734375
-3.662109375
-9.1552734375
-15.56396484375
-15.56396484375
-12.8173828125
-12.8173828125
-13.73291015625
-12.8173828125
-15.56396484375
-9.1552734375
-6.40869140625
-11.90185546875
-16.4794921875
-14.6484375
-14.6484375
-21.97265625
-17.39501953125
-21.97265625
-23.8037109375
-11.90185546875
-9.1552734375
-11.90185546875
-18.310546875
-5.4931640625
-14.6484375
-21.97265625
-26.55029296875
-22.88818359375
-21.05712890625
-10.07080078125
-11.90185546875
-27.4658203125
-25.634765625
-21.05712890625
-22.88818359375
-17.39501953125
-21.05712890625
-18.310546875
-24.71923828125
-25.634765625
-15.56396484375
-23.8037109375
-21.97265625
-18.310546875
-24.71923828125
-24.71923828125
-30.21240234375
-21.97265625
-14.6484375
-15.56396484375
-8.23974609375
0
2.74658203125
-17.39501953125
-35.70556640625
-33.87451171875
-30.21240234375
-21.05712890625
-25.634765625
-14.6484375
-9.1552734375
-15.56396484375
-26.55029296875
-21.97265625
-15.56396484375
-15.56396484375
-3.662109375
-1.8310546875
-10.07080078125
4.57763671875
-17.39501953125
-25.634765625
-17.39501953125
-13.73291015625
-0.91552734375
-4.57763671875
-1.8310546875
0
10.986328125
31.1279296875
46.69189453125
50.35400390625
53.1005859375
40.283203125
26.55029296875
21.05712890625
15.56396484375
21.05712890625
28.38134765625
44.86083984375
59.50927734375
68.66455078125
56.7626953125
65.91796875
55.84716796875
40.283203125
49.4384765625
47.607421875
43.9453125
43.02978515625
41.19873046875
37.53662109375
42.1142578125
34.7900390625
35.70556640625
32.958984375
32.04345703125
40.283203125
32.04345703125
18.310546875
13.73291015625
14.6484375
8.23974609375
-10.07080078125
-23.8037109375
-27.4658203125
-22.88818359375
-24.71923828125
-25.634765625
-21.05712890625
-17.39501953125
-23.8037109375
-20.1416015625
-22.88818359375
-29.296875
-25.634765625
-28.38134765625
-25.634765625
-18.310546875
-25.634765625
-23.8037109375
-26.55029296875
-38.4521484375
-34.7900390625
-28.38134765625
-28.38134765625
-22.88818359375
-24.71923828125
-27.4658203125
-23.8037109375
-21.97265625
-25.634765625
-30.21240234375
-27.4658203125
-31.1279296875
-24.71923828125
-19.22607421875
-16.4794921875
-16.4794921875
-27.4658203125
-33.87451171875
-55.84716796875
-65.00244140625
-70.49560546875
-55.84716796875
-28.38134765625
17.39501953125
63.17138671875
127.25830078125
216.97998046875
327.7587890625
436.70654296875
558.4716796875
663.75732421875
726.01318359375
788.26904296875
777.28271484375
691.22314453125
541.9921875
374.45068359375
196.83837890625
38.4521484375
-79.65087890625
-128.173828125
-162.04833984375
-210.5712890625
-227.05078125
-205.99365234375
-159.3017578125
-100.7080078125
-64.0869140625
-39.36767578125
-22.88818359375
-21.05712890625
-17.39501953125
-7.32421875
0
10.07080078125
16.4794921875
17.39501953125
19.22607421875
16.4794921875
21.05712890625
14.6484375
16.4794921875
13.73291015625
23.8037109375
24.71923828125
25.634765625
41.19873046875
44.86083984375
39.36767578125
34.7900390625
43.02978515625
41.19873046875
44.86083984375
34.7900390625
18.310546875
39.36767578125
39.36767578125
48.52294921875
57.67822265625
56.7626953125
54.931640625
45.7763671875
32.04345703125
40.283203125
46.69189453125
46.69189453125
42.1142578125
46.69189453125
54.01611328125
57.67822265625
69.580078125
65.91796875
70.49560546875
64.0869140625
69.580078125
72.32666015625
74.15771484375
75.98876953125
72.32666015625
67.7490234375
79.65087890625
86.97509765625
89.7216796875
86.0595703125
89.7216796875
92.46826171875
87.890625
96.13037109375
96.13037109375
88.80615234375
98.876953125
111.6943359375
112.60986328125
116.27197265625
123.59619140625
130.92041015625
140.9912109375
141.90673828125
148.3154296875
154.72412109375
153.80859375
136.41357421875
144.6533203125
158.38623046875
156.55517578125
170.2880859375
170.2880859375
191.34521484375
190.4296875
183.10546875
203.2470703125
205.078125
190.4296875
211.48681640625
227.96630859375
241.69921875
254.5166015625
262.75634765625
270.99609375
275.57373046875
285.64453125
277.40478515625
290.22216796875
309.4482421875
325.927734375
331.4208984375
335.0830078125
346.0693359375
364.3798828125
374.45068359375
379.0283203125
385.43701171875
367.12646484375
376.28173828125
389.09912109375
390.93017578125
409.24072265625
403.74755859375
390.93017578125
401.91650390625
408.3251953125
396.42333984375
379.0283203125
373.53515625
378.11279296875
371.7041015625
363.46435546875
356.14013671875
326.84326171875
303.03955078125
279.23583984375
270.08056640625
262.75634765625
238.95263671875
213.31787109375
213.31787109375
195.00732421875
168.45703125
156.55517578125
156.55517578125
148.3154296875
121.76513671875
97.96142578125
96.13037109375
80.56640625
73.2421875
75.0732421875
67.7490234375
58.59375
49.4384765625
44.86083984375
30.21240234375
19.22607421875
25.634765625
29.296875
32.04345703125
21.05712890625
14.6484375
6.40869140625
14.6484375
10.986328125
7.32421875
16.4794921875
11.90185546875
2.74658203125
1.8310546875
13.73291015625
22.88818359375
25.634765625
15.56396484375
15.56396484375
11.90185546875
-2.74658203125
-17.39501953125
11.90185546875
18.310546875
19.22607421875
0.91552734375
17.39501953125
26.55029296875
18.310546875
18.310546875
16.4794921875
21.97265625
21.05712890625
19.22607421875
13.73291015625
24.71923828125
10.986328125
-1.8310546875
-9.1552734375
-2.74658203125
0
-3.662109375
0.91552734375
0.91552734375
9.1552734375
12.8173828125
21.05712890625
12.8173828125
7.32421875
8.23974609375
8.23974609375
16.4794921875
7.32421875
3.662109375
10.986328125
18.310546875
8.23974609375
2.74658203125
5.4931640625
4.57763671875
3.662109375
15.56396484375
19.22607421875
10.07080078125
25.634765625
16.4794921875
8.23974609375
10.07080078125
8.23974609375
3.662109375
10.986328125
19.22607421875
18.310546875
10.986328125
21.97265625
27.4658203125
19.22607421875
6.40869140625
13.73291015625
10.07080078125
4.57763671875
10.07080078125
12.8173828125
14.6484375
23.8037109375
32.958984375
33.87451171875
14.6484375
10.986328125
-4.57763671875
16.4794921875
19.22607421875
11.90185546875
8.23974609375
24.71923828125
26.55029296875
22.88818359375
11.90185546875
4.57763671875
-2.74658203125
5.4931640625
18.310546875
13.73291015625
14.6484375
31.1279296875
30.21240234375
24.71923828125
23.8037109375
21.05712890625
-2.74658203125
9.1552734375
36.62109375
39.36767578125
11.90185546875
0
25.634765625
46.69189453125
32.958984375
0
12.8173828125
-4.57763671875
12.8173828125
30.21240234375
14.6484375
3.662109375
8.23974609375
13.73291015625
0.91552734375
1.8310546875
1.8310546875
-8.23974609375
-2.74658203125
4.57763671875
0.91552734375
-2.74658203125
2.74658203125
-7.32421875
0
20.1416015625
16.4794921875
5.4931640625
4.57763671875
0.91552734375
5.4931640625
3.662109375
9.1552734375
-3.662109375
-7.32421875
-21.05712890625
-20.1416015625
-14.6484375
0
0
-4.57763671875
2.74658203125
-4.57763671875
-16.4794921875
-19.22607421875
-12.8173828125
-11.90185546875
-18.310546875
-8.23974609375
-34.7900390625
-27.4658203125
-11.90185546875
-18.310546875
-26.55029296875
-22.88818359375
-25.634765625
-23.8037109375
-31.1279296875
-39.36767578125
-31.1279296875
-33.87451171875
-32.958984375
-32.958984375
-44.86083984375
-38.4521484375
-34.7900390625
-44.86083984375
-43.9453125
-43.9453125
-40.283203125
-35.70556640625
-29.296875
-40.283203125
-45.7763671875
-45.7763671875
-49.4384765625
-42.1142578125
-45.7763671875
-45.7763671875
-45.7763671875
-45.7763671875
-52.18505859375
-46.69189453125
-42.1142578125
-52.18505859375
-54.931640625
-57.67822265625
-68.66455078125
-56.7626953125
-56.7626953125
-62.255859375
-48.52294921875
-43.9453125
-44.86083984375
-43.9453125
-53.1005859375
-72.32666015625
-46.69189453125
-48.52294921875
-64.0869140625
-66.83349609375
-60.4248046875
-54.931640625
-61.34033203125
-66.83349609375
-65.00244140625
-62.255859375
-61.34033203125
-58.59375
-56.7626953125
-54.01611328125
-49.4384765625
-43.02978515625
-43.02978515625
-49.4384765625
-56.7626953125
-60.4248046875
-60.4248046875
-51.26953125
-51.26953125
-46.69189453125
-44.86083984375
-46.69189453125
-65.91796875
-65.00244140625
-64.0869140625
-51.26953125
-43.9453125
-65.91796875
-63.17138671875
-44.86083984375
-46.69189453125
-44.86083984375
-35.70556640625
-53.1005859375
-58.59375
-42.1142578125
-50.35400390625
-43.9453125
-34.7900390625
-32.04345703125
-32.958984375
-23.8037109375
-7.32421875
-15.56396484375
-11.90185546875
-3.662109375
-15.56396484375
-22.88818359375
-36.62109375
-51.26953125
-33.87451171875
-25.634765625
-28.38134765625
-15.56396484375
-8.23974609375
2.74658203125
7.32421875
8.23974609375
0
-2.74658203125
6.40869140625
5.4931640625
10.07080078125
1.8310546875
-7.32421875
-20.1416015625
-9.1552734375
-16.4794921875
-15.56396484375
-15.56396484375
-10.07080078125
-12.8173828125
-27.4658203125
-32.958984375
-29.296875
-31.1279296875
-49.4384765625
-62.255859375
-67.7490234375
-58.59375
-69.580078125
-62.255859375
-62.255859375
-58.59375
-61.34033203125
-66.83349609375
-70.49560546875
-74.15771484375
-58.59375
-45.7763671875
-53.1005859375
-63.17138671875
-70.49560546875
-75.98876953125
-76.904296875
-60.4248046875
-60.4248046875
-65.91796875
-68.66455078125
-61.34033203125
-69.580078125
-59.50927734375
-51.26953125
-57.67822265625
-69.580078125
-65.00244140625
-64.0869140625
-64.0869140625
-61.34033203125
-66.83349609375
-70.49560546875
-81.48193359375
-89.7216796875
-93.3837890625
-98.876953125
-85.14404296875
-54.931640625
-19.22607421875
27.4658203125
90.63720703125
171.20361328125
274.658203125
373.53515625
498.046875
607.91015625
684.814453125
758.056640625
762.63427734375
668.3349609375
540.1611328125
369.873046875
193.17626953125
48.52294921875
-72.32666015625
-143.73779296875
-179.443359375
-224.30419921875
-232.5439453125
-195.9228515625
-137.3291015625
-94.29931640625
-63.17138671875
-54.01611328125
-47.607421875
-50.35400390625
-55.84716796875
-35.70556640625
-21.97265625
-21.97265625
-16.4794921875
1.8310546875
0.91552734375
-14.6484375
-9.1552734375
-11.90185546875
-11.90185546875
-4.57763671875
-12.8173828125
-18.310546875
-11.90185546875
-5.4931640625
1.8310546875
4.57763671875
4.57763671875
3.662109375
-0.91552734375
0
0.91552734375
2.74658203125
8.23974609375
8.23974609375
-11.90185546875
3.662109375
14.6484375
5.4931640625
18.310546875
-0.91552734375
10.986328125
17.39501953125
20.1416015625
29.296875
29.296875
22.88818359375
19.22607421875
25.634765625
12.8173828125
21.05712890625
31.1279296875
31.1279296875
15.56396484375
43.9453125
52.18505859375
32.04345703125
42.1142578125
47.607421875
54.01611328125
58.59375
55.84716796875
49.4384765625
53.1005859375
55.84716796875
50.35400390625
50.35400390625
60.4248046875
66.83349609375
65.91796875
67.7490234375
65.00244140625
70.49560546875
77.81982421875
85.14404296875
88.80615234375
89.7216796875
89.7216796875
92.46826171875
94.29931640625
103.45458984375
116.27197265625
119.0185546875
127.25830078125
130.0048828125
130.0048828125
132.75146484375
132.75146484375
141.90673828125
152.89306640625
171.20361328125
174.86572265625
171.20361328125
188.5986328125
189.51416015625
203.2470703125
220.64208984375
219.7265625
216.064453125
238.95263671875
261.8408203125
257.26318359375
268.24951171875
277.40478515625
298.4619140625
303.03955078125
304.87060546875
309.4482421875
308.53271484375
319.51904296875
331.4208984375
332.33642578125
333.251953125
336.9140625
355.224609375
369.873046875
372.61962890625
357.97119140625
355.224609375
372.61962890625
368.0419921875
357.97119140625
352.47802734375
345.15380859375
337.82958984375
325.01220703125
307.6171875
307.6171875
303.955078125
280.1513671875
260.92529296875
261.8408203125
216.97998046875
200.50048828125
202.33154296875
186.767578125
165.71044921875
156.55517578125
128.173828125
108.0322265625
104.3701171875
100.7080078125
83.31298828125
68.66455078125
63.17138671875
46.69189453125
37.53662109375
21.05712890625
10.07080078125
4.57763671875
10.986328125
0.91552734375
6.40869140625
1.8310546875
-2.74658203125
-13.73291015625
-16.4794921875
-24.71923828125
-19.22607421875
-25.634765625
-21.05712890625
-26.55029296875
-37.53662109375
-33.87451171875
-25.634765625
-25.634765625
-34.7900390625
-46.69189453125
-28.38134765625
-29.296875
-34.7900390625
-43.9453125
-38.4521484375
-24.71923828125
-34.7900390625
-30.21240234375
-23.8037109375
-36.62109375
-32.958984375
-34.7900390625
-38.4521484375
-44.86083984375
-48.52294921875
-39.36767578125
-32.04345703125
-45.7763671875
-32.04345703125
-28.38134765625
-43.9453125
-59.50927734375
-41.19873046875
-34.7900390625
-40.283203125
-45.7763671875
-38.4521484375
-39.36767578125
-41.19873046875
-47.607421875
-41.19873046875
-36.62109375
-40.283203125
-35.70556640625
-38.4521484375
-40.283203125
-37.53662109375
-35.70556640625
-42.1142578125
-43.9453125
-49.4384765625
-48.52294921875
-39.36767578125
-37.53662109375
-44.86083984375
-26.55029296875
-40.283203125
-34.7900390625
-35.70556640625
-39.36767578125
-42.1142578125
-47.607421875
-42.1142578125
-36.62109375
-29.296875
-32.04345703125
-31.1279296875
-28.38134765625
-32.04345703125
-33.87451171875
-37.53662109375
-42.1142578125
-40.283203125
-41.19873046875
-38.4521484375
-37.53662109375
-20.1416015625
-24.71923828125
-36.62109375
-31.1279296875
-35.70556640625
-45.7763671875
-35.70556640625
-39.36767578125
-43.02978515625
-57.67822265625
-36.62109375
-27.4658203125
-39.36767578125
-51.26953125
-43.9453125
-39.36767578125
-43.02978515625
-39.36767578125
-42.1142578125
-42.1142578125
-33.87451171875
-48.52294921875
-54.931640625
-39.36767578125
-39.36767578125
-54.01611328125
-57.67822265625
-56.7626953125
-43.9453125
-42.1142578125
-29.296875
-38.4521484375
-44.86083984375
-46.69189453125
-44.86083984375
-56.7626953125
-54.931640625
-47.607421875
-40.283203125
-43.02978515625
-44.86083984375
-54.01611328125
-54.01611328125
-51.26953125
-49.4384765625
-49.4384765625
-37.53662109375
-49.4384765625
-56.7626953125
-39.36767578125
-33.87451171875
-49.4384765625
-64.0869140625
-63.17138671875
-47.607421875
-54.01611328125
-56.7626953125
-52.18505859375
-44.86083984375
-41.19873046875
-46.69189453125
-53.1005859375
-44.86083984375
-45.7763671875
-56.7626953125
-44.86083984375
-52.18505859375
-48.52294921875
-39.36767578125
-43.02978515625
-32.958984375
-33.87451171875
-43.02978515625
-53.1005859375
-43.9453125
-40.283203125
-41.19873046875
-39.36767578125
-32.04345703125
-39.36767578125
-39.36767578125
-30.21240234375
-41.19873046875
-39.36767578125
-43.9453125
-33.87451171875
-39.36767578125
-36.62109375
-32.04345703125
-35.70556640625
-34.7900390625
-22.88818359375
-45.7763671875
-54.931640625
-51.26953125
-51.26953125
-41.19873046875
-34.7900390625
-41.19873046875
-39.36767578125
-44.86083984375
-43.9453125
-41.19873046875
-38.4521484375
-40.283203125
-47.607421875
-48.52294921875
-54.931640625
-50.35400390625
-37.53662109375
-38.4521484375
-45.7763671875
-38.4521484375
-37.53662109375
-38.4521484375
-33.87451171875
-39.36767578125
-49.4384765625
-53.1005859375
-39.36767578125
-37.53662109375
-47.607421875
-35.70556640625
-47.607421875
-40.283203125
-33.87451171875
-43.9453125
-45.7763671875
-37.53662109375
-30.21240234375
-28.38134765625
-32.04345703125
-43.02978515625
-43.9453125
-32.04345703125
-31.1279296875
-43.9453125
-41.19873046875
-38.4521484375
-40.283203125
-34.7900390625
-30.21240234375
-52.18505859375
-35.70556640625
-43.9453125
-48.52294921875
-46.69189453125
-46.69189453125
-43.9453125
-40.283203125
-43.9453125
-49.4384765625
-42.1142578125
-40.283203125
-49.4384765625
-50.35400390625
-44.86083984375
-40.283203125
-38.4521484375
-38.4521484375
-31.1279296875
-32.958984375
-48.52294921875
-52.18505859375
-62.255859375
-39.36767578125
-47.607421875
-41.19873046875
-55.84716796875
-52.18505859375
-42.1142578125
-39.36767578125
-37.53662109375
-39.36767578125
-39.36767578125
-17.39501953125
-28.38134765625
-33.87451171875
-35.70556640625
-41.19873046875
-24.71923828125
-13.73291015625
-0.91552734375
4.57763671875
3.662109375
4.57763671875
-1.8310546875
-10.07080078125
-19.22607421875
-22.88818359375
-12.8173828125
-18.310546875
-0.91552734375
7.32421875
7.32421875
6.40869140625
21.05712890625
32.958984375
15.56396484375
22.88818359375
29.296875
9.1552734375
6.40869140625
3.662109375
0
1.8310546875
8.23974609375
6.40869140625
8.23974609375
2.74658203125
7.32421875
-5.4931640625
-8.23974609375
-10.986328125
-13.73291015625
-21.05712890625
-39.36767578125
-38.4521484375
-46.69189453125
-49.4384765625
-36.62109375
-41.19873046875
-49.4384765625
-58.59375
-49.4384765625
-35.70556640625
-52.18505859375
-56.7626953125
-40.283203125
-30.21240234375
-43.9453125
-59.50927734375
-43.9453125
-49.4384765625
-52.18505859375
-46.69189453125
-56.7626953125
-54.01611328125
-59.50927734375
-47.607421875
-32.04345703125
-37.53662109375
-44.86083984375
-49.4384765625
-49.4384765625
-53.1005859375
-52.18505859375
-54.931640625
-49.4384765625
-53.1005859375
-53.1005859375
-55.84716796875
-69.580078125
-82.3974609375
-87.890625
-80.56640625
-54.931640625
-23.8037109375
0
54.931640625
144.6533203125
227.05078125
329.58984375
445.86181640625
564.88037109375
659.1796875
714.111328125
740.66162109375
676.57470703125
555.72509765625
381.77490234375
217.8955078125
64.0869140625
-75.98876953125
-140.07568359375
-176.69677734375
-227.96630859375
-236.2060546875
-227.05078125
-185.85205078125
-144.6533203125
-105.28564453125
-74.15771484375
-61.34033203125
-57.67822265625
-50.35400390625
-46.69189453125
-32.958984375
-10.07080078125
-6.40869140625
0
-6.40869140625
-9.1552734375
-1.8310546875
-3.662109375
-9.1552734375
-7.32421875
-14.6484375
-14.6484375
5.4931640625
12.8173828125
1.8310546875
-4.57763671875
10.986328125
-1.8310546875
4.57763671875
0
6.40869140625
5.4931640625
11.90185546875
21.05712890625
10.07080078125
8.23974609375
5.4931640625
8.23974609375
11.90185546875
12.8173828125
23.8037109375
22.88818359375
30.21240234375
23.8037109375
23.8037109375
24.71923828125
30.21240234375
27.4658203125
32.04345703125
23.8037109375
21.97265625
29.296875
34.7900390625
45.7763671875
39.36767578125
28.38134765625
41.19873046875
48.52294921875
53.1005859375
36.62109375
36.62109375
41.19873046875
52.18505859375
66.83349609375
61.34033203125
56.7626953125
61.34033203125
61.34033203125
53.1005859375
61.34033203125
60.4248046875
68.66455078125
71.4111328125
82.3974609375
92.46826171875
84.228515625
78.7353515625
95.21484375
97.96142578125
81.48193359375
98.876953125
114.44091796875
116.27197265625
116.27197265625
106.201171875
126.3427734375
132.75146484375
126.3427734375
129.08935546875
138.24462890625
160.21728515625
162.04833984375
183.10546875
184.9365234375
189.51416015625
188.5986328125
204.16259765625
221.5576171875
222.47314453125
214.2333984375
236.2060546875
247.1923828125
265.5029296875
281.06689453125
286.56005859375
291.1376953125
290.22216796875
290.22216796875
308.53271484375
311.279296875
316.7724609375
322.265625
335.0830078125
336.9140625
325.927734375
346.98486328125
324.0966796875
336.9140625
340.576171875
336.9140625
342.4072265625
319.51904296875
322.265625
331.4208984375
337.82958984375
299.37744140625
286.56005859375
287.4755859375
256.34765625
243.5302734375
223.388671875
205.078125
195.9228515625
179.443359375
167.54150390625
145.56884765625
139.16015625
123.59619140625
92.46826171875
80.56640625
71.4111328125
65.00244140625
53.1005859375
44.86083984375
35.70556640625
33.87451171875
25.634765625
8.23974609375
-19.22607421875
-9.1552734375
-6.40869140625
-2.74658203125
-8.23974609375
-13.73291015625
-10.986328125
-18.310546875
-19.22607421875
-22.88818359375
-41.19873046875
-43.9453125
-27.4658203125
-39.36767578125
-44.86083984375
-42.1142578125
-33.87451171875
-46.69189453125
-32.958984375
-51.26953125
-48.52294921875
-45.7763671875
-37.53662109375
-46.69189453125
-30.21240234375
-37.53662109375
-51.26953125
-53.1005859375
-52.18505859375
-60.4248046875
-62.255859375
-58.59375
-42.1142578125
-43.9453125
-46.69189453125
-39.36767578125
-35.70556640625
-41.19873046875
-57.67822265625
-58.59375
-52.18505859375
-50.35400390625
-56.7626953125
-54.01611328125
-46.69189453125
-63.17138671875
-59.50927734375
-61.34033203125
-45.7763671875
-50.35400390625
-63.17138671875
-57.67822265625
-54.931640625
-49.4384765625
-45.7763671875
-51.26953125
-61.34033203125
-57.67822265625
-51.26953125
-59.50927734375
-48.52294921875
-48.52294921875
-49.4384765625
-51.26953125
-46.69189453125
-46.69189453125
-51.26953125
-51.26953125
-40.283203125
-46.69189453125
-59.50927734375
-54.01611328125
-33.87451171875
-40.283203125
-43.9453125
-43.02978515625
-46.69189453125
-44.86083984375
-41.19873046875
-50.35400390625
-53.1005859375
-57.67822265625
-62.255859375
-59.50927734375
-54.931640625
-40.283203125
-45.7763671875
-47.607421875
-54.01611328125
-54.931640625
-55.84716796875
-46.69189453125
-54.931640625
-53.1005859375
-39.36767578125
-50.35400390625
-50.35400390625
-43.02978515625
-49.4384765625
-56.7626953125
-46.69189453125
-40.283203125
-31.1279296875
-52.18505859375
-50.35400390625
-45.7763671875
-52.18505859375
-51.26953125
-50.35400390625
-49.4384765625
-63.17138671875
-60.4248046875
-54.01611328125
-52.18505859375
-56.7626953125
-53.1005859375
-50.35400390625
-43.02978515625
-43.02978515625
-50.35400390625
-62.255859375
-55.84716796875
-46.69189453125
-54.931640625
-51.26953125
-43.9453125
-47.607421875
-54.01611328125
-47.607421875
-53.1005859375
-56.7626953125
-54.01611328125
-54.931640625
-53.1005859375
-46.69189453125
-43.02978515625
-46.69189453125
-60.4248046875
-66.83349609375
-62.255859375
-49.4384765625
-39.36767578125
-41.19873046875
-49.4384765625
-42.1142578125
-37.53662109375
-46.69189453125
-48.52294921875
-58.59375
-59.50927734375
-50.35400390625
-53.1005859375
-42.1142578125
-43.9453125
-44.86083984375
-62.255859375
-57.67822265625
-46.69189453125
-56.7626953125
-58.59375
-64.0869140625
-59.50927734375
-54.01611328125
-56.7626953125
-49.4384765625
-55.84716796875
-62.255859375
-54.931640625
-57.67822265625
-58.59375
-56.7626953125
-60.4248046875
-50.35400390625
-53.1005859375
-45.7763671875
-40.283203125
-37.53662109375
-40.283203125
-43.02978515625
-37.53662109375
-22.88818359375
-5.4931640625
-0.91552734375
-10.986328125
-0.91552734375
-7.32421875
-29.296875
-24.71923828125
-24.71923828125
-33.87451171875
-21.97265625
8.23974609375
22.88818359375
26.55029296875
29.296875
39.36767578125
28.38134765625
16.4794921875
17.39501953125
3.662109375
-6.40869140625
-6.40869140625
10.986328125
10.07080078125
9.1552734375
-0.91552734375
9.1552734375
0.91552734375
1.8310546875
-12.8173828125
-22.88818359375
-23.8037109375
-29.296875
-42.1142578125
-40.283203125
-52.18505859375
-53.1005859375
-57.67822265625
-56.7626953125
-51.26953125
-61.34033203125
-71.4111328125
-75.0732421875
-56.7626953125
-45.7763671875
-57.67822265625
-72.32666015625
-65.91796875
-64.0869140625
-72.32666015625
-71.4111328125
-65.91796875
-65.00244140625
-66.83349609375
-62.255859375
-71.4111328125
-54.01611328125
-56.7626953125
-62.255859375
-59.50927734375
-60.4248046875
-70.49560546875
-68.66455078125
-58.59375
-61.34033203125
-50.35400390625
-63.17138671875
-54.931640625
-51.26953125
-63.17138671875
-69.580078125
-73.2421875
-86.0595703125
-99.79248046875
-86.97509765625
-87.890625
-69.580078125
-41.19873046875
-6.40869140625
49.4384765625
130.0048828125
232.5439453125
319.51904296875
413.818359375
528.25927734375
620.7275390625
669.25048828125
653.6865234375
578.61328125
454.1015625
292.96875
134.58251953125
3.662109375
-129.08935546875
-195.9228515625
-206.9091796875
-248.10791015625
-269.1650390625
-239.8681640625
-224.30419921875
-196.83837890625
-151.06201171875
-115.3564453125
-87.890625
-62.255859375
-59.50927734375
-54.01611328125
-35.70556640625
-36.62109375
-31.1279296875
-17.39501953125
-20.1416015625
-29.296875
-9.1552734375
-9.1552734375
-10.07080078125
-1.8310546875
-6.40869140625
-13.73291015625
-13.73291015625
-29.296875
-15.56396484375
-11.90185546875
-13.73291015625
-12.8173828125
5.4931640625
-0.91552734375
-6.40869140625
0
-6.40869140625
-15.56396484375
-6.40869140625
-10.07080078125
-5.4931640625
9.1552734375
16.4794921875
20.1416015625
10.07080078125
10.07080078125
16.4794921875
20.1416015625
10.07080078125
20.1416015625
26.55029296875
22.88818359375
27.4658203125
32.958984375
31.1279296875
25.634765625
33.87451171875
32.04345703125
19.22607421875
36.62109375
40.283203125
32.04345703125
41.19873046875
42.1142578125
27.4658203125
40.283203125
49.4384765625
42.1142578125
58.59375
57.67822265625
52.18505859375
62.255859375
64.0869140625
52.18505859375
58.59375
70.49560546875
78.7353515625
75.98876953125
78.7353515625
86.0595703125
91.552734375
98.876953125
108.0322265625
105.28564453125
97.0458984375
102.5390625
108.0322265625
119.93408203125
131.8359375
131.8359375
150.146484375
151.06201171875
162.04833984375
174.86572265625
177.6123046875
183.10546875
187.68310546875
191.34521484375
202.33154296875
209.65576171875
219.7265625
238.95263671875
242.61474609375
245.361328125
259.09423828125
266.41845703125
269.1650390625
278.3203125
289.306640625
294.7998046875
319.51904296875
318.603515625
326.84326171875
325.01220703125
335.99853515625
345.15380859375
346.98486328125
338.7451171875
346.98486328125
353.3935546875
344.23828125
336.9140625
349.7314453125
351.5625
349.7314453125
347.900390625
329.58984375
302.1240234375
292.05322265625
295.71533203125
272.8271484375
264.58740234375
250.8544921875
222.47314453125
211.48681640625
208.740234375
184.9365234375
159.3017578125
135.498046875
120.849609375
106.201171875
91.552734375
94.29931640625
75.98876953125
70.49560546875
51.26953125
29.296875
21.97265625
12.8173828125
6.40869140625
1.8310546875
-2.74658203125
0.91552734375
-10.986328125
-10.986328125
-24.71923828125
-35.70556640625
-29.296875
-33.87451171875
-44.86083984375
-39.36767578125
-23.8037109375
-31.1279296875
-53.1005859375
-42.1142578125
-49.4384765625
-51.26953125
-54.931640625
-57.67822265625
-54.01611328125
-44.86083984375
-33.87451171875
-30.21240234375
-51.26953125
-52.18505859375
-45.7763671875
-54.01611328125
-54.931640625
-54.01611328125
-49.4384765625
-53.1005859375
-58.59375
-51.26953125
-54.931640625
-52.18505859375
-55.84716796875
-56.7626953125
-67.7490234375
-60.4248046875
-65.91796875
-64.0869140625
-58.59375
-65.91796875
-61.34033203125
-69.580078125
-61.34033203125
-50.35400390625
-46.69189453125
-51.26953125
-54.931640625
-71.4111328125
-50.35400390625
-40.283203125
-38.4521484375
-59.50927734375
-72.32666015625
-61.34033203125
-63.17138671875
-59.50927734375
-54.931640625
-46.69189453125
-51.26953125
-45.7763671875
-45.7763671875
-54.01611328125
-50.35400390625
-52.18505859375
-62.255859375
-57.67822265625
-56.7626953125
-57.67822265625
-45.7763671875
-52.18505859375
-57.67822265625
-43.9453125
-60.4248046875
-60.4248046875
-48.52294921875
-54.01611328125
-44.86083984375
-35.70556640625
-38.4521484375
-43.9453125
-43.9453125
-64.0869140625
-63.17138671875
-62.255859375
-57.67822265625
-51.26953125
-45.7763671875
-58.59375
-53.1005859375
-38.4521484375
-51.26953125
-47.607421875
-49.4384765625
-58.59375
-66.83349609375
-64.0869140625
-53.1005859375
-51.26953125
-45.7763671875
-54.931640625
-57.67822265625
-61.34033203125
-55.84716796875
-54.01611328125
-69.580078125
-71.4111328125
-78.7353515625
-65.91796875
-63.17138671875
-55.84716796875
-60.4248046875
-77.81982421875
-75.98876953125
-65.00244140625
-75.0732421875
-65.91796875
-63.17138671875
-61.34033203125
-53.1005859375
-52.18505859375
-66.83349609375
-72.32666015625
-71.4111328125
-68.66455078125
-65.91796875
-59.50927734375
-63.17138671875
-56.7626953125
-54.931640625
-55.84716796875
-60.4248046875
-54.931640625
-72.32666015625
-71.4111328125
-60.4248046875
-63.17138671875
-65.00244140625
-58.59375
-71.4111328125
-62.255859375
-62.255859375
-69.580078125
-76.904296875
-81.48193359375
-67.7490234375
-57.67822265625
-55.84716796875
-43.9453125
-46.69189453125
-43.9453125
-39.36767578125
-19.22607421875
-6.40869140625
-10.07080078125
-15.56396484375
-22.88818359375
-17.39501953125
-24.71923828125
-35.70556640625
-45.7763671875
-32.958984375
-21.05712890625
-10.07080078125
6.40869140625
12.8173828125
15.56396484375
11.90185546875
5.4931640625
5.4931640625
4.57763671875
-1.8310546875
4.57763671875
-7.32421875
-23.8037109375
-16.4794921875
-4.57763671875
-10.07080078125
-20.1416015625
-21.05712890625
-17.39501953125
-21.97265625
-24.71923828125
-33.87451171875
-41.19873046875
-51.26953125
-67.7490234375
-73.2421875
-80.56640625
-77.81982421875
-75.98876953125
-81.48193359375
-85.14404296875
-90.63720703125
-86.0595703125
-74.15771484375
-66.83349609375
-78.7353515625
-87.890625
-76.904296875
-82.3974609375
-76.904296875
-77.81982421875
-77.81982421875
-87.890625
-83.31298828125
-86.0595703125
-92.46826171875
-102.5390625
-79.65087890625
-77.81982421875
-75.0732421875
-71.4111328125
-75.0732421875
-72.32666015625
-78.7353515625
-89.7216796875
-77.81982421875
-78.7353515625
-72.32666015625
-75.98876953125
-62.255859375
-66.83349609375
-80.56640625
-103.45458984375
-122.6806640625
-124.51171875
-112.60986328125
-85.14404296875
-50.35400390625
-14.6484375
31.1279296875
98.876953125
203.2470703125
294.7998046875
399.169921875
510.8642578125
603.33251953125
676.57470703125
692.138671875
635.3759765625
502.62451171875
338.7451171875
178.52783203125
16.4794921875
-114.44091796875
-188.5986328125
-212.40234375
-254.5166015625
-250.8544921875
-246.27685546875
-227.96630859375
-187.68310546875
-143.73779296875
-132.75146484375
-105.28564453125
-91.552734375
-79.65087890625
-72.32666015625
-51.26953125
-34.7900390625
-41.19873046875
-33.87451171875
-32.04345703125
-21.05712890625
-29.296875
-28.38134765625
-28.38134765625
-22.88818359375
-18.310546875
-8.23974609375
-13.73291015625
-17.39501953125
-21.05712890625
-29.296875
-20.1416015625
-13.73291015625
-10.986328125
-22.88818359375
-10.07080078125
0.91552734375
-8.23974609375
-10.986328125
-0.91552734375
-10.07080078125
-11.90185546875
5.4931640625
2.74658203125
1.8310546875
13.73291015625
4.57763671875
-0.91552734375
-1.8310546875
-5.4931640625
0
-0.91552734375
10.07080078125
17.39501953125
6.40869140625
11.90185546875
15.56396484375
2.74658203125
14.6484375
29.296875
19.22607421875
22.88818359375
29.296875
23.8037109375
27.4658203125
30.21240234375
28.38134765625
32.04345703125
34.7900390625
38.4521484375
32.958984375
30.21240234375
41.19873046875
44.86083984375
54.01611328125
56.7626953125
61.34033203125
67.7490234375
72.32666015625
68.66455078125
69.580078125
71.4111328125
80.56640625
83.31298828125
87.890625
97.0458984375
91.552734375
111.6943359375
119.93408203125
115.3564453125
113.525390625
130.0048828125
135.498046875
139.16015625
148.3154296875
166.6259765625
184.9365234375
197.75390625
186.767578125
188.5986328125
205.078125
205.078125
222.47314453125
236.2060546875
245.361328125
260.92529296875
263.671875
271.91162109375
283.8134765625
281.982421875
290.22216796875
300.29296875
312.19482421875
317.68798828125
320.4345703125
331.4208984375
339.66064453125
333.251953125
338.7451171875
345.15380859375
334.16748046875
341.49169921875
344.23828125
336.9140625
333.251953125
327.7587890625
325.927734375
309.4482421875
286.56005859375
273.74267578125
270.08056640625
258.1787109375
239.8681640625
223.388671875
207.82470703125
204.16259765625
174.86572265625
151.9775390625
145.56884765625
126.3427734375
106.201171875
89.7216796875
67.7490234375
54.931640625
55.84716796875
42.1142578125
39.36767578125
29.296875
10.986328125
2.74658203125
-7.32421875
-13.73291015625
-16.4794921875
-27.4658203125
-21.05712890625
-18.310546875
-23.8037109375
-31.1279296875
-30.21240234375
-36.62109375
-44.86083984375
-55.84716796875
-47.607421875
-37.53662109375
-41.19873046875
-38.4521484375
-37.53662109375
-40.283203125
-41.19873046875
-54.01611328125
-51.26953125
-47.607421875
-55.84716796875
-54.931640625
-47.607421875
-41.19873046875
-39.36767578125
-49.4384765625
-52.18505859375
-54.931640625
-57.67822265625
-65.91796875
-65.00244140625
-54.931640625
-57.67822265625
-68.66455078125
-54.01611328125
-48.52294921875
-62.255859375
-70.49560546875
-75.0732421875
-64.0869140625
-44.86083984375
-54.931640625
-64.0869140625
-50.35400390625
-40.283203125
-51.26953125
-54.01611328125
-58.59375
-59.50927734375
-54.931640625
-49.4384765625
-60.4248046875
-54.01611328125
-45.7763671875
-45.7763671875
-53.1005859375
-56.7626953125
-51.26953125
-59.50927734375
-63.17138671875
-59.50927734375
-52.18505859375
-51.26953125
-49.4384765625
-48.52294921875
-52.18505859375
-55.84716796875
-71.4111328125
-67.7490234375
-50.35400390625
-58.59375
-62.255859375
-53.1005859375
-52.18505859375
-41.19873046875
-38.4521484375
-47.607421875
-43.9453125
-50.35400390625
-55.84716796875
-54.01611328125
-43.9453125
-44.86083984375
-40.283203125
-47.607421875
-46.69189453125
-48.52294921875
-45.7763671875
-56.7626953125
-55.84716796875
-54.01611328125
-53.1005859375
-45.7763671875
-39.36767578125
-46.69189453125
-44.86083984375
-44.86083984375
-44.86083984375
-56.7626953125
-68.66455078125
-67.7490234375
-63.17138671875
-54.931640625
-54.01611328125
-64.0869140625
-53.1005859375
-44.86083984375
-55.84716796875
-55.84716796875
-54.01611328125
-62.255859375
-65.00244140625
-60.4248046875
-54.01611328125
-50.35400390625
-57.67822265625
-64.0869140625
-59.50927734375
-69.580078125
-57.67822265625
-57.67822265625
-61.34033203125
-54.01611328125
-40.283203125
-45.7763671875
-59.50927734375
-60.4248046875
-62.255859375
-54.931640625
-55.84716796875
-71.4111328125
-73.2421875
-57.67822265625
-54.931640625
-51.26953125
-55.84716796875
-60.4248046875
-61.34033203125
-57.67822265625
-52.18505859375
-53.1005859375
-56.7626953125
-59.50927734375
-56.7626953125
-44.86083984375
-49.4384765625
-57.67822265625
-57.67822265625
-51.26953125
-65.91796875
-57.67822265625
-60.4248046875
-45.7763671875
-45.7763671875
-32.958984375
-41.19873046875
-43.9453125
-34.7900390625
-31.1279296875
-30.21240234375
-12.8173828125
-1.8310546875
-5.4931640625
7.32421875
12.8173828125
2.74658203125
-22.88818359375
-38.4521484375
-30.21240234375
-10.986328125
6.40869140625
10.986328125
21.97265625
33.87451171875
32.04345703125
19.22607421875
10.07080078125
9.1552734375
-3.662109375
0.91552734375
-2.74658203125
-8.23974609375
0.91552734375
7.32421875
6.40869140625
0
-11.90185546875
-14.6484375
-14.6484375
-21.97265625
-16.4794921875
-21.05712890625
-22.88818359375
-38.4521484375
-43.9453125
-66.83349609375
-71.4111328125
-75.0732421875
-66.83349609375
-65.91796875
-66.83349609375
-65.00244140625
-68.66455078125
-58.59375
-58.59375
-65.91796875
-67.7490234375
-66.83349609375
-81.48193359375
-81.48193359375
-78.7353515625
-84.228515625
-66.83349609375
-65.91796875
-75.0732421875
-72.32666015625
-66.83349609375
-68.66455078125
-67.7490234375
-66.83349609375
-70.49560546875
-75.0732421875
-66.83349609375
-63.17138671875
-54.931640625
-65.00244140625
-61.34033203125
-65.00244140625
-74.15771484375
-69.580078125
-70.49560546875
-73.2421875
-92.46826171875
-86.97509765625
-90.63720703125
-88.80615234375
-73.2421875
-37.53662109375
-9.1552734375
44.86083984375
134.58251953125
242.61474609375
357.97119140625
476.07421875
589.599609375
670.166015625
722.35107421875
728.759765625
654.60205078125
529.1748046875
349.7314453125
165.71044921875
15.56396484375
-108.0322265625
-162.04833984375
-204.16259765625
-249.93896484375
-268.24951171875
-248.10791015625
-196.83837890625
-147.39990234375
-108.94775390625
-83.31298828125
-65.91796875
-57.67822265625
-63.17138671875
-55.84716796875
-42.1142578125
-33.87451171875
-29.296875
-20.1416015625
-21.05712890625
-32.04345703125
-22.88818359375
-5.4931640625
-20.1416015625
-22.88818359375
-30.21240234375
-32.04345703125
-27.4658203125
-21.97265625
-21.97265625
-18.310546875
-8.23974609375
-10.07080078125
-15.56396484375
-8.23974609375
-8.23974609375
-13.73291015625
1.8310546875
15.56396484375
-5.4931640625
2.74658203125
13.73291015625
13.73291015625
12.8173828125
14.6484375
10.986328125
6.40869140625
7.32421875
4.57763671875
21.05712890625
25.634765625
26.55029296875
21.05712890625
18.310546875
21.05712890625
19.22607421875
13.73291015625
24.71923828125
35.70556640625
25.634765625
38.4521484375
51.26953125
26.55029296875
24.71923828125
37.53662109375
34.7900390625
33.87451171875
40.283203125
40.283203125
40.283203125
50.35400390625
58.59375
57.67822265625
59.50927734375
63.17138671875
58.59375
68.66455078125
75.0732421875
76.904296875
81.48193359375
93.3837890625
95.21484375
87.890625
94.29931640625
98.876953125
104.3701171875
104.3701171875
104.3701171875
114.44091796875
127.25830078125
125.42724609375
168.45703125
179.443359375
161.1328125
167.54150390625
177.6123046875
178.52783203125
186.767578125
197.75390625
212.40234375
221.5576171875
221.5576171875
242.61474609375
253.60107421875
266.41845703125
264.58740234375
268.24951171875
281.982421875
299.37744140625
310.36376953125
321.35009765625
338.7451171875
336.9140625
333.251953125
339.66064453125
338.7451171875
345.15380859375
356.14013671875
360.7177734375
366.2109375
372.61962890625
375.3662109375
368.95751953125
363.46435546875
358.88671875
346.0693359375
336.9140625
330.50537109375
318.603515625
304.87060546875
290.22216796875
282.89794921875
275.57373046875
249.93896484375
239.8681640625
208.740234375
190.4296875
166.6259765625
141.90673828125
124.51171875
126.3427734375
126.3427734375
107.11669921875
78.7353515625
64.0869140625
53.1005859375
46.69189453125
41.19873046875
32.04345703125
14.6484375
6.40869140625
8.23974609375
-1.8310546875
-17.39501953125
-18.310546875
-24.71923828125
-34.7900390625
-42.1142578125
-28.38134765625
-25.634765625
-21.97265625
-20.1416015625
-22.88818359375
-32.04345703125
-35.70556640625
-35.70556640625
-31.1279296875
-28.38134765625
-24.71923828125
-36.62109375
-47.607421875
-32.958984375
-38.4521484375
-44.86083984375
-44.86083984375
-52.18505859375
-44.86083984375
-47.607421875
-51.26953125
-41.19873046875
-32.04345703125
-34.7900390625
-37.53662109375
-40.283203125
-49.4384765625
-52.18505859375
-52.18505859375
-60.4248046875
-42.1142578125
-50.35400390625
-51.26953125
-43.02978515625
-43.02978515625
-47.607421875
-45.7763671875
-45.7763671875
-53.1005859375
-61.34033203125
-49.4384765625
-40.283203125
-46.69189453125
-49.4384765625
-43.02978515625
-45.7763671875
-49.4384765625
-54.01611328125
-61.34033203125
-50.35400390625
-46.69189453125
-61.34033203125
-48.52294921875
-43.9453125
-57.67822265625
-58.59375
-51.26953125
-43.9453125
-35.70556640625
-48.52294921875
-52.18505859375
-47.607421875
-60.4248046875
-54.931640625
-46.69189453125
-45.7763671875
-44.86083984375
-48.52294921875
-57.67822265625
-43.02978515625
-42.1142578125
-43.02978515625
-44.86083984375
-35.70556640625
-37.53662109375
-41.19873046875
-42.1142578125
-44.86083984375
-44.86083984375
-41.19873046875
-44.86083984375
-48.52294921875
-45.7763671875
-38.4521484375
-36.62109375
-48.52294921875
-43.9453125
-46.69189453125
-48.52294921875
-37.53662109375
-41.19873046875
-42.1142578125
-32.958984375
-37.53662109375
-39.36767578125
-36.62109375
-40.283203125
-49.4384765625
-51.26953125
-39.36767578125
-37.53662109375
-47.607421875
-49.4384765625
-41.19873046875
-32.958984375
-32.04345703125
-45.7763671875
-49.4384765625
-55.84716796875
-60.4248046875
-49.4384765625
-46.69189453125
-49.4384765625
-54.01611328125
-54.01611328125
-61.34033203125
-54.01611328125
-60.4248046875
-61.34033203125
-58.59375
-64.0869140625
-54.931640625
-44.86083984375
-44.86083984375
-45.7763671875
-44.86083984375
-51.26953125
-62.255859375
-67.7490234375
-60.4248046875
-55.84716796875
-47.607421875
-45.7763671875
-45.7763671875
-38.4521484375
-43.9453125
-50.35400390625
-54.01611328125
-50.35400390625
-52.18505859375
-49.4384765625
-46.69189453125
-39.36767578125
-43.9453125
-48.52294921875
-49.4384765625
-48.52294921875
-51.26953125
-52.18505859375
-50.35400390625
-50.35400390625
-50.35400390625
-42.1142578125
-42.1142578125
-42.1142578125
-44.86083984375
-56.7626953125
-46.69189453125
-45.7763671875
-51.26953125
-56.7626953125
-63.17138671875
-49.4384765625
-48.52294921875
-47.607421875
-49.4384765625
-50.35400390625
-53.1005859375
-54.931640625
-47.607421875
-56.7626953125
-60.4248046875
-48.52294921875
-47.607421875
-47.607421875
-43.9453125
-45.7763671875
-50.35400390625
-55.84716796875
-48.52294921875
-52.18505859375
-63.17138671875
-57.67822265625
-40.283203125
-36.62109375
-43.9453125
-51.26953125
-57.67822265625
-49.4384765625
-34.7900390625
-37.53662109375
-46.69189453125
-38.4521484375
-40.283203125
-38.4521484375
-42.1142578125
-48.52294921875
-47.607421875
-47.607421875
-43.02978515625
-53.1005859375
-54.01611328125
-48.52294921875
-36.62109375
-45.7763671875
-55.84716796875
-54.931640625
-54.01611328125
-34.7900390625
-32.04345703125
-30.21240234375
-30.21240234375
-18.310546875
-16.4794921875
-22.88818359375
-26.55029296875
-0.91552734375
18.310546875
0.91552734375
0
-10.986328125
-27.4658203125
-21.97265625
-20.1416015625
-16.4794921875
-2.74658203125
6.40869140625
16.4794921875
22.88818359375
33.87451171875
31.1279296875
12.8173828125
10.07080078125
13.73291015625
6.40869140625
1.8310546875
2.74658203125
12.8173828125
13.73291015625
1.8310546875
-1.8310546875
-7.32421875
3.662109375
1.8310546875
-8.23974609375
-19.22607421875
-15.56396484375
-21.05712890625
-29.296875
-41.19873046875
-40.283203125
-49.4384765625
-44.86083984375
-44.86083984375
-55.84716796875
-61.34033203125
-61.34033203125
-64.0869140625
-48.52294921875
-43.9453125
-53.1005859375
-48.52294921875
-37.53662109375
-40.283203125
-49.4384765625
-55.84716796875
-50.35400390625
-39.36767578125
-46.69189453125
-53.1005859375
-58.59375
-62.255859375
-53.1005859375
-53.1005859375
-66.83349609375
-70.49560546875
-54.931640625
-51.26953125
-61.34033203125
-63.17138671875
-57.67822265625
-61.34033203125
-57.67822265625
-50.35400390625
-54.01611328125
-75.0732421875
-93.3837890625
-106.201171875
-95.21484375
-81.48193359375
-55.84716796875
-20.1416015625
4.57763671875
55.84716796875
145.56884765625
227.96630859375
335.0830078125
454.1015625
571.2890625
661.92626953125
726.01318359375
769.95849609375
704.9560546875
583.19091796875
418.39599609375
238.037109375
74.15771484375
-64.0869140625
-137.3291015625
-176.69677734375
-217.8955078125
-238.037109375
-206.9091796875
-174.86572265625
-131.8359375
-89.7216796875
-65.00244140625
-56.7626953125
-46.69189453125
-43.9453125
-35.70556640625
-34.7900390625
-19.22607421875
-8.23974609375
-0.91552734375
2.74658203125
0.91552734375
-13.73291015625
-12.8173828125
-12.8173828125
-11.90185546875
-9.1552734375
0
-2.74658203125
-7.32421875
-10.986328125
-15.56396484375
0
4.57763671875
0
-5.4931640625
-2.74658203125
13.73291015625
29.296875
21.97265625
10.986328125
3.662109375
2.74658203125
9.1552734375
12.8173828125
17.39501953125
22.88818359375
32.958984375
24.71923828125
27.4658203125
31.1279296875
26.55029296875
19.22607421875
20.1416015625
30.21240234375
28.38134765625
25.634765625
37.53662109375
36.62109375
23.8037109375
28.38134765625
35.70556640625
38.4521484375
32.04345703125
34.7900390625
39.36767578125
28.38134765625
47.607421875
47.607421875
54.931640625
74.15771484375
52.18505859375
42.1142578125
37.53662109375
46.69189453125
55.84716796875
58.59375
66.83349609375
72.32666015625
75.0732421875
76.904296875
68.66455078125
75.98876953125
84.228515625
94.29931640625
93.3837890625
98.876953125
120.849609375
129.08935546875
125.42724609375
128.173828125
139.16015625
128.173828125
131.8359375
143.73779296875
143.73779296875
167.54150390625
183.10546875
197.75390625
197.75390625
197.75390625
212.40234375
216.064453125
224.30419921875
244.44580078125
255.43212890625
269.1650390625
278.3203125
285.64453125
282.89794921875
294.7998046875
306.70166015625
308.53271484375
308.53271484375
324.0966796875
341.49169921875
346.98486328125
363.46435546875
369.873046875
364.3798828125
372.61962890625
361.63330078125
356.14013671875
362.548828125
367.12646484375
379.94384765625
378.11279296875
351.5625
357.97119140625
360.7177734375
340.576171875
324.0966796875
314.02587890625
294.7998046875
276.4892578125
254.5166015625
250.8544921875
234.375
222.47314453125
204.16259765625
178.52783203125
162.9638671875
151.06201171875
129.08935546875
115.3564453125
102.5390625
82.3974609375
75.0732421875
61.34033203125
66.83349609375
41.19873046875
36.62109375
24.71923828125
17.39501953125
10.986328125
7.32421875
6.40869140625
5.4931640625
-6.40869140625
-17.39501953125
-19.22607421875
-10.07080078125
-13.73291015625
-22.88818359375
-19.22607421875
-31.1279296875
-21.97265625
-18.310546875
-20.1416015625
-30.21240234375
-30.21240234375
-21.97265625
-38.4521484375
-45.7763671875
-21.97265625
-24.71923828125
-44.86083984375
-38.4521484375
-23.8037109375
-25.634765625
-26.55029296875
-36.62109375
-43.9453125
-34.7900390625
-36.62109375
-44.86083984375
-39.36767578125
-31.1279296875
-26.55029296875
-33.87451171875
-33.87451171875
-33.87451171875
-34.7900390625
-42.1142578125
-34.7900390625
-37.53662109375
-48.52294921875
-42.1142578125
-29.296875
-23.8037109375
-32.958984375
-39.36767578125
-47.607421875
-52.18505859375
-40.283203125
-35.70556640625
-36.62109375
-24.71923828125
-31.1279296875
-39.36767578125
-38.4521484375
-39.36767578125
-43.02978515625
-45.7763671875
-45.7763671875
-54.01611328125
-44.86083984375
-28.38134765625
-23.8037109375
-25.634765625
-37.53662109375
-41.19873046875
-51.26953125
-43.02978515625
-37.53662109375
-33.87451171875
-39.36767578125
-38.4521484375
-38.4521484375
-33.87451171875
-32.958984375
-39.36767578125
-45.7763671875
-54.01611328125
-53.1005859375
-47.607421875
-41.19873046875
-40.283203125
-32.958984375
-43.9453125
-41.19873046875
-38.4521484375
-46.69189453125
-45.7763671875
-46.69189453125
-42.1142578125
-35.70556640625
-26.55029296875
-31.1279296875
-23.8037109375
-35.70556640625
-49.4384765625
-43.9453125
-39.36767578125
-45.7763671875
-47.607421875
-37.53662109375
-35.70556640625
-40.283203125
-50.35400390625
-49.4384765625
-46.69189453125
-52.18505859375
-52.18505859375
-50.35400390625
-37.53662109375
-37.53662109375
-44.86083984375
-47.607421875
-47.607421875
-54.01611328125
-43.02978515625
-51.26953125
-55.84716796875
-49.4384765625
-60.4248046875
-59.50927734375
-49.4384765625
-45.7763671875
-44.86083984375
-50.35400390625
-48.52294921875
-64.0869140625
-60.4248046875
-53.1005859375
-58.59375
-54.931640625
-51.26953125
-46.69189453125
-48.52294921875
-48.52294921875
-57.67822265625
-64.0869140625
-44.86083984375
-50.35400390625
-50.35400390625
-44.86083984375
-36.62109375
-39.36767578125
-35.70556640625
-48.52294921875
-46.69189453125
-48.52294921875
-62.255859375
-58.59375
-52.18505859375
-44.86083984375
-51.26953125
-49.4384765625
-51.26953125
-55.84716796875
-52.18505859375
-68.66455078125
-75.0732421875
-67.7490234375
-54.01611328125
-46.69189453125
-51.26953125
-50.35400390625
-57.67822265625
-56.7626953125
-49.4384765625
-61.34033203125
-61.34033203125
-46.69189453125
-56.7626953125
-51.26953125
-49.4384765625
-57.67822265625
-50.35400390625
-57.67822265625
-70.49560546875
-65.00244140625
-61.34033203125
-65.91796875
-67.7490234375
-73.2421875
-58.59375
-43.9453125
-53.1005859375
-65.91796875
-61.34033203125
-60.4248046875
-68.66455078125
-76.904296875
-77.81982421875
-64.0869140625
-57.67822265625
-51.26953125
-48.52294921875
-57.67822265625
-59.50927734375
-70.49560546875
-63.17138671875
-54.01611328125
-70.49560546875
-62.255859375
-47.607421875
-45.7763671875
-67.7490234375
-61.34033203125
-65.91796875
-61.34033203125
-59.50927734375
-70.49560546875
-71.4111328125
-58.59375
-49.4384765625
-53.1005859375
-65.00244140625
-63.17138671875
-52.18505859375
-71.4111328125
-72.32666015625
-59.50927734375
-65.91796875
-76.904296875
-53.1005859375
-54.931640625
-58.59375
-64.0869140625
-70.49560546875
-75.0732421875
-65.91796875
-73.2421875
-68.66455078125
-70.49560546875
-67.7490234375
-55.84716796875
-69.580078125
-89.7216796875
-84.228515625
-66.83349609375
-77.81982421875
-85.14404296875
-66.83349609375
-62.255859375
-53.1005859375
-59.50927734375
-63.17138671875
-63.17138671875
-70.49560546875
-78.7353515625
-71.4111328125
-62.255859375
-66.83349609375
-75.98876953125
-65.00244140625
-43.02978515625
-35.70556640625
-38.4521484375
-41.19873046875
-52.18505859375
-35.70556640625
-31.1279296875
-22.88818359375
-21.97265625
-23.8037109375
-20.1416015625
-39.36767578125
-53.1005859375
-56.7626953125
-57.67822265625
-35.70556640625
-37.53662109375
-28.38134765625
-21.05712890625
-4.57763671875
14.6484375
-2.74658203125
-13.73291015625
-11.90185546875
-10.07080078125
-24.71923828125
-22.88818359375
-21.97265625
-16.4794921875
-16.4794921875
-20.1416015625
-30.21240234375
-29.296875
-32.04345703125
-37.53662109375
-41.19873046875
-43.9453125
-41.19873046875
-45.7763671875
-53.1005859375
-67.7490234375
-73.2421875
-74.15771484375
-80.56640625
-84.228515625
-89.7216796875
-66.83349609375
-66.83349609375
-69.580078125
-59.50927734375
-69.580078125
-67.7490234375
-66.83349609375
-66.83349609375
-83.31298828125
-85.14404296875
-65.00244140625
-69.580078125
-69.580078125
-65.91796875
-70.49560546875
-74.15771484375
-73.2421875
-70.49560546875
-75.0732421875
-67.7490234375
-71.4111328125
-74.15771484375
-74.15771484375
-75.98876953125
-86.0595703125
-85.14404296875
-72.32666015625
-78.7353515625
-87.890625
-92.46826171875
-104.3701171875
-119.0185546875
-107.11669921875
-82.3974609375
-72.32666015625
-33.87451171875
3.662109375
56.7626953125
150.146484375
246.27685546875
356.14013671875
476.98974609375
574.03564453125
650.93994140625
693.9697265625
664.6728515625
542.90771484375
397.3388671875
235.29052734375
74.15771484375
-59.50927734375
-152.89306640625
-190.4296875
-231.62841796875
-270.99609375
-270.99609375
-233.45947265625
-201.416015625
-178.52783203125
-142.822265625
-97.0458984375
-77.81982421875
-64.0869140625
-54.931640625
-54.01611328125
-55.84716796875
-44.86083984375
-45.7763671875
-40.283203125
-38.4521484375
-43.9453125
-38.4521484375
-16.4794921875
-34.7900390625
-34.7900390625
-31.1279296875
-36.62109375
-43.9453125
-32.04345703125
-27.4658203125
-40.283203125
-32.958984375
-34.7900390625
-12.8173828125
-15.56396484375
-23.8037109375
-31.1279296875
-23.8037109375
-26.55029296875
-19.22607421875
-8.23974609375
-10.986328125
-13.73291015625
-19.22607421875
-13.73291015625
-10.07080078125
-1.8310546875
2.74658203125
-9.1552734375
-13.73291015625
1.8310546875
8.23974609375
8.23974609375
9.1552734375
7.32421875
-0.91552734375
0.91552734375
2.74658203125
-8.23974609375
7.32421875
27.4658203125
15.56396484375
9.1552734375
8.23974609375
14.6484375
23.8037109375
26.55029296875
26.55029296875
25.634765625
20.1416015625
21.05712890625
35.70556640625
29.296875
23.8037109375
28.38134765625
37.53662109375
52.18505859375
37.53662109375
30.21240234375
47.607421875
62.255859375
56.7626953125
65.91796875
61.34033203125
58.59375
67.7490234375
85.14404296875
90.63720703125
99.79248046875
93.3837890625
102.5390625
114.44091796875
119.0185546875
130.0048828125
133.6669921875
133.6669921875
137.3291015625
155.6396484375
157.470703125
159.3017578125
160.21728515625
169.37255859375
183.10546875
206.9091796875
215.14892578125
221.5576171875
230.712890625
227.96630859375
227.96630859375
228.8818359375
252.685546875
267.333984375
279.23583984375
291.1376953125
292.96875
296.630859375
292.05322265625
293.88427734375
301.20849609375
305.7861328125
320.4345703125
307.6171875
316.7724609375
323.18115234375
322.265625
307.6171875
294.7998046875
296.630859375
294.7998046875
285.64453125
271.91162109375
265.5029296875
243.5302734375
238.95263671875
223.388671875
198.66943359375
178.52783203125
162.9638671875
145.56884765625
129.08935546875
113.525390625
97.96142578125
87.890625
88.80615234375
72.32666015625
54.931640625
29.296875
20.1416015625
12.8173828125
-3.662109375
-13.73291015625
-16.4794921875
-12.8173828125
-21.97265625
-32.958984375
-33.87451171875
-35.70556640625
-49.4384765625
-64.0869140625
-62.255859375
-64.0869140625
-73.2421875
-66.83349609375
-61.34033203125
-50.35400390625
-42.1142578125
-64.0869140625
-72.32666015625
-71.4111328125
-76.904296875
-64.0869140625
-72.32666015625
-73.2421875
-62.255859375
-70.49560546875
-68.66455078125
-72.32666015625
-75.0732421875
-75.0732421875
-67.7490234375
-71.4111328125
-78.7353515625
-78.7353515625
-73.2421875
-70.49560546875
-79.65087890625
-74.15771484375
-79.65087890625
-88.80615234375
-94.29931640625
-82.3974609375
-72.32666015625
-57.67822265625
-72.32666015625
-76.904296875
-81.48193359375
-82.3974609375
-80.56640625
-87.890625
-88.80615234375
-80.56640625
-82.3974609375
-89.7216796875
-71.4111328125
-69.580078125
-76.904296875
-77.81982421875
-70.49560546875
-76.904296875
-78.7353515625
-78.7353515625
-76.904296875
-73.2421875
-74.15771484375
-73.2421875
-71.4111328125
-79.65087890625
-86.97509765625
-76.904296875
-74.15771484375
-75.98876953125
-77.81982421875
-71.4111328125
-70.49560546875
-65.00244140625
-65.91796875
-71.4111328125
-73.2421875
-76.904296875
-84.228515625
-74.15771484375
-67.7490234375
-73.2421875
-70.49560546875
-57.67822265625
-59.50927734375
-68.66455078125
-66.83349609375
-70.49560546875
-78.7353515625
-67.7490234375
-77.81982421875
-71.4111328125
-60.4248046875
-61.34033203125
-68.66455078125
-86.0595703125
-75.98876953125
-68.66455078125
-74.15771484375
-65.00244140625
-62.255859375
-72.32666015625
-75.0732421875
-73.2421875
-64.0869140625
-57.67822265625
-80.56640625
-89.7216796875
-86.0595703125
-78.7353515625
-72.32666015625
-69.580078125
-58.59375
-76.904296875
-78.7353515625
-83.31298828125
-75.0732421875
-85.14404296875
-83.31298828125
-81.48193359375
-79.65087890625
-81.48193359375
-75.0732421875
-75.98876953125
-75.98876953125
-75.98876953125
-74.15771484375
-80.56640625
-67.7490234375
-63.17138671875
-74.15771484375
-80.56640625
-84.228515625
-75.98876953125
-69.580078125
-64.0869140625
-70.49560546875
-88.80615234375
-79.65087890625
-74.15771484375
-76.904296875
-74.15771484375
-73.2421875
-74.15771484375
-74.15771484375
-74.15771484375
-79.65087890625
-79.65087890625
-82.3974609375
-78.7353515625
-74.15771484375
-72.32666015625
-77.81982421875
-65.91796875
-67.7490234375
-69.580078125
-78.7353515625
-71.4111328125
-76.904296875
-86.97509765625
-92.46826171875
-77.81982421875
-58.59375
-66.83349609375
-85.14404296875
-86.0595703125
-81.48193359375
-84.228515625
-89.7216796875
-75.0732421875
-75.98876953125
-84.228515625
-64.0869140625
-75.0732421875
-71.4111328125
-75.0732421875
-82.3974609375
-87.890625
-84.228515625
-76.904296875
-79.65087890625
-77.81982421875
-70.49560546875
-65.91796875
-84.228515625
-77.81982421875
-68.66455078125
-76.904296875
-70.49560546875
-69.580078125
-71.4111328125
-65.91796875
-65.91796875
-71.4111328125
-81.48193359375
-90.63720703125
-81.48193359375
-70.49560546875
-86.0595703125
-84.228515625
-67.7490234375
-75.0732421875
-68.66455078125
-58.59375
-64.0869140625
-62.255859375
-66.83349609375
-47.607421875
-35.70556640625
-24.71923828125
-18.310546875
-25.634765625
-33.87451171875
-41.19873046875
-41.19873046875
-42.1142578125
-55.84716796875
-65.00244140625
-47.607421875
-21.05712890625
-18.310546875
-9.1552734375
11.90185546875
4.57763671875
-7.32421875
-21.97265625
-21.97265625
-36.62109375
-47.607421875
-43.9453125
-36.62109375
-25.634765625
-12.8173828125
-22.88818359375
-20.1416015625
-22.88818359375
-25.634765625
-33.87451171875
-43.02978515625
-36.62109375
-48.52294921875
-66.83349609375
-65.00244140625
-71.4111328125
-74.15771484375
-86.97509765625
-80.56640625
-86.0595703125
-89.7216796875
-79.65087890625
-82.3974609375
-92.46826171875
-82.3974609375
-77.81982421875
-87.890625
-85.14404296875
-85.14404296875
-97.0458984375
-89.7216796875
-89.7216796875
-95.21484375
-79.65087890625
-73.2421875
-85.14404296875
-64.0869140625
-69.580078125
-85.14404296875
-86.97509765625
-91.552734375
-88.80615234375
-88.80615234375
-77.81982421875
-83.31298828125
-86.97509765625
