ECG
263.671875
263.671875
253.60107421875
255.43212890625
245.361328125
238.037109375
222.47314453125
208.740234375
196.83837890625
181.2744140625
153.80859375
162.9638671875
154.72412109375
127.25830078125
102.5390625
99.79248046875
75.0732421875
54.931640625
53.1005859375
48.52294921875
37.53662109375
25.634765625
14.6484375
0.91552734375
-12.8173828125
-11.90185546875
-21.05712890625
-19.22607421875
-21.97265625
-32.958984375
-38.4521484375
-52.18505859375
-60.4248046875
-56.7626953125
-47.607421875
-59.50927734375
-53.1005859375
-64.0869140625
-77.81982421875
-65.91796875
-67.7490234375
-69.580078125
-60.4248046875
-57.67822265625
-64.0869140625
-64.0869140625
-69.580078125
-62.255859375
-72.32666015625
-72.32666015625
-59.50927734375
-59.50927734375
-69.580078125
-61.34033203125
-63.17138671875
-62.255859375
-60.4248046875
-57.67822265625
-63.17138671875
-67.7490234375
-65.91796875
-75.98876953125
-65.00244140625
-64.0869140625
-64.0869140625
-66.83349609375
-72.32666015625
-68.66455078125
-68.66455078125
-57.67822265625
-54.01611328125
-56.7626953125
-64.0869140625
-49.4384765625
-46.69189453125
-53.1005859375
-47.607421875
-61.34033203125
-68.66455078125
-63.17138671875
-58.59375
-57.67822265625
-56.7626953125
-55.84716796875
-57.67822265625
-60.4248046875
-66.83349609375
-65.91796875
-63.17138671875
-65.91796875
-54.01611328125
-59.50927734375
-59.50927734375
-69.580078125
-52.18505859375
-52.18505859375
-54.931640625
-66.83349609375
-64.0869140625
-70.49560546875
-63.17138671875
-63.17138671875
-64.0869140625
-54.931640625
-53.1005859375
-54.931640625
-63.17138671875
-65.00244140625
-59.50927734375
-58.59375
-61.34033203125
-71.4111328125
-72.32666015625
-64.0869140625
-49.4384765625
-65.00244140625
-71.4111328125
-64.0869140625
-59.50927734375
-65.91796875
-64.0869140625
-63.17138671875
-62.255859375
-64.0869140625
-74.15771484375
-69.580078125
-69.580078125
-56.7626953125
-65.00244140625
-66.83349609375
-71.4111328125
-55.84716796875
-56.7626953125
-65.91796875
-62.255859375
-63.17138671875
-62.255859375
-75.98876953125
-72.32666015625
-77.81982421875
-73.2421875
-75.0732421875
-75.0732421875
-69.580078125
-69.580078125
-60.4248046875
-70.49560546875
-76.904296875
-71.4111328125
-69.580078125
-78.7353515625
-76.904296875
-72.32666015625
-66.83349609375
-69.580078125
-69.580078125
-62.255859375
-55.84716796875
-54.01611328125
-54.931640625
-52.18505859375
-43.02978515625
-31.1279296875
-17.39501953125
-7.32421875
1.8310546875
-2.74658203125
-21.97265625
-39.36767578125
-43.02978515625
-44.86083984375
-30.21240234375
-9.1552734375
-0.91552734375
2.74658203125
11.90185546875
10.986328125
9.1552734375
6.40869140625
-12.8173828125
-16.4794921875
-19.22607421875
-19.22607421875
-15.56396484375
-22.88818359375
-19.22607421875
-22.88818359375
-20.1416015625
-18.310546875
-30.21240234375
-42.1142578125
-54.01611328125
-39.36767578125
-38.4521484375
-62.255859375
-82.3974609375
-85.14404296875
-88.80615234375
-90.63720703125
-92.46826171875
-94.29931640625
-97.0458984375
-95.21484375
-103.45458984375
-96.13037109375
-86.97509765625
-90.63720703125
-97.96142578125
-99.79248046875
-91.552734375
-86.97509765625
-91.552734375
-105.28564453125
-101.62353515625
-89.7216796875
-92.46826171875
-90.63720703125
-81.48193359375
-87.890625
-94.29931640625
-99.79248046875
-106.201171875
-95.21484375
-97.96142578125
-91.552734375
-97.96142578125
-93.3837890625
-85.14404296875
-88.80615234375
-97.96142578125
-110.77880859375
-130.0048828125
-133.6669921875
-136.41357421875
-119.93408203125
-96.13037109375
-49.4384765625
-16.4794921875
41.19873046875
137.3291015625
225.2197265625
322.265625
426.6357421875
536.4990234375
610.65673828125
629.8828125
592.34619140625
520.93505859375
365.29541015625
204.16259765625
48.52294921875
-85.14404296875
-180.35888671875
-207.82470703125
-261.8408203125
-301.20849609375
-289.306640625
-263.671875
-229.79736328125
-184.9365234375
-151.06201171875
-113.525390625
-104.3701171875
-92.46826171875
-82.3974609375
-64.0869140625
-54.01611328125
-54.931640625
-55.84716796875
-52.18505859375
-55.84716796875
-55.84716796875
-50.35400390625
-58.59375
-60.4248046875
-40.283203125
-48.52294921875
-53.1005859375
-56.7626953125
-51.26953125
-37.53662109375
-32.04345703125
-37.53662109375
-42.1142578125
-51.26953125
-32.958984375
-43.02978515625
-40.283203125
-43.9453125
-43.9453125
-31.1279296875
-21.97265625
-37.53662109375
-34.7900390625
-32.04345703125
-30.21240234375
-17.39501953125
-32.04345703125
-31.1279296875
-30.21240234375
-32.958984375
-24.71923828125
-13.73291015625
-21.97265625
-21.05712890625
-16.4794921875
-21.05712890625
-19.22607421875
-23.8037109375
-19.22607421875
-0.91552734375
-17.39501953125
-22.88818359375
-5.4931640625
-1.8310546875
-5.4931640625
0
0
-1.8310546875
1.8310546875
0
0.91552734375
8.23974609375
16.4794921875
14.6484375
10.986328125
25.634765625
29.296875
27.4658203125
32.958984375
33.87451171875
43.9453125
43.9453125
43.02978515625
49.4384765625
57.67822265625
67.7490234375
64.0869140625
78.7353515625
74.15771484375
80.56640625
97.0458984375
105.28564453125
112.60986328125
118.10302734375
130.92041015625
137.3291015625
143.73779296875
146.484375
157.470703125
171.20361328125
167.54150390625
173.9501953125
188.5986328125
200.50048828125
205.99365234375
224.30419921875
219.7265625
224.30419921875
228.8818359375
239.8681640625
244.44580078125
248.10791015625
260.009765625
261.8408203125
281.06689453125
270.99609375
267.333984375
275.57373046875
276.4892578125
268.24951171875
263.671875
262.75634765625
274.658203125
276.4892578125
266.41845703125
252.685546875
246.27685546875
227.96630859375
216.064453125
200.50048828125
192.2607421875
187.68310546875
175.78125
150.146484375
132.75146484375
117.1875
104.3701171875
83.31298828125
75.0732421875
53.1005859375
37.53662109375
25.634765625
14.6484375
0
3.662109375
-6.40869140625
-16.4794921875
-18.310546875
-39.36767578125
-48.52294921875
-44.86083984375
-53.1005859375
-56.7626953125
-54.01611328125
-53.1005859375
-58.59375
-67.7490234375
-71.4111328125
-76.904296875
-68.66455078125
-72.32666015625
-78.7353515625
-85.14404296875
-79.65087890625
-75.0732421875
-76.904296875
-82.3974609375
-82.3974609375
-83.31298828125
-75.0732421875
-86.0595703125
-93.3837890625
-93.3837890625
-86.97509765625
-72.32666015625
-67.7490234375
-69.580078125
-86.97509765625
-86.0595703125
-95.21484375
-87.890625
-88.80615234375
-84.228515625
-81.48193359375
-75.98876953125
-72.32666015625
-76.904296875
-86.97509765625
-84.228515625
-80.56640625
-78.7353515625
-81.48193359375
-80.56640625
-83.31298828125
-93.3837890625
-83.31298828125
-73.2421875
-87.890625
-100.7080078125
-84.228515625
-95.21484375
-88.80615234375
-92.46826171875
-90.63720703125
-83.31298828125
-79.65087890625
-72.32666015625
-82.3974609375
-82.3974609375
-71.4111328125
-85.14404296875
-88.80615234375
-91.552734375
-86.0595703125
-85.14404296875
-81.48193359375
-85.14404296875
-96.13037109375
-77.81982421875
-71.4111328125
-80.56640625
-89.7216796875
-79.65087890625
-75.0732421875
-86.0595703125
-84.228515625
-79.65087890625
-83.31298828125
-71.4111328125
-78.7353515625
-80.56640625
-81.48193359375
-83.31298828125
-78.7353515625
-72.32666015625
-68.66455078125
-85.14404296875
-89.7216796875
-90.63720703125
-86.97509765625
-80.56640625
-86.97509765625
-86.0595703125
-86.97509765625
-95.21484375
-97.0458984375
-97.96142578125
-96.13037109375
-93.3837890625
-87.890625
-97.0458984375
-101.62353515625
-87.890625
-93.3837890625
-97.0458984375
-91.552734375
-95.21484375
-89.7216796875
-93.3837890625
-91.552734375
-92.46826171875
-99.79248046875
-89.7216796875
-87.890625
-101.62353515625
-94.29931640625
-86.97509765625
-82.3974609375
-90.63720703125
-91.552734375
-93.3837890625
-94.29931640625
-96.13037109375
-90.63720703125
-92.46826171875
-87.890625
-93.3837890625
-93.3837890625
-92.46826171875
-86.0595703125
-97.0458984375
-86.0595703125
-91.552734375
-85.14404296875
-82.3974609375
-63.17138671875
-58.59375
-38.4521484375
-28.38134765625
-34.7900390625
-31.1279296875
-43.02978515625
-51.26953125
-57.67822265625
-56.7626953125
-57.67822265625
-39.36767578125
-16.4794921875
-26.55029296875
-3.662109375
-9.1552734375
-10.07080078125
-37.53662109375
-36.62109375
-16.4794921875
-29.296875
-34.7900390625
-40.283203125
-52.18505859375
-39.36767578125
-44.86083984375
-61.34033203125
-43.9453125
-43.02978515625
-54.931640625
-64.0869140625
-65.91796875
-63.17138671875
-69.580078125
-97.96142578125
-110.77880859375
-112.60986328125
-104.3701171875
-104.3701171875
-113.525390625
-104.3701171875
-115.3564453125
-115.3564453125
-112.60986328125
-118.10302734375
-121.76513671875
-111.6943359375
-106.201171875
-101.62353515625
-122.6806640625
-115.3564453125
-102.5390625
-119.93408203125
-116.27197265625
-117.1875
-108.0322265625
-106.201171875
-119.0185546875
-130.0048828125
-113.525390625
-119.93408203125
-126.3427734375
-119.0185546875
-106.201171875
-119.93408203125
-120.849609375
-117.1875
-113.525390625
-127.25830078125
-130.92041015625
-134.58251953125
-145.56884765625
-159.3017578125
-141.90673828125
-127.25830078125
-92.46826171875
-55.84716796875
-21.05712890625
61.34033203125
175.78125
259.09423828125
357.0556640625
472.412109375
566.71142578125
628.0517578125
644.53125
595.0927734375
494.384765625
331.4208984375
157.470703125
12.8173828125
-98.876953125
-184.02099609375
-229.79736328125
-280.1513671875
-325.927734375
-322.265625
-268.24951171875
-223.388671875
-180.35888671875
-141.90673828125
-119.93408203125
-99.79248046875
-102.5390625
-95.21484375
-81.48193359375
-72.32666015625
-64.0869140625
-64.0869140625
-67.7490234375
-57.67822265625
-52.18505859375
-59.50927734375
-69.580078125
-54.01611328125
-64.0869140625
-71.4111328125
-65.91796875
-57.67822265625
-62.255859375
-56.7626953125
-54.01611328125
-52.18505859375
-47.607421875
-54.931640625
-54.01611328125
-46.69189453125
-51.26953125
-32.958984375
-40.283203125
-48.52294921875
-36.62109375
-41.19873046875
-45.7763671875
-43.02978515625
-35.70556640625
-45.7763671875
-41.19873046875
-37.53662109375
-45.7763671875
-38.4521484375
-32.04345703125
-36.62109375
-30.21240234375
-30.21240234375
-28.38134765625
-26.55029296875
-32.958984375
-21.97265625
-22.88818359375
-8.23974609375
-12.8173828125
-6.40869140625
-6.40869140625
-12.8173828125
-16.4794921875
-2.74658203125
0
0
13.73291015625
-6.40869140625
-5.4931640625
10.07080078125
15.56396484375
8.23974609375
6.40869140625
15.56396484375
28.38134765625
30.21240234375
41.19873046875
34.7900390625
46.69189453125
57.67822265625
60.4248046875
54.01611328125
49.4384765625
64.0869140625
71.4111328125
95.21484375
90.63720703125
98.876953125
108.94775390625
104.3701171875
111.6943359375
109.86328125
119.93408203125
140.9912109375
144.6533203125
140.9912109375
162.9638671875
168.45703125
177.6123046875
185.85205078125
199.5849609375
197.75390625
209.65576171875
216.97998046875
222.47314453125
234.375
243.5302734375
247.1923828125
264.58740234375
266.41845703125
261.8408203125
264.58740234375
268.24951171875
278.3203125
279.23583984375
278.3203125
286.56005859375
298.4619140625
293.88427734375
277.40478515625
272.8271484375
270.99609375
271.91162109375
253.60107421875
243.5302734375
240.78369140625
220.64208984375
195.9228515625
181.2744140625
184.02099609375
163.87939453125
135.498046875
116.27197265625
107.11669921875
94.29931640625
77.81982421875
62.255859375
57.67822265625
44.86083984375
25.634765625
21.05712890625
7.32421875
-7.32421875
-21.05712890625
-19.22607421875
-29.296875
-33.87451171875
-39.36767578125
-48.52294921875
-52.18505859375
-53.1005859375
-56.7626953125
-62.255859375
-71.4111328125
-72.32666015625
-61.34033203125
-65.00244140625
-73.2421875
-73.2421875
-76.904296875
-76.904296875
-80.56640625
-76.904296875
-86.0595703125
-80.56640625
-89.7216796875
-95.21484375
-78.7353515625
-68.66455078125
-70.49560546875
-78.7353515625
-94.29931640625
-86.97509765625
-82.3974609375
-82.3974609375
-88.80615234375
-91.552734375
-91.552734375
-92.46826171875
-85.14404296875
-87.890625
-86.0595703125
-85.14404296875
-85.14404296875
-93.3837890625
-92.46826171875
-101.62353515625
-92.46826171875
-75.98876953125
-86.0595703125
-85.14404296875
-90.63720703125
-90.63720703125
-77.81982421875
-91.552734375
-86.0595703125
-79.65087890625
-83.31298828125
-74.15771484375
-69.580078125
-79.65087890625
-74.15771484375
-71.4111328125
-71.4111328125
-66.83349609375
-67.7490234375
-82.3974609375
-81.48193359375
-78.7353515625
-75.0732421875
-65.00244140625
-65.00244140625
-70.49560546875
-71.4111328125
-65.00244140625
-60.4248046875
-68.66455078125
-77.81982421875
-72.32666015625
-68.66455078125
-77.81982421875
-69.580078125
-77.81982421875
-78.7353515625
-79.65087890625
-76.904296875
-65.00244140625
-73.2421875
-76.904296875
-69.580078125
-74.15771484375
-79.65087890625
-70.49560546875
-65.00244140625
-67.7490234375
-74.15771484375
-86.0595703125
-79.65087890625
-82.3974609375
-87.890625
-75.0732421875
-66.83349609375
-82.3974609375
-86.97509765625
-79.65087890625
-68.66455078125
-72.32666015625
-84.228515625
-81.48193359375
-80.56640625
-82.3974609375
-81.48193359375
-82.3974609375
-80.56640625
-75.0732421875
-77.81982421875
-86.97509765625
-95.21484375
-97.0458984375
-79.65087890625
-84.228515625
-76.904296875
-96.13037109375
-93.3837890625
-87.890625
-90.63720703125
-86.0595703125
-97.0458984375
-88.80615234375
-95.21484375
-98.876953125
-96.13037109375
-86.97509765625
-81.48193359375
-94.29931640625
-96.13037109375
-95.21484375
-89.7216796875
-80.56640625
-84.228515625
-90.63720703125
-86.0595703125
-89.7216796875
-92.46826171875
-91.552734375
-93.3837890625
-93.3837890625
-92.46826171875
-83.31298828125
-91.552734375
-101.62353515625
-93.3837890625
-81.48193359375
-87.890625
-92.46826171875
-80.56640625
-72.32666015625
-83.31298828125
-68.66455078125
-74.15771484375
-70.49560546875
-52.18505859375
-30.21240234375
-19.22607421875
-24.71923828125
-28.38134765625
-37.53662109375
-44.86083984375
-54.01611328125
-52.18505859375
-41.19873046875
-38.4521484375
-25.634765625
-11.90185546875
-11.90185546875
-21.97265625
-11.90185546875
-11.90185546875
-21.97265625
-10.07080078125
-16.4794921875
-27.4658203125
-26.55029296875
-31.1279296875
-31.1279296875
-40.283203125
-42.1142578125
-32.958984375
-29.296875
-37.53662109375
-51.26953125
-53.1005859375
-46.69189453125
-63.17138671875
-82.3974609375
-86.97509765625
-84.228515625
-89.7216796875
-88.80615234375
-99.79248046875
-109.86328125
-103.45458984375
-101.62353515625
-108.0322265625
-107.11669921875
-104.3701171875
-104.3701171875
-112.60986328125
-101.62353515625
-97.96142578125
-97.96142578125
-92.46826171875
-104.3701171875
-110.77880859375
-115.3564453125
-104.3701171875
-109.86328125
-112.60986328125
-100.7080078125
-104.3701171875
-104.3701171875
-102.5390625
-98.876953125
-104.3701171875
-110.77880859375
-99.79248046875
-104.3701171875
-112.60986328125
-108.94775390625
-116.27197265625
-133.6669921875
-148.3154296875
-162.04833984375
-152.89306640625
-102.5390625
-66.83349609375
-40.283203125
20.1416015625
107.11669921875
200.50048828125
303.955078125
416.56494140625
529.1748046875
610.65673828125
657.3486328125
658.26416015625
585.9375
455.9326171875
291.1376953125
130.92041015625
-10.07080078125
-125.42724609375
-182.18994140625
-244.44580078125
-287.4755859375
-295.71533203125
-259.09423828125
-220.64208984375
-176.69677734375
-134.58251953125
-106.201171875
-92.46826171875
-94.29931640625
-100.7080078125
-92.46826171875
-75.0732421875
-62.255859375
-57.67822265625
-58.59375
-48.52294921875
-54.01611328125
-65.00244140625
-61.34033203125
-65.00244140625
-64.0869140625
-53.1005859375
-42.1142578125
-54.931640625
-54.931640625
-50.35400390625
-47.607421875
-55.84716796875
-54.931640625
-51.26953125
-37.53662109375
-41.19873046875
-39.36767578125
-33.87451171875
-43.9453125
-44.86083984375
-37.53662109375
-37.53662109375
-43.9453125
-41.19873046875
-40.283203125
-32.958984375
-32.958984375
-27.4658203125
-23.8037109375
-36.62109375
-36.62109375
-29.296875
-24.71923828125
-31.1279296875
-37.53662109375
-17.39501953125
-15.56396484375
-14.6484375
-11.90185546875
-10.986328125
-18.310546875
-10.07080078125
-11.90185546875
-8.23974609375
-18.310546875
-12.8173828125
-2.74658203125
8.23974609375
15.56396484375
13.73291015625
23.8037109375
20.1416015625
14.6484375
10.07080078125
15.56396484375
25.634765625
36.62109375
39.36767578125
32.04345703125
31.1279296875
39.36767578125
43.9453125
57.67822265625
61.34033203125
61.34033203125
69.580078125
77.81982421875
86.0595703125
96.13037109375
96.13037109375
88.80615234375
104.3701171875
118.10302734375
111.6943359375
119.93408203125
136.41357421875
144.6533203125
144.6533203125
154.72412109375
177.6123046875
192.2607421875
181.2744140625
189.51416015625
201.416015625
211.48681640625
221.5576171875
227.96630859375
240.78369140625
252.685546875
256.34765625
249.93896484375
264.58740234375
286.56005859375
281.982421875
274.658203125
277.40478515625
296.630859375
304.87060546875
292.05322265625
287.4755859375
289.306640625
296.630859375
293.88427734375
287.4755859375
281.982421875
274.658203125
270.08056640625
251.77001953125
251.77001953125
245.361328125
215.14892578125
195.00732421875
183.10546875
173.9501953125
153.80859375
140.9912109375
132.75146484375
110.77880859375
100.7080078125
86.0595703125
61.34033203125
43.9453125
36.62109375
28.38134765625
21.97265625
13.73291015625
2.74658203125
-4.57763671875
-8.23974609375
-16.4794921875
-24.71923828125
-17.39501953125
-32.958984375
-41.19873046875
-49.4384765625
-46.69189453125
-51.26953125
-54.01611328125
-53.1005859375
-61.34033203125
-58.59375
-53.1005859375
-62.255859375
-54.01611328125
-47.607421875
-62.255859375
-79.65087890625
-80.56640625
-70.49560546875
-60.4248046875
-70.49560546875
-73.2421875
-69.580078125
-78.7353515625
-81.48193359375
-69.580078125
-71.4111328125
-69.580078125
-81.48193359375
-74.15771484375
-62.255859375
-73.2421875
-72.32666015625
-58.59375
-63.17138671875
-74.15771484375
-76.904296875
-71.4111328125
-62.255859375
-67.7490234375
-66.83349609375
-72.32666015625
-71.4111328125
-66.83349609375
-57.67822265625
-64.0869140625
-48.52294921875
-58.59375
-82.3974609375
-78.7353515625
-68.66455078125
-69.580078125
-66.83349609375
-71.4111328125
-70.49560546875
-80.56640625
-66.83349609375
-65.91796875
-68.66455078125
-68.66455078125
-75.98876953125
-61.34033203125
-60.4248046875
-65.91796875
-69.580078125
-69.580078125
-70.49560546875
-70.49560546875
-61.34033203125
-70.49560546875
-68.66455078125
-63.17138671875
-65.91796875
-71.4111328125
-61.34033203125
-64.0869140625
-74.15771484375
-66.83349609375
-68.66455078125
-65.91796875
-62.255859375
-63.17138671875
-73.2421875
-57.67822265625
-65.00244140625
-62.255859375
-75.0732421875
-64.0869140625
-61.34033203125
-67.7490234375
-66.83349609375
-64.0869140625
-81.48193359375
-86.0595703125
-70.49560546875
-72.32666015625
-79.65087890625
-63.17138671875
-67.7490234375
-74.15771484375
-77.81982421875
-75.98876953125
-76.904296875
-83.31298828125
-79.65087890625
-72.32666015625
-66.83349609375
-69.580078125
-72.32666015625
-81.48193359375
-84.228515625
-83.31298828125
-80.56640625
-79.65087890625
-80.56640625
-87.890625
-70.49560546875
-70.49560546875
-85.14404296875
-83.31298828125
-83.31298828125
-81.48193359375
-80.56640625
-89.7216796875
-94.29931640625
-94.29931640625
-83.31298828125
-82.3974609375
-76.904296875
-86.97509765625
-86.0595703125
-81.48193359375
-72.32666015625
-85.14404296875
-94.29931640625
-94.29931640625
-81.48193359375
-78.7353515625
-75.98876953125
-75.98876953125
-81.48193359375
-86.0595703125
-82.3974609375
-85.14404296875
-80.56640625
-80.56640625
-83.31298828125
-76.904296875
-78.7353515625
-82.3974609375
-76.904296875
-81.48193359375
-84.228515625
-70.49560546875
-85.14404296875
-92.46826171875
-87.890625
-76.904296875
-73.2421875
-76.904296875
-84.228515625
-82.3974609375
-83.31298828125
-83.31298828125
-75.98876953125
-71.4111328125
-69.580078125
-69.580078125
-72.32666015625
-73.2421875
-60.4248046875
-53.1005859375
-39.36767578125
-23.8037109375
-32.958984375
-30.21240234375
-32.04345703125
-45.7763671875
-54.01611328125
-55.84716796875
-38.4521484375
-24.71923828125
-27.4658203125
-8.23974609375
-5.4931640625
-7.32421875
-2.74658203125
-14.6484375
-23.8037109375
-14.6484375
-17.39501953125
-26.55029296875
-38.4521484375
-46.69189453125
-39.36767578125
-21.05712890625
-25.634765625
-29.296875
-34.7900390625
-32.958984375
-34.7900390625
-44.86083984375
-49.4384765625
-52.18505859375
-70.49560546875
-90.63720703125
-85.14404296875
-85.14404296875
-92.46826171875
-78.7353515625
-86.0595703125
-92.46826171875
-94.29931640625
-99.79248046875
-84.228515625
-85.14404296875
-96.13037109375
-96.13037109375
-96.13037109375
-92.46826171875
-86.97509765625
-85.14404296875
-92.46826171875
-86.0595703125
-91.552734375
-86.97509765625
-90.63720703125
-88.80615234375
-95.21484375
-94.29931640625
-91.552734375
-99.79248046875
-89.7216796875
-81.48193359375
-79.65087890625
-97.96142578125
-100.7080078125
-93.3837890625
-97.96142578125
-107.11669921875
-119.93408203125
-125.42724609375
-140.9912109375
-130.92041015625
-107.11669921875
-72.32666015625
-34.7900390625
26.55029296875
96.13037109375
195.00732421875
296.630859375
408.3251953125
530.09033203125
614.31884765625
666.50390625
686.6455078125
623.47412109375
498.96240234375
329.58984375
151.9775390625
8.23974609375
-92.46826171875
-140.9912109375
-192.2607421875
-251.77001953125
-266.41845703125
-240.78369140625
-209.65576171875
-157.470703125
-115.3564453125
-85.14404296875
-75.98876953125
-68.66455078125
-77.81982421875
-65.91796875
-61.34033203125
-56.7626953125
-54.931640625
-52.18505859375
-43.02978515625
-41.19873046875
-43.9453125
-40.283203125
-46.69189453125
-46.69189453125
-43.02978515625
-42.1142578125
-44.86083984375
-38.4521484375
-29.296875
-32.958984375
-33.87451171875
-32.958984375
-25.634765625
-20.1416015625
-35.70556640625
-39.36767578125
-22.88818359375
-29.296875
-30.21240234375
-25.634765625
-23.8037109375
-32.04345703125
-38.4521484375
-17.39501953125
-12.8173828125
-24.71923828125
-21.97265625
-21.05712890625
-14.6484375
-16.4794921875
-10.986328125
-10.986328125
-14.6484375
-14.6484375
-16.4794921875
-15.56396484375
-5.4931640625
2.74658203125
-3.662109375
8.23974609375
1.8310546875
-5.4931640625
5.4931640625
6.40869140625
-7.32421875
-1.8310546875
7.32421875
17.39501953125
22.88818359375
23.8037109375
27.4658203125
16.4794921875
18.310546875
31.1279296875
38.4521484375
39.36767578125
44.86083984375
49.4384765625
53.1005859375
52.18505859375
43.9453125
61.34033203125
70.49560546875
77.81982421875
64.0869140625
72.32666015625
78.7353515625
92.46826171875
95.21484375
101.62353515625
101.62353515625
112.60986328125
120.849609375
130.0048828125
127.25830078125
136.41357421875
144.6533203125
162.04833984375
179.443359375
175.78125
178.52783203125
186.767578125
205.99365234375
210.5712890625
214.2333984375
231.62841796875
228.8818359375
237.12158203125
237.12158203125
258.1787109375
257.26318359375
258.1787109375
270.08056640625
269.1650390625
271.91162109375
286.56005859375
286.56005859375
287.4755859375
287.4755859375
295.71533203125
278.3203125
279.23583984375
289.306640625
289.306640625
280.1513671875
275.57373046875
260.92529296875
246.27685546875
245.361328125
228.8818359375
207.82470703125
182.18994140625
169.37255859375
159.3017578125
143.73779296875
131.8359375
102.5390625
103.45458984375
88.80615234375
65.91796875
54.01611328125
41.19873046875
29.296875
20.1416015625
11.90185546875
0.91552734375
-14.6484375
-22.88818359375
-23.8037109375
-44.86083984375
-44.86083984375
-46.69189453125
-38.4521484375
-55.84716796875
-60.4248046875
-57.67822265625
-70.49560546875
-68.66455078125
-71.4111328125
-73.2421875
-75.0732421875
-70.49560546875
-89.7216796875
-89.7216796875
-83.31298828125
-80.56640625
-83.31298828125
-83.31298828125
-88.80615234375
-86.0595703125
-80.56640625
-79.65087890625
-83.31298828125
-83.31298828125
-80.56640625
-66.83349609375
-74.15771484375
-75.0732421875
-81.48193359375
-83.31298828125
-75.98876953125
-86.0595703125
-84.228515625
-80.56640625
-77.81982421875
-79.65087890625
-77.81982421875
-77.81982421875
-78.7353515625
-78.7353515625
-89.7216796875
-89.7216796875
-86.0595703125
-78.7353515625
-78.7353515625
-75.98876953125
-94.29931640625
-96.13037109375
-88.80615234375
-84.228515625
-87.890625
-85.14404296875
-79.65087890625
-88.80615234375
-78.7353515625
-77.81982421875
-75.98876953125
-91.552734375
-83.31298828125
-85.14404296875
-95.21484375
-98.876953125
-105.28564453125
-98.876953125
-102.5390625
-97.96142578125
-101.62353515625
-101.62353515625
-97.0458984375
-98.876953125
-101.62353515625
-103.45458984375
-101.62353515625
-95.21484375
-98.876953125
-95.21484375
-92.46826171875
-108.0322265625
-110.77880859375
-95.21484375
-94.29931640625
-99.79248046875
-80.56640625
-90.63720703125
-101.62353515625
-89.7216796875
-94.29931640625
-93.3837890625
-90.63720703125
-89.7216796875
-97.0458984375
-96.13037109375
-97.96142578125
-92.46826171875
-78.7353515625
-90.63720703125
-100.7080078125
-90.63720703125
-94.29931640625
-97.0458984375
-88.80615234375
-99.79248046875
-97.96142578125
-102.5390625
-105.28564453125
-100.7080078125
-92.46826171875
-108.94775390625
-106.201171875
-97.96142578125
-99.79248046875
-108.94775390625
-109.86328125
-108.0322265625
-99.79248046875
-103.45458984375
-112.60986328125
-105.28564453125
-100.7080078125
-99.79248046875
-94.29931640625
-95.21484375
-104.3701171875
-100.7080078125
-95.21484375
-97.96142578125
-97.96142578125
-98.876953125
-107.11669921875
-114.44091796875
-108.94775390625
-104.3701171875
-111.6943359375
-102.5390625
-102.5390625
-100.7080078125
-102.5390625
-104.3701171875
-99.79248046875
-100.7080078125
-100.7080078125
-98.876953125
-98.876953125
-111.6943359375
-116.27197265625
-107.11669921875
-112.60986328125
-100.7080078125
-88.80615234375
-95.21484375
-101.62353515625
-96.13037109375
-108.94775390625
-108.94775390625
-105.28564453125
-110.77880859375
-101.62353515625
-102.5390625
-91.552734375
-99.79248046875
-96.13037109375
-112.60986328125
-116.27197265625
-114.44091796875
-99.79248046875
-87.890625
-100.7080078125
-91.552734375
-88.80615234375
-85.14404296875
-80.56640625
-84.228515625
-60.4248046875
-43.9453125
-43.02978515625
-45.7763671875
-41.19873046875
-57.67822265625
-59.50927734375
-63.17138671875
-74.15771484375
-72.32666015625
-68.66455078125
-35.70556640625
-26.55029296875
-24.71923828125
-17.39501953125
-20.1416015625
-31.1279296875
-34.7900390625
-27.4658203125
-27.4658203125
-49.4384765625
-54.931640625
-50.35400390625
-42.1142578125
-48.52294921875
-42.1142578125
-45.7763671875
-41.19873046875
-57.67822265625
-57.67822265625
-61.34033203125
-68.66455078125
-75.98876953125
-103.45458984375
-119.93408203125
-111.6943359375
-119.93408203125
-121.76513671875
-97.0458984375
-108.0322265625
-135.498046875
-110.77880859375
-120.849609375
-124.51171875
-121.76513671875
-112.60986328125
-113.525390625
-115.3564453125
-116.27197265625
-112.60986328125
-109.86328125
-117.1875
-119.93408203125
-120.849609375
-124.51171875
-110.77880859375
-113.525390625
-120.849609375
-122.6806640625
-119.93408203125
-121.76513671875
-130.92041015625
-134.58251953125
-128.173828125
-113.525390625
-106.201171875
-99.79248046875
-126.3427734375
-141.90673828125
-149.23095703125
-162.04833984375
-162.04833984375
-153.80859375
-140.07568359375
-103.45458984375
-54.931640625
-13.73291015625
74.15771484375
162.04833984375
271.91162109375
379.94384765625
495.30029296875
565.7958984375
632.62939453125
639.0380859375
575.86669921875
453.18603515625
288.39111328125
131.8359375
-17.39501953125
-126.3427734375
-189.51416015625
-226.13525390625
-268.24951171875
-290.22216796875
-265.5029296875
-234.375
-188.5986328125
-151.06201171875
-121.76513671875
-101.62353515625
-95.21484375
-97.96142578125
-95.21484375
-81.48193359375
-64.0869140625
-78.7353515625
-81.48193359375
-89.7216796875
-89.7216796875
-85.14404296875
-77.81982421875
-79.65087890625
-81.48193359375
-70.49560546875
-77.81982421875
-76.904296875
-65.91796875
-75.0732421875
-72.32666015625
-67.7490234375
-84.228515625
-86.97509765625
-69.580078125
-50.35400390625
-60.4248046875
-67.7490234375
-70.49560546875
-55.84716796875
-59.50927734375
-61.34033203125
-57.67822265625
-57.67822265625
-67.7490234375
-69.580078125
-47.607421875
-55.84716796875
-49.4384765625
-47.607421875
-59.50927734375
-64.0869140625
-56.7626953125
-63.17138671875
-63.17138671875
-53.1005859375
-44.86083984375
-48.52294921875
-42.1142578125
-37.53662109375
-36.62109375
-48.52294921875
-47.607421875
-44.86083984375
-38.4521484375
-32.04345703125
-20.1416015625
-27.4658203125
-13.73291015625
-28.38134765625
-24.71923828125
-13.73291015625
-6.40869140625
-1.8310546875
0
-3.662109375
1.8310546875
8.23974609375
7.32421875
20.1416015625
18.310546875
12.8173828125
20.1416015625
37.53662109375
43.9453125
42.1142578125
36.62109375
41.19873046875
57.67822265625
70.49560546875
70.49560546875
78.7353515625
72.32666015625
84.228515625
110.77880859375
125.42724609375
119.0185546875
117.1875
124.51171875
136.41357421875
140.07568359375
153.80859375
168.45703125
177.6123046875
183.10546875
192.2607421875
203.2470703125
193.17626953125
201.416015625
221.5576171875
227.05078125
226.13525390625
229.79736328125
242.61474609375
242.61474609375
263.671875
266.41845703125
237.12158203125
255.43212890625
258.1787109375
249.93896484375
253.60107421875
247.1923828125
242.61474609375
249.93896484375
241.69921875
233.45947265625
230.712890625
223.388671875
199.5849609375
191.34521484375
188.5986328125
164.794921875
139.16015625
126.3427734375
115.3564453125
98.876953125
92.46826171875
75.98876953125
58.59375
40.283203125
27.4658203125
21.05712890625
10.986328125
-12.8173828125
-19.22607421875
-16.4794921875
-34.7900390625
-41.19873046875
-48.52294921875
-62.255859375
-73.2421875
-71.4111328125
-84.228515625
-89.7216796875
-96.13037109375
-97.0458984375
-91.552734375
-96.13037109375
-108.94775390625
-101.62353515625
-109.86328125
-104.3701171875
-98.876953125
-110.77880859375
-116.27197265625
-110.77880859375
-112.60986328125
-115.3564453125
-117.1875
-105.28564453125
-115.3564453125
-122.6806640625
-123.59619140625
-115.3564453125
-119.0185546875
-115.3564453125
-117.1875
-117.1875
-119.0185546875
-117.1875
-108.94775390625
-119.93408203125
-116.27197265625
-107.11669921875
-97.96142578125
-103.45458984375
-96.13037109375
-111.6943359375
-114.44091796875
-119.93408203125
-115.3564453125
-117.1875
-109.86328125
-105.28564453125
-116.27197265625
-105.28564453125
-117.1875
-109.86328125
-101.62353515625
-108.0322265625
-109.86328125
-106.201171875
-103.45458984375
-108.94775390625
-107.11669921875
-101.62353515625
-100.7080078125
-114.44091796875
-107.11669921875
-97.0458984375
-100.7080078125
-112.60986328125
-115.3564453125
-115.3564453125
-105.28564453125
-98.876953125
-95.21484375
-99.79248046875
-103.45458984375
-106.201171875
-101.62353515625
-94.29931640625
-97.0458984375
-91.552734375
-93.3837890625
-98.876953125
-94.29931640625
-97.96142578125
-95.21484375
-97.0458984375
-101.62353515625
-97.96142578125
-95.21484375
-98.876953125
-93.3837890625
-101.62353515625
-101.62353515625
-97.96142578125
-95.21484375
-103.45458984375
-101.62353515625
-97.0458984375
-101.62353515625
-104.3701171875
-110.77880859375
-101.62353515625
-90.63720703125
-94.29931640625
-96.13037109375
-96.13037109375
-95.21484375
-99.79248046875
-108.94775390625
-102.5390625
-94.29931640625
-100.7080078125
-105.28564453125
-106.201171875
-106.201171875
-101.62353515625
-107.11669921875
-102.5390625
-96.13037109375
-104.3701171875
-114.44091796875
-97.0458984375
-104.3701171875
-108.94775390625
-102.5390625
-107.11669921875
-107.11669921875
-108.0322265625
-108.94775390625
-98.876953125
-89.7216796875
-102.5390625
-106.201171875
-116.27197265625
-115.3564453125
-103.45458984375
-105.28564453125
-97.96142578125
-83.31298828125
-90.63720703125
-94.29931640625
-96.13037109375
-88.80615234375
-93.3837890625
-106.201171875
-108.0322265625
-101.62353515625
-106.201171875
-103.45458984375
-100.7080078125
-103.45458984375
-97.0458984375
-93.3837890625
-99.79248046875
-100.7080078125
-99.79248046875
-107.11669921875
-114.44091796875
-111.6943359375
-115.3564453125
-126.3427734375
-104.3701171875
-104.3701171875
-107.11669921875
-99.79248046875
-111.6943359375
-100.7080078125
-98.876953125
-96.13037109375
-88.80615234375
-86.0595703125
-70.49560546875
-47.607421875
-52.18505859375
-52.18505859375
-43.02978515625
-56.7626953125
-64.0869140625
-75.0732421875
-84.228515625
-63.17138671875
-47.607421875
-51.26953125
-41.19873046875
-32.958984375
-22.88818359375
-22.88818359375
-33.87451171875
-31.1279296875
-39.36767578125
-40.283203125
-35.70556640625
-43.02978515625
-54.931640625
-55.84716796875
-54.01611328125
-53.1005859375
-43.9453125
-52.18505859375
-49.4384765625
-70.49560546875
-69.580078125
-54.01611328125
-69.580078125
-98.876953125
-110.77880859375
-108.94775390625
-119.93408203125
-127.25830078125
-118.10302734375
-119.0185546875
-116.27197265625
-117.1875
-121.76513671875
-111.6943359375
-108.0322265625
-99.79248046875
-112.60986328125
-115.3564453125
-112.60986328125
-124.51171875
-127.25830078125
-112.60986328125
-105.28564453125
-103.45458984375
-109.86328125
-115.3564453125
-113.525390625
-122.6806640625
-115.3564453125
-118.10302734375
-108.94775390625
-111.6943359375
-111.6943359375
-109.86328125
-122.6806640625
-132.75146484375
-127.25830078125
-119.0185546875
-128.173828125
-134.58251953125
-145.56884765625
-159.3017578125
-151.06201171875
-131.8359375
-111.6943359375
-81.48193359375
-44.86083984375
26.55029296875
135.498046875
234.375
326.84326171875
438.53759765625
531.92138671875
591.4306640625
589.599609375
545.654296875
452.2705078125
304.87060546875
142.822265625
1.8310546875
-126.3427734375
-211.48681640625
-239.8681640625
-282.89794921875
-307.6171875
-301.20849609375
-283.8134765625
-241.69921875
-204.16259765625
-164.794921875
-132.75146484375
-108.0322265625
-94.29931640625
-94.29931640625
-72.32666015625
-74.15771484375
-77.81982421875
-65.00244140625
-52.18505859375
-54.01611328125
-54.931640625
-57.67822265625
-70.49560546875
-65.91796875
-60.4248046875
-64.0869140625
-61.34033203125
-63.17138671875
-63.17138671875
-52.18505859375
-54.01611328125
-55.84716796875
-50.35400390625
-53.1005859375
-52.18505859375
-51.26953125
-52.18505859375
-39.36767578125
-42.1142578125
-54.01611328125
-42.1142578125
-27.4658203125
-29.296875
-37.53662109375
-35.70556640625
-51.26953125
-32.958984375
-42.1142578125
-29.296875
-27.4658203125
-27.4658203125
-25.634765625
-26.55029296875
-27.4658203125
-36.62109375
-24.71923828125
-32.04345703125
-16.4794921875
-12.8173828125
-10.07080078125
-14.6484375
-4.57763671875
-3.662109375
1.8310546875
-15.56396484375
-10.07080078125
-3.662109375
-2.74658203125
4.57763671875
3.662109375
5.4931640625
3.662109375
21.97265625
22.88818359375
21.05712890625
27.4658203125
14.6484375
24.71923828125
30.21240234375
39.36767578125
36.62109375
52.18505859375
39.36767578125
54.01611328125
66.83349609375
63.17138671875
76.904296875
72.32666015625
80.56640625
93.3837890625
97.96142578125
102.5390625
112.60986328125
128.173828125
127.25830078125
132.75146484375
135.498046875
145.56884765625
151.06201171875
156.55517578125
167.54150390625
191.34521484375
204.16259765625
195.00732421875
200.50048828125
214.2333984375
223.388671875
224.30419921875
242.61474609375
240.78369140625
248.10791015625
260.92529296875
260.92529296875
269.1650390625
260.009765625
262.75634765625
264.58740234375
266.41845703125
274.658203125
273.74267578125
278.3203125
270.99609375
276.4892578125
265.5029296875
253.60107421875
241.69921875
238.95263671875
228.8818359375
230.712890625
210.5712890625
196.83837890625
189.51416015625
167.54150390625
147.39990234375
137.3291015625
138.24462890625
115.3564453125
91.552734375
82.3974609375
73.2421875
62.255859375
38.4521484375
29.296875
9.1552734375
8.23974609375
8.23974609375
-12.8173828125
-17.39501953125
-20.1416015625
-21.97265625
-35.70556640625
-40.283203125
-43.02978515625
-32.958984375
-53.1005859375
-56.7626953125
-59.50927734375
-68.66455078125
-71.4111328125
-81.48193359375
-77.81982421875
-72.32666015625
-72.32666015625
-69.580078125
-72.32666015625
-75.98876953125
-67.7490234375
-65.00244140625
-72.32666015625
-84.228515625
-66.83349609375
-69.580078125
-71.4111328125
-78.7353515625
-75.0732421875
-83.31298828125
-83.31298828125
-78.7353515625
-73.2421875
-75.0732421875
-82.3974609375
-75.98876953125
-82.3974609375
-80.56640625
-75.0732421875
-75.0732421875
-73.2421875
-78.7353515625
-76.904296875
-81.48193359375
-84.228515625
-87.890625
-83.31298828125
-85.14404296875
-71.4111328125
-67.7490234375
-83.31298828125
-76.904296875
-87.890625
-95.21484375
-78.7353515625
-77.81982421875
-81.48193359375
-77.81982421875
-86.97509765625
-73.2421875
-77.81982421875
-78.7353515625
-62.255859375
-80.56640625
-87.890625
-86.97509765625
-83.31298828125
-73.2421875
-77.81982421875
-95.21484375
-89.7216796875
-68.66455078125
-77.81982421875
-76.904296875
-69.580078125
-75.0732421875
-84.228515625
-75.98876953125
-78.7353515625
-82.3974609375
-75.98876953125
-81.48193359375
-69.580078125
-80.56640625
-82.3974609375
-80.56640625
-79.65087890625
-80.56640625
-93.3837890625
-100.7080078125
-91.552734375
-86.0595703125
-79.65087890625
-73.2421875
-74.15771484375
-75.0732421875
-83.31298828125
-86.97509765625
-96.13037109375
-96.13037109375
-70.49560546875
-75.0732421875
-91.552734375
-76.904296875
-84.228515625
-79.65087890625
-86.0595703125
-90.63720703125
-85.14404296875
-87.890625
-91.552734375
-90.63720703125
-90.63720703125
-79.65087890625
-97.96142578125
-103.45458984375
-92.46826171875
-85.14404296875
-93.3837890625
-92.46826171875
-91.552734375
-95.21484375
-89.7216796875
-97.0458984375
-97.96142578125
-88.80615234375
-90.63720703125
-93.3837890625
-104.3701171875
-102.5390625
-97.96142578125
-87.890625
-92.46826171875
-92.46826171875
-91.552734375
-86.97509765625
-88.80615234375
-103.45458984375
-90.63720703125
-79.65087890625
-81.48193359375
-85.14404296875
-79.65087890625
-76.904296875
-71.4111328125
-52.18505859375
-40.283203125
-39.36767578125
-31.1279296875
-31.1279296875
-37.53662109375
-49.4384765625
-53.1005859375
-49.4384765625
-34.7900390625
-36.62109375
-26.55029296875
-4.57763671875
0.91552734375
-8.23974609375
-16.4794921875
-18.310546875
-17.39501953125
-14.6484375
-25.634765625
-28.38134765625
-21.97265625
-33.87451171875
-34.7900390625
-28.38134765625
-23.8037109375
-34.7900390625
-41.19873046875
-31.1279296875
-43.02978515625
-53.1005859375
-65.91796875
-61.34033203125
-74.15771484375
-96.13037109375
-100.7080078125
-99.79248046875
-93.3837890625
-102.5390625
-108.94775390625
-99.79248046875
-95.21484375
-88.80615234375
-89.7216796875
-97.0458984375
-98.876953125
-99.79248046875
-91.552734375
-89.7216796875
-93.3837890625
-104.3701171875
-103.45458984375
-95.21484375
-94.29931640625
-99.79248046875
-92.46826171875
-95.21484375
-108.0322265625
-98.876953125
-98.876953125
-98.876953125
-88.80615234375
-94.29931640625
-106.201171875
-110.77880859375
-89.7216796875
-92.46826171875
-91.552734375
-106.201171875
-125.42724609375
-135.498046875
-151.06201171875
-153.80859375
-127.25830078125
-95.21484375
-70.49560546875
-27.4658203125
52.18505859375
156.55517578125
234.375
333.251953125
437.6220703125
538.330078125
596.923828125
585.02197265625
536.4990234375
446.77734375
303.03955078125
139.16015625
3.662109375
-121.76513671875
-192.2607421875
-218.81103515625
-277.40478515625
-297.54638671875
-289.306640625
-265.5029296875
-236.2060546875
-197.75390625
-150.146484375
-120.849609375
-116.27197265625
-92.46826171875
-86.97509765625
-81.48193359375
-63.17138671875
-65.91796875
-50.35400390625
-50.35400390625
-55.84716796875
-51.26953125
-61.34033203125
-60.4248046875
-57.67822265625
-59.50927734375
-62.255859375
-56.7626953125
-60.4248046875
-43.02978515625
-47.607421875
-52.18505859375
-54.931640625
-56.7626953125
-56.7626953125
-59.50927734375
-58.59375
-53.1005859375
-47.607421875
-43.9453125
-46.69189453125
-43.02978515625
-33.87451171875
-25.634765625
-32.04345703125
-32.958984375
-30.21240234375
-25.634765625
-29.296875
-26.55029296875
-20.1416015625
-22.88818359375
-26.55029296875
-25.634765625
-9.1552734375
-8.23974609375
-12.8173828125
-22.88818359375
-14.6484375
-3.662109375
-11.90185546875
-5.4931640625
10.986328125
-7.32421875
11.90185546875
4.57763671875
-7.32421875
0
13.73291015625
22.88818359375
13.73291015625
12.8173828125
16.4794921875
9.1552734375
15.56396484375
21.97265625
21.97265625
28.38134765625
25.634765625
25.634765625
32.04345703125
37.53662109375
43.9453125
61.34033203125
54.931640625
62.255859375
71.4111328125
84.228515625
89.7216796875
98.876953125
97.0458984375
112.60986328125
119.0185546875
124.51171875
122.6806640625
131.8359375
150.146484375
155.6396484375
149.23095703125
163.87939453125
184.02099609375
190.4296875
197.75390625
195.9228515625
207.82470703125
220.64208984375
226.13525390625
225.2197265625
233.45947265625
246.27685546875
245.361328125
244.44580078125
253.60107421875
260.92529296875
255.43212890625
259.09423828125
264.58740234375
258.1787109375
278.3203125
267.333984375
264.58740234375
267.333984375
273.74267578125
260.92529296875
259.09423828125
249.93896484375
243.5302734375
242.61474609375
224.30419921875
195.9228515625
184.9365234375
176.69677734375
155.6396484375
148.3154296875
129.08935546875
112.60986328125
98.876953125
87.890625
65.91796875
60.4248046875
35.70556640625
30.21240234375
16.4794921875
5.4931640625
0
-4.57763671875
-15.56396484375
-47.607421875
-45.7763671875
-48.52294921875
-54.01611328125
-49.4384765625
-58.59375
-69.580078125
-75.98876953125
-75.0732421875
-81.48193359375
-81.48193359375
-82.3974609375
-86.97509765625
-82.3974609375
-86.0595703125
-85.14404296875
-90.63720703125
-91.552734375
-101.62353515625
-95.21484375
-95.21484375
-92.46826171875
-97.0458984375
-110.77880859375
-101.62353515625
-107.11669921875
-107.11669921875
-87.890625
-97.96142578125
-102.5390625
-96.13037109375
-87.890625
-86.0595703125
-100.7080078125
-105.28564453125
-91.552734375
-100.7080078125
-102.5390625
-110.77880859375
-113.525390625
-103.45458984375
-108.0322265625
-96.13037109375
-110.77880859375
-102.5390625
-96.13037109375
-117.1875
-113.525390625
-113.525390625
-116.27197265625
-112.60986328125
-97.96142578125
-99.79248046875
-99.79248046875
-87.890625
-94.29931640625
-100.7080078125
-98.876953125
-101.62353515625
-107.11669921875
-106.201171875
-102.5390625
-95.21484375
-86.0595703125
-102.5390625
-98.876953125
-99.79248046875
-103.45458984375
-91.552734375
-102.5390625
-104.3701171875
-114.44091796875
-100.7080078125
-106.201171875
-105.28564453125
-106.201171875
-118.10302734375
-116.27197265625
-114.44091796875
-117.1875
-116.27197265625
-125.42724609375
-112.60986328125
-110.77880859375
-109.86328125
-109.86328125
-110.77880859375
-108.94775390625
-112.60986328125
-119.0185546875
-124.51171875
-117.1875
-114.44091796875
-102.5390625
-114.44091796875
-118.10302734375
-111.6943359375
-119.93408203125
-126.3427734375
-123.59619140625
-124.51171875
-125.42724609375
-126.3427734375
-121.76513671875
-118.10302734375
-130.92041015625
-123.59619140625
-125.42724609375
-128.173828125
-133.6669921875
-136.41357421875
-119.93408203125
-121.76513671875
-119.0185546875
-118.10302734375
-131.8359375
-121.76513671875
-125.42724609375
-129.08935546875
-137.3291015625
-137.3291015625
-131.8359375
-130.0048828125
-138.24462890625
-136.41357421875
-122.6806640625
-123.59619140625
-130.92041015625
-142.822265625
-145.56884765625
-133.6669921875
-140.9912109375
-140.07568359375
-144.6533203125
-139.16015625
-136.41357421875
-132.75146484375
-142.822265625
-135.498046875
-138.24462890625
-145.56884765625
-141.90673828125
-141.90673828125
-139.16015625
-144.6533203125
-134.58251953125
-141.90673828125
-146.484375
-140.07568359375
-135.498046875
-141.90673828125
-149.23095703125
-152.89306640625
-144.6533203125
-153.80859375
-152.89306640625
-136.41357421875
-137.3291015625
-147.39990234375
-150.146484375
-130.0048828125
-110.77880859375
-98.876953125
-79.65087890625
-76.904296875
-98.876953125
-111.6943359375
-119.0185546875
-135.498046875
-131.8359375
-129.08935546875
-109.86328125
-92.46826171875
-85.14404296875
-85.14404296875
-75.0732421875
-76.904296875
-102.5390625
-95.21484375
-88.80615234375
-100.7080078125
-102.5390625
-101.62353515625
-101.62353515625
-94.29931640625
-93.3837890625
-97.0458984375
-101.62353515625
-103.45458984375
-105.28564453125
-128.173828125
-121.76513671875
-130.92041015625
-140.07568359375
-163.87939453125
-167.54150390625
-164.794921875
-175.78125
-174.86572265625
-167.54150390625
-165.71044921875
-158.38623046875
-167.54150390625
-173.03466796875
-173.03466796875
-160.21728515625
-162.04833984375
-167.54150390625
-164.794921875
-155.6396484375
-163.87939453125
-166.6259765625
-163.87939453125
-168.45703125
-173.03466796875
-169.37255859375
-168.45703125
-177.6123046875
-176.69677734375
-170.2880859375
-172.119140625
-165.71044921875
-175.78125
-169.37255859375
-173.9501953125
-171.20361328125
-177.6123046875
-171.20361328125
-183.10546875
-196.83837890625
-210.5712890625
-210.5712890625
-207.82470703125
-186.767578125
-154.72412109375
-122.6806640625
-76.904296875
0.91552734375
118.10302734375
187.68310546875
295.71533203125
399.169921875
495.30029296875
561.21826171875
585.9375
535.58349609375
421.142578125
270.08056640625
101.62353515625
-45.7763671875
-173.9501953125
-243.5302734375
-306.70166015625
-359.80224609375
-375.3662109375
-359.80224609375
-323.18115234375
-283.8134765625
-238.95263671875
-196.83837890625
-182.18994140625
-167.54150390625
-171.20361328125
-157.470703125
-146.484375
-143.73779296875
-126.3427734375
-132.75146484375
-124.51171875
-118.10302734375
-125.42724609375
-124.51171875
-128.173828125
-120.849609375
-122.6806640625
-118.10302734375
-117.1875
-109.86328125
-111.6943359375
-119.0185546875
-120.849609375
-110.77880859375
-112.60986328125
-115.3564453125
-105.28564453125
-94.29931640625
-100.7080078125
-109.86328125
-113.525390625
-113.525390625
-120.849609375
-97.96142578125
-84.228515625
-92.46826171875
-100.7080078125
-84.228515625
-91.552734375
-94.29931640625
-105.28564453125
-93.3837890625
-85.14404296875
-86.97509765625
-83.31298828125
-95.21484375
-88.80615234375
-77.81982421875
-75.0732421875
-66.83349609375
-62.255859375
-70.49560546875
-75.0732421875
-70.49560546875
-62.255859375
-60.4248046875
-52.18505859375
-49.4384765625
-56.7626953125
-47.607421875
-51.26953125
-60.4248046875
-56.7626953125
-44.86083984375
-32.04345703125
-31.1279296875
-33.87451171875
-35.70556640625
-27.4658203125
-21.05712890625
-14.6484375
-13.73291015625
-9.1552734375
-1.8310546875
1.8310546875
6.40869140625
10.986328125
7.32421875
18.310546875
33.87451171875
37.53662109375
43.02978515625
47.607421875
57.67822265625
69.580078125
82.3974609375
84.228515625
92.46826171875
104.3701171875
106.201171875
120.849609375
129.08935546875
132.75146484375
140.9912109375
154.72412109375
156.55517578125
162.04833984375
177.6123046875
188.5986328125
175.78125
190.4296875
197.75390625
205.99365234375
211.48681640625
216.97998046875
216.97998046875
230.712890625
245.361328125
228.8818359375
236.2060546875
241.69921875
241.69921875
239.8681640625
241.69921875
238.037109375
238.95263671875
222.47314453125
215.14892578125
216.97998046875
202.33154296875
195.9228515625
175.78125
156.55517578125
144.6533203125
130.0048828125
113.525390625
101.62353515625
92.46826171875
76.904296875
47.607421875
40.283203125
16.4794921875
0
-20.1416015625
-23.8037109375
-32.04345703125
-32.04345703125
-49.4384765625
-54.01611328125
-74.15771484375
-79.65087890625
-87.890625
-92.46826171875
-103.45458984375
-107.11669921875
-99.79248046875
-99.79248046875
-103.45458984375
-109.86328125
-117.1875
-117.1875
-95.21484375
-105.28564453125
-106.201171875
-130.92041015625
-132.75146484375
-119.93408203125
-113.525390625
-118.10302734375
-115.3564453125
-123.59619140625
-123.59619140625
-127.25830078125
-126.3427734375
-127.25830078125
-128.173828125
-115.3564453125
-123.59619140625
-127.25830078125
-123.59619140625
-119.93408203125
-120.849609375
-126.3427734375
-132.75146484375
-116.27197265625
-116.27197265625
-130.92041015625
-125.42724609375
-117.1875
-119.93408203125
-120.849609375
-120.849609375
-123.59619140625
-126.3427734375
-125.42724609375
-124.51171875
-126.3427734375
-121.76513671875
-118.10302734375
-126.3427734375
-126.3427734375
-124.51171875
-124.51171875
-127.25830078125
-135.498046875
-119.0185546875
-119.0185546875
-131.8359375
-128.173828125
-131.8359375
-129.08935546875
-120.849609375
-124.51171875
-129.08935546875
-112.60986328125
-115.3564453125
-120.849609375
-123.59619140625
-116.27197265625
-121.76513671875
-119.93408203125
-122.6806640625
-120.849609375
-123.59619140625
-113.525390625
-118.10302734375
-102.5390625
-96.13037109375
-108.94775390625
-117.1875
-125.42724609375
-121.76513671875
-116.27197265625
-118.10302734375
-123.59619140625
-122.6806640625
-123.59619140625
-108.0322265625
-108.0322265625
-124.51171875
-122.6806640625
-125.42724609375
-125.42724609375
-130.92041015625
-127.25830078125
-127.25830078125
-122.6806640625
-112.60986328125
-128.173828125
-138.24462890625
-134.58251953125
-132.75146484375
-130.0048828125
-127.25830078125
-129.08935546875
-117.1875
-118.10302734375
-141.90673828125
-139.16015625
-130.0048828125
-130.92041015625
-131.8359375
-138.24462890625
-137.3291015625
-134.58251953125
-136.41357421875
-137.3291015625
-139.16015625
-140.07568359375
-125.42724609375
-138.24462890625
-132.75146484375
-136.41357421875
-135.498046875
-128.173828125
-133.6669921875
-133.6669921875
-132.75146484375
-141.90673828125
-141.90673828125
-140.9912109375
-132.75146484375
-130.0048828125
-132.75146484375
-137.3291015625
-141.90673828125
-154.72412109375
-141.90673828125
-135.498046875
-142.822265625
-137.3291015625
-138.24462890625
-140.9912109375
-135.498046875
-123.59619140625
-125.42724609375
-136.41357421875
-138.24462890625
-134.58251953125
-136.41357421875
-129.08935546875
-135.498046875
-137.3291015625
-133.6669921875
-127.25830078125
-121.76513671875
-119.93408203125
-118.10302734375
-107.11669921875
-113.525390625
-112.60986328125
-104.3701171875
-85.14404296875
-80.56640625
-75.0732421875
-70.49560546875
-75.98876953125
-72.32666015625
-97.0458984375
-108.94775390625
-104.3701171875
-87.890625
-73.2421875
-61.34033203125
-58.59375
-58.59375
-50.35400390625
-60.4248046875
-68.66455078125
-67.7490234375
-76.904296875
-81.48193359375
-92.46826171875
-86.0595703125
-76.904296875
-79.65087890625
-76.904296875
-70.49560546875
-69.580078125
-77.81982421875
-100.7080078125
-93.3837890625
-97.0458984375
-99.79248046875
-121.76513671875
-134.58251953125
-133.6669921875
-132.75146484375
-151.06201171875
-157.470703125
-143.73779296875
-140.9912109375
-151.9775390625
-151.06201171875
-156.55517578125
-141.90673828125
-133.6669921875
-146.484375
-148.3154296875
-156.55517578125
-145.56884765625
-144.6533203125
-158.38623046875
-168.45703125
-160.21728515625
-160.21728515625
-146.484375
-133.6669921875
-145.56884765625
-144.6533203125
-145.56884765625
-153.80859375
-162.9638671875
-149.23095703125
-144.6533203125
-156.55517578125
-146.484375
-140.9912109375
-152.89306640625
-170.2880859375
-168.45703125
-176.69677734375
-184.9365234375
-179.443359375
-168.45703125
-139.16015625
-102.5390625
-72.32666015625
10.07080078125
108.94775390625
197.75390625
314.02587890625
429.38232421875
530.09033203125
600.5859375
622.55859375
601.50146484375
516.357421875
371.7041015625
192.2607421875
32.04345703125
-91.552734375
-178.52783203125
-220.64208984375
-277.40478515625
-309.4482421875
-313.1103515625
-290.22216796875
-232.5439453125
-186.767578125
-160.21728515625
-148.3154296875
-140.07568359375
-136.41357421875
-130.92041015625
-130.0048828125
-108.94775390625
-105.28564453125
-104.3701171875
-95.21484375
-94.29931640625
-99.79248046875
-105.28564453125
-111.6943359375
-103.45458984375
-100.7080078125
-111.6943359375
-117.1875
-92.46826171875
-86.97509765625
-88.80615234375
-86.0595703125
-87.890625
-88.80615234375
-98.876953125
-81.48193359375
-73.2421875
-84.228515625
-86.97509765625
-75.0732421875
-75.98876953125
-86.97509765625
-82.3974609375
-80.56640625
-69.580078125
-69.580078125
-68.66455078125
-73.2421875
-73.2421875
-77.81982421875
-69.580078125
-67.7490234375
-55.84716796875
-51.26953125
-62.255859375
-56.7626953125
-58.59375
-57.67822265625
-50.35400390625
-58.59375
-54.931640625
-44.86083984375
-37.53662109375
-43.9453125
-41.19873046875
-39.36767578125
-30.21240234375
-27.4658203125
-15.56396484375
-22.88818359375
-23.8037109375
-26.55029296875
-14.6484375
-11.90185546875
-0.91552734375
-4.57763671875
-0.91552734375
5.4931640625
1.8310546875
8.23974609375
32.04345703125
26.55029296875
10.986328125
22.88818359375
32.04345703125
21.97265625
34.7900390625
51.26953125
57.67822265625
70.49560546875
65.91796875
68.66455078125
73.2421875
87.890625
91.552734375
108.0322265625
107.11669921875
114.44091796875
134.58251953125
141.90673828125
145.56884765625
141.90673828125
156.55517578125
177.6123046875
179.443359375
182.18994140625
192.2607421875
199.5849609375
216.064453125
228.8818359375
237.12158203125
241.69921875
240.78369140625
238.95263671875
249.93896484375
245.361328125
247.1923828125
262.75634765625
269.1650390625
264.58740234375
268.24951171875
270.99609375
267.333984375
261.8408203125
250.8544921875
246.27685546875
238.95263671875
231.62841796875
226.13525390625
211.48681640625
196.83837890625
178.52783203125
165.71044921875
138.24462890625
124.51171875
115.3564453125
100.7080078125
86.0595703125
77.81982421875
57.67822265625
43.02978515625
30.21240234375
10.07080078125
-7.32421875
-5.4931640625
-12.8173828125
-21.05712890625
-31.1279296875
-47.607421875
-52.18505859375
-61.34033203125
-75.98876953125
-76.904296875
-68.66455078125
-75.0732421875
-71.4111328125
-73.2421875
-78.7353515625
-90.63720703125
-98.876953125
-93.3837890625
-86.97509765625
-86.97509765625
-89.7216796875
-95.21484375
-100.7080078125
-100.7080078125
-103.45458984375
-91.552734375
-93.3837890625
-97.96142578125
-101.62353515625
-116.27197265625
-118.10302734375
-102.5390625
-102.5390625
-106.201171875
-115.3564453125
-117.1875
-108.94775390625
-106.201171875
-111.6943359375
-108.94775390625
-113.525390625
-103.45458984375
-104.3701171875
-108.0322265625
-107.11669921875
-105.28564453125
-110.77880859375
-100.7080078125
-106.201171875
-108.0322265625
-113.525390625
-110.77880859375
-102.5390625
-104.3701171875
-106.201171875
-105.28564453125
-105.28564453125
-100.7080078125
-100.7080078125
-110.77880859375
-103.45458984375
-119.0185546875
-100.7080078125
-99.79248046875
-109.86328125
-109.86328125
-107.11669921875
-102.5390625
-97.96142578125
-108.0322265625
-105.28564453125
-96.13037109375
-104.3701171875
-108.0322265625
-86.97509765625
-88.80615234375
-100.7080078125
-108.0322265625
-112.60986328125
-110.77880859375
-99.79248046875
-102.5390625
-96.13037109375
-97.96142578125
-98.876953125
-96.13037109375
-97.96142578125
-104.3701171875
-105.28564453125
-98.876953125
-96.13037109375
-103.45458984375
-103.45458984375
-111.6943359375
-108.94775390625
-102.5390625
-97.96142578125
-108.94775390625
-99.79248046875
-109.86328125
-117.1875
-107.11669921875
-108.0322265625
-108.0322265625
-109.86328125
-105.28564453125
-104.3701171875
-120.849609375
-119.93408203125
-110.77880859375
-102.5390625
-106.201171875
-111.6943359375
-111.6943359375
-111.6943359375
-118.10302734375
-125.42724609375
-111.6943359375
-103.45458984375
-111.6943359375
-115.3564453125
-120.849609375
-118.10302734375
-111.6943359375
-115.3564453125
-119.0185546875
-123.59619140625
-114.44091796875
-112.60986328125
-122.6806640625
-122.6806640625
-118.10302734375
-114.44091796875
-119.93408203125
-126.3427734375
-119.0185546875
-112.60986328125
-125.42724609375
-123.59619140625
-124.51171875
-128.173828125
-129.08935546875
-121.76513671875
-125.42724609375
-119.0185546875
-116.27197265625
-115.3564453125
-127.25830078125
-124.51171875
-124.51171875
-112.60986328125
-116.27197265625
-113.525390625
-122.6806640625
-120.849609375
-119.93408203125
-118.10302734375
-123.59619140625
-124.51171875
-122.6806640625
-124.51171875
-120.849609375
-121.76513671875
-118.10302734375
-112.60986328125
-114.44091796875
-125.42724609375
-123.59619140625
-123.59619140625
-119.93408203125
-119.0185546875
-120.849609375
-118.10302734375
-119.93408203125
-127.25830078125
-125.42724609375
-130.0048828125
-130.92041015625
-133.6669921875
-125.42724609375
-130.92041015625
-120.849609375
-125.42724609375
-129.08935546875
-124.51171875
-132.75146484375
-119.0185546875
-118.10302734375
-118.10302734375
-126.3427734375
-117.1875
-103.45458984375
-107.11669921875
-105.28564453125
-86.0595703125
-65.91796875
-65.91796875
-65.91796875
-65.00244140625
-75.0732421875
-88.80615234375
-93.3837890625
-94.29931640625
-94.29931640625
-76.904296875
-71.4111328125
-57.67822265625
-45.7763671875
-41.19873046875
-44.86083984375
-44.86083984375
-51.26953125
-55.84716796875
-42.1142578125
-65.00244140625
-66.83349609375
-66.83349609375
-63.17138671875
-61.34033203125
-71.4111328125
-70.49560546875
-80.56640625
-77.81982421875
-79.65087890625
-84.228515625
-88.80615234375
-98.876953125
-97.96142578125
-125.42724609375
-138.24462890625
-139.16015625
-127.25830078125
-121.76513671875
-129.08935546875
-131.8359375
-140.07568359375
-141.90673828125
-140.9912109375
-135.498046875
-131.8359375
-127.25830078125
-141.90673828125
-141.90673828125
-133.6669921875
-139.16015625
-132.75146484375
-138.24462890625
-151.9775390625
-141.90673828125
-138.24462890625
-149.23095703125
-136.41357421875
-126.3427734375
-123.59619140625
-139.16015625
-120.849609375
-119.93408203125
-129.08935546875
-137.3291015625
-147.39990234375
-140.9912109375
-134.58251953125
-140.07568359375
-163.87939453125
-177.6123046875
-185.85205078125
-182.18994140625
-160.21728515625
-123.59619140625
-86.0595703125
-54.931640625
12.8173828125
113.525390625
211.48681640625
320.4345703125
436.70654296875
538.330078125
607.91015625
647.27783203125
601.50146484375
516.357421875
367.12646484375
194.091796875
43.02978515625
-70.49560546875
-154.72412109375
-198.66943359375
-255.43212890625
-301.20849609375
-297.54638671875
-258.1787109375
-208.740234375
-169.37255859375
-140.9912109375
-119.93408203125
-113.525390625
-118.10302734375
-132.75146484375
-112.60986328125
-94.29931640625
-105.28564453125
-93.3837890625
-80.56640625
-86.97509765625
-88.80615234375
-80.56640625
-82.3974609375
-88.80615234375
-92.46826171875
-86.97509765625
-92.46826171875
-90.63720703125
-88.80615234375
-90.63720703125
-86.0595703125
-83.31298828125
-80.56640625
-84.228515625
-83.31298828125
-87.890625
-87.890625
-85.14404296875
-66.83349609375
-82.3974609375
-75.98876953125
-72.32666015625
-74.15771484375
-78.7353515625
-67.7490234375
-69.580078125
-57.67822265625
-80.56640625
-62.255859375
-56.7626953125
-72.32666015625
-63.17138671875
-65.91796875
-60.4248046875
-57.67822265625
-69.580078125
-65.00244140625
-51.26953125
-45.7763671875
-45.7763671875
-54.931640625
-46.69189453125
-46.69189453125
-49.4384765625
-45.7763671875
-40.283203125
-41.19873046875
-35.70556640625
-27.4658203125
-33.87451171875
-23.8037109375
-19.22607421875
-26.55029296875
-16.4794921875
-13.73291015625
-16.4794921875
-11.90185546875
-3.662109375
-9.1552734375
-6.40869140625
5.4931640625
18.310546875
14.6484375
12.8173828125
21.97265625
32.04345703125
35.70556640625
31.1279296875
41.19873046875
47.607421875
62.255859375
77.81982421875
75.0732421875
75.98876953125
89.7216796875
108.94775390625
103.45458984375
89.7216796875
102.5390625
126.3427734375
134.58251953125
145.56884765625
149.23095703125
151.06201171875
168.45703125
177.6123046875
194.091796875
195.00732421875
199.5849609375
211.48681640625
217.8955078125
234.375
235.29052734375
234.375
249.0234375
238.95263671875
256.34765625
268.24951171875
252.685546875
256.34765625
257.26318359375
268.24951171875
266.41845703125
242.61474609375
237.12158203125
226.13525390625
230.712890625
219.7265625
205.078125
202.33154296875
185.85205078125
165.71044921875
142.822265625
119.0185546875
120.849609375
101.62353515625
82.3974609375
62.255859375
59.50927734375
45.7763671875
12.8173828125
8.23974609375
3.662109375
-21.05712890625
-29.296875
-48.52294921875
-58.59375
-59.50927734375
-62.255859375
-71.4111328125
-83.31298828125
-81.48193359375
-92.46826171875
-97.96142578125
-109.86328125
-117.1875
-104.3701171875
-111.6943359375
-114.44091796875
-113.525390625
-100.7080078125
-108.94775390625
-111.6943359375
-120.849609375
-127.25830078125
-133.6669921875
-125.42724609375
-121.76513671875
-118.10302734375
-129.08935546875
-132.75146484375
-130.0048828125
-119.0185546875
-118.10302734375
-117.1875
-129.08935546875
-138.24462890625
-136.41357421875
-135.498046875
-128.173828125
-128.173828125
-127.25830078125
-130.0048828125
-121.76513671875
-128.173828125
-130.0048828125
-123.59619140625
-132.75146484375
-130.92041015625
-129.08935546875
-139.16015625
-131.8359375
-137.3291015625
-139.16015625
-136.41357421875
-139.16015625
-141.90673828125
-140.9912109375
-132.75146484375
-129.08935546875
-132.75146484375
-135.498046875
-131.8359375
-135.498046875
-132.75146484375
-144.6533203125
-136.41357421875
-137.3291015625
-129.08935546875
-126.3427734375
-138.24462890625
-136.41357421875
-134.58251953125
-140.9912109375
-142.822265625
-137.3291015625
-134.58251953125
-140.07568359375
-136.41357421875
-124.51171875
-126.3427734375
-131.8359375
-132.75146484375
-123.59619140625
-140.07568359375
-150.146484375
-147.39990234375
-137.3291015625
-138.24462890625
-130.0048828125
-132.75146484375
-132.75146484375
-137.3291015625
-142.822265625
-140.9912109375
-134.58251953125
-139.16015625
-143.73779296875
-143.73779296875
-156.55517578125
-145.56884765625
-137.3291015625
-140.07568359375
-145.56884765625
-142.822265625
-147.39990234375
-140.9912109375
-153.80859375
-151.9775390625
-144.6533203125
-151.9775390625
-145.56884765625
-148.3154296875
-162.04833984375
-147.39990234375
-159.3017578125
-168.45703125
-162.9638671875
-164.794921875
-162.04833984375
-159.3017578125
-162.04833984375
-168.45703125
-162.9638671875
-151.9775390625
-147.39990234375
-152.89306640625
-158.38623046875
-155.6396484375
-148.3154296875
-158.38623046875
-159.3017578125
-147.39990234375
-147.39990234375
-155.6396484375
-161.1328125
-162.04833984375
-175.78125
-173.03466796875
-169.37255859375
-154.72412109375
-146.484375
-149.23095703125
-160.21728515625
-173.9501953125
-169.37255859375
-153.80859375
-156.55517578125
-168.45703125
-159.3017578125
-164.794921875
-165.71044921875
-148.3154296875
-146.484375
-162.04833984375
-169.37255859375
-174.86572265625
-162.9638671875
-161.1328125
-152.89306640625
-159.3017578125
-157.470703125
-155.6396484375
-171.20361328125
-159.3017578125
-167.54150390625
-156.55517578125
-169.37255859375
-180.35888671875
-168.45703125
-159.3017578125
-167.54150390625
-162.04833984375
-160.21728515625
-162.04833984375
-172.119140625
-170.2880859375
-176.69677734375
-173.03466796875
-164.794921875
-173.9501953125
-170.2880859375
-163.87939453125
-170.2880859375
-173.9501953125
-176.69677734375
-179.443359375
-166.6259765625
-159.3017578125
-162.9638671875
-162.9638671875
-148.3154296875
-144.6533203125
-144.6533203125
-157.470703125
-167.54150390625
-151.06201171875
-129.08935546875
-120.849609375
-114.44091796875
-105.28564453125
-107.11669921875
-117.1875
-135.498046875
-141.90673828125
-143.73779296875
-129.08935546875
-116.27197265625
-108.0322265625
-99.79248046875
-96.13037109375
-89.7216796875
-91.552734375
-104.3701171875
-98.876953125
-109.86328125
-113.525390625
-114.44091796875
-125.42724609375
-119.93408203125
-107.11669921875
-96.13037109375
-115.3564453125
-112.60986328125
-123.59619140625
-116.27197265625
-126.3427734375
-127.25830078125
-117.1875
-150.146484375
-175.78125
-171.20361328125
-174.86572265625
-180.35888671875
-170.2880859375
-184.02099609375
-180.35888671875
-174.86572265625
-178.52783203125
-182.18994140625
-169.37255859375
-174.86572265625
-184.02099609375
-181.2744140625
-179.443359375
-182.18994140625
-178.52783203125
-184.02099609375
-188.5986328125
-192.2607421875
-188.5986328125
-187.68310546875
-186.767578125
-183.10546875
-177.6123046875
-174.86572265625
-184.9365234375
-185.85205078125
-183.10546875
-185.85205078125
-183.10546875
-180.35888671875
-184.02099609375
-173.9501953125
-182.18994140625
-179.443359375
-205.99365234375
-216.97998046875
-218.81103515625
-208.740234375
-171.20361328125
-135.498046875
-101.62353515625
-37.53662109375
63.17138671875
161.1328125
245.361328125
342.4072265625
450.439453125
515.44189453125
520.93505859375
491.63818359375
404.6630859375
274.658203125
107.11669921875
-49.4384765625
-177.6123046875
-270.08056640625
-302.1240234375
-360.7177734375
-391.845703125
-379.94384765625
-364.3798828125
-338.7451171875
-291.1376953125
-251.77001953125
-213.31787109375
-194.091796875
-190.4296875
-188.5986328125
-171.20361328125
-152.89306640625
-150.146484375
-143.73779296875
-135.498046875
-142.822265625
-147.39990234375
-152.89306640625
-148.3154296875
-139.16015625
-154.72412109375
-148.3154296875
-132.75146484375
-136.41357421875
-141.90673828125
-123.59619140625
-130.0048828125
-134.58251953125
-121.76513671875
-122.6806640625
-131.8359375
-129.08935546875
-125.42724609375
-121.76513671875
-117.1875
-118.10302734375
-130.92041015625
-135.498046875
-119.0185546875
-117.1875
-119.93408203125
-112.60986328125
-115.3564453125
-114.44091796875
-108.0322265625
-116.27197265625
-112.60986328125
-109.86328125
-118.10302734375
-111.6943359375
-116.27197265625
-107.11669921875
-104.3701171875
-90.63720703125
-105.28564453125
-102.5390625
-101.62353515625
-112.60986328125
-105.28564453125
-98.876953125
-95.21484375
-79.65087890625
-80.56640625
-73.2421875
-66.83349609375
-78.7353515625
-79.65087890625
-76.904296875
-74.15771484375
-65.91796875
-64.0869140625
-59.50927734375
-55.84716796875
-43.9453125
-54.01611328125
-57.67822265625
-47.607421875
-32.958984375
-36.62109375
-32.04345703125
-29.296875
-28.38134765625
-23.8037109375
-17.39501953125
-14.6484375
5.4931640625
9.1552734375
11.90185546875
21.05712890625
21.05712890625
35.70556640625
43.02978515625
49.4384765625
58.59375
54.01611328125
61.34033203125
79.65087890625
84.228515625
95.21484375
103.45458984375
106.201171875
117.1875
121.76513671875
127.25830078125
130.0048828125
140.07568359375
156.55517578125
164.794921875
164.794921875
183.10546875
186.767578125
177.6123046875
180.35888671875
183.10546875
184.02099609375
188.5986328125
185.85205078125
191.34521484375
194.091796875
187.68310546875
184.02099609375
177.6123046875
171.20361328125
159.3017578125
141.90673828125
134.58251953125
119.0185546875
97.96142578125
88.80615234375
78.7353515625
64.0869140625
61.34033203125
50.35400390625
29.296875
15.56396484375
-9.1552734375
-17.39501953125
-28.38134765625
-47.607421875
-49.4384765625
-57.67822265625
-64.0869140625
-78.7353515625
-86.0595703125
-105.28564453125
-112.60986328125
-118.10302734375
-134.58251953125
-137.3291015625
-127.25830078125
-134.58251953125
-144.6533203125
-137.3291015625
-157.470703125
-165.71044921875
-143.73779296875
-151.9775390625
-169.37255859375
-173.9501953125
-173.03466796875
-162.9638671875
-162.04833984375
-171.20361328125
-165.71044921875
-161.1328125
-168.45703125
-173.9501953125
-173.9501953125
-162.04833984375
-162.9638671875
-148.3154296875
-161.1328125
-173.9501953125
-184.9365234375
-176.69677734375
-157.470703125
-169.37255859375
-172.119140625
-170.2880859375
-163.87939453125
-170.2880859375
-168.45703125
-166.6259765625
-171.20361328125
-159.3017578125
-175.78125
-172.119140625
-153.80859375
-178.52783203125
-181.2744140625
-166.6259765625
-162.9638671875
-168.45703125
-171.20361328125
-166.6259765625
-177.6123046875
-178.52783203125
-173.03466796875
-162.04833984375
-165.71044921875
-165.71044921875
-147.39990234375
-152.89306640625
-172.119140625
-162.9638671875
-167.54150390625
-171.20361328125
-166.6259765625
-168.45703125
-173.03466796875
-157.470703125
-156.55517578125
-163.87939453125
-172.119140625
-169.37255859375
-165.71044921875
-169.37255859375
-173.03466796875
-169.37255859375
-169.37255859375
-168.45703125
-165.71044921875
-160.21728515625
-174.86572265625
-180.35888671875
-172.119140625
-167.54150390625
-160.21728515625
-172.119140625
-170.2880859375
-173.03466796875
-162.04833984375
-161.1328125
-173.03466796875
-173.03466796875
-173.9501953125
-166.6259765625
-162.9638671875
-170.2880859375
-173.03466796875
-156.55517578125
-168.45703125
-166.6259765625
-157.470703125
-161.1328125
-167.54150390625
-183.10546875
-178.52783203125
-173.9501953125
-167.54150390625
-173.03466796875
-160.21728515625
-168.45703125
-178.52783203125
-181.2744140625
-161.1328125
-166.6259765625
-173.03466796875
-182.18994140625
-182.18994140625
-178.52783203125
-160.21728515625
-175.78125
-171.20361328125
-176.69677734375
-174.86572265625
-173.9501953125
-181.2744140625
-184.02099609375
-186.767578125
-175.78125
-174.86572265625
-169.37255859375
-173.03466796875
-166.6259765625
-169.37255859375
-165.71044921875
-184.02099609375
-175.78125
-170.2880859375
-171.20361328125
-174.86572265625
-184.9365234375
-190.4296875
-184.02099609375
-187.68310546875
-186.767578125
-175.78125
-175.78125
-165.71044921875
-165.71044921875
-151.06201171875
-153.80859375
-170.2880859375
-173.9501953125
-173.9501953125
-183.10546875
-174.86572265625
-158.38623046875
-167.54150390625
-164.794921875
-133.6669921875
-124.51171875
-110.77880859375
-116.27197265625
-139.16015625
-129.08935546875
-139.16015625
-142.822265625
-141.90673828125
-131.8359375
-124.51171875
-115.3564453125
-98.876953125
-97.96142578125
-103.45458984375
-92.46826171875
-89.7216796875
-91.552734375
-94.29931640625
-102.5390625
-100.7080078125
-104.3701171875
-103.45458984375
-108.0322265625
-105.28564453125
-111.6943359375
-114.44091796875
-112.60986328125
-113.525390625
-112.60986328125
-127.25830078125
-136.41357421875
-151.9775390625
-163.87939453125
-164.794921875
-173.03466796875
-174.86572265625
-170.2880859375
-177.6123046875
-182.18994140625
-165.71044921875
-163.87939453125
-170.2880859375
-176.69677734375
-184.02099609375
-171.20361328125
-175.78125
-172.119140625
-172.119140625
-171.20361328125
-167.54150390625
-178.52783203125
-184.9365234375
-171.20361328125
-183.10546875
-181.2744140625
-170.2880859375
-184.9365234375
-176.69677734375
-171.20361328125
-161.1328125
-172.119140625
-175.78125
-173.03466796875
-184.02099609375
-164.794921875
-180.35888671875
-184.9365234375
-180.35888671875
-200.50048828125
-201.416015625
-205.99365234375
-215.14892578125
-193.17626953125
-162.9638671875
-132.75146484375
-81.48193359375
-1.8310546875
99.79248046875
183.10546875
275.57373046875
382.6904296875
476.98974609375
540.1611328125
513.61083984375
451.35498046875
367.12646484375
232.5439453125
76.904296875
-75.98876953125
-193.17626953125
-268.24951171875
-284.72900390625
-346.0693359375
-370.78857421875
-347.900390625
-324.0966796875
-291.1376953125
-252.685546875
-227.05078125
-195.9228515625
-169.37255859375
-169.37255859375
-164.794921875
-169.37255859375
-150.146484375
-130.0048828125
-126.3427734375
-120.849609375
-126.3427734375
-118.10302734375
-121.76513671875
-125.42724609375
-119.0185546875
-119.93408203125
-120.849609375
-108.0322265625
-118.10302734375
-130.92041015625
-116.27197265625
-105.28564453125
-105.28564453125
-121.76513671875
-119.93408203125
-115.3564453125
-124.51171875
-105.28564453125
-108.0322265625
-97.0458984375
-97.0458984375
-107.11669921875
-102.5390625
-96.13037109375
-93.3837890625
-102.5390625
-114.44091796875
-111.6943359375
-108.94775390625
-81.48193359375
-95.21484375
-87.890625
-86.0595703125
-75.98876953125
-98.876953125
-86.97509765625
-83.31298828125
-88.80615234375
-87.890625
-80.56640625
-73.2421875
-71.4111328125
-70.49560546875
-70.49560546875
-63.17138671875
-73.2421875
-67.7490234375
-75.98876953125
-61.34033203125
-55.84716796875
-51.26953125
-45.7763671875
-52.18505859375
-54.931640625
-46.69189453125
-41.19873046875
-46.69189453125
-41.19873046875
-23.8037109375
-31.1279296875
-29.296875
-12.8173828125
-10.07080078125
-7.32421875
-0.91552734375
4.57763671875
5.4931640625
12.8173828125
22.88818359375
27.4658203125
34.7900390625
45.7763671875
55.84716796875
51.26953125
73.2421875
74.15771484375
74.15771484375
97.96142578125
88.80615234375
91.552734375
114.44091796875
126.3427734375
140.07568359375
146.484375
148.3154296875
148.3154296875
168.45703125
168.45703125
175.78125
183.10546875
190.4296875
205.99365234375
212.40234375
217.8955078125
220.64208984375
207.82470703125
219.7265625
216.97998046875
227.05078125
233.45947265625
233.45947265625
230.712890625
237.12158203125
231.62841796875
223.388671875
215.14892578125
206.9091796875
194.091796875
194.091796875
187.68310546875
172.119140625
151.06201171875
135.498046875
114.44091796875
107.11669921875
84.228515625
75.0732421875
54.01611328125
35.70556640625
32.04345703125
26.55029296875
21.05712890625
-0.91552734375
-20.1416015625
-21.97265625
-31.1279296875
-51.26953125
-61.34033203125
-68.66455078125
-75.98876953125
-81.48193359375
-86.0595703125
-92.46826171875
-106.201171875
-105.28564453125
-97.96142578125
-109.86328125
-117.1875
-115.3564453125
-118.10302734375
-106.201171875
-106.201171875
-107.11669921875
-107.11669921875
-120.849609375
-130.92041015625
-123.59619140625
-110.77880859375
-110.77880859375
-132.75146484375
-124.51171875
-130.0048828125
-121.76513671875
-118.10302734375
-121.76513671875
-114.44091796875
-121.76513671875
-125.42724609375
-122.6806640625
-122.6806640625
-122.6806640625
-116.27197265625
-120.849609375
-125.42724609375
-116.27197265625
-111.6943359375
-127.25830078125
-127.25830078125
-121.76513671875
-113.525390625
-119.0185546875
-118.10302734375
-128.173828125
-130.0048828125
-110.77880859375
-121.76513671875
-130.92041015625
-136.41357421875
-126.3427734375
-127.25830078125
-119.0185546875
-114.44091796875
-124.51171875
-120.849609375
-121.76513671875
-118.10302734375
-119.0185546875
-123.59619140625
-121.76513671875
-110.77880859375
-103.45458984375
-106.201171875
-117.1875
-110.77880859375
-111.6943359375
-118.10302734375
-116.27197265625
-119.93408203125
-119.0185546875
-124.51171875
-112.60986328125
-108.94775390625
-112.60986328125
-126.3427734375
-129.08935546875
-118.10302734375
-116.27197265625
-119.0185546875
-115.3564453125
-105.28564453125
-107.11669921875
-118.10302734375
-128.173828125
-118.10302734375
-127.25830078125
-111.6943359375
-120.849609375
-135.498046875
-126.3427734375
-127.25830078125
-128.173828125
-124.51171875
-121.76513671875
-138.24462890625
-129.08935546875
-119.93408203125
-135.498046875
-144.6533203125
-139.16015625
-140.07568359375
-132.75146484375
-130.92041015625
-137.3291015625
-127.25830078125
-137.3291015625
-132.75146484375
-138.24462890625
-133.6669921875
-140.07568359375
-142.822265625
-144.6533203125
-130.92041015625
-126.3427734375
-125.42724609375
-131.8359375
-135.498046875
-133.6669921875
-131.8359375
-131.8359375
-136.41357421875
-137.3291015625
-134.58251953125
-139.16015625
-149.23095703125
-145.56884765625
-133.6669921875
-135.498046875
-145.56884765625
-140.9912109375
-133.6669921875
-130.92041015625
-146.484375
-154.72412109375
-147.39990234375
-134.58251953125
-129.08935546875
-137.3291015625
-145.56884765625
-143.73779296875
-143.73779296875
-139.16015625
-134.58251953125
-129.08935546875
-137.3291015625
-136.41357421875
-144.6533203125
-140.07568359375
-139.16015625
-149.23095703125
-140.07568359375
-125.42724609375
-119.0185546875
-121.76513671875
-125.42724609375
-135.498046875
-131.8359375
-108.0322265625
-93.3837890625
-97.0458984375
-90.63720703125
-68.66455078125
-84.228515625
-97.96142578125
-110.77880859375
-111.6943359375
-110.77880859375
-102.5390625
-85.14404296875
-76.904296875
-65.91796875
-64.0869140625
-70.49560546875
-67.7490234375
-78.7353515625
-67.7490234375
-79.65087890625
-87.890625
-89.7216796875
-95.21484375
-88.80615234375
-86.97509765625
-90.63720703125
-86.0595703125
-88.80615234375
-94.29931640625
-108.0322265625
-99.79248046875
-97.96142578125
-107.11669921875
-128.173828125
-140.9912109375
-140.9912109375
-151.9775390625
-150.146484375
-143.73779296875
-139.16015625
-160.21728515625
-153.80859375
-147.39990234375
-144.6533203125
-137.3291015625
-142.822265625
-152.89306640625
-151.06201171875
-156.55517578125
-164.794921875
-160.21728515625
-161.1328125
-155.6396484375
-157.470703125
-155.6396484375
-155.6396484375
-151.06201171875
-149.23095703125
-149.23095703125
-163.87939453125
-151.9775390625
-167.54150390625
-160.21728515625
-141.90673828125
-153.80859375
-157.470703125
-148.3154296875
-156.55517578125
-162.9638671875
-173.03466796875
-183.10546875
-196.83837890625
-195.9228515625
-172.119140625
-130.92041015625
-99.79248046875
-56.7626953125
11.90185546875
103.45458984375
189.51416015625
301.20849609375
412.90283203125
495.30029296875
553.89404296875
563.96484375
529.1748046875
436.70654296875
281.982421875
123.59619140625
-30.21240234375
-164.794921875
-233.45947265625
-267.333984375
-323.18115234375
-357.97119140625
-345.15380859375
-310.36376953125
-277.40478515625
-243.5302734375
-208.740234375
-188.5986328125
-164.794921875
-144.6533203125
-145.56884765625
-139.16015625
-120.849609375
-114.44091796875
-104.3701171875
-99.79248046875
-103.45458984375
-101.62353515625
-112.60986328125
-113.525390625
-121.76513671875
-120.849609375
-110.77880859375
-108.0322265625
-102.5390625
-107.11669921875
-112.60986328125
-107.11669921875
-103.45458984375
-86.97509765625
-85.14404296875
-91.552734375
-82.3974609375
-94.29931640625
-93.3837890625
-92.46826171875
-87.890625
-98.876953125
-91.552734375
-83.31298828125
-91.552734375
-88.80615234375
-86.97509765625
-85.14404296875
-86.0595703125
-88.80615234375
-87.890625
-79.65087890625
-75.98876953125
-82.3974609375
-82.3974609375
-70.49560546875
-88.80615234375
-85.14404296875
-80.56640625
-65.00244140625
-64.0869140625
-65.91796875
-67.7490234375
-52.18505859375
-53.1005859375
-51.26953125
-47.607421875
-40.283203125
-43.02978515625
-34.7900390625
-34.7900390625
-32.04345703125
-30.21240234375
-27.4658203125
-36.62109375
-31.1279296875
-22.88818359375
-15.56396484375
-20.1416015625
-9.1552734375
0.91552734375
8.23974609375
1.8310546875
8.23974609375
5.4931640625
-3.662109375
8.23974609375
0.91552734375
13.73291015625
37.53662109375
48.52294921875
52.18505859375
53.1005859375
60.4248046875
69.580078125
80.56640625
92.46826171875
102.5390625
108.94775390625
119.0185546875
133.6669921875
134.58251953125
149.23095703125
155.6396484375
163.87939453125
167.54150390625
176.69677734375
186.767578125
190.4296875
200.50048828125
210.5712890625
223.388671875
219.7265625
233.45947265625
236.2060546875
232.5439453125
242.61474609375
247.1923828125
243.5302734375
249.0234375
242.61474609375
238.95263671875
235.29052734375
238.037109375
229.79736328125
229.79736328125
224.30419921875
216.064453125
197.75390625
191.34521484375
174.86572265625
162.04833984375
151.9775390625
114.44091796875
103.45458984375
86.97509765625
80.56640625
58.59375
45.7763671875
39.36767578125
21.97265625
-5.4931640625
-4.57763671875
-25.634765625
-34.7900390625
-40.283203125
-31.1279296875
-65.91796875
-79.65087890625
-91.552734375
-97.96142578125
-100.7080078125
-103.45458984375
-97.0458984375
-94.29931640625
-102.5390625
-100.7080078125
-99.79248046875
-118.10302734375
-112.60986328125
-133.6669921875
-146.484375
-141.90673828125
-126.3427734375
-121.76513671875
-123.59619140625
-133.6669921875
-123.59619140625
-115.3564453125
-122.6806640625
-131.8359375
-145.56884765625
-144.6533203125
-126.3427734375
-126.3427734375
-137.3291015625
-130.0048828125
-117.1875
-124.51171875
-136.41357421875
-123.59619140625
-144.6533203125
-150.146484375
-129.08935546875
-120.849609375
-130.92041015625
-129.08935546875
-117.1875
-129.08935546875
-144.6533203125
-129.08935546875
-130.92041015625
-130.0048828125
-115.3564453125
-119.0185546875
-124.51171875
-147.39990234375
-131.8359375
-116.27197265625
-135.498046875
-112.60986328125
-108.0322265625
-110.77880859375
-114.44091796875
-119.0185546875
-121.76513671875
-115.3564453125
-111.6943359375
-109.86328125
-123.59619140625
-116.27197265625
-122.6806640625
-120.849609375
-117.1875
-118.10302734375
-120.849609375
-122.6806640625
-115.3564453125
-120.849609375
-115.3564453125
-120.849609375
-115.3564453125
-108.0322265625
-102.5390625
-109.86328125
-113.525390625
-121.76513671875
-115.3564453125
-115.3564453125
-113.525390625
-111.6943359375
-113.525390625
-119.93408203125
-120.849609375
-110.77880859375
-116.27197265625
-111.6943359375
-97.96142578125
-112.60986328125
-115.3564453125
-115.3564453125
-116.27197265625
-111.6943359375
-111.6943359375
-113.525390625
-113.525390625
-113.525390625
-121.76513671875
-114.44091796875
-114.44091796875
-113.525390625
-117.1875
-120.849609375
-118.10302734375
-115.3564453125
-116.27197265625
-102.5390625
-114.44091796875
-115.3564453125
-123.59619140625
-122.6806640625
-130.92041015625
-112.60986328125
-122.6806640625
-119.93408203125
-110.77880859375
-111.6943359375
-113.525390625
-122.6806640625
-124.51171875
-119.93408203125
-116.27197265625
-108.94775390625
-108.0322265625
-113.525390625
-117.1875
-118.10302734375
-110.77880859375
-109.86328125
-118.10302734375
-117.1875
-116.27197265625
-122.6806640625
-122.6806640625
-125.42724609375
-116.27197265625
-119.93408203125
-111.6943359375
-106.201171875
-125.42724609375
-119.0185546875
-124.51171875
-127.25830078125
-119.0185546875
-111.6943359375
-113.525390625
-117.1875
-122.6806640625
-130.0048828125
-123.59619140625
-125.42724609375
-130.0048828125
-118.10302734375
-121.76513671875
-124.51171875
-118.10302734375
-113.525390625
-103.45458984375
-123.59619140625
-119.93408203125
-117.1875
-108.0322265625
-109.86328125
-126.3427734375
-133.6669921875
-119.93408203125
-113.525390625
-114.44091796875
-118.10302734375
-115.3564453125
-124.51171875
-132.75146484375
-141.90673828125
-133.6669921875
-125.42724609375
-100.7080078125
-99.79248046875
-117.1875
-119.93408203125
-124.51171875
-119.93408203125
-127.25830078125
-119.0185546875
-110.77880859375
-91.552734375
-98.876953125
-100.7080078125
-122.6806640625
-103.45458984375
-84.228515625
-68.66455078125
-55.84716796875
-68.66455078125
-51.26953125
-74.15771484375
-92.46826171875
-85.14404296875
-86.0595703125
-81.48193359375
-76.904296875
-70.49560546875
-50.35400390625
-40.283203125
-37.53662109375
-41.19873046875
-47.607421875
-55.84716796875
-51.26953125
-54.931640625
-66.83349609375
-70.49560546875
-68.66455078125
-62.255859375
-50.35400390625
-55.84716796875
-50.35400390625
-59.50927734375
-65.91796875
-67.7490234375
-71.4111328125
-67.7490234375
-71.4111328125
-88.80615234375
-106.201171875
-129.08935546875
-118.10302734375
-117.1875
-114.44091796875
-111.6943359375
-107.11669921875
-114.44091796875
-120.849609375
-116.27197265625
-110.77880859375
-110.77880859375
-110.77880859375
-118.10302734375
-119.0185546875
-122.6806640625
-120.849609375
-128.173828125
-106.201171875
-108.94775390625
-122.6806640625
-116.27197265625
-113.525390625
-113.525390625
-120.849609375
-113.525390625
-106.201171875
-106.201171875
-114.44091796875
-124.51171875
-107.11669921875
-121.76513671875
-119.0185546875
-115.3564453125
-110.77880859375
-133.6669921875
-138.24462890625
-155.6396484375
-142.822265625
-99.79248046875
-74.15771484375
-41.19873046875
6.40869140625
95.21484375
205.99365234375
298.4619140625
406.494140625
518.1884765625
600.5859375
664.6728515625
672.91259765625
603.33251953125
492.5537109375
330.50537109375
168.45703125
8.23974609375
-110.77880859375
-174.86572265625
-222.47314453125
-274.658203125
-311.279296875
-303.03955078125
-253.60107421875
-195.9228515625
-152.89306640625
-119.93408203125
-103.45458984375
-102.5390625
-100.7080078125
-81.48193359375
-66.83349609375
-66.83349609375
-72.32666015625
-67.7490234375
-53.1005859375
-54.01611328125
-57.67822265625
-65.00244140625
-43.9453125
-60.4248046875
-69.580078125
-58.59375
-50.35400390625
-58.59375
-54.01611328125
-54.931640625
-51.26953125
-43.9453125
-43.02978515625
-53.1005859375
-52.18505859375
-39.36767578125
-34.7900390625
-34.7900390625
-35.70556640625
-40.283203125
-40.283203125
-43.02978515625
-40.283203125
-37.53662109375
-37.53662109375
-37.53662109375
-37.53662109375
-31.1279296875
-54.931640625
-41.19873046875
-32.04345703125
-26.55029296875
-39.36767578125
-39.36767578125
-23.8037109375
-1.8310546875
-9.1552734375
-0.91552734375
-6.40869140625
1.8310546875
-2.74658203125
-20.1416015625
-10.07080078125
10.986328125
6.40869140625
-2.74658203125
2.74658203125
6.40869140625
7.32421875
8.23974609375
20.1416015625
11.90185546875
20.1416015625
6.40869140625
8.23974609375
29.296875
18.310546875
30.21240234375
32.04345703125
43.9453125
49.4384765625
64.0869140625
66.83349609375
61.34033203125
75.98876953125
80.56640625
79.65087890625
97.96142578125
104.3701171875
110.77880859375
109.86328125
111.6943359375
127.25830078125
120.849609375
136.41357421875
142.822265625
157.470703125
160.21728515625
176.69677734375
194.091796875
189.51416015625
201.416015625
206.9091796875
206.9091796875
229.79736328125
248.10791015625
257.26318359375
261.8408203125
250.8544921875
271.91162109375
282.89794921875
297.54638671875
298.4619140625
301.20849609375
294.7998046875
303.955078125
301.20849609375
303.03955078125
322.265625
319.51904296875
314.02587890625
314.02587890625
295.71533203125
292.96875
298.4619140625
289.306640625
282.89794921875
260.92529296875
266.41845703125
242.61474609375
230.712890625
210.5712890625
190.4296875
170.2880859375
163.87939453125
157.470703125
127.25830078125
106.201171875
98.876953125
80.56640625
89.7216796875
61.34033203125
35.70556640625
28.38134765625
4.57763671875
-11.90185546875
8.23974609375
10.986328125
-7.32421875
-26.55029296875
-36.62109375
-43.02978515625
-43.9453125
-49.4384765625
-45.7763671875
-41.19873046875
-51.26953125
-58.59375
-60.4248046875
-54.01611328125
-57.67822265625
-60.4248046875
-59.50927734375
-65.91796875
-59.50927734375
-51.26953125
-70.49560546875
-67.7490234375
-67.7490234375
-71.4111328125
-74.15771484375
-72.32666015625
-66.83349609375
-75.98876953125
-72.32666015625
-72.32666015625
-69.580078125
-66.83349609375
-66.83349609375
-66.83349609375
-65.91796875
-72.32666015625
-73.2421875
-64.0869140625
-65.00244140625
-71.4111328125
-65.91796875
-65.00244140625
-65.91796875
-68.66455078125
-73.2421875
-73.2421875
-69.580078125
-66.83349609375
-66.83349609375
-65.00244140625
-61.34033203125
-61.34033203125
-68.66455078125
-72.32666015625
-66.83349609375
-75.0732421875
-73.2421875
-74.15771484375
-76.904296875
-78.7353515625
-75.98876953125
-68.66455078125
-67.7490234375
-56.7626953125
-62.255859375
-77.81982421875
-79.65087890625
-75.0732421875
-79.65087890625
-78.7353515625
-64.0869140625
-66.83349609375
-85.14404296875
-79.65087890625
-87.890625
-89.7216796875
-74.15771484375
-75.98876953125
-83.31298828125
-70.49560546875
-76.904296875
-73.2421875
-64.0869140625
-73.2421875
-71.4111328125
-82.3974609375
-74.15771484375
-75.0732421875
-69.580078125
-67.7490234375
-75.98876953125
-75.98876953125
-58.59375
-64.0869140625
-63.17138671875
-63.17138671875
-77.81982421875
-80.56640625
-82.3974609375
-75.0732421875
-68.66455078125
-67.7490234375
-75.0732421875
-73.2421875
-79.65087890625
-77.81982421875
-77.81982421875
-83.31298828125
-81.48193359375
-67.7490234375
-65.91796875
-68.66455078125
-86.0595703125
-90.63720703125
-77.81982421875
-83.31298828125
-78.7353515625
-87.890625
-82.3974609375
-89.7216796875
-86.0595703125
-89.7216796875
-92.46826171875
-94.29931640625
-83.31298828125
-81.48193359375
-81.48193359375
-78.7353515625
-88.80615234375
-85.14404296875
-80.56640625
-74.15771484375
-76.904296875
-80.56640625
-81.48193359375
-82.3974609375
-73.2421875
-83.31298828125
-83.31298828125
-87.890625
-79.65087890625
-73.2421875
-79.65087890625
-75.0732421875
-84.228515625
-78.7353515625
-76.904296875
-78.7353515625
-81.48193359375
-83.31298828125
-68.66455078125
-65.91796875
-73.2421875
-75.0732421875
-71.4111328125
-84.228515625
-86.0595703125
-87.890625
-75.0732421875
-70.49560546875
-75.0732421875
-73.2421875
-84.228515625
-96.13037109375
-83.31298828125
-87.890625
-96.13037109375
-84.228515625
-72.32666015625
-88.80615234375
-100.7080078125
-90.63720703125
-86.97509765625
-76.904296875
-80.56640625
-86.97509765625
-86.97509765625
-86.97509765625
-80.56640625
-79.65087890625
-78.7353515625
-78.7353515625
-89.7216796875
-87.890625
-81.48193359375
-74.15771484375
-79.65087890625
-80.56640625
-66.83349609375
-66.83349609375
-87.890625
-81.48193359375
-82.3974609375
-70.49560546875
-73.2421875
-83.31298828125
-90.63720703125
-90.63720703125
-83.31298828125
-80.56640625
-65.00244140625
-68.66455078125
-87.890625
-88.80615234375
-93.3837890625
-95.21484375
-87.890625
-71.4111328125
-84.228515625
-81.48193359375
-86.0595703125
-87.890625
-86.97509765625
-85.14404296875
-89.7216796875
-86.97509765625
-82.3974609375
-90.63720703125
-77.81982421875
-81.48193359375
-84.228515625
-76.904296875
-92.46826171875
-82.3974609375
-81.48193359375
-81.48193359375
-84.228515625
-77.81982421875
-77.81982421875
-93.3837890625
-91.552734375
-88.80615234375
-83.31298828125
-80.56640625
-82.3974609375
-93.3837890625
-89.7216796875
-90.63720703125
-86.97509765625
-92.46826171875
-87.890625
-86.97509765625
-84.228515625
-84.228515625
-83.31298828125
-83.31298828125
-77.81982421875
-71.4111328125
-65.00244140625
-67.7490234375
-63.17138671875
-54.931640625
-50.35400390625
-44.86083984375
-25.634765625
-39.36767578125
-36.62109375
-55.84716796875
-75.0732421875
-69.580078125
-71.4111328125
-57.67822265625
-36.62109375
-28.38134765625
-33.87451171875
-32.958984375
-18.310546875
-15.56396484375
-20.1416015625
-34.7900390625
-42.1142578125
-37.53662109375
-38.4521484375
-43.02978515625
-38.4521484375
-38.4521484375
-41.19873046875
-48.52294921875
-39.36767578125
-33.87451171875
-38.4521484375
-50.35400390625
-59.50927734375
-53.1005859375
-66.83349609375
-80.56640625
-89.7216796875
-92.46826171875
-98.876953125
-107.11669921875
-87.890625
-94.29931640625
-96.13037109375
-97.96142578125
-103.45458984375
-97.96142578125
-93.3837890625
-96.13037109375
-91.552734375
-97.0458984375
-88.80615234375
-96.13037109375
-108.94775390625
-97.96142578125
-92.46826171875
-93.3837890625
-97.96142578125
-106.201171875
-106.201171875
-95.21484375
-113.525390625
-112.60986328125
-101.62353515625
-99.79248046875
-98.876953125
-102.5390625
-114.44091796875
-105.28564453125
-89.7216796875
-108.94775390625
-138.24462890625
-146.484375
-139.16015625
-133.6669921875
-116.27197265625
-97.96142578125
-44.86083984375
-13.73291015625
51.26953125
150.146484375
261.8408203125
381.77490234375
486.14501953125
580.4443359375
659.1796875
715.02685546875
682.06787109375
579.52880859375
430.2978515625
280.1513671875
123.59619140625
-9.1552734375
-93.3837890625
-141.90673828125
-200.50048828125
-251.77001953125
-249.93896484375
-210.5712890625
-172.119140625
-130.92041015625
-108.94775390625
-89.7216796875
-84.228515625
-86.97509765625
-82.3974609375
-74.15771484375
-53.1005859375
-64.0869140625
-71.4111328125
-67.7490234375
-66.83349609375
-48.52294921875
-45.7763671875
-53.1005859375
-60.4248046875
-59.50927734375
-50.35400390625
-62.255859375
-65.91796875
-67.7490234375
-56.7626953125
-52.18505859375
-48.52294921875
-45.7763671875
-54.01611328125
-40.283203125
-45.7763671875
-58.59375
-43.02978515625
-40.283203125
-41.19873046875
-51.26953125
-43.02978515625
-44.86083984375
-39.36767578125
-50.35400390625
-43.9453125
-37.53662109375
-40.283203125
-38.4521484375
-32.958984375
-36.62109375
-32.958984375
-31.1279296875
-22.88818359375
-16.4794921875
-19.22607421875
-32.04345703125
-22.88818359375
-10.986328125
-21.97265625
-21.05712890625
-16.4794921875
-24.71923828125
-31.1279296875
-17.39501953125
-11.90185546875
-7.32421875
-6.40869140625
-10.986328125
-4.57763671875
5.4931640625
6.40869140625
9.1552734375
6.40869140625
3.662109375
7.32421875
6.40869140625
14.6484375
30.21240234375
25.634765625
24.71923828125
29.296875
35.70556640625
36.62109375
44.86083984375
57.67822265625
59.50927734375
61.34033203125
65.00244140625
69.580078125
86.97509765625
86.0595703125
97.0458984375
95.21484375
105.28564453125
111.6943359375
118.10302734375
121.76513671875
144.6533203125
140.07568359375
151.9775390625
176.69677734375
176.69677734375
192.2607421875
206.9091796875
210.5712890625
212.40234375
221.5576171875
229.79736328125
243.5302734375
244.44580078125
241.69921875
255.43212890625
270.08056640625
269.1650390625
263.671875
274.658203125
286.56005859375
289.306640625
284.72900390625
289.306640625
298.4619140625
303.955078125
295.71533203125
289.306640625
289.306640625
281.06689453125
269.1650390625
261.8408203125
262.75634765625
240.78369140625
225.2197265625
206.9091796875
183.10546875
170.2880859375
152.89306640625
122.6806640625
113.525390625
109.86328125
91.552734375
78.7353515625
58.59375
45.7763671875
37.53662109375
22.88818359375
5.4931640625
-9.1552734375
-10.986328125
-23.8037109375
-32.958984375
-41.19873046875
-43.9453125
-54.01611328125
-61.34033203125
-67.7490234375
-60.4248046875
-75.98876953125
-86.0595703125
-84.228515625
-89.7216796875
-95.21484375
-87.890625
-83.31298828125
-90.63720703125
-91.552734375
-86.97509765625
-96.13037109375
-103.45458984375
-97.0458984375
-97.96142578125
-108.94775390625
-104.3701171875
-107.11669921875
-110.77880859375
-114.44091796875
-100.7080078125
-119.0185546875
-114.44091796875
-114.44091796875
-110.77880859375
-97.0458984375
-108.94775390625
-101.62353515625
-100.7080078125
-113.525390625
-111.6943359375
-110.77880859375
-104.3701171875
-112.60986328125
-114.44091796875
-106.201171875
-116.27197265625
-113.525390625
-119.93408203125
-120.849609375
-117.1875
-109.86328125
-113.525390625
-112.60986328125
-112.60986328125
-109.86328125
-113.525390625
-123.59619140625
-123.59619140625
-121.76513671875
-120.849609375
-121.76513671875
-127.25830078125
-115.3564453125
-113.525390625
-114.44091796875
-115.3564453125
-117.1875
-116.27197265625
-124.51171875
-127.25830078125
-117.1875
-100.7080078125
-113.525390625
-124.51171875
-119.0185546875
-116.27197265625
-116.27197265625
-119.0185546875
-118.10302734375
-125.42724609375
-125.42724609375
-112.60986328125
-106.201171875
-104.3701171875
-101.62353515625
-105.28564453125
-112.60986328125
-101.62353515625
-117.1875
-113.525390625
-127.25830078125
-130.0048828125
-133.6669921875
-123.59619140625
-122.6806640625
-116.27197265625
-115.3564453125
-122.6806640625
-124.51171875
-123.59619140625
-127.25830078125
-130.92041015625
-128.173828125
-124.51171875
-114.44091796875
-128.173828125
-130.0048828125
-126.3427734375
-128.173828125
-130.92041015625
-133.6669921875
-123.59619140625
-129.08935546875
-126.3427734375
-137.3291015625
-124.51171875
-121.76513671875
-127.25830078125
-124.51171875
-137.3291015625
-136.41357421875
-135.498046875
-127.25830078125
-127.25830078125
-121.76513671875
-133.6669921875
-134.58251953125
-131.8359375
-148.3154296875
-141.90673828125
-137.3291015625
-152.89306640625
-144.6533203125
-150.146484375
-139.16015625
-137.3291015625
-143.73779296875
-133.6669921875
-119.93408203125
-138.24462890625
-140.9912109375
-140.9912109375
-130.0048828125
-124.51171875
-137.3291015625
-146.484375
-140.07568359375
-139.16015625
-132.75146484375
-136.41357421875
-126.3427734375
-134.58251953125
-133.6669921875
-134.58251953125
-139.16015625
-125.42724609375
-130.92041015625
-138.24462890625
-135.498046875
-131.8359375
-128.173828125
-132.75146484375
-138.24462890625
-150.146484375
-155.6396484375
-140.07568359375
-144.6533203125
-146.484375
-149.23095703125
-160.21728515625
-151.06201171875
-151.9775390625
-141.90673828125
-151.06201171875
-139.16015625
-137.3291015625
-125.42724609375
-141.90673828125
-150.146484375
-139.16015625
-139.16015625
-133.6669921875
-144.6533203125
-141.90673828125
-134.58251953125
-143.73779296875
-151.06201171875
-141.90673828125
-140.9912109375
-146.484375
-146.484375
-131.8359375
-134.58251953125
-135.498046875
-146.484375
-145.56884765625
-141.90673828125
-145.56884765625
-144.6533203125
-156.55517578125
-144.6533203125
-141.90673828125
-146.484375
-143.73779296875
-142.822265625
-149.23095703125
-147.39990234375
-144.6533203125
-142.822265625
-133.6669921875
-135.498046875
-140.9912109375
-151.06201171875
-153.80859375
-156.55517578125
-142.822265625
-133.6669921875
-134.58251953125
-140.07568359375
-146.484375
-146.484375
-140.07568359375
-144.6533203125
-150.146484375
-140.07568359375
-137.3291015625
-146.484375
-147.39990234375
-157.470703125
-143.73779296875
-146.484375
-147.39990234375
-140.07568359375
-148.3154296875
-160.21728515625
-159.3017578125
-156.55517578125
-149.23095703125
-160.21728515625
-153.80859375
-148.3154296875
-145.56884765625
-147.39990234375
-138.24462890625
-120.849609375
-132.75146484375
-125.42724609375
-136.41357421875
-133.6669921875
-120.849609375
-101.62353515625
-94.29931640625
-89.7216796875
-109.86328125
-110.77880859375
-127.25830078125
-136.41357421875
-133.6669921875
-116.27197265625
-108.94775390625
-93.3837890625
-90.63720703125
-93.3837890625
-80.56640625
-84.228515625
-85.14404296875
-82.3974609375
-86.97509765625
-95.21484375
-105.28564453125
-91.552734375
-91.552734375
-97.96142578125
-122.6806640625
-124.51171875
-116.27197265625
-107.11669921875
-104.3701171875
-110.77880859375
-119.0185546875
-132.75146484375
-131.8359375
-147.39990234375
-145.56884765625
-155.6396484375
-151.06201171875
-153.80859375
-154.72412109375
-160.21728515625
-161.1328125
-157.470703125
-150.146484375
-140.9912109375
-159.3017578125
-158.38623046875
-160.21728515625
-165.71044921875
-160.21728515625
-162.9638671875
-164.794921875
-168.45703125
-154.72412109375
-159.3017578125
-158.38623046875
-157.470703125
-161.1328125
-157.470703125
-153.80859375
-151.9775390625
-143.73779296875
-159.3017578125
-159.3017578125
-159.3017578125
-161.1328125
-164.794921875
-160.21728515625
-167.54150390625
-182.18994140625
-195.9228515625
-205.99365234375
-199.5849609375
-171.20361328125
-143.73779296875
-112.60986328125
-69.580078125
-21.97265625
75.98876953125
175.78125
278.3203125
390.0146484375
483.3984375
538.330078125
570.37353515625
545.654296875
456.84814453125
313.1103515625
147.39990234375
15.56396484375
-115.3564453125
-203.2470703125
-254.5166015625
-314.94140625
-346.98486328125
-354.30908203125
-318.603515625
-282.89794921875
-253.60107421875
-217.8955078125
-198.66943359375
-171.20361328125
-152.89306640625
-143.73779296875
-135.498046875
-133.6669921875
-138.24462890625
-139.16015625
-113.525390625
-116.27197265625
-121.76513671875
-123.59619140625
-127.25830078125
-110.77880859375
-124.51171875
-137.3291015625
-140.9912109375
-127.25830078125
-119.93408203125
-110.77880859375
-109.86328125
-118.10302734375
-119.0185546875
-117.1875
-102.5390625
-105.28564453125
-113.525390625
-105.28564453125
-111.6943359375
-108.0322265625
-108.0322265625
-107.11669921875
-107.11669921875
-113.525390625
-108.94775390625
-102.5390625
-101.62353515625
-90.63720703125
-83.31298828125
-92.46826171875
-97.96142578125
-91.552734375
-96.13037109375
-91.552734375
-86.97509765625
-87.890625
-90.63720703125
-87.890625
-81.48193359375
-78.7353515625
-92.46826171875
-75.98876953125
-75.0732421875
-74.15771484375
-72.32666015625
-63.17138671875
-65.91796875
-59.50927734375
-70.49560546875
-54.931640625
-51.26953125
-58.59375
-57.67822265625
-54.931640625
-47.607421875
-48.52294921875
-59.50927734375
-52.18505859375
-37.53662109375
-29.296875
-30.21240234375
-32.04345703125
-28.38134765625
-17.39501953125
-19.22607421875
-11.90185546875
-7.32421875
-0.91552734375
9.1552734375
12.8173828125
18.310546875
18.310546875
29.296875
45.7763671875
43.9453125
54.931640625
60.4248046875
71.4111328125
81.48193359375
88.80615234375
104.3701171875
112.60986328125
120.849609375
120.849609375
135.498046875
152.89306640625
156.55517578125
160.21728515625
161.1328125
180.35888671875
189.51416015625
184.9365234375
181.2744140625
197.75390625
211.48681640625
222.47314453125
228.8818359375
238.037109375
232.5439453125
233.45947265625
227.96630859375
219.7265625
223.388671875
220.64208984375
219.7265625
215.14892578125
212.40234375
204.16259765625
184.9365234375
185.85205078125
167.54150390625
157.470703125
136.41357421875
133.6669921875
118.10302734375
92.46826171875
79.65087890625
72.32666015625
53.1005859375
41.19873046875
22.88818359375
5.4931640625
-9.1552734375
-21.05712890625
-31.1279296875
-45.7763671875
-55.84716796875
-64.0869140625
-67.7490234375
-79.65087890625
-76.904296875
-97.0458984375
-110.77880859375
-114.44091796875
-116.27197265625
-109.86328125
-131.8359375
-129.08935546875
-123.59619140625
-123.59619140625
-137.3291015625
-135.498046875
-140.07568359375
-155.6396484375
-143.73779296875
-143.73779296875
-144.6533203125
-146.484375
-151.06201171875
-151.06201171875
-146.484375
-149.23095703125
-153.80859375
-151.9775390625
-149.23095703125
-141.90673828125
-146.484375
-150.146484375
-147.39990234375
-147.39990234375
-155.6396484375
-148.3154296875
-151.9775390625
-160.21728515625
-150.146484375
-157.470703125
-156.55517578125
-152.89306640625
-147.39990234375
-146.484375
-155.6396484375
-151.06201171875
-153.80859375
-158.38623046875
-162.9638671875
-157.470703125
-155.6396484375
-141.90673828125
-139.16015625
-160.21728515625
-151.9775390625
-162.04833984375
-157.470703125
-139.16015625
-143.73779296875
-146.484375
-147.39990234375
-142.822265625
-136.41357421875
-151.06201171875
-150.146484375
-140.07568359375
-150.146484375
-154.72412109375
-146.484375
-136.41357421875
-144.6533203125
-143.73779296875
-157.470703125
-157.470703125
-155.6396484375
-154.72412109375
-141.90673828125
-128.173828125
-139.16015625
-146.484375
-155.6396484375
-151.06201171875
-139.16015625
-145.56884765625
-148.3154296875
-151.9775390625
-146.484375
-152.89306640625
-152.89306640625
-143.73779296875
-140.9912109375
-137.3291015625
-139.16015625
-138.24462890625
-151.06201171875
-139.16015625
-139.16015625
-148.3154296875
-146.484375
-169.37255859375
-167.54150390625
-159.3017578125
-154.72412109375
-145.56884765625
-156.55517578125
-147.39990234375
-145.56884765625
-147.39990234375
-138.24462890625
-140.07568359375
-139.16015625
-158.38623046875
-158.38623046875
-151.9775390625
-156.55517578125
-159.3017578125
-144.6533203125
-161.1328125
-159.3017578125
-173.03466796875
-162.04833984375
-148.3154296875
-144.6533203125
-138.24462890625
-144.6533203125
-153.80859375
-147.39990234375
-151.9775390625
-161.1328125
-162.04833984375
-164.794921875
-163.87939453125
-155.6396484375
-157.470703125
-165.71044921875
-155.6396484375
-151.9775390625
-147.39990234375
-163.87939453125
-173.03466796875
-151.06201171875
-160.21728515625
-160.21728515625
-155.6396484375
-152.89306640625
-157.470703125
-159.3017578125
-157.470703125
-151.9775390625
-162.9638671875
-167.54150390625
-157.470703125
-156.55517578125
-158.38623046875
-161.1328125
-165.71044921875
-155.6396484375
-162.9638671875
-178.52783203125
-173.9501953125
-165.71044921875
-171.20361328125
-164.794921875
-155.6396484375
-167.54150390625
-170.2880859375
-172.119140625
-179.443359375
-180.35888671875
-176.69677734375
-156.55517578125
-151.06201171875
-173.03466796875
-174.86572265625
-164.794921875
-160.21728515625
-163.87939453125
-167.54150390625
-163.87939453125
-160.21728515625
-162.04833984375
-166.6259765625
-168.45703125
-172.119140625
-162.9638671875
-178.52783203125
-173.03466796875
-166.6259765625
-171.20361328125
-166.6259765625
-164.794921875
-169.37255859375
-152.89306640625
-155.6396484375
-163.87939453125
-160.21728515625
-160.21728515625
-158.38623046875
-161.1328125
-152.89306640625
-152.89306640625
-159.3017578125
-157.470703125
-157.470703125
-157.470703125
-154.72412109375
-138.24462890625
-126.3427734375
-119.93408203125
-104.3701171875
-101.62353515625
-101.62353515625
-111.6943359375
-116.27197265625
-132.75146484375
-143.73779296875
-123.59619140625
-113.525390625
-104.3701171875
-92.46826171875
-84.228515625
-81.48193359375
-76.904296875
-92.46826171875
-100.7080078125
-106.201171875
-109.86328125
-110.77880859375
-117.1875
-118.10302734375
-108.0322265625
-107.11669921875
-104.3701171875
-106.201171875
-110.77880859375
-107.11669921875
-113.525390625
-123.59619140625
-133.6669921875
-130.92041015625
-158.38623046875
-168.45703125
-168.45703125
-160.21728515625
-177.6123046875
-173.9501953125
-173.03466796875
-170.2880859375
-161.1328125
-165.71044921875
-170.2880859375
-176.69677734375
-173.03466796875
-172.119140625
-175.78125
-170.2880859375
-162.9638671875
-165.71044921875
-173.9501953125
-170.2880859375
-178.52783203125
-174.86572265625
-174.86572265625
-171.20361328125
-158.38623046875
-162.04833984375
-167.54150390625
-174.86572265625
-174.86572265625
-172.119140625
-173.9501953125
-178.52783203125
-162.9638671875
-158.38623046875
-168.45703125
-168.45703125
-190.4296875
-199.5849609375
-197.75390625
-197.75390625
-175.78125
-145.56884765625
-118.10302734375
-68.66455078125
-7.32421875
72.32666015625
162.9638671875
268.24951171875
395.5078125
485.2294921875
547.4853515625
574.951171875
539.24560546875
432.12890625
288.39111328125
124.51171875
-17.39501953125
-140.9912109375
-227.96630859375
-281.06689453125
-329.58984375
-356.14013671875
-349.7314453125
-319.51904296875
-290.22216796875
-250.8544921875
-222.47314453125
-193.17626953125
-173.03466796875
-162.04833984375
-152.89306640625
-142.822265625
-132.75146484375
-129.08935546875
-126.3427734375
-120.849609375
-121.76513671875
-117.1875
-118.10302734375
-120.849609375
-122.6806640625
-122.6806640625
-120.849609375
-111.6943359375
-112.60986328125
-118.10302734375
-124.51171875
-116.27197265625
-111.6943359375
-119.0185546875
-119.0185546875
-123.59619140625
-114.44091796875
-119.0185546875
-110.77880859375
-88.80615234375
-107.11669921875
-121.76513671875
-101.62353515625
-98.876953125
-101.62353515625
-98.876953125
-104.3701171875
-94.29931640625
-90.63720703125
-97.0458984375
-93.3837890625
-86.0595703125
-87.890625
-85.14404296875
-81.48193359375
-80.56640625
-75.98876953125
-77.81982421875
-74.15771484375
-78.7353515625
-70.49560546875
-69.580078125
-75.0732421875
-72.32666015625
-55.84716796875
-56.7626953125
-62.255859375
-56.7626953125
-57.67822265625
-63.17138671875
-56.7626953125
-56.7626953125
-60.4248046875
-59.50927734375
-31.1279296875
-32.958984375
-47.607421875
-26.55029296875
-30.21240234375
-34.7900390625
-32.04345703125
-25.634765625
-16.4794921875
-11.90185546875
-12.8173828125
5.4931640625
15.56396484375
21.05712890625
16.4794921875
22.88818359375
26.55029296875
28.38134765625
38.4521484375
53.1005859375
60.4248046875
64.0869140625
71.4111328125
85.14404296875
98.876953125
102.5390625
119.0185546875
124.51171875
133.6669921875
150.146484375
155.6396484375
171.20361328125
164.794921875
179.443359375
184.9365234375
190.4296875
205.99365234375
218.81103515625
216.064453125
215.14892578125
232.5439453125
237.12158203125
240.78369140625
251.77001953125
258.1787109375
256.34765625
250.8544921875
257.26318359375
264.58740234375
249.93896484375
246.27685546875
235.29052734375
232.5439453125
236.2060546875
221.5576171875
201.416015625
188.5986328125
191.34521484375
170.2880859375
158.38623046875
140.07568359375
116.27197265625
101.62353515625
92.46826171875
66.83349609375
44.86083984375
32.04345703125
21.05712890625
0.91552734375
-14.6484375
-12.8173828125
-21.05712890625
-35.70556640625
-44.86083984375
-56.7626953125
-66.83349609375
-76.904296875
-82.3974609375
-82.3974609375
-90.63720703125
-93.3837890625
-88.80615234375
-95.21484375
-102.5390625
-100.7080078125
-117.1875
-112.60986328125
-110.77880859375
-115.3564453125
-117.1875
-119.93408203125
-118.10302734375
-120.849609375
-122.6806640625
-120.849609375
-117.1875
-125.42724609375
-119.0185546875
-118.10302734375
-119.93408203125
-125.42724609375
-117.1875
-119.93408203125
-113.525390625
-119.93408203125
-129.08935546875
-133.6669921875
-132.75146484375
-129.08935546875
-134.58251953125
-133.6669921875
-129.08935546875
-133.6669921875
-126.3427734375
-123.59619140625
-119.93408203125
-130.0048828125
-134.58251953125
-129.08935546875
-115.3564453125
-112.60986328125
-127.25830078125
-132.75146484375
-123.59619140625
-114.44091796875
-110.77880859375
-133.6669921875
-126.3427734375
-125.42724609375
-128.173828125
-134.58251953125
-133.6669921875
-117.1875
-112.60986328125
-113.525390625
-120.849609375
-120.849609375
-114.44091796875
-115.3564453125
-117.1875
-115.3564453125
-112.60986328125
-114.44091796875
-116.27197265625
-112.60986328125
-111.6943359375
-118.10302734375
-113.525390625
-118.10302734375
-120.849609375
-124.51171875
-114.44091796875
-115.3564453125
-113.525390625
-107.11669921875
-112.60986328125
-122.6806640625
-126.3427734375
-127.25830078125
-114.44091796875
-114.44091796875
-124.51171875
-129.08935546875
-118.10302734375
-123.59619140625
-122.6806640625
-121.76513671875
-121.76513671875
-126.3427734375
-117.1875
-124.51171875
-130.0048828125
-124.51171875
-114.44091796875
-119.93408203125
-130.0048828125
-123.59619140625
-121.76513671875
-120.849609375
-123.59619140625
-115.3564453125
-111.6943359375
-123.59619140625
-122.6806640625
-122.6806640625
-127.25830078125
-106.201171875
-122.6806640625
-139.16015625
-129.08935546875
-122.6806640625
-138.24462890625
-111.6943359375
-116.27197265625
-136.41357421875
-136.41357421875
-132.75146484375
-125.42724609375
-132.75146484375
-108.94775390625
-125.42724609375
-133.6669921875
-127.25830078125
-130.0048828125
-123.59619140625
-123.59619140625
-130.0048828125
-138.24462890625
-132.75146484375
-121.76513671875
-127.25830078125
-129.08935546875
-136.41357421875
-131.8359375
-122.6806640625
-130.92041015625
-124.51171875
-122.6806640625
-135.498046875
-130.0048828125
-125.42724609375
-130.92041015625
-130.0048828125
-125.42724609375
-122.6806640625
-125.42724609375
-137.3291015625
-133.6669921875
-138.24462890625
-140.07568359375
-131.8359375
-127.25830078125
-128.173828125
-124.51171875
-136.41357421875
-140.07568359375
-125.42724609375
-125.42724609375
-130.92041015625
-132.75146484375
-132.75146484375
-133.6669921875
-121.76513671875
-130.92041015625
-133.6669921875
-136.41357421875
-132.75146484375
-123.59619140625
-124.51171875
-128.173828125
-150.146484375
-142.822265625
-138.24462890625
-139.16015625
-137.3291015625
-129.08935546875
-127.25830078125
-138.24462890625
-136.41357421875
-130.0048828125
-129.08935546875
-130.92041015625
-131.8359375
-133.6669921875
-137.3291015625
-132.75146484375
-127.25830078125
-126.3427734375
-133.6669921875
-134.58251953125
-142.822265625
-137.3291015625
-126.3427734375
-125.42724609375
-132.75146484375
-140.07568359375
-134.58251953125
-134.58251953125
-136.41357421875
-135.498046875
-131.8359375
-142.822265625
-140.07568359375
-136.41357421875
-137.3291015625
-140.07568359375
-144.6533203125
-143.73779296875
-133.6669921875
-123.59619140625
-130.92041015625
-142.822265625
-150.146484375
-148.3154296875
-154.72412109375
-127.25830078125
-123.59619140625
-125.42724609375
-131.8359375
-125.42724609375
-131.8359375
-135.498046875
-130.92041015625
-122.6806640625
-127.25830078125
-132.75146484375
-138.24462890625
-137.3291015625
-136.41357421875
-137.3291015625
-130.92041015625
-127.25830078125
-130.0048828125
-135.498046875
-127.25830078125
-132.75146484375
-126.3427734375
-100.7080078125
-126.3427734375
-124.51171875
-121.76513671875
-114.44091796875
-102.5390625
-80.56640625
-79.65087890625
-83.31298828125
-88.80615234375
-83.31298828125
-96.13037109375
-105.28564453125
-115.3564453125
-110.77880859375
-96.13037109375
-89.7216796875
-76.904296875
-72.32666015625
-65.91796875
-49.4384765625
-57.67822265625
-54.931640625
-53.1005859375
-56.7626953125
-66.83349609375
-75.0732421875
-72.32666015625
-77.81982421875
-74.15771484375
-68.66455078125
-71.4111328125
-81.48193359375
-80.56640625
-80.56640625
-84.228515625
-81.48193359375
-81.48193359375
-79.65087890625
-108.0322265625
-125.42724609375
-119.0185546875
-126.3427734375
-116.27197265625
-116.27197265625
-130.92041015625
-140.07568359375
-131.8359375
-130.0048828125
-131.8359375
-126.3427734375
-127.25830078125
-121.76513671875
-127.25830078125
-127.25830078125
-125.42724609375
-124.51171875
-123.59619140625
-117.1875
-125.42724609375
-116.27197265625
-128.173828125
-132.75146484375
-119.93408203125
-127.25830078125
-123.59619140625
-124.51171875
-114.44091796875
-128.173828125
-126.3427734375
-124.51171875
-125.42724609375
-121.76513671875
-128.173828125
-128.173828125
-140.9912109375
-148.3154296875
-156.55517578125
-143.73779296875
-108.94775390625
-90.63720703125
-61.34033203125
0.91552734375
87.890625
192.2607421875
293.88427734375
401.0009765625
520.01953125
600.5859375
653.6865234375
668.3349609375
597.83935546875
466.9189453125
304.87060546875
140.07568359375
-1.8310546875
-112.60986328125
-178.52783203125
-229.79736328125
-278.3203125
-300.29296875
-295.71533203125
-249.0234375
-201.416015625
-162.04833984375
-134.58251953125
-116.27197265625
-105.28564453125
-104.3701171875
-98.876953125
-91.552734375
-92.46826171875
-88.80615234375
-76.904296875
-74.15771484375
-72.32666015625
-84.228515625
-87.890625
-81.48193359375
-75.98876953125
-74.15771484375
-77.81982421875
-78.7353515625
-75.98876953125
-74.15771484375
-69.580078125
-65.91796875
-72.32666015625
-74.15771484375
-77.81982421875
-72.32666015625
-78.7353515625
-79.65087890625
-64.0869140625
-65.91796875
-57.67822265625
-54.01611328125
-60.4248046875
-66.83349609375
-54.01611328125
-55.84716796875
-54.931640625
-52.18505859375
-54.01611328125
-61.34033203125
-51.26953125
-56.7626953125
-49.4384765625
-49.4384765625
-47.607421875
-45.7763671875
-41.19873046875
-41.19873046875
-49.4384765625
-40.283203125
-40.283203125
-28.38134765625
-27.4658203125
-32.958984375
-18.310546875
-25.634765625
-24.71923828125
-13.73291015625
-20.1416015625
-15.56396484375
-16.4794921875
-9.1552734375
-4.57763671875
-12.8173828125
-13.73291015625
-10.07080078125
-4.57763671875
4.57763671875
11.90185546875
7.32421875
5.4931640625
23.8037109375
41.19873046875
30.21240234375
26.55029296875
32.958984375
48.52294921875
46.69189453125
57.67822265625
68.66455078125
68.66455078125
70.49560546875
81.48193359375
80.56640625
93.3837890625
101.62353515625
107.11669921875
127.25830078125
138.24462890625
130.0048828125
148.3154296875
169.37255859375
167.54150390625
182.18994140625
192.2607421875
195.00732421875
205.078125
221.5576171875
224.30419921875
232.5439453125
238.037109375
256.34765625
252.685546875
273.74267578125
283.8134765625
280.1513671875
281.982421875
289.306640625
294.7998046875
303.955078125
307.6171875
303.03955078125
306.70166015625
304.87060546875
305.7861328125
287.4755859375
281.06689453125
288.39111328125
282.89794921875
275.57373046875
269.1650390625
249.93896484375
226.13525390625
209.65576171875
201.416015625
176.69677734375
161.1328125
144.6533203125
130.92041015625
113.525390625
97.0458984375
85.14404296875
69.580078125
49.4384765625
40.283203125
26.55029296875
21.97265625
-5.4931640625
-17.39501953125
-19.22607421875
-32.958984375
-32.958984375
-42.1142578125
-54.01611328125
-63.17138671875
-50.35400390625
-62.255859375
-64.0869140625
-77.81982421875
-81.48193359375
-80.56640625
-78.7353515625
-78.7353515625
-71.4111328125
-77.81982421875
-76.904296875
-75.98876953125
-94.29931640625
-86.97509765625
-97.96142578125
-88.80615234375
-76.904296875
-79.65087890625
-81.48193359375
-88.80615234375
-95.21484375
-89.7216796875
-86.97509765625
-84.228515625
-77.81982421875
-79.65087890625
-85.14404296875
-86.97509765625
-86.97509765625
-79.65087890625
-83.31298828125
-75.98876953125
-91.552734375
-102.5390625
-103.45458984375
-86.0595703125
-87.890625
-96.13037109375
-94.29931640625
-93.3837890625
-100.7080078125
-102.5390625
-92.46826171875
-97.0458984375
-91.552734375
-87.890625
-86.97509765625
-92.46826171875
-95.21484375
-93.3837890625
-88.80615234375
-90.63720703125
-94.29931640625
-96.13037109375
-103.45458984375
-90.63720703125
-92.46826171875
-89.7216796875
-94.29931640625
-89.7216796875
-102.5390625
-100.7080078125
-99.79248046875
-100.7080078125
-93.3837890625
-99.79248046875
-95.21484375
-107.11669921875
-103.45458984375
-89.7216796875
-87.890625
-98.876953125
-97.96142578125
-100.7080078125
-98.876953125
-94.29931640625
-92.46826171875
-93.3837890625
-97.96142578125
-96.13037109375
-88.80615234375
-86.0595703125
-97.0458984375
-88.80615234375
-93.3837890625
-97.0458984375
-100.7080078125
-103.45458984375
-107.11669921875
-102.5390625
-102.5390625
-96.13037109375
-106.201171875
-100.7080078125
-90.63720703125
-89.7216796875
-94.29931640625
-98.876953125
-109.86328125
-107.11669921875
-102.5390625
-105.28564453125
-122.6806640625
-117.1875
-120.849609375
-120.849609375
-108.94775390625
-122.6806640625
-105.28564453125
-104.3701171875
-105.28564453125
-104.3701171875
-112.60986328125
-108.94775390625
-91.552734375
-101.62353515625
-114.44091796875
-108.94775390625
-114.44091796875
-108.94775390625
-112.60986328125
-103.45458984375
-102.5390625
-107.11669921875
-107.11669921875
-95.21484375
-108.0322265625
-107.11669921875
-101.62353515625
-113.525390625
-111.6943359375
-110.77880859375
-113.525390625
-119.0185546875
-109.86328125
-119.0185546875
-128.173828125
-115.3564453125
-105.28564453125
-111.6943359375
-117.1875
-109.86328125
-115.3564453125
-106.201171875
-103.45458984375
-109.86328125
-109.86328125
-111.6943359375
-122.6806640625
-116.27197265625
-107.11669921875
-124.51171875
-108.0322265625
-107.11669921875
-112.60986328125
-116.27197265625
-119.0185546875
-119.0185546875
-114.44091796875
-108.0322265625
-114.44091796875
-120.849609375
-121.76513671875
-122.6806640625
-114.44091796875
-114.44091796875
-120.849609375
-120.849609375
-108.0322265625
-117.1875
-117.1875
-98.876953125
-111.6943359375
-126.3427734375
-118.10302734375
-111.6943359375
-121.76513671875
-119.0185546875
-108.0322265625
-112.60986328125
-119.93408203125
-115.3564453125
-119.0185546875
-120.849609375
-108.0322265625
-103.45458984375
-106.201171875
-109.86328125
-119.0185546875
-118.10302734375
-120.849609375
-119.93408203125
-112.60986328125
-107.11669921875
-109.86328125
-114.44091796875
-106.201171875
-101.62353515625
-119.93408203125
-113.525390625
-123.59619140625
-124.51171875
-129.08935546875
-123.59619140625
-113.525390625
-119.0185546875
-121.76513671875
-111.6943359375
-101.62353515625
-112.60986328125
-127.25830078125
-128.173828125
-116.27197265625
-107.11669921875
-124.51171875
-126.3427734375
-118.10302734375
-113.525390625
-116.27197265625
-109.86328125
-108.0322265625
-109.86328125
-111.6943359375
-112.60986328125
-117.1875
-122.6806640625
-118.10302734375
-116.27197265625
-110.77880859375
-119.0185546875
-111.6943359375
-122.6806640625
-109.86328125
-107.11669921875
-108.94775390625
-117.1875
-111.6943359375
-120.849609375
-109.86328125
-111.6943359375
-108.0322265625
-109.86328125
-112.60986328125
-105.28564453125
-97.96142578125
-109.86328125
-106.201171875
-115.3564453125
-130.92041015625
-133.6669921875
-119.0185546875
-119.93408203125
-121.76513671875
-108.0322265625
-113.525390625
-112.60986328125
-116.27197265625
-117.1875
-115.3564453125
-114.44091796875
-108.0322265625
-102.5390625
-100.7080078125
-107.11669921875
-97.96142578125
-92.46826171875
-87.890625
-71.4111328125
-66.83349609375
-66.83349609375
-73.2421875
-79.65087890625
-86.97509765625
-92.46826171875
-99.79248046875
-98.876953125
-81.48193359375
-78.7353515625
-73.2421875
-56.7626953125
-53.1005859375
-55.84716796875
-54.01611328125
-54.931640625
-58.59375
-63.17138671875
