ECG
-46.69189453125
-44.86083984375
-48.52294921875
-47.607421875
-49.4384765625
-50.35400390625
-47.607421875
-52.18505859375
-60.4248046875
-53.1005859375
-50.35400390625
-51.26953125
-51.26953125
-50.35400390625
-58.59375
-52.18505859375
-55.84716796875
-52.18505859375
-55.84716796875
-54.01611328125
-56.7626953125
-56.7626953125
-58.59375
-63.17138671875
-67.7490234375
-65.91796875
-65.00244140625
-64.0869140625
-64.0869140625
-61.34033203125
-60.4248046875
-61.34033203125
-57.67822265625
-61.34033203125
-65.00244140625
-61.34033203125
-61.34033203125
-61.34033203125
-59.50927734375
-46.69189453125
-33.87451171875
-35.70556640625
-36.62109375
-34.7900390625
-32.04345703125
-18.310546875
-14.6484375
-16.4794921875
-8.23974609375
-13.73291015625
-16.4794921875
-11.90185546875
-14.6484375
-23.8037109375
-13.73291015625
-3.662109375
2.74658203125
6.40869140625
21.97265625
21.97265625
7.32421875
2.74658203125
-0.91552734375
-12.8173828125
-20.1416015625
-20.1416015625
-14.6484375
-13.73291015625
-21.97265625
-18.310546875
-15.56396484375
-15.56396484375
-31.1279296875
-34.7900390625
-47.607421875
-57.67822265625
-63.17138671875
-70.49560546875
-76.904296875
-77.81982421875
-78.7353515625
-78.7353515625
-81.48193359375
-78.7353515625
-83.31298828125
-91.552734375
-88.80615234375
-89.7216796875
-88.80615234375
-84.228515625
-86.97509765625
-87.890625
-90.63720703125
-95.21484375
-102.5390625
-99.79248046875
-90.63720703125
-97.0458984375
-89.7216796875
-89.7216796875
-85.14404296875
-82.3974609375
-86.0595703125
-84.228515625
-95.21484375
-92.46826171875
-85.14404296875
-93.3837890625
-98.876953125
-103.45458984375
-117.1875
-129.08935546875
-129.08935546875
-100.7080078125
-60.4248046875
-13.73291015625
31.1279296875
88.80615234375
176.69677734375
312.19482421875
467.83447265625
667.41943359375
874.32861328125
1060.1806640625
1208.49609375
1320.1904296875
1361.38916015625
1284.48486328125
1135.25390625
966.796875
693.9697265625
397.3388671875
145.56884765625
-6.40869140625
-86.97509765625
-115.3564453125
-87.890625
-39.36767578125
-0.91552734375
20.1416015625
40.283203125
40.283203125
36.62109375
24.71923828125
10.986328125
7.32421875
-5.4931640625
-18.310546875
-22.88818359375
-29.296875
-32.04345703125
-36.62109375
-43.02978515625
-47.607421875
-44.86083984375
-48.52294921875
-51.26953125
-49.4384765625
-46.69189453125
-52.18505859375
-54.01611328125
-52.18505859375
-43.9453125
-43.02978515625
-43.02978515625
-37.53662109375
-34.7900390625
-32.04345703125
-31.1279296875
-38.4521484375
-39.36767578125
-43.02978515625
-39.36767578125
-33.87451171875
-32.04345703125
-25.634765625
-20.1416015625
-23.8037109375
-19.22607421875
-14.6484375
-10.986328125
-9.1552734375
-10.07080078125
-10.986328125
-11.90185546875
-2.74658203125
1.8310546875
3.662109375
6.40869140625
10.07080078125
10.07080078125
6.40869140625
13.73291015625
17.39501953125
10.986328125
16.4794921875
28.38134765625
32.958984375
43.02978515625
44.86083984375
52.18505859375
57.67822265625
65.91796875
66.83349609375
70.49560546875
75.0732421875
81.48193359375
86.97509765625
95.21484375
100.7080078125
108.0322265625
111.6943359375
120.849609375
130.92041015625
137.3291015625
148.3154296875
151.9775390625
162.9638671875
173.03466796875
181.2744140625
178.52783203125
190.4296875
195.9228515625
189.51416015625
195.9228515625
202.33154296875
211.48681640625
216.97998046875
220.64208984375
220.64208984375
216.97998046875
218.81103515625
213.31787109375
198.66943359375
198.66943359375
200.50048828125
194.091796875
187.68310546875
183.10546875
172.119140625
168.45703125
158.38623046875
138.24462890625
126.3427734375
118.10302734375
90.63720703125
71.4111328125
58.59375
54.931640625
38.4521484375
28.38134765625
17.39501953125
6.40869140625
-4.57763671875
-14.6484375
-23.8037109375
-33.87451171875
-39.36767578125
-43.02978515625
-53.1005859375
-61.34033203125
-64.0869140625
-73.2421875
-84.228515625
-82.3974609375
-87.890625
-92.46826171875
-93.3837890625
-97.96142578125
-103.45458984375
-102.5390625
-97.96142578125
-108.0322265625
-105.28564453125
-112.60986328125
-116.27197265625
-117.1875
-112.60986328125
-113.525390625
-114.44091796875
-108.94775390625
-105.28564453125
-108.0322265625
-114.44091796875
-121.76513671875
-119.0185546875
-119.0185546875
-112.60986328125
-108.0322265625
-112.60986328125
-111.6943359375
-113.525390625
-104.3701171875
-108.0322265625
-100.7080078125
-100.7080078125
-106.201171875
-101.62353515625
-108.0322265625
-106.201171875
-108.94775390625
-109.86328125
-109.86328125
-106.201171875
-103.45458984375
-108.0322265625
-106.201171875
-107.11669921875
-107.11669921875
-105.28564453125
-97.96142578125
-102.5390625
-100.7080078125
-97.0458984375
-99.79248046875
-97.96142578125
-95.21484375
-94.29931640625
-101.62353515625
-103.45458984375
-105.28564453125
-99.79248046875
-97.0458984375
-97.0458984375
-101.62353515625
-104.3701171875
-98.876953125
-100.7080078125
-93.3837890625
-95.21484375
-96.13037109375
-102.5390625
-107.11669921875
-106.201171875
-112.60986328125
-112.60986328125
-105.28564453125
-104.3701171875
-98.876953125
-91.552734375
-95.21484375
-102.5390625
-100.7080078125
-109.86328125
-108.0322265625
-107.11669921875
-112.60986328125
-111.6943359375
-106.201171875
-107.11669921875
-104.3701171875
-110.77880859375
-116.27197265625
-117.1875
-128.173828125
-124.51171875
-119.93408203125
-122.6806640625
-123.59619140625
-125.42724609375
-122.6806640625
-127.25830078125
-128.173828125
-134.58251953125
-127.25830078125
-115.3564453125
-123.59619140625
-127.25830078125
-124.51171875
-124.51171875
-121.76513671875
-120.849609375
-128.173828125
-129.08935546875
-128.173828125
-135.498046875
-134.58251953125
-132.75146484375
-132.75146484375
-131.8359375
-129.08935546875
-131.8359375
-135.498046875
-138.24462890625
-137.3291015625
-134.58251953125
-134.58251953125
-132.75146484375
-139.16015625
-136.41357421875
-138.24462890625
-138.24462890625
-140.07568359375
-142.822265625
-141.90673828125
-144.6533203125
-145.56884765625
-144.6533203125
-145.56884765625
-142.822265625
-139.16015625
-140.07568359375
-143.73779296875
-145.56884765625
-142.822265625
-143.73779296875
-141.90673828125
-145.56884765625
-141.90673828125
-143.73779296875
-150.146484375
-146.484375
-146.484375
-142.822265625
-138.24462890625
-143.73779296875
-146.484375
-140.07568359375
-137.3291015625
-139.16015625
-137.3291015625
-132.75146484375
-117.1875
-121.76513671875
-120.849609375
-108.0322265625
-103.45458984375
-100.7080078125
-97.96142578125
-101.62353515625
-105.28564453125
-97.0458984375
-94.29931640625
-95.21484375
-93.3837890625
-84.228515625
-81.48193359375
-73.2421875
-67.7490234375
-72.32666015625
-76.904296875
-84.228515625
-83.31298828125
-86.0595703125
-95.21484375
-95.21484375
-89.7216796875
-81.48193359375
-76.904296875
-86.97509765625
-89.7216796875
-101.62353515625
-118.10302734375
-127.25830078125
-127.25830078125
-130.0048828125
-133.6669921875
-140.9912109375
-145.56884765625
-152.89306640625
-152.89306640625
-155.6396484375
-159.3017578125
-159.3017578125
-162.04833984375
-155.6396484375
-152.89306640625
-157.470703125
-158.38623046875
-165.71044921875
-172.119140625
-171.20361328125
-170.2880859375
-173.03466796875
-172.119140625
-170.2880859375
-167.54150390625
-173.9501953125
-173.9501953125
-158.38623046875
-156.55517578125
-162.9638671875
-162.04833984375
-163.87939453125
-163.87939453125
-162.04833984375
-162.9638671875
-164.794921875
-159.3017578125
-163.87939453125
-175.78125
-184.02099609375
-178.52783203125
-157.470703125
-126.3427734375
-94.29931640625
-53.1005859375
-12.8173828125
56.7626953125
194.091796875
349.7314453125
526.42822265625
719.6044921875
900.87890625
1050.10986328125
1166.3818359375
1214.90478515625
1180.11474609375
1074.8291015625
928.3447265625
663.75732421875
381.77490234375
146.484375
-7.32421875
-84.228515625
-121.76513671875
-129.08935546875
-124.51171875
-94.29931640625
-68.66455078125
-61.34033203125
-64.0869140625
-62.255859375
-60.4248046875
-61.34033203125
-66.83349609375
-70.49560546875
-79.65087890625
-86.0595703125
-86.97509765625
-91.552734375
-101.62353515625
-103.45458984375
-108.94775390625
-105.28564453125
-108.94775390625
-107.11669921875
-110.77880859375
-112.60986328125
-108.0322265625
-106.201171875
-101.62353515625
-103.45458984375
-113.525390625
-112.60986328125
-112.60986328125
-109.86328125
-106.201171875
-102.5390625
-93.3837890625
-94.29931640625
-89.7216796875
-84.228515625
-87.890625
-86.97509765625
-86.0595703125
-86.0595703125
-84.228515625
-86.0595703125
-85.14404296875
-83.31298828125
-85.14404296875
-86.0595703125
-77.81982421875
-67.7490234375
-61.34033203125
-63.17138671875
-57.67822265625
-49.4384765625
-51.26953125
-52.18505859375
-45.7763671875
-45.7763671875
-47.607421875
-42.1142578125
-35.70556640625
-29.296875
-26.55029296875
-26.55029296875
-19.22607421875
-12.8173828125
0
1.8310546875
0.91552734375
0.91552734375
10.07080078125
20.1416015625
30.21240234375
40.283203125
47.607421875
58.59375
61.34033203125
67.7490234375
71.4111328125
76.904296875
81.48193359375
86.0595703125
97.96142578125
103.45458984375
107.11669921875
111.6943359375
123.59619140625
135.498046875
136.41357421875
139.16015625
137.3291015625
146.484375
146.484375
147.39990234375
151.9775390625
151.9775390625
158.38623046875
152.89306640625
145.56884765625
140.07568359375
140.9912109375
140.9912109375
130.0048828125
123.59619140625
115.3564453125
100.7080078125
85.14404296875
66.83349609375
52.18505859375
43.02978515625
35.70556640625
20.1416015625
4.57763671875
-5.4931640625
-18.310546875
-34.7900390625
-36.62109375
-48.52294921875
-63.17138671875
-67.7490234375
-78.7353515625
-95.21484375
-105.28564453125
-109.86328125
-109.86328125
-117.1875
-117.1875
-121.76513671875
-131.8359375
-135.498046875
-145.56884765625
-148.3154296875
-147.39990234375
-152.89306640625
-150.146484375
-155.6396484375
-156.55517578125
-157.470703125
-154.72412109375
-151.06201171875
-161.1328125
-166.6259765625
-166.6259765625
-164.794921875
-156.55517578125
-152.89306640625
-158.38623046875
-149.23095703125
-158.38623046875
-156.55517578125
-162.9638671875
-158.38623046875
-152.89306640625
-153.80859375
-162.04833984375
-162.04833984375
-160.21728515625
-162.04833984375
-153.80859375
-151.9775390625
-154.72412109375
-149.23095703125
-151.9775390625
-155.6396484375
-146.484375
-148.3154296875
-151.9775390625
-150.146484375
-147.39990234375
-149.23095703125
-142.822265625
-148.3154296875
-154.72412109375
-152.89306640625
-152.89306640625
-154.72412109375
-151.06201171875
-146.484375
-139.16015625
-145.56884765625
-152.89306640625
-150.146484375
-150.146484375
-141.90673828125
-135.498046875
-134.58251953125
-137.3291015625
-140.07568359375
-147.39990234375
-151.06201171875
-151.06201171875
-152.89306640625
-149.23095703125
-143.73779296875
-135.498046875
-133.6669921875
-138.24462890625
-142.822265625
-142.822265625
-139.16015625
-151.06201171875
-151.06201171875
-151.06201171875
-145.56884765625
-138.24462890625
-135.498046875
-140.9912109375
-140.07568359375
-137.3291015625
-143.73779296875
-143.73779296875
-148.3154296875
-144.6533203125
-142.822265625
-142.822265625
-155.6396484375
-151.9775390625
-151.9775390625
-151.9775390625
-147.39990234375
-155.6396484375
-162.04833984375
-155.6396484375
-154.72412109375
-159.3017578125
-154.72412109375
-154.72412109375
-155.6396484375
-154.72412109375
-153.80859375
-158.38623046875
-160.21728515625
-168.45703125
-169.37255859375
-174.86572265625
-172.119140625
-173.9501953125
-170.2880859375
-173.03466796875
-170.2880859375
-164.794921875
-157.470703125
-151.06201171875
-163.87939453125
-172.119140625
-163.87939453125
-174.86572265625
-172.119140625
-173.9501953125
-177.6123046875
-166.6259765625
-161.1328125
-169.37255859375
-168.45703125
-168.45703125
-164.794921875
-173.03466796875
-173.9501953125
-173.9501953125
-178.52783203125
-173.9501953125
-173.03466796875
-173.03466796875
-178.52783203125
-176.69677734375
-173.9501953125
-179.443359375
-181.2744140625
-182.18994140625
-181.2744140625
-176.69677734375
-180.35888671875
-177.6123046875
-178.52783203125
-176.69677734375
-179.443359375
-180.35888671875
-174.86572265625
-164.794921875
-167.54150390625
-166.6259765625
-173.03466796875
-167.54150390625
-158.38623046875
-151.06201171875
-143.73779296875
-133.6669921875
-139.16015625
-148.3154296875
-141.90673828125
-138.24462890625
-140.07568359375
-146.484375
-144.6533203125
-136.41357421875
-125.42724609375
-120.849609375
-126.3427734375
-122.6806640625
-119.93408203125
-123.59619140625
-128.173828125
-130.92041015625
-121.76513671875
-121.76513671875
-132.75146484375
-133.6669921875
-132.75146484375
-128.173828125
-123.59619140625
-119.93408203125
-130.92041015625
-143.73779296875
-152.89306640625
-152.89306640625
-162.9638671875
-165.71044921875
-169.37255859375
-178.52783203125
-192.2607421875
-192.2607421875
-187.68310546875
-189.51416015625
-194.091796875
-192.2607421875
-193.17626953125
-198.66943359375
-199.5849609375
-198.66943359375
-195.9228515625
-197.75390625
-194.091796875
-191.34521484375
-190.4296875
-198.66943359375
-202.33154296875
-206.9091796875
-198.66943359375
-195.9228515625
-189.51416015625
-184.9365234375
-187.68310546875
-188.5986328125
-194.091796875
-197.75390625
-197.75390625
-189.51416015625
-188.5986328125
-187.68310546875
-198.66943359375
-205.078125
-204.16259765625
-212.40234375
-198.66943359375
-167.54150390625
-128.173828125
-86.0595703125
-54.931640625
-10.986328125
93.3837890625
230.712890625
396.42333984375
585.9375
770.8740234375
927.42919921875
1055.60302734375
1142.578125
1146.240234375
1090.39306640625
980.52978515625
779.11376953125
461.42578125
236.2060546875
65.00244140625
-54.01611328125
-108.0322265625
-134.58251953125
-151.06201171875
-148.3154296875
-126.3427734375
-107.11669921875
-103.45458984375
-100.7080078125
-97.96142578125
-89.7216796875
-93.3837890625
-97.96142578125
-108.94775390625
-120.849609375
-122.6806640625
-119.0185546875
-119.93408203125
-115.3564453125
-118.10302734375
-120.849609375
-127.25830078125
-128.173828125
-130.0048828125
-130.92041015625
-136.41357421875
-134.58251953125
-131.8359375
-128.173828125
-130.92041015625
-130.0048828125
-127.25830078125
-124.51171875
-127.25830078125
-124.51171875
-125.42724609375
-119.93408203125
-114.44091796875
-114.44091796875
-117.1875
-109.86328125
-108.94775390625
-112.60986328125
-105.28564453125
-102.5390625
-106.201171875
-101.62353515625
-107.11669921875
-92.46826171875
-88.80615234375
-88.80615234375
-86.0595703125
-89.7216796875
-86.97509765625
-80.56640625
-82.3974609375
-85.14404296875
-83.31298828125
-76.904296875
-68.66455078125
-67.7490234375
-62.255859375
-54.01611328125
-46.69189453125
-44.86083984375
-44.86083984375
-33.87451171875
-27.4658203125
-27.4658203125
-17.39501953125
-15.56396484375
-15.56396484375
-10.986328125
0.91552734375
3.662109375
21.97265625
32.04345703125
36.62109375
48.52294921875
51.26953125
60.4248046875
66.83349609375
65.91796875
80.56640625
83.31298828125
87.890625
94.29931640625
102.5390625
105.28564453125
107.11669921875
119.93408203125
128.173828125
130.0048828125
134.58251953125
133.6669921875
127.25830078125
129.08935546875
133.6669921875
130.0048828125
130.0048828125
126.3427734375
119.93408203125
112.60986328125
111.6943359375
108.0322265625
99.79248046875
85.14404296875
65.91796875
57.67822265625
45.7763671875
29.296875
17.39501953125
4.57763671875
-10.07080078125
-16.4794921875
-22.88818359375
-40.283203125
-55.84716796875
-66.83349609375
-75.98876953125
-86.0595703125
-90.63720703125
-100.7080078125
-110.77880859375
-121.76513671875
-130.0048828125
-130.0048828125
-137.3291015625
-147.39990234375
-140.9912109375
-143.73779296875
-149.23095703125
-163.87939453125
-155.6396484375
-152.89306640625
-162.04833984375
-168.45703125
-173.9501953125
-167.54150390625
-166.6259765625
-174.86572265625
-172.119140625
-179.443359375
-177.6123046875
-173.9501953125
-181.2744140625
-173.03466796875
-166.6259765625
-166.6259765625
-174.86572265625
-170.2880859375
-173.03466796875
-177.6123046875
-175.78125
-168.45703125
-166.6259765625
-171.20361328125
-167.54150390625
-165.71044921875
-172.119140625
-175.78125
-168.45703125
-174.86572265625
-178.52783203125
-182.18994140625
-177.6123046875
-172.119140625
-170.2880859375
-162.9638671875
-162.04833984375
-157.470703125
-159.3017578125
-158.38623046875
-161.1328125
-167.54150390625
-170.2880859375
-172.119140625
-163.87939453125
-161.1328125
-151.9775390625
-149.23095703125
-147.39990234375
-147.39990234375
-146.484375
-151.06201171875
-151.9775390625
-151.9775390625
-154.72412109375
-153.80859375
-149.23095703125
-139.16015625
-140.07568359375
-141.90673828125
-148.3154296875
-158.38623046875
-154.72412109375
-165.71044921875
-162.04833984375
-147.39990234375
-145.56884765625
-149.23095703125
-148.3154296875
-148.3154296875
-148.3154296875
-147.39990234375
-145.56884765625
-151.06201171875
-151.06201171875
-147.39990234375
-154.72412109375
-154.72412109375
-160.21728515625
-162.9638671875
-156.55517578125
-154.72412109375
-155.6396484375
-152.89306640625
-155.6396484375
-162.04833984375
-157.470703125
-159.3017578125
-153.80859375
-157.470703125
-160.21728515625
-153.80859375
-159.3017578125
-163.87939453125
-171.20361328125
-170.2880859375
-156.55517578125
-150.146484375
-160.21728515625
-169.37255859375
-165.71044921875
-164.794921875
-172.119140625
-171.20361328125
-169.37255859375
-169.37255859375
-170.2880859375
-164.794921875
-164.794921875
-170.2880859375
-169.37255859375
-170.2880859375
-173.9501953125
-172.119140625
-163.87939453125
-167.54150390625
-167.54150390625
-166.6259765625
-166.6259765625
-171.20361328125
-173.9501953125
-176.69677734375
-174.86572265625
-172.119140625
-169.37255859375
-162.9638671875
-163.87939453125
-166.6259765625
-167.54150390625
-172.119140625
-169.37255859375
-169.37255859375
-171.20361328125
-172.119140625
-169.37255859375
-173.9501953125
-173.03466796875
-169.37255859375
-172.119140625
-177.6123046875
-185.85205078125
-189.51416015625
-178.52783203125
-173.9501953125
-177.6123046875
-177.6123046875
-167.54150390625
-168.45703125
-177.6123046875
-181.2744140625
-178.52783203125
-177.6123046875
-178.52783203125
-173.9501953125
-173.9501953125
-175.78125
-171.20361328125
-170.2880859375
-167.54150390625
-163.87939453125
-165.71044921875
-167.54150390625
-165.71044921875
-168.45703125
-163.87939453125
-166.6259765625
-161.1328125
-158.38623046875
-139.16015625
-133.6669921875
-130.0048828125
-134.58251953125
-137.3291015625
-131.8359375
-130.92041015625
-130.92041015625
-128.173828125
-119.93408203125
-110.77880859375
-115.3564453125
-115.3564453125
-105.28564453125
-103.45458984375
-111.6943359375
-114.44091796875
-116.27197265625
-114.44091796875
-120.849609375
-120.849609375
-116.27197265625
-120.849609375
-114.44091796875
-115.3564453125
-120.849609375
-123.59619140625
-127.25830078125
-126.3427734375
-136.41357421875
-144.6533203125
-150.146484375
-153.80859375
-165.71044921875
-175.78125
-173.03466796875
-175.78125
-176.69677734375
-169.37255859375
-176.69677734375
-172.119140625
-172.119140625
-172.119140625
-180.35888671875
-188.5986328125
-182.18994140625
-179.443359375
-176.69677734375
-178.52783203125
-178.52783203125
-180.35888671875
-184.02099609375
-182.18994140625
-181.2744140625
-183.10546875
-183.10546875
-192.2607421875
-184.9365234375
-177.6123046875
-171.20361328125
-173.9501953125
-178.52783203125
-176.69677734375
-176.69677734375
-182.18994140625
-189.51416015625
-188.5986328125
-185.85205078125
-167.54150390625
-140.9912109375
-94.29931640625
-52.18505859375
-7.32421875
59.50927734375
175.78125
325.01220703125
503.5400390625
702.20947265625
875.244140625
1032.71484375
1153.564453125
1228.6376953125
1213.07373046875
1120.60546875
976.86767578125
738.83056640625
448.6083984375
207.82470703125
22.88818359375
-87.890625
-130.92041015625
-140.9912109375
-131.8359375
-110.77880859375
-82.3974609375
-73.2421875
-75.98876953125
-62.255859375
-54.931640625
-59.50927734375
-66.83349609375
-75.0732421875
-86.0595703125
-95.21484375
-107.11669921875
-108.0322265625
-104.3701171875
-100.7080078125
-103.45458984375
-108.94775390625
-109.86328125
-113.525390625
-116.27197265625
-123.59619140625
-113.525390625
-114.44091796875
-110.77880859375
-108.94775390625
-111.6943359375
-105.28564453125
-106.201171875
-99.79248046875
-94.29931640625
-94.29931640625
-95.21484375
-94.29931640625
-96.13037109375
-99.79248046875
-91.552734375
-89.7216796875
-94.29931640625
-95.21484375
-91.552734375
-93.3837890625
-91.552734375
-86.97509765625
-80.56640625
-75.98876953125
-71.4111328125
-63.17138671875
-57.67822265625
-53.1005859375
-55.84716796875
-56.7626953125
-54.931640625
-56.7626953125
-54.931640625
-45.7763671875
-35.70556640625
-30.21240234375
-28.38134765625
-25.634765625
-21.05712890625
-16.4794921875
-21.97265625
-16.4794921875
-12.8173828125
-0.91552734375
3.662109375
8.23974609375
16.4794921875
13.73291015625
20.1416015625
30.21240234375
40.283203125
44.86083984375
52.18505859375
65.91796875
74.15771484375
81.48193359375
90.63720703125
102.5390625
115.3564453125
127.25830078125
135.498046875
132.75146484375
137.3291015625
150.146484375
159.3017578125
156.55517578125
159.3017578125
169.37255859375
174.86572265625
174.86572265625
175.78125
177.6123046875
178.52783203125
179.443359375
173.9501953125
166.6259765625
172.119140625
168.45703125
164.794921875
154.72412109375
141.90673828125
138.24462890625
127.25830078125
105.28564453125
93.3837890625
78.7353515625
60.4248046875
42.1142578125
29.296875
17.39501953125
2.74658203125
-13.73291015625
-29.296875
-34.7900390625
-48.52294921875
-64.0869140625
-58.59375
-66.83349609375
-84.228515625
-94.29931640625
-96.13037109375
-105.28564453125
-109.86328125
-107.11669921875
-112.60986328125
-119.93408203125
-123.59619140625
-132.75146484375
-135.498046875
-134.58251953125
-142.822265625
-148.3154296875
-146.484375
-141.90673828125
-138.24462890625
-145.56884765625
-141.90673828125
-143.73779296875
-146.484375
-144.6533203125
-145.56884765625
-144.6533203125
-150.146484375
-153.80859375
-153.80859375
-152.89306640625
-156.55517578125
-151.9775390625
-151.06201171875
-147.39990234375
-152.89306640625
-152.89306640625
-149.23095703125
-148.3154296875
-151.06201171875
-147.39990234375
-155.6396484375
-156.55517578125
-154.72412109375
-152.89306640625
-154.72412109375
-150.146484375
-148.3154296875
-151.9775390625
-150.146484375
-152.89306640625
-149.23095703125
-143.73779296875
-147.39990234375
-150.146484375
-147.39990234375
-140.07568359375
-142.822265625
-143.73779296875
-140.9912109375
-136.41357421875
-136.41357421875
-136.41357421875
-136.41357421875
-140.9912109375
-141.90673828125
-140.9912109375
-143.73779296875
-137.3291015625
-131.8359375
-132.75146484375
-129.08935546875
-133.6669921875
-138.24462890625
-140.07568359375
-136.41357421875
-134.58251953125
-135.498046875
-136.41357421875
-137.3291015625
-137.3291015625
-136.41357421875
-131.8359375
-130.92041015625
-135.498046875
-140.9912109375
-142.822265625
-142.822265625
-136.41357421875
-139.16015625
-137.3291015625
-141.90673828125
-145.56884765625
-147.39990234375
-140.07568359375
-140.07568359375
-138.24462890625
-140.9912109375
-145.56884765625
-144.6533203125
-147.39990234375
-151.06201171875
-154.72412109375
-149.23095703125
-145.56884765625
-149.23095703125
-150.146484375
-155.6396484375
-156.55517578125
-149.23095703125
-148.3154296875
-151.06201171875
-144.6533203125
-143.73779296875
-151.06201171875
-156.55517578125
-153.80859375
-147.39990234375
-155.6396484375
-153.80859375
-155.6396484375
-151.9775390625
-150.146484375
-148.3154296875
-152.89306640625
-151.06201171875
-154.72412109375
-150.146484375
-151.9775390625
-160.21728515625
-157.470703125
-150.146484375
-151.06201171875
-151.9775390625
-158.38623046875
-160.21728515625
-162.04833984375
-159.3017578125
-152.89306640625
-151.06201171875
-155.6396484375
-157.470703125
-156.55517578125
-155.6396484375
-163.87939453125
-161.1328125
-164.794921875
-161.1328125
-157.470703125
-157.470703125
-155.6396484375
-154.72412109375
-154.72412109375
-157.470703125
-158.38623046875
-155.6396484375
-157.470703125
-156.55517578125
-162.04833984375
-164.794921875
-159.3017578125
-159.3017578125
-156.55517578125
-153.80859375
-159.3017578125
-161.1328125
-158.38623046875
-162.04833984375
-162.9638671875
-163.87939453125
-167.54150390625
-156.55517578125
-160.21728515625
-159.3017578125
-160.21728515625
-167.54150390625
-162.9638671875
-158.38623046875
-163.87939453125
-158.38623046875
-156.55517578125
-160.21728515625
-164.794921875
-167.54150390625
-164.794921875
-165.71044921875
-164.794921875
-162.9638671875
-162.9638671875
-162.9638671875
-158.38623046875
-155.6396484375
-154.72412109375
-152.89306640625
-148.3154296875
-144.6533203125
-150.146484375
-144.6533203125
-130.92041015625
-131.8359375
-130.92041015625
-127.25830078125
-118.10302734375
-113.525390625
-111.6943359375
-107.11669921875
-110.77880859375
-110.77880859375
-98.876953125
-101.62353515625
-103.45458984375
-94.29931640625
-92.46826171875
-88.80615234375
-85.14404296875
-83.31298828125
-93.3837890625
-91.552734375
-98.876953125
-105.28564453125
-109.86328125
-109.86328125
-110.77880859375
-110.77880859375
-102.5390625
-108.0322265625
-117.1875
-121.76513671875
-124.51171875
-130.92041015625
-129.08935546875
-137.3291015625
-146.484375
-152.89306640625
-156.55517578125
-157.470703125
-157.470703125
-157.470703125
-158.38623046875
-162.9638671875
-172.119140625
-167.54150390625
-167.54150390625
-171.20361328125
-170.2880859375
-162.04833984375
-172.119140625
-165.71044921875
-161.1328125
-162.04833984375
-163.87939453125
-165.71044921875
-163.87939453125
-167.54150390625
-168.45703125
-166.6259765625
-168.45703125
-170.2880859375
-174.86572265625
-171.20361328125
-164.794921875
-158.38623046875
-158.38623046875
-161.1328125
-162.9638671875
-169.37255859375
-173.9501953125
-186.767578125
-179.443359375
-154.72412109375
-114.44091796875
-66.83349609375
-26.55029296875
26.55029296875
100.7080078125
226.13525390625
386.3525390625
585.02197265625
787.353515625
962.21923828125
1111.4501953125
1232.2998046875
1299.13330078125
1243.2861328125
1115.1123046875
960.38818359375
701.2939453125
394.59228515625
133.6669921875
-23.8037109375
-127.25830078125
-171.20361328125
-146.484375
-108.94775390625
-73.2421875
-50.35400390625
-29.296875
-22.88818359375
-21.05712890625
-31.1279296875
-43.9453125
-55.84716796875
-61.34033203125
-66.83349609375
-75.98876953125
-82.3974609375
-87.890625
-91.552734375
-92.46826171875
-93.3837890625
-96.13037109375
-97.0458984375
-96.13037109375
-101.62353515625
-96.13037109375
-95.21484375
-97.0458984375
-100.7080078125
-97.0458984375
-97.0458984375
-96.13037109375
-97.0458984375
-86.0595703125
-90.63720703125
-85.14404296875
-83.31298828125
-85.14404296875
-80.56640625
-76.904296875
-76.904296875
-75.0732421875
-75.98876953125
-72.32666015625
-64.0869140625
-67.7490234375
-67.7490234375
-61.34033203125
-58.59375
-52.18505859375
-52.18505859375
-52.18505859375
-48.52294921875
-46.69189453125
-49.4384765625
-45.7763671875
-35.70556640625
-33.87451171875
-25.634765625
-19.22607421875
-23.8037109375
-21.97265625
-20.1416015625
-19.22607421875
-7.32421875
-0.91552734375
3.662109375
8.23974609375
10.986328125
15.56396484375
27.4658203125
32.958984375
35.70556640625
43.02978515625
53.1005859375
52.18505859375
65.00244140625
76.904296875
81.48193359375
87.890625
98.876953125
117.1875
113.525390625
126.3427734375
137.3291015625
139.16015625
150.146484375
157.470703125
172.119140625
181.2744140625
184.02099609375
190.4296875
201.416015625
200.50048828125
205.078125
206.9091796875
208.740234375
213.31787109375
214.2333984375
217.8955078125
218.81103515625
218.81103515625
217.8955078125
209.65576171875
209.65576171875
205.99365234375
195.00732421875
183.10546875
174.86572265625
168.45703125
147.39990234375
124.51171875
119.93408203125
101.62353515625
77.81982421875
66.83349609375
51.26953125
36.62109375
24.71923828125
12.8173828125
-3.662109375
-13.73291015625
-27.4658203125
-38.4521484375
-47.607421875
-56.7626953125
-62.255859375
-69.580078125
-78.7353515625
-79.65087890625
-83.31298828125
-84.228515625
-96.13037109375
-102.5390625
-106.201171875
-108.94775390625
-115.3564453125
-113.525390625
-117.1875
-119.0185546875
-126.3427734375
-121.76513671875
-120.849609375
-122.6806640625
-117.1875
-126.3427734375
-124.51171875
-123.59619140625
-119.93408203125
-124.51171875
-127.25830078125
-129.08935546875
-126.3427734375
-127.25830078125
-127.25830078125
-129.08935546875
-133.6669921875
-138.24462890625
-131.8359375
-124.51171875
-121.76513671875
-119.93408203125
-121.76513671875
-129.08935546875
-125.42724609375
-130.0048828125
-121.76513671875
-130.0048828125
-123.59619140625
-126.3427734375
-119.93408203125
-115.3564453125
-126.3427734375
-121.76513671875
-122.6806640625
-122.6806640625
-127.25830078125
-124.51171875
-126.3427734375
-111.6943359375
-121.76513671875
-121.76513671875
-111.6943359375
-114.44091796875
-118.10302734375
-123.59619140625
-129.08935546875
-116.27197265625
-118.10302734375
-124.51171875
-119.0185546875
-116.27197265625
-125.42724609375
-124.51171875
-122.6806640625
-114.44091796875
-121.76513671875
-126.3427734375
-122.6806640625
-123.59619140625
-122.6806640625
-119.93408203125
-119.0185546875
-124.51171875
-120.849609375
-114.44091796875
-121.76513671875
-112.60986328125
-119.0185546875
-116.27197265625
-119.93408203125
-119.0185546875
-117.1875
-121.76513671875
-123.59619140625
-122.6806640625
-122.6806640625
-122.6806640625
-124.51171875
-126.3427734375
-127.25830078125
-123.59619140625
-122.6806640625
-135.498046875
-127.25830078125
-125.42724609375
-129.08935546875
-122.6806640625
-121.76513671875
-123.59619140625
-126.3427734375
-119.93408203125
-120.849609375
-124.51171875
-126.3427734375
-130.0048828125
-133.6669921875
-134.58251953125
-127.25830078125
-127.25830078125
-133.6669921875
-138.24462890625
-138.24462890625
-131.8359375
-133.6669921875
-140.9912109375
-140.9912109375
-141.90673828125
-144.6533203125
-133.6669921875
-134.58251953125
-140.07568359375
-140.9912109375
-140.9912109375
-138.24462890625
-135.498046875
-137.3291015625
-140.07568359375
-140.9912109375
-145.56884765625
-140.07568359375
-147.39990234375
-144.6533203125
-134.58251953125
-138.24462890625
-136.41357421875
-135.498046875
-141.90673828125
-142.822265625
-137.3291015625
-138.24462890625
-136.41357421875
-139.16015625
-139.16015625
-131.8359375
-132.75146484375
-140.07568359375
-140.07568359375
-139.16015625
-145.56884765625
-140.9912109375
-138.24462890625
-136.41357421875
-130.92041015625
-135.498046875
-137.3291015625
-137.3291015625
-142.822265625
-137.3291015625
-134.58251953125
-139.16015625
-143.73779296875
-142.822265625
-143.73779296875
-140.07568359375
-145.56884765625
-151.9775390625
-145.56884765625
-139.16015625
-138.24462890625
-137.3291015625
-135.498046875
-135.498046875
-136.41357421875
-135.498046875
-138.24462890625
-141.90673828125
-135.498046875
-136.41357421875
-136.41357421875
-138.24462890625
-141.90673828125
-138.24462890625
-140.07568359375
-150.146484375
-148.3154296875
-142.822265625
-142.822265625
-138.24462890625
-134.58251953125
-135.498046875
-136.41357421875
-134.58251953125
-140.9912109375
-141.90673828125
-151.9775390625
-143.73779296875
-131.8359375
-138.24462890625
-132.75146484375
-130.92041015625
-134.58251953125
-130.92041015625
-129.08935546875
-128.173828125
-132.75146484375
-128.173828125
-117.1875
-111.6943359375
-110.77880859375
-110.77880859375
-115.3564453125
-116.27197265625
-113.525390625
-102.5390625
-92.46826171875
-85.14404296875
-80.56640625
-84.228515625
-82.3974609375
-83.31298828125
-83.31298828125
-82.3974609375
-86.0595703125
-90.63720703125
-84.228515625
-83.31298828125
-73.2421875
-72.32666015625
-67.7490234375
-63.17138671875
-71.4111328125
-83.31298828125
-82.3974609375
-87.890625
-96.13037109375
-92.46826171875
-85.14404296875
-81.48193359375
-80.56640625
-94.29931640625
-97.0458984375
-106.201171875
-108.94775390625
-108.0322265625
-117.1875
-122.6806640625
-122.6806640625
-128.173828125
-140.9912109375
-140.9912109375
-134.58251953125
-133.6669921875
-140.9912109375
-149.23095703125
-145.56884765625
-145.56884765625
-151.9775390625
-145.56884765625
-144.6533203125
-142.822265625
-140.07568359375
-143.73779296875
-144.6533203125
-141.90673828125
-142.822265625
-134.58251953125
-132.75146484375
-137.3291015625
-136.41357421875
-129.08935546875
-131.8359375
-131.8359375
-133.6669921875
-150.146484375
-130.92041015625
-130.92041015625
-136.41357421875
-140.07568359375
-139.16015625
-148.3154296875
-159.3017578125
-152.89306640625
-130.92041015625
-102.5390625
-56.7626953125
-4.57763671875
52.18505859375
119.0185546875
235.29052734375
402.83203125
606.99462890625
809.326171875
986.9384765625
1149.90234375
1267.08984375
1347.65625
1312.8662109375
1178.28369140625
1029.052734375
777.28271484375
463.2568359375
184.02099609375
2.74658203125
-108.0322265625
-154.72412109375
-124.51171875
-69.580078125
-28.38134765625
-2.74658203125
14.6484375
16.4794921875
21.97265625
11.90185546875
-3.662109375
-17.39501953125
-23.8037109375
-27.4658203125
-41.19873046875
-49.4384765625
-44.86083984375
-43.02978515625
-53.1005859375
-56.7626953125
-60.4248046875
-58.59375
-58.59375
-63.17138671875
-64.0869140625
-72.32666015625
-55.84716796875
-60.4248046875
-58.59375
-62.255859375
-61.34033203125
-56.7626953125
-54.01611328125
-52.18505859375
-53.1005859375
-52.18505859375
-44.86083984375
-49.4384765625
-47.607421875
-50.35400390625
-40.283203125
-34.7900390625
-33.87451171875
-33.87451171875
-32.04345703125
-30.21240234375
-33.87451171875
-25.634765625
-22.88818359375
-21.97265625
-21.05712890625
-21.05712890625
-19.22607421875
-16.4794921875
-13.73291015625
-18.310546875
-7.32421875
-2.74658203125
-3.662109375
-3.662109375
7.32421875
16.4794921875
25.634765625
24.71923828125
27.4658203125
32.04345703125
39.36767578125
41.19873046875
47.607421875
49.4384765625
61.34033203125
65.91796875
71.4111328125
76.904296875
88.80615234375
92.46826171875
101.62353515625
122.6806640625
125.42724609375
134.58251953125
140.9912109375
147.39990234375
160.21728515625
165.71044921875
173.9501953125
176.69677734375
185.85205078125
204.16259765625
215.14892578125
218.81103515625
226.13525390625
233.45947265625
228.8818359375
236.2060546875
246.27685546875
250.8544921875
257.26318359375
260.009765625
254.5166015625
255.43212890625
255.43212890625
257.26318359375
256.34765625
260.009765625
244.44580078125
238.95263671875
237.12158203125
221.5576171875
206.9091796875
191.34521484375
176.69677734375
154.72412109375
140.07568359375
130.0048828125
112.60986328125
98.876953125
79.65087890625
69.580078125
52.18505859375
41.19873046875
31.1279296875
20.1416015625
0.91552734375
-1.8310546875
-13.73291015625
-19.22607421875
-30.21240234375
-32.958984375
-40.283203125
-48.52294921875
-55.84716796875
-63.17138671875
-67.7490234375
-65.91796875
-70.49560546875
-75.0732421875
-78.7353515625
-76.904296875
-77.81982421875
-84.228515625
-78.7353515625
-86.0595703125
-92.46826171875
-89.7216796875
-88.80615234375
-95.21484375
-88.80615234375
-86.97509765625
-94.29931640625
-89.7216796875
-90.63720703125
-95.21484375
-94.29931640625
-91.552734375
-96.13037109375
-93.3837890625
-94.29931640625
-95.21484375
-94.29931640625
-92.46826171875
-93.3837890625
-97.0458984375
-99.79248046875
-86.0595703125
-93.3837890625
-95.21484375
-92.46826171875
-89.7216796875
-88.80615234375
-88.80615234375
-88.80615234375
-93.3837890625
-91.552734375
-94.29931640625
-93.3837890625
-92.46826171875
-90.63720703125
-93.3837890625
-89.7216796875
-92.46826171875
-89.7216796875
-88.80615234375
-89.7216796875
-89.7216796875
-90.63720703125
-93.3837890625
-84.228515625
-83.31298828125
-88.80615234375
-88.80615234375
-86.0595703125
-91.552734375
-84.228515625
-92.46826171875
-95.21484375
-97.96142578125
-89.7216796875
-88.80615234375
-90.63720703125
-83.31298828125
-85.14404296875
-86.0595703125
-86.97509765625
-88.80615234375
-91.552734375
-87.890625
-86.97509765625
-86.0595703125
-83.31298828125
-82.3974609375
-80.56640625
-82.3974609375
-86.97509765625
-90.63720703125
-94.29931640625
-93.3837890625
-93.3837890625
-94.29931640625
-90.63720703125
-95.21484375
-97.0458984375
-99.79248046875
-94.29931640625
-91.552734375
-96.13037109375
-102.5390625
-105.28564453125
-104.3701171875
-104.3701171875
-101.62353515625
-104.3701171875
-109.86328125
-110.77880859375
-115.3564453125
-117.1875
-112.60986328125
-108.0322265625
-107.11669921875
-108.0322265625
-105.28564453125
-103.45458984375
-106.201171875
-107.11669921875
-105.28564453125
-108.0322265625
-108.0322265625
-109.86328125
-109.86328125
-119.0185546875
-112.60986328125
-110.77880859375
-110.77880859375
-109.86328125
-107.11669921875
-109.86328125
-108.94775390625
-112.60986328125
-116.27197265625
-114.44091796875
-113.525390625
-117.1875
-112.60986328125
-118.10302734375
-117.1875
-119.0185546875
-119.93408203125
-117.1875
-110.77880859375
-114.44091796875
-119.93408203125
-125.42724609375
-123.59619140625
-125.42724609375
-129.08935546875
-123.59619140625
-127.25830078125
-132.75146484375
-127.25830078125
-123.59619140625
-116.27197265625
-116.27197265625
-119.93408203125
-123.59619140625
-129.08935546875
-130.0048828125
-118.10302734375
-118.10302734375
-121.76513671875
-121.76513671875
-124.51171875
-127.25830078125
-120.849609375
-123.59619140625
-124.51171875
-125.42724609375
-125.42724609375
-131.8359375
-130.92041015625
-127.25830078125
-130.0048828125
-120.849609375
-117.1875
-121.76513671875
-126.3427734375
-118.10302734375
-120.849609375
-124.51171875
-125.42724609375
-126.3427734375
-127.25830078125
-131.8359375
-123.59619140625
-120.849609375
-124.51171875
-120.849609375
-124.51171875
-123.59619140625
-117.1875
-119.93408203125
-124.51171875
-124.51171875
-123.59619140625
-122.6806640625
-125.42724609375
-114.44091796875
-113.525390625
-121.76513671875
-118.10302734375
-119.93408203125
-114.44091796875
-116.27197265625
-123.59619140625
-130.92041015625
-133.6669921875
-134.58251953125
-129.08935546875
-123.59619140625
-125.42724609375
-125.42724609375
-117.1875
-116.27197265625
-125.42724609375
-128.173828125
-132.75146484375
-129.08935546875
-133.6669921875
-128.173828125
-126.3427734375
-124.51171875
-121.76513671875
-119.93408203125
-119.0185546875
-117.1875
-112.60986328125
-113.525390625
-109.86328125
-103.45458984375
-97.96142578125
-88.80615234375
-81.48193359375
-81.48193359375
-83.31298828125
-79.65087890625
-75.98876953125
-73.2421875
-76.904296875
-70.49560546875
-70.49560546875
-64.0869140625
-61.34033203125
-58.59375
-51.26953125
-47.607421875
-47.607421875
-45.7763671875
-46.69189453125
-55.84716796875
-66.83349609375
-71.4111328125
-65.00244140625
-63.17138671875
-64.0869140625
-55.84716796875
-66.83349609375
-69.580078125
-71.4111328125
-84.228515625
-85.14404296875
-87.890625
-99.79248046875
-107.11669921875
-113.525390625
-123.59619140625
-122.6806640625
-123.59619140625
-124.51171875
-123.59619140625
-132.75146484375
-136.41357421875
-137.3291015625
-136.41357421875
-135.498046875
-132.75146484375
-134.58251953125
-139.16015625
-138.24462890625
-129.08935546875
-132.75146484375
-133.6669921875
-131.8359375
-140.9912109375
-144.6533203125
-138.24462890625
-138.24462890625
-135.498046875
-135.498046875
-130.0048828125
-126.3427734375
-128.173828125
-131.8359375
-131.8359375
-135.498046875
-140.9912109375
-150.146484375
-159.3017578125
-154.72412109375
-127.25830078125
-90.63720703125
-48.52294921875
-10.07080078125
35.70556640625
100.7080078125
223.388671875
380.859375
562.1337890625
769.95849609375
955.810546875
1104.1259765625
1222.22900390625
1285.400390625
1241.455078125
1127.9296875
986.9384765625
747.98583984375
458.67919921875
196.83837890625
18.310546875
-74.15771484375
-119.0185546875
-114.44091796875
-83.31298828125
-51.26953125
-27.4658203125
-16.4794921875
-12.8173828125
-14.6484375
-12.8173828125
-16.4794921875
-22.88818359375
-33.87451171875
-43.02978515625
-47.607421875
-51.26953125
-49.4384765625
-54.931640625
-58.59375
-60.4248046875
-56.7626953125
-64.0869140625
-67.7490234375
-65.00244140625
-69.580078125
-72.32666015625
-69.580078125
-71.4111328125
-75.0732421875
-72.32666015625
-66.83349609375
-70.49560546875
-71.4111328125
-69.580078125
-67.7490234375
-70.49560546875
-66.83349609375
-63.17138671875
-65.91796875
-61.34033203125
-61.34033203125
-63.17138671875
-54.931640625
-55.84716796875
-49.4384765625
-51.26953125
-57.67822265625
-43.9453125
-34.7900390625
-29.296875
-27.4658203125
-26.55029296875
-28.38134765625
-27.4658203125
-26.55029296875
-28.38134765625
-19.22607421875
-10.07080078125
-9.1552734375
-2.74658203125
-0.91552734375
-1.8310546875
2.74658203125
7.32421875
12.8173828125
21.05712890625
23.8037109375
23.8037109375
30.21240234375
36.62109375
43.9453125
54.931640625
59.50927734375
63.17138671875
67.7490234375
71.4111328125
84.228515625
93.3837890625
95.21484375
108.0322265625
123.59619140625
134.58251953125
138.24462890625
139.16015625
146.484375
153.80859375
162.04833984375
168.45703125
179.443359375
187.68310546875
192.2607421875
201.416015625
207.82470703125
213.31787109375
216.97998046875
217.8955078125
216.97998046875
218.81103515625
219.7265625
217.8955078125
221.5576171875
221.5576171875
222.47314453125
216.064453125
211.48681640625
205.078125
197.75390625
181.2744140625
171.20361328125
164.794921875
151.06201171875
139.16015625
118.10302734375
101.62353515625
88.80615234375
68.66455078125
59.50927734375
44.86083984375
28.38134765625
17.39501953125
11.90185546875
-11.90185546875
-29.296875
-32.958984375
-43.02978515625
-42.1142578125
-52.18505859375
-61.34033203125
-65.00244140625
-70.49560546875
-76.904296875
-83.31298828125
-87.890625
-86.97509765625
-91.552734375
-94.29931640625
-95.21484375
-90.63720703125
-88.80615234375
-92.46826171875
-100.7080078125
-106.201171875
-103.45458984375
-113.525390625
-106.201171875
-105.28564453125
-109.86328125
-110.77880859375
-107.11669921875
-103.45458984375
-106.201171875
-110.77880859375
-109.86328125
-107.11669921875
-114.44091796875
-120.849609375
-115.3564453125
-111.6943359375
-106.201171875
-103.45458984375
-108.0322265625
-112.60986328125
-111.6943359375
-108.0322265625
-111.6943359375
-110.77880859375
-114.44091796875
-115.3564453125
-107.11669921875
-103.45458984375
-97.0458984375
-104.3701171875
-104.3701171875
-107.11669921875
-107.11669921875
-105.28564453125
-99.79248046875
-102.5390625
-103.45458984375
-101.62353515625
-103.45458984375
-102.5390625
-106.201171875
-101.62353515625
-97.96142578125
-97.96142578125
-97.96142578125
-100.7080078125
-106.201171875
-102.5390625
-97.0458984375
-99.79248046875
-100.7080078125
-98.876953125
-100.7080078125
-107.11669921875
-101.62353515625
-100.7080078125
-102.5390625
-100.7080078125
-97.96142578125
-91.552734375
-97.0458984375
-101.62353515625
-97.96142578125
-102.5390625
-101.62353515625
-99.79248046875
-97.96142578125
-91.552734375
-95.21484375
-106.201171875
-109.86328125
-108.94775390625
-113.525390625
-108.94775390625
-104.3701171875
-101.62353515625
-107.11669921875
-103.45458984375
-99.79248046875
-98.876953125
-102.5390625
-108.94775390625
-110.77880859375
-106.201171875
-102.5390625
-104.3701171875
-100.7080078125
-108.94775390625
-118.10302734375
-119.0185546875
-116.27197265625
-112.60986328125
-107.11669921875
-102.5390625
-111.6943359375
-109.86328125
-109.86328125
-119.93408203125
-119.0185546875
-115.3564453125
-116.27197265625
-115.3564453125
-118.10302734375
-113.525390625
-114.44091796875
-111.6943359375
-122.6806640625
-122.6806640625
-121.76513671875
-122.6806640625
-123.59619140625
-124.51171875
-122.6806640625
-121.76513671875
-117.1875
-123.59619140625
-128.173828125
-119.0185546875
-122.6806640625
-125.42724609375
-126.3427734375
-126.3427734375
-123.59619140625
-117.1875
-115.3564453125
-119.93408203125
-126.3427734375
-133.6669921875
-130.92041015625
-122.6806640625
-120.849609375
-111.6943359375
-117.1875
-114.44091796875
-123.59619140625
-123.59619140625
-127.25830078125
-132.75146484375
-135.498046875
-130.0048828125
-127.25830078125
-128.173828125
-130.92041015625
-130.0048828125
-123.59619140625
-117.1875
-117.1875
-126.3427734375
-129.08935546875
-126.3427734375
-129.08935546875
-133.6669921875
-131.8359375
-130.0048828125
-132.75146484375
-133.6669921875
-132.75146484375
-135.498046875
-123.59619140625
-128.173828125
-130.92041015625
-121.76513671875
-126.3427734375
-117.1875
-124.51171875
-127.25830078125
-123.59619140625
-126.3427734375
-128.173828125
-127.25830078125
-125.42724609375
-125.42724609375
-128.173828125
-129.08935546875
-130.92041015625
-126.3427734375
-136.41357421875
-137.3291015625
-131.8359375
-133.6669921875
-130.92041015625
-127.25830078125
-134.58251953125
-137.3291015625
-140.07568359375
-132.75146484375
-124.51171875
-130.0048828125
-129.08935546875
-129.08935546875
-127.25830078125
-130.0048828125
-127.25830078125
-130.92041015625
-130.0048828125
-128.173828125
-128.173828125
-133.6669921875
-130.0048828125
-127.25830078125
-129.08935546875
-130.0048828125
-125.42724609375
-131.8359375
-119.93408203125
-122.6806640625
-124.51171875
-113.525390625
-105.28564453125
-104.3701171875
-106.201171875
-102.5390625
-91.552734375
-88.80615234375
-91.552734375
-88.80615234375
-86.0595703125
-86.0595703125
-84.228515625
-89.7216796875
-86.0595703125
-80.56640625
-83.31298828125
-80.56640625
-74.15771484375
-58.59375
-54.01611328125
-60.4248046875
-61.34033203125
-63.17138671875
-75.0732421875
-86.0595703125
-80.56640625
-75.0732421875
-78.7353515625
-70.49560546875
-72.32666015625
-78.7353515625
-92.46826171875
-99.79248046875
-97.96142578125
-108.0322265625
-121.76513671875
-118.10302734375
-127.25830078125
-143.73779296875
-137.3291015625
-130.92041015625
-132.75146484375
-139.16015625
-138.24462890625
-136.41357421875
-136.41357421875
-140.9912109375
-141.90673828125
-143.73779296875
-153.80859375
-145.56884765625
-139.16015625
-132.75146484375
-138.24462890625
-141.90673828125
-142.822265625
-148.3154296875
-149.23095703125
-142.822265625
-141.90673828125
-141.90673828125
-143.73779296875
-137.3291015625
-138.24462890625
-139.16015625
-137.3291015625
-141.90673828125
-151.9775390625
-153.80859375
-160.21728515625
-162.9638671875
-160.21728515625
-139.16015625
-106.201171875
-68.66455078125
-32.958984375
12.8173828125
90.63720703125
217.8955078125
367.12646484375
554.8095703125
751.64794921875
924.6826171875
1069.3359375
1186.5234375
1237.79296875
1195.6787109375
1087.646484375
951.23291015625
682.9833984375
407.40966796875
193.17626953125
25.634765625
-54.931640625
-88.80615234375
-108.94775390625
-101.62353515625
-78.7353515625
-60.4248046875
-51.26953125
-50.35400390625
-41.19873046875
-44.86083984375
-42.1142578125
-45.7763671875
-54.931640625
-60.4248046875
-62.255859375
-70.49560546875
-74.15771484375
-79.65087890625
-86.0595703125
-86.97509765625
-85.14404296875
-93.3837890625
-93.3837890625
-88.80615234375
-92.46826171875
-91.552734375
-90.63720703125
-91.552734375
-88.80615234375
-91.552734375
-88.80615234375
-90.63720703125
-86.0595703125
-81.48193359375
-81.48193359375
-75.0732421875
-76.904296875
-65.91796875
-65.91796875
-69.580078125
-73.2421875
-73.2421875
-65.91796875
-65.00244140625
-65.91796875
-69.580078125
-65.91796875
-56.7626953125
-47.607421875
-48.52294921875
-43.9453125
-43.9453125
-48.52294921875
-43.02978515625
-40.283203125
-38.4521484375
-35.70556640625
-33.87451171875
-30.21240234375
-26.55029296875
-29.296875
-23.8037109375
-19.22607421875
-12.8173828125
-4.57763671875
1.8310546875
4.57763671875
15.56396484375
17.39501953125
21.05712890625
24.71923828125
28.38134765625
32.04345703125
35.70556640625
43.02978515625
53.1005859375
64.0869140625
71.4111328125
82.3974609375
86.0595703125
92.46826171875
105.28564453125
114.44091796875
119.0185546875
125.42724609375
130.92041015625
134.58251953125
143.73779296875
139.16015625
142.822265625
155.6396484375
165.71044921875
167.54150390625
165.71044921875
173.9501953125
179.443359375
183.10546875
192.2607421875
188.5986328125
187.68310546875
183.10546875
185.85205078125
183.10546875
173.03466796875
167.54150390625
163.87939453125
160.21728515625
150.146484375
135.498046875
124.51171875
113.525390625
97.0458984375
80.56640625
70.49560546875
50.35400390625
32.04345703125
21.05712890625
17.39501953125
7.32421875
-10.986328125
-21.05712890625
-26.55029296875
-39.36767578125
-53.1005859375
-59.50927734375
-70.49560546875
-78.7353515625
-87.890625
-90.63720703125
-98.876953125
-103.45458984375
-108.0322265625
-111.6943359375
-116.27197265625
-117.1875
-122.6806640625
-124.51171875
-128.173828125
-133.6669921875
-134.58251953125
-134.58251953125
-134.58251953125
-135.498046875
-131.8359375
-139.16015625
-137.3291015625
-130.92041015625
-134.58251953125
-133.6669921875
-135.498046875
-140.07568359375
-136.41357421875
-136.41357421875
-143.73779296875
-138.24462890625
-134.58251953125
-136.41357421875
-130.0048828125
-125.42724609375
-131.8359375
-140.07568359375
-141.90673828125
-140.07568359375
-137.3291015625
-136.41357421875
-137.3291015625
-131.8359375
-135.498046875
-136.41357421875
-141.90673828125
-140.9912109375
-140.07568359375
-130.92041015625
-119.0185546875
-128.173828125
-129.08935546875
-129.08935546875
-128.173828125
-129.08935546875
-129.08935546875
-126.3427734375
-127.25830078125
-128.173828125
-127.25830078125
-127.25830078125
-130.92041015625
-129.08935546875
-128.173828125
-128.173828125
-125.42724609375
-117.1875
-120.849609375
-128.173828125
-126.3427734375
-127.25830078125
-124.51171875
-120.849609375
-123.59619140625
-126.3427734375
-128.173828125
-126.3427734375
-126.3427734375
-123.59619140625
-123.59619140625
-118.10302734375
-113.525390625
-124.51171875
-126.3427734375
-119.93408203125
-121.76513671875
-126.3427734375
-120.849609375
-127.25830078125
-129.08935546875
-128.173828125
-134.58251953125
-135.498046875
-133.6669921875
-132.75146484375
-129.08935546875
-133.6669921875
-135.498046875
-132.75146484375
-130.92041015625
-136.41357421875
-139.16015625
-143.73779296875
-144.6533203125
-142.822265625
-139.16015625
-142.822265625
-140.9912109375
-140.07568359375
-139.16015625
-144.6533203125
-149.23095703125
-151.9775390625
-146.484375
-146.484375
-145.56884765625
-149.23095703125
-155.6396484375
-157.470703125
-151.9775390625
-139.16015625
-140.07568359375
-144.6533203125
-140.9912109375
-140.07568359375
-148.3154296875
-149.23095703125
-151.06201171875
-152.89306640625
-155.6396484375
-156.55517578125
-153.80859375
-147.39990234375
-145.56884765625
-150.146484375
-151.9775390625
-145.56884765625
-144.6533203125
-148.3154296875
-151.06201171875
-152.89306640625
-151.06201171875
-145.56884765625
-150.146484375
-152.89306640625
-151.06201171875
-153.80859375
-154.72412109375
-159.3017578125
-155.6396484375
-155.6396484375
-155.6396484375
-157.470703125
-151.9775390625
-151.9775390625
-152.89306640625
-156.55517578125
-160.21728515625
-162.04833984375
-161.1328125
-161.1328125
-155.6396484375
-151.9775390625
-154.72412109375
-153.80859375
-159.3017578125
-155.6396484375
-151.9775390625
-148.3154296875
-147.39990234375
-152.89306640625
-151.9775390625
-152.89306640625
-153.80859375
-150.146484375
-152.89306640625
-150.146484375
-158.38623046875
-162.04833984375
-155.6396484375
-155.6396484375
-153.80859375
-154.72412109375
-152.89306640625
-143.73779296875
-149.23095703125
-150.146484375
-149.23095703125
-152.89306640625
-148.3154296875
-144.6533203125
-151.06201171875
-149.23095703125
-147.39990234375
-149.23095703125
-149.23095703125
-153.80859375
-155.6396484375
-157.470703125
-156.55517578125
-151.9775390625
-150.146484375
-148.3154296875
-150.146484375
-149.23095703125
-152.89306640625
-153.80859375
-151.06201171875
-152.89306640625
-151.9775390625
-153.80859375
-157.470703125
-150.146484375
-148.3154296875
-147.39990234375
-151.06201171875
-147.39990234375
-142.822265625
-142.822265625
-141.90673828125
-136.41357421875
-130.92041015625
-127.25830078125
-114.44091796875
-106.201171875
-107.11669921875
-105.28564453125
-100.7080078125
-104.3701171875
-105.28564453125
-98.876953125
-97.0458984375
-100.7080078125
-92.46826171875
-82.3974609375
-85.14404296875
-73.2421875
-68.66455078125
-72.32666015625
-77.81982421875
-82.3974609375
-86.0595703125
-89.7216796875
-91.552734375
-95.21484375
-96.13037109375
-88.80615234375
-87.890625
-90.63720703125
-102.5390625
-106.201171875
-115.3564453125
-123.59619140625
-133.6669921875
-138.24462890625
-144.6533203125
-150.146484375
-158.38623046875
-158.38623046875
-157.470703125
-154.72412109375
-153.80859375
-156.55517578125
-160.21728515625
-161.1328125
-161.1328125
-161.1328125
-161.1328125
-165.71044921875
-171.20361328125
-173.9501953125
-162.04833984375
-162.04833984375
-158.38623046875
-159.3017578125
-161.1328125
-158.38623046875
-163.87939453125
-165.71044921875
-164.794921875
-160.21728515625
-161.1328125
-158.38623046875
-160.21728515625
-151.06201171875
-155.6396484375
-156.55517578125
-164.794921875
-179.443359375
-188.5986328125
-173.03466796875
-142.822265625
-107.11669921875
-64.0869140625
-24.71923828125
31.1279296875
119.93408203125
254.5166015625
407.40966796875
596.00830078125
794.677734375
964.9658203125
1100.4638671875
1212.158203125
1244.20166015625
1181.0302734375
1065.673828125
911.865234375
624.3896484375
348.81591796875
116.27197265625
-42.1142578125
-118.10302734375
-140.07568359375
-138.24462890625
-111.6943359375
-78.7353515625
-58.59375
-58.59375
-56.7626953125
-53.1005859375
-49.4384765625
-54.931640625
-65.00244140625
-74.15771484375
-76.904296875
-80.56640625
-79.65087890625
-89.7216796875
-97.96142578125
-92.46826171875
-95.21484375
-102.5390625
-93.3837890625
-95.21484375
-101.62353515625
-100.7080078125
-101.62353515625
-108.0322265625
-107.11669921875
-102.5390625
-101.62353515625
-104.3701171875
-103.45458984375
-97.0458984375
-95.21484375
-88.80615234375
-91.552734375
-85.14404296875
-86.0595703125
-86.97509765625
-84.228515625
-79.65087890625
-75.98876953125
-74.15771484375
-77.81982421875
-73.2421875
-73.2421875
-74.15771484375
-65.91796875
-58.59375
-57.67822265625
-50.35400390625
-45.7763671875
-41.19873046875
-39.36767578125
-38.4521484375
-43.02978515625
-41.19873046875
-32.04345703125
-32.04345703125
-39.36767578125
-34.7900390625
-31.1279296875
-24.71923828125
-21.05712890625
-16.4794921875
-1.8310546875
0.91552734375
2.74658203125
7.32421875
10.07080078125
16.4794921875
23.8037109375
30.21240234375
28.38134765625
37.53662109375
43.9453125
49.4384765625
60.4248046875
67.7490234375
75.98876953125
86.0595703125
93.3837890625
97.96142578125
104.3701171875
118.10302734375
125.42724609375
130.92041015625
143.73779296875
145.56884765625
151.06201171875
156.55517578125
162.9638671875
174.86572265625
181.2744140625
177.6123046875
174.86572265625
177.6123046875
181.2744140625
182.18994140625
185.85205078125
192.2607421875
190.4296875
186.767578125
176.69677734375
168.45703125
166.6259765625
154.72412109375
144.6533203125
133.6669921875
123.59619140625
111.6943359375
96.13037109375
77.81982421875
64.0869140625
52.18505859375
39.36767578125
21.97265625
7.32421875
-3.662109375
-16.4794921875
-27.4658203125
-42.1142578125
-47.607421875
-58.59375
-70.49560546875
-76.904296875
-87.890625
-97.96142578125
-96.13037109375
-101.62353515625
-108.0322265625
-106.201171875
-113.525390625
-120.849609375
-121.76513671875
-126.3427734375
-133.6669921875
-138.24462890625
-137.3291015625
-138.24462890625
-133.6669921875
-127.25830078125
-128.173828125
-134.58251953125
-133.6669921875
-137.3291015625
-138.24462890625
-140.07568359375
-138.24462890625
-134.58251953125
-134.58251953125
-133.6669921875
-141.90673828125
-142.822265625
-139.16015625
-140.9912109375
-144.6533203125
-143.73779296875
-140.07568359375
-142.822265625
-140.07568359375
-135.498046875
-136.41357421875
-133.6669921875
-136.41357421875
-141.90673828125
-140.07568359375
-146.484375
-134.58251953125
-130.92041015625
-130.92041015625
-124.51171875
-129.08935546875
-130.92041015625
-132.75146484375
-138.24462890625
-133.6669921875
-132.75146484375
-134.58251953125
-125.42724609375
-124.51171875
-124.51171875
-128.173828125
-125.42724609375
-130.0048828125
-128.173828125
-126.3427734375
-126.3427734375
-126.3427734375
-125.42724609375
-121.76513671875
-119.0185546875
-116.27197265625
-118.10302734375
-121.76513671875
-121.76513671875
-119.93408203125
-119.0185546875
-118.10302734375
-117.1875
-115.3564453125
-121.76513671875
-125.42724609375
-118.10302734375
-122.6806640625
-124.51171875
-125.42724609375
-123.59619140625
-125.42724609375
-126.3427734375
-128.173828125
-125.42724609375
-123.59619140625
-127.25830078125
-128.173828125
-128.173828125
-121.76513671875
-120.849609375
-126.3427734375
-130.0048828125
-130.0048828125
-133.6669921875
-135.498046875
-129.08935546875
-130.92041015625
-127.25830078125
-130.92041015625
-132.75146484375
-136.41357421875
-138.24462890625
-133.6669921875
-127.25830078125
-132.75146484375
-136.41357421875
-135.498046875
-140.9912109375
-140.07568359375
-139.16015625
-137.3291015625
-134.58251953125
-130.0048828125
-139.16015625
-140.07568359375
-138.24462890625
-138.24462890625
-139.16015625
-139.16015625
-142.822265625
-140.07568359375
-137.3291015625
-139.16015625
-138.24462890625
-140.07568359375
-143.73779296875
-140.9912109375
-142.822265625
-138.24462890625
-139.16015625
-144.6533203125
-143.73779296875
-137.3291015625
-142.822265625
-141.90673828125
-144.6533203125
-138.24462890625
-138.24462890625
-142.822265625
-140.9912109375
-139.16015625
-139.16015625
-138.24462890625
-139.16015625
-140.07568359375
-137.3291015625
-143.73779296875
-145.56884765625
-149.23095703125
-140.9912109375
-141.90673828125
-139.16015625
-140.9912109375
-139.16015625
-139.16015625
-140.9912109375
-148.3154296875
-146.484375
-147.39990234375
-142.822265625
-141.90673828125
-142.822265625
-144.6533203125
-142.822265625
-140.07568359375
-146.484375
-135.498046875
-142.822265625
-147.39990234375
-144.6533203125
-148.3154296875
-144.6533203125
-146.484375
-145.56884765625
-140.9912109375
-140.9912109375
-144.6533203125
-140.07568359375
-139.16015625
-141.90673828125
-146.484375
-138.24462890625
-135.498046875
-139.16015625
-138.24462890625
-135.498046875
-132.75146484375
-141.90673828125
-142.822265625
-137.3291015625
-142.822265625
-142.822265625
-136.41357421875
-135.498046875
-136.41357421875
-132.75146484375
-131.8359375
-137.3291015625
-142.822265625
-145.56884765625
-139.16015625
-132.75146484375
-133.6669921875
-139.16015625
-135.498046875
-135.498046875
-138.24462890625
-138.24462890625
-131.8359375
-140.07568359375
-142.822265625
-140.9912109375
-140.07568359375
-135.498046875
-134.58251953125
-134.58251953125
-132.75146484375
-137.3291015625
-138.24462890625
-134.58251953125
-126.3427734375
-130.0048828125
-118.10302734375
-108.0322265625
-114.44091796875
-108.0322265625
-101.62353515625
-100.7080078125
-93.3837890625
-85.14404296875
-83.31298828125
-81.48193359375
-77.81982421875
-71.4111328125
-65.00244140625
-62.255859375
-61.34033203125
-65.00244140625
-56.7626953125
-53.1005859375
-51.26953125
-50.35400390625
-43.02978515625
-46.69189453125
-43.9453125
-50.35400390625
-60.4248046875
-62.255859375
-73.2421875
-76.904296875
-73.2421875
-63.17138671875
-60.4248046875
-69.580078125
-75.98876953125
-86.97509765625
-95.21484375
-105.28564453125
-110.77880859375
-119.0185546875
-130.92041015625
-132.75146484375
-137.3291015625
-132.75146484375
-130.0048828125
-137.3291015625
-137.3291015625
-133.6669921875
-140.9912109375
-146.484375
-144.6533203125
-148.3154296875
-145.56884765625
-144.6533203125
-144.6533203125
-136.41357421875
-141.90673828125
-140.07568359375
-142.822265625
-151.06201171875
-145.56884765625
-140.07568359375
-140.07568359375
-142.822265625
-141.90673828125
-138.24462890625
-146.484375
-146.484375
-141.90673828125
-141.90673828125
-141.90673828125
-144.6533203125
-154.72412109375
-160.21728515625
-159.3017578125
-139.16015625
-109.86328125
-67.7490234375
-18.310546875
34.7900390625
90.63720703125
195.9228515625
345.15380859375
527.34375
735.16845703125
918.27392578125
1086.73095703125
1216.73583984375
1313.78173828125
1301.8798828125
1182.861328125
1053.77197265625
860.595703125
540.1611328125
236.2060546875
26.55029296875
-92.46826171875
-159.3017578125
-147.39990234375
-90.63720703125
-43.9453125
-19.22607421875
-1.8310546875
2.74658203125
8.23974609375
-5.4931640625
-24.71923828125
-29.296875
-40.283203125
-45.7763671875
-47.607421875
-55.84716796875
-52.18505859375
-57.67822265625
-59.50927734375
-60.4248046875
-64.0869140625
-68.66455078125
-78.7353515625
-74.15771484375
-74.15771484375
-71.4111328125
-72.32666015625
-65.91796875
-63.17138671875
-61.34033203125
-55.84716796875
-53.1005859375
-58.59375
-54.931640625
-57.67822265625
-56.7626953125
-58.59375
-57.67822265625
-56.7626953125
-54.01611328125
-52.18505859375
-46.69189453125
-49.4384765625
-47.607421875
-42.1142578125
-42.1142578125
-39.36767578125
-32.04345703125
-33.87451171875
-28.38134765625
-30.21240234375
-23.8037109375
-25.634765625
-25.634765625
-21.97265625
-15.56396484375
-15.56396484375
-10.07080078125
-5.4931640625
-3.662109375
-1.8310546875
9.1552734375
18.310546875
23.8037109375
27.4658203125
24.71923828125
33.87451171875
43.9453125
45.7763671875
50.35400390625
54.01611328125
57.67822265625
60.4248046875
67.7490234375
78.7353515625
82.3974609375
85.14404296875
95.21484375
108.0322265625
119.0185546875
119.93408203125
127.25830078125
137.3291015625
140.07568359375
150.146484375
164.794921875
173.03466796875
184.02099609375
191.34521484375
193.17626953125
201.416015625
206.9091796875
212.40234375
212.40234375
220.64208984375
227.96630859375
227.96630859375
235.29052734375
241.69921875
235.29052734375
236.2060546875
239.8681640625
240.78369140625
238.037109375
230.712890625
227.96630859375
226.13525390625
219.7265625
207.82470703125
189.51416015625
176.69677734375
163.87939453125
151.06201171875
131.8359375
119.93408203125
104.3701171875
92.46826171875
75.98876953125
55.84716796875
43.9453125
28.38134765625
10.07080078125
0.91552734375
-0.91552734375
-4.57763671875
-13.73291015625
-18.310546875
-29.296875
-37.53662109375
-46.69189453125
-54.931640625
-66.83349609375
-71.4111328125
-75.0732421875
-82.3974609375
-82.3974609375
-83.31298828125
-86.97509765625
-89.7216796875
-96.13037109375
-97.96142578125
-96.13037109375
-97.0458984375
-97.96142578125
-104.3701171875
-99.79248046875
-100.7080078125
-101.62353515625
-102.5390625
-102.5390625
-102.5390625
-105.28564453125
-106.201171875
-114.44091796875
-107.11669921875
-103.45458984375
-100.7080078125
-99.79248046875
-102.5390625
-103.45458984375
-106.201171875
-102.5390625
-102.5390625
-97.96142578125
-97.0458984375
-98.876953125
-95.21484375
-94.29931640625
-97.0458984375
-95.21484375
-95.21484375
-95.21484375
-99.79248046875
-97.96142578125
-99.79248046875
-95.21484375
-89.7216796875
-97.0458984375
-91.552734375
-86.0595703125
-89.7216796875
-94.29931640625
-88.80615234375
-88.80615234375
-92.46826171875
-89.7216796875
-88.80615234375
-88.80615234375
-89.7216796875
-95.21484375
-97.96142578125
-97.0458984375
-103.45458984375
-93.3837890625
-95.21484375
-100.7080078125
-97.96142578125
-94.29931640625
-96.13037109375
-96.13037109375
-97.0458984375
-98.876953125
-100.7080078125
-101.62353515625
-90.63720703125
-92.46826171875
-96.13037109375
-97.0458984375
-101.62353515625
-96.13037109375
-94.29931640625
-101.62353515625
-103.45458984375
-110.77880859375
-102.5390625
-107.11669921875
-107.11669921875
-103.45458984375
-100.7080078125
-95.21484375
-97.0458984375
-99.79248046875
-107.11669921875
-104.3701171875
-104.3701171875
-101.62353515625
-99.79248046875
-106.201171875
-102.5390625
-103.45458984375
-104.3701171875
-100.7080078125
-109.86328125
-110.77880859375
-111.6943359375
-108.0322265625
-104.3701171875
-98.876953125
-95.21484375
-105.28564453125
-102.5390625
-102.5390625
-98.876953125
-102.5390625
-101.62353515625
-109.86328125
-109.86328125
-104.3701171875
-102.5390625
-103.45458984375
-107.11669921875
-105.28564453125
-111.6943359375
-113.525390625
-110.77880859375
-115.3564453125
-110.77880859375
-110.77880859375
-117.1875
-110.77880859375
-113.525390625
-117.1875
-113.525390625
-116.27197265625
-109.86328125
-108.0322265625
-112.60986328125
-111.6943359375
-111.6943359375
-108.0322265625
-109.86328125
-115.3564453125
-116.27197265625
-121.76513671875
-123.59619140625
-113.525390625
-108.0322265625
-107.11669921875
-110.77880859375
-111.6943359375
-116.27197265625
-115.3564453125
-115.3564453125
-109.86328125
-116.27197265625
-117.1875
-112.60986328125
-112.60986328125
-115.3564453125
-119.0185546875
-115.3564453125
-115.3564453125
-114.44091796875
-111.6943359375
-106.201171875
-113.525390625
-110.77880859375
-109.86328125
-113.525390625
-119.0185546875
-114.44091796875
-120.849609375
-118.10302734375
-119.0185546875
-118.10302734375
-115.3564453125
-114.44091796875
-106.201171875
-107.11669921875
-108.0322265625
-110.77880859375
-117.1875
-113.525390625
-107.11669921875
-109.86328125
-114.44091796875
-117.1875
-110.77880859375
-103.45458984375
-108.0322265625
-111.6943359375
-108.94775390625
-110.77880859375
-114.44091796875
-112.60986328125
-110.77880859375
-114.44091796875
-110.77880859375
-109.86328125
-102.5390625
-109.86328125
-111.6943359375
-112.60986328125
-108.94775390625
-107.11669921875
-109.86328125
-108.94775390625
-108.94775390625
-108.0322265625
-106.201171875
-108.94775390625
-105.28564453125
-109.86328125
-109.86328125
-110.77880859375
-108.94775390625
-103.45458984375
-102.5390625
-108.0322265625
-108.0322265625
-109.86328125
-108.0322265625
-106.201171875
-95.21484375
-89.7216796875
-86.0595703125
-73.2421875
-70.49560546875
-62.255859375
-60.4248046875
-57.67822265625
-53.1005859375
-57.67822265625
-56.7626953125
-54.01611328125
-54.01611328125
-48.52294921875
-48.52294921875
-43.9453125
-37.53662109375
-38.4521484375
-36.62109375
-31.1279296875
-25.634765625
-22.88818359375
-25.634765625
-29.296875
-32.958984375
-43.02978515625
-45.7763671875
-45.7763671875
-42.1142578125
-30.21240234375
-39.36767578125
-43.9453125
-54.931640625
-65.91796875
-69.580078125
-69.580078125
-83.31298828125
-90.63720703125
-93.3837890625
-107.11669921875
-109.86328125
-106.201171875
-108.94775390625
-108.0322265625
-117.1875
-131.8359375
-119.93408203125
-117.1875
-122.6806640625
-126.3427734375
-130.0048828125
-129.08935546875
-121.76513671875
-125.42724609375
-122.6806640625
-124.51171875
-122.6806640625
-129.08935546875
-125.42724609375
-121.76513671875
-122.6806640625
-123.59619140625
-123.59619140625
-129.08935546875
-127.25830078125
-128.173828125
-126.3427734375
-122.6806640625
-126.3427734375
-132.75146484375
-139.16015625
-152.89306640625
-147.39990234375
-134.58251953125
-89.7216796875
-48.52294921875
-2.74658203125
51.26953125
111.6943359375
238.037109375
402.83203125
594.17724609375
801.08642578125
981.4453125
1141.66259765625
1260.68115234375
1334.8388671875
1285.400390625
1146.240234375
998.84033203125
747.0703125
419.3115234375
144.6533203125
-31.1279296875
-119.0185546875
-149.23095703125
-117.1875
-68.66455078125
-27.4658203125
-12.8173828125
1.8310546875
10.986328125
8.23974609375
7.32421875
-12.8173828125
-27.4658203125
-32.958984375
-41.19873046875
-54.01611328125
-59.50927734375
-62.255859375
-65.00244140625
-69.580078125
-67.7490234375
-63.17138671875
-65.91796875
-67.7490234375
-65.00244140625
-67.7490234375
-70.49560546875
-71.4111328125
-67.7490234375
-63.17138671875
-62.255859375
-59.50927734375
-59.50927734375
-61.34033203125
-64.0869140625
-57.67822265625
-51.26953125
-49.4384765625
-43.9453125
-45.7763671875
-42.1142578125
-37.53662109375
-35.70556640625
-28.38134765625
-31.1279296875
-34.7900390625
-31.1279296875
-36.62109375
-26.55029296875
-21.05712890625
-21.97265625
-13.73291015625
-19.22607421875
-10.986328125
-13.73291015625
-7.32421875
-5.4931640625
-3.662109375
4.57763671875
9.1552734375
7.32421875
17.39501953125
16.4794921875
22.88818359375
28.38134765625
28.38134765625
29.296875
34.7900390625
34.7900390625
42.1142578125
47.607421875
54.931640625
63.17138671875
62.255859375
67.7490234375
75.98876953125
78.7353515625
88.80615234375
98.876953125
99.79248046875
119.0185546875
126.3427734375
142.822265625
145.56884765625
142.822265625
153.80859375
162.04833984375
168.45703125
177.6123046875
195.00732421875
190.4296875
194.091796875
210.5712890625
211.48681640625
215.14892578125
214.2333984375
217.8955078125
222.47314453125
229.79736328125
237.12158203125
236.2060546875
233.45947265625
233.45947265625
237.12158203125
230.712890625
226.13525390625
217.8955078125
207.82470703125
205.078125
195.00732421875
185.85205078125
172.119140625
152.89306640625
137.3291015625
124.51171875
103.45458984375
98.876953125
88.80615234375
67.7490234375
50.35400390625
41.19873046875
25.634765625
15.56396484375
8.23974609375
0
-11.90185546875
-17.39501953125
-32.958984375
-37.53662109375
-36.62109375
-47.607421875
-50.35400390625
-59.50927734375
-60.4248046875
-63.17138671875
-72.32666015625
-76.904296875
-80.56640625
-84.228515625
-89.7216796875
-85.14404296875
-87.890625
-85.14404296875
-94.29931640625
-94.29931640625
-93.3837890625
-97.96142578125
-99.79248046875
-102.5390625
-97.96142578125
-100.7080078125
-103.45458984375
-100.7080078125
-102.5390625
-109.86328125
-106.201171875
-103.45458984375
-95.21484375
-98.876953125
-102.5390625
-97.96142578125
-95.21484375
-100.7080078125
-92.46826171875
-95.21484375
-101.62353515625
-102.5390625
-102.5390625
-88.80615234375
-93.3837890625
-93.3837890625
-89.7216796875
-92.46826171875
-91.552734375
-91.552734375
-97.0458984375
-94.29931640625
-96.13037109375
-88.80615234375
-91.552734375
-84.228515625
-86.0595703125
-82.3974609375
-83.31298828125
-83.31298828125
-86.0595703125
-89.7216796875
-90.63720703125
-87.890625
-86.0595703125
-85.14404296875
-86.0595703125
-79.65087890625
-80.56640625
-78.7353515625
-93.3837890625
-89.7216796875
-81.48193359375
-79.65087890625
-82.3974609375
-86.97509765625
-80.56640625
-82.3974609375
-79.65087890625
-80.56640625
-85.14404296875
-90.63720703125
-89.7216796875
-89.7216796875
-86.97509765625
-87.890625
-88.80615234375
-88.80615234375
-83.31298828125
-86.0595703125
-90.63720703125
-88.80615234375
-92.46826171875
-91.552734375
-96.13037109375
-97.0458984375
-89.7216796875
-83.31298828125
-86.97509765625
-93.3837890625
-93.3837890625
-98.876953125
-98.876953125
-98.876953125
-92.46826171875
-98.876953125
-98.876953125
-98.876953125
-100.7080078125
-103.45458984375
-99.79248046875
-102.5390625
-104.3701171875
-106.201171875
-99.79248046875
-100.7080078125
-99.79248046875
-104.3701171875
-107.11669921875
-100.7080078125
-108.0322265625
-105.28564453125
-103.45458984375
-108.0322265625
-107.11669921875
-106.201171875
-106.201171875
-108.0322265625
-105.28564453125
-108.0322265625
-113.525390625
-111.6943359375
-115.3564453125
-108.0322265625
-106.201171875
-108.0322265625
-105.28564453125
-101.62353515625
-106.201171875
-113.525390625
-115.3564453125
-113.525390625
-104.3701171875
-109.86328125
-115.3564453125
-111.6943359375
-113.525390625
-110.77880859375
-115.3564453125
-115.3564453125
-111.6943359375
-112.60986328125
-117.1875
-115.3564453125
-110.77880859375
-112.60986328125
-115.3564453125
-116.27197265625
-112.60986328125
-118.10302734375
-117.1875
-114.44091796875
-120.849609375
-118.10302734375
-120.849609375
-118.10302734375
-119.0185546875
-124.51171875
-121.76513671875
-115.3564453125
-111.6943359375
-113.525390625
-115.3564453125
-116.27197265625
-117.1875
-112.60986328125
-113.525390625
-110.77880859375
-113.525390625
-113.525390625
-115.3564453125
-118.10302734375
-119.0185546875
-118.10302734375
-118.10302734375
-115.3564453125
-115.3564453125
-118.10302734375
-117.1875
-113.525390625
-118.10302734375
-116.27197265625
-114.44091796875
-110.77880859375
-109.86328125
-107.11669921875
-107.11669921875
-115.3564453125
-117.1875
-113.525390625
-119.0185546875
-125.42724609375
-122.6806640625
-115.3564453125
-116.27197265625
-117.1875
-114.44091796875
-111.6943359375
-115.3564453125
-119.0185546875
-112.60986328125
-114.44091796875
-117.1875
-115.3564453125
-115.3564453125
-108.0322265625
-110.77880859375
-112.60986328125
-112.60986328125
-114.44091796875
-115.3564453125
-110.77880859375
-108.0322265625
-103.45458984375
-100.7080078125
-92.46826171875
-93.3837890625
-86.97509765625
-83.31298828125
-78.7353515625
-69.580078125
-61.34033203125
-66.83349609375
-69.580078125
-59.50927734375
-59.50927734375
-65.91796875
-50.35400390625
-46.69189453125
-51.26953125
-48.52294921875
-41.19873046875
-45.7763671875
-33.87451171875
-27.4658203125
-31.1279296875
-29.296875
-42.1142578125
-48.52294921875
-54.01611328125
-57.67822265625
-53.1005859375
-45.7763671875
-42.1142578125
-45.7763671875
-49.4384765625
-59.50927734375
-71.4111328125
-82.3974609375
-88.80615234375
-97.96142578125
-105.28564453125
-108.94775390625
-112.60986328125
-112.60986328125
-110.77880859375
-106.201171875
-110.77880859375
-122.6806640625
-122.6806640625
-124.51171875
-121.76513671875
-120.849609375
-124.51171875
-121.76513671875
-119.93408203125
-119.93408203125
-117.1875
-121.76513671875
-128.173828125
-128.173828125
-130.92041015625
-132.75146484375
-128.173828125
-130.92041015625
-130.0048828125
-128.173828125
-121.76513671875
-120.849609375
-127.25830078125
-124.51171875
-127.25830078125
-128.173828125
-138.24462890625
-152.89306640625
-158.38623046875
-149.23095703125
-117.1875
-73.2421875
-32.958984375
5.4931640625
61.34033203125
154.72412109375
303.03955078125
466.9189453125
672.91259765625
872.49755859375
1051.94091796875
1179.19921875
1287.2314453125
1304.62646484375
1198.42529296875
1063.8427734375
888.97705078125
584.1064453125
281.982421875
50.35400390625
-67.7490234375
-131.8359375
-138.24462890625
-102.5390625
-53.1005859375
-22.88818359375
-8.23974609375
3.662109375
10.986328125
10.986328125
5.4931640625
-11.90185546875
-20.1416015625
-29.296875
-40.283203125
-50.35400390625
-54.01611328125
-57.67822265625
-57.67822265625
-63.17138671875
-62.255859375
-59.50927734375
-62.255859375
-65.00244140625
-65.00244140625
-66.83349609375
-65.00244140625
-65.91796875
-57.67822265625
-59.50927734375
-58.59375
-54.931640625
-58.59375
-54.931640625
-57.67822265625
-70.49560546875
-65.00244140625
-57.67822265625
-58.59375
-54.01611328125
-43.9453125
-38.4521484375
-41.19873046875
-43.9453125
-48.52294921875
-41.19873046875
-32.958984375
-29.296875
-31.1279296875
-34.7900390625
-29.296875
-20.1416015625
-19.22607421875
-21.05712890625
-21.05712890625
-12.8173828125
-13.73291015625
-11.90185546875
-8.23974609375
-3.662109375
0
-2.74658203125
5.4931640625
8.23974609375
14.6484375
20.1416015625
27.4658203125
28.38134765625
35.70556640625
35.70556640625
46.69189453125
55.84716796875
59.50927734375
61.34033203125
60.4248046875
65.91796875
70.49560546875
83.31298828125
90.63720703125
100.7080078125
109.86328125
116.27197265625
118.10302734375
120.849609375
129.08935546875
138.24462890625
148.3154296875
147.39990234375
156.55517578125
164.794921875
170.2880859375
176.69677734375
181.2744140625
184.02099609375
184.9365234375
185.85205078125
194.091796875
202.33154296875
204.16259765625
200.50048828125
203.2470703125
209.65576171875
199.5849609375
197.75390625
197.75390625
191.34521484375
184.9365234375
178.52783203125
170.2880859375
162.04833984375
153.80859375
140.9912109375
124.51171875
108.94775390625
93.3837890625
84.228515625
66.83349609375
54.931640625
41.19873046875
32.958984375
26.55029296875
10.986328125
-0.91552734375
-10.986328125
-18.310546875
-27.4658203125
-44.86083984375
-51.26953125
-49.4384765625
-60.4248046875
-65.00244140625
-75.98876953125
-79.65087890625
-89.7216796875
-89.7216796875
-97.0458984375
-96.13037109375
-97.0458984375
-96.13037109375
-97.96142578125
-97.0458984375
-101.62353515625
-105.28564453125
-110.77880859375
-118.10302734375
-118.10302734375
-116.27197265625
-116.27197265625
-114.44091796875
-111.6943359375
-112.60986328125
-112.60986328125
-120.849609375
-117.1875
-115.3564453125
-113.525390625
-113.525390625
-110.77880859375
-106.201171875
-109.86328125
-115.3564453125
-117.1875
-116.27197265625
-116.27197265625
-121.76513671875
-115.3564453125
-113.525390625
-112.60986328125
-107.11669921875
-105.28564453125
-108.94775390625
-106.201171875
-108.94775390625
-108.0322265625
-102.5390625
-108.0322265625
-109.86328125
-105.28564453125
-108.94775390625
-108.94775390625
-105.28564453125
-104.3701171875
-105.28564453125
-108.0322265625
-107.11669921875
-105.28564453125
-106.201171875
-105.28564453125
-104.3701171875
-106.201171875
-105.28564453125
-108.0322265625
-106.201171875
-108.94775390625
-112.60986328125
-108.94775390625
-112.60986328125
-113.525390625
-110.77880859375
-112.60986328125
-99.79248046875
-103.45458984375
-104.3701171875
-108.0322265625
-111.6943359375
-120.849609375
-119.93408203125
-123.59619140625
-122.6806640625
-119.93408203125
-113.525390625
-113.525390625
-117.1875
-116.27197265625
-113.525390625
-118.10302734375
-130.0048828125
-128.173828125
-124.51171875
-119.93408203125
-124.51171875
-121.76513671875
-120.849609375
-116.27197265625
-116.27197265625
-117.1875
-119.93408203125
-114.44091796875
-118.10302734375
-127.25830078125
-124.51171875
-122.6806640625
-128.173828125
-123.59619140625
-124.51171875
-123.59619140625
-129.08935546875
-134.58251953125
-130.92041015625
-129.08935546875
-129.08935546875
-127.25830078125
-124.51171875
-126.3427734375
-125.42724609375
-128.173828125
-129.08935546875
-136.41357421875
-133.6669921875
-135.498046875
-140.07568359375
-133.6669921875
-133.6669921875
-132.75146484375
-132.75146484375
-137.3291015625
-140.9912109375
-143.73779296875
-146.484375
-137.3291015625
-133.6669921875
-133.6669921875
-130.92041015625
-130.92041015625
-132.75146484375
-132.75146484375
-136.41357421875
-137.3291015625
-137.3291015625
-138.24462890625
-140.07568359375
-147.39990234375
-139.16015625
-142.822265625
-142.822265625
-144.6533203125
-144.6533203125
-142.822265625
-140.9912109375
-134.58251953125
-137.3291015625
-138.24462890625
-143.73779296875
-144.6533203125
-146.484375
-140.07568359375
-146.484375
-145.56884765625
-142.822265625
-140.07568359375
-141.90673828125
-140.07568359375
-144.6533203125
-146.484375
-144.6533203125
-143.73779296875
-146.484375
-141.90673828125
-140.07568359375
-143.73779296875
-144.6533203125
-145.56884765625
-145.56884765625
-146.484375
-148.3154296875
-152.89306640625
-147.39990234375
-142.822265625
-143.73779296875
-142.822265625
-144.6533203125
-138.24462890625
-141.90673828125
-153.80859375
-144.6533203125
-146.484375
-147.39990234375
-143.73779296875
-143.73779296875
-141.90673828125
-140.9912109375
-148.3154296875
-150.146484375
-146.484375
-146.484375
-151.06201171875
-152.89306640625
-145.56884765625
-142.822265625
-145.56884765625
-143.73779296875
-146.484375
-146.484375
-142.822265625
-141.90673828125
-140.07568359375
-148.3154296875
-148.3154296875
-150.146484375
-149.23095703125
-148.3154296875
-139.16015625
-138.24462890625
-134.58251953125
-133.6669921875
-128.173828125
-125.42724609375
-119.93408203125
-118.10302734375
-115.3564453125
-108.0322265625
-102.5390625
-102.5390625
-102.5390625
-107.11669921875
-111.6943359375
-101.62353515625
-100.7080078125
-86.97509765625
-83.31298828125
-79.65087890625
-77.81982421875
-73.2421875
-69.580078125
-69.580078125
-68.66455078125
-70.49560546875
-71.4111328125
-75.0732421875
-81.48193359375
-85.14404296875
-85.14404296875
-75.98876953125
-69.580078125
-72.32666015625
-79.65087890625
-85.14404296875
-98.876953125
-112.60986328125
-111.6943359375
-109.86328125
-119.0185546875
-118.10302734375
-131.8359375
-142.822265625
-137.3291015625
-140.9912109375
-140.9912109375
-137.3291015625
-141.90673828125
-146.484375
-142.822265625
-148.3154296875
-145.56884765625
-152.89306640625
-148.3154296875
-149.23095703125
-153.80859375
-152.89306640625
-151.9775390625
-149.23095703125
-151.06201171875
-156.55517578125
-153.80859375
-160.21728515625
-162.9638671875
-150.146484375
-144.6533203125
-150.146484375
-150.146484375
-152.89306640625
-160.21728515625
-154.72412109375
-154.72412109375
-166.6259765625
-171.20361328125
-173.03466796875
-167.54150390625
-147.39990234375
-117.1875
-75.98876953125
-34.7900390625
9.1552734375
98.876953125
233.45947265625
398.25439453125
576.7822265625
777.28271484375
948.486328125
1087.646484375
1196.59423828125
1219.482421875
1147.15576171875
1041.8701171875
878.90625
585.02197265625
314.02587890625
97.96142578125
-32.958984375
-88.80615234375
-110.77880859375
-117.1875
-101.62353515625
-82.3974609375
-65.00244140625
-56.7626953125
-49.4384765625
-43.02978515625
-49.4384765625
-54.01611328125
-48.52294921875
-60.4248046875
-65.91796875
-70.49560546875
-84.228515625
-81.48193359375
-81.48193359375
-85.14404296875
-86.97509765625
-83.31298828125
-86.0595703125
-85.14404296875
-84.228515625
-91.552734375
-96.13037109375
-96.13037109375
-92.46826171875
-86.0595703125
-86.97509765625
-83.31298828125
-82.3974609375
-76.904296875
-80.56640625
-87.890625
-82.3974609375
-79.65087890625
-73.2421875
-70.49560546875
-71.4111328125
-70.49560546875
-71.4111328125
-72.32666015625
-64.0869140625
-63.17138671875
-64.0869140625
-63.17138671875
-58.59375
-59.50927734375
-50.35400390625
-46.69189453125
-43.9453125
-45.7763671875
-42.1142578125
-36.62109375
-33.87451171875
-29.296875
-26.55029296875
-23.8037109375
-20.1416015625
-17.39501953125
-13.73291015625
-15.56396484375
-10.07080078125
-6.40869140625
-0.91552734375
1.8310546875
6.40869140625
12.8173828125
21.97265625
29.296875
36.62109375
38.4521484375
43.9453125
46.69189453125
53.1005859375
65.91796875
75.0732421875
78.7353515625
83.31298828125
91.552734375
95.21484375
97.0458984375
111.6943359375
116.27197265625
122.6806640625
130.92041015625
130.0048828125
130.92041015625
113.525390625
116.27197265625
122.6806640625
130.0048828125
146.484375
151.06201171875
151.9775390625
153.80859375
156.55517578125
163.87939453125
164.794921875
163.87939453125
162.9638671875
159.3017578125
157.470703125
150.146484375
152.89306640625
144.6533203125
135.498046875
125.42724609375
111.6943359375
99.79248046875
87.890625
70.49560546875
55.84716796875
50.35400390625
47.607421875
40.283203125
22.88818359375
10.07080078125
4.57763671875
-14.6484375
-30.21240234375
-39.36767578125
-46.69189453125
-51.26953125
-60.4248046875
-70.49560546875
-72.32666015625
-79.65087890625
-91.552734375
-93.3837890625
-103.45458984375
-108.94775390625
-110.77880859375
-111.6943359375
-108.0322265625
-110.77880859375
-111.6943359375
-119.0185546875
-120.849609375
-115.3564453125
-117.1875
-124.51171875
-125.42724609375
-124.51171875
-130.0048828125
-131.8359375
-126.3427734375
-125.42724609375
-127.25830078125
-126.3427734375
-123.59619140625
-127.25830078125
-127.25830078125
-127.25830078125
-131.8359375
-128.173828125
-124.51171875
-127.25830078125
-123.59619140625
-119.93408203125
-127.25830078125
-125.42724609375
-129.08935546875
-127.25830078125
-124.51171875
-122.6806640625
-128.173828125
-127.25830078125
-123.59619140625
-115.3564453125
-122.6806640625
-124.51171875
-119.93408203125
-121.76513671875
-123.59619140625
-123.59619140625
-115.3564453125
-111.6943359375
-113.525390625
-115.3564453125
-115.3564453125
-118.10302734375
-116.27197265625
-110.77880859375
-110.77880859375
-116.27197265625
-111.6943359375
-106.201171875
-105.28564453125
-112.60986328125
-121.76513671875
-124.51171875
-121.76513671875
-125.42724609375
-126.3427734375
-123.59619140625
-113.525390625
-113.525390625
-119.0185546875
-117.1875
-118.10302734375
-119.0185546875
-120.849609375
-118.10302734375
-122.6806640625
-122.6806640625
-117.1875
-110.77880859375
-115.3564453125
-122.6806640625
-125.42724609375
-128.173828125
-123.59619140625
-123.59619140625
-128.173828125
-133.6669921875
-128.173828125
-116.27197265625
-115.3564453125
-121.76513671875
-123.59619140625
-129.08935546875
-135.498046875
-138.24462890625
-131.8359375
-126.3427734375
-125.42724609375
-129.08935546875
-130.92041015625
-132.75146484375
-138.24462890625
-133.6669921875
-138.24462890625
-135.498046875
-136.41357421875
-140.07568359375
-137.3291015625
-138.24462890625
-134.58251953125
-132.75146484375
-129.08935546875
-132.75146484375
-138.24462890625
-137.3291015625
-134.58251953125
-140.07568359375
-149.23095703125
-148.3154296875
-147.39990234375
-141.90673828125
-137.3291015625
-131.8359375
-137.3291015625
-145.56884765625
-142.822265625
-143.73779296875
-145.56884765625
-144.6533203125
-145.56884765625
-146.484375
-147.39990234375
-153.80859375
-154.72412109375
-151.9775390625
-145.56884765625
-147.39990234375
-145.56884765625
-143.73779296875
-147.39990234375
-142.822265625
-143.73779296875
-143.73779296875
-144.6533203125
-142.822265625
-146.484375
-147.39990234375
-140.07568359375
-136.41357421875
-142.822265625
-142.822265625
-141.90673828125
-141.90673828125
-143.73779296875
-140.9912109375
-140.9912109375
-147.39990234375
-147.39990234375
-151.06201171875
-146.484375
-151.9775390625
-142.822265625
-140.07568359375
-145.56884765625
-143.73779296875
-148.3154296875
-154.72412109375
-151.06201171875
-146.484375
-143.73779296875
-144.6533203125
-147.39990234375
-147.39990234375
-153.80859375
-155.6396484375
-159.3017578125
-159.3017578125
-154.72412109375
-151.9775390625
-156.55517578125
-151.9775390625
-148.3154296875
-151.9775390625
-147.39990234375
-144.6533203125
-143.73779296875
-147.39990234375
-146.484375
-148.3154296875
-149.23095703125
-140.07568359375
-136.41357421875
-133.6669921875
-133.6669921875
-131.8359375
-128.173828125
-122.6806640625
-109.86328125
-104.3701171875
-103.45458984375
-104.3701171875
-109.86328125
-106.201171875
-105.28564453125
-105.28564453125
-98.876953125
-89.7216796875
-86.97509765625
-83.31298828125
-75.98876953125
-66.83349609375
-63.17138671875
-65.00244140625
-74.15771484375
-79.65087890625
-81.48193359375
-80.56640625
-82.3974609375
-81.48193359375
-74.15771484375
-75.98876953125
-73.2421875
-83.31298828125
-97.96142578125
-110.77880859375
-119.0185546875
-126.3427734375
-126.3427734375
-127.25830078125
-135.498046875
-141.90673828125
-140.07568359375
-132.75146484375
-148.3154296875
-153.80859375
-155.6396484375
-157.470703125
-156.55517578125
-152.89306640625
-152.89306640625
-152.89306640625
-154.72412109375
-157.470703125
-160.21728515625
-157.470703125
-157.470703125
-160.21728515625
-151.06201171875
-151.9775390625
-151.9775390625
-153.80859375
-159.3017578125
-157.470703125
-157.470703125
-158.38623046875
-156.55517578125
-148.3154296875
-156.55517578125
-157.470703125
-153.80859375
-162.9638671875
-166.6259765625
-170.2880859375
-170.2880859375
-161.1328125
-139.16015625
-97.96142578125
-53.1005859375
-13.73291015625
58.59375
180.35888671875
319.51904296875
489.80712890625
675.6591796875
865.17333984375
1023.5595703125
1146.240234375
1228.6376953125
1197.509765625
1115.1123046875
1000.67138671875
766.29638671875
444.9462890625
212.40234375
43.02978515625
-60.4248046875
-85.14404296875
-101.62353515625
-101.62353515625
-86.97509765625
-58.59375
-52.18505859375
-58.59375
-53.1005859375
-50.35400390625
-51.26953125
-54.931640625
-54.931640625
-64.0869140625
-69.580078125
-74.15771484375
-83.31298828125
-84.228515625
-85.14404296875
-86.0595703125
-86.97509765625
-95.21484375
-95.21484375
-99.79248046875
-102.5390625
-104.3701171875
-97.0458984375
-90.63720703125
-92.46826171875
-94.29931640625
-94.29931640625
-94.29931640625
-97.0458984375
-89.7216796875
-83.31298828125
-83.31298828125
-87.890625
-83.31298828125
-84.228515625
-79.65087890625
-76.904296875
-78.7353515625
-72.32666015625
-68.66455078125
-69.580078125
-69.580078125
-75.0732421875
-69.580078125
-63.17138671875
-59.50927734375
-53.1005859375
-43.02978515625
-42.1142578125
-46.69189453125
-43.9453125
-43.9453125
-39.36767578125
-34.7900390625
-29.296875
-23.8037109375
-20.1416015625
-18.310546875
-11.90185546875
-8.23974609375
-3.662109375
0
0.91552734375
2.74658203125
7.32421875
16.4794921875
20.1416015625
23.8037109375
31.1279296875
33.87451171875
42.1142578125
49.4384765625
55.84716796875
58.59375
67.7490234375
75.0732421875
75.98876953125
81.48193359375
91.552734375
103.45458984375
111.6943359375
117.1875
125.42724609375
127.25830078125
141.90673828125
145.56884765625
141.90673828125
145.56884765625
148.3154296875
154.72412109375
160.21728515625
166.6259765625
165.71044921875
169.37255859375
170.2880859375
172.119140625
173.9501953125
169.37255859375
165.71044921875
160.21728515625
155.6396484375
151.06201171875
142.822265625
140.07568359375
130.92041015625
119.0185546875
102.5390625
89.7216796875
66.83349609375
54.01611328125
45.7763671875
38.4521484375
27.4658203125
14.6484375
7.32421875
-2.74658203125
-12.8173828125
-22.88818359375
-35.70556640625
-45.7763671875
-55.84716796875
-65.00244140625
-71.4111328125
-80.56640625
-86.97509765625
-91.552734375
-94.29931640625
-101.62353515625
-102.5390625
-104.3701171875
-110.77880859375
-113.525390625
-115.3564453125
-117.1875
-119.93408203125
-121.76513671875
-118.10302734375
-119.93408203125
-116.27197265625
-119.93408203125
-119.93408203125
-124.51171875
-123.59619140625
-129.08935546875
-130.92041015625
-130.92041015625
-135.498046875
-130.92041015625
-129.08935546875
-121.76513671875
-124.51171875
-127.25830078125
-128.173828125
-123.59619140625
-127.25830078125
-133.6669921875
-132.75146484375
-130.0048828125
-129.08935546875
-130.92041015625
-130.92041015625
-130.92041015625
-127.25830078125
-130.0048828125
-125.42724609375
-126.3427734375
-122.6806640625
-122.6806640625
-121.76513671875
-120.849609375
-123.59619140625
-126.3427734375
-125.42724609375
-127.25830078125
-124.51171875
-121.76513671875
-120.849609375
-119.0185546875
-112.60986328125
-112.60986328125
-117.1875
-121.76513671875
-122.6806640625
-125.42724609375
-125.42724609375
-123.59619140625
-118.10302734375
-123.59619140625
-117.1875
-114.44091796875
-112.60986328125
-113.525390625
-111.6943359375
-110.77880859375
-115.3564453125
-111.6943359375
-110.77880859375
-112.60986328125
-119.0185546875
-118.10302734375
-119.93408203125
-119.0185546875
-119.0185546875
-109.86328125
-111.6943359375
-117.1875
-124.51171875
-124.51171875
-123.59619140625
-120.849609375
-121.76513671875
-119.0185546875
-119.93408203125
-123.59619140625
-121.76513671875
-122.6806640625
-127.25830078125
-126.3427734375
-120.849609375
-123.59619140625
-129.08935546875
-128.173828125
-128.173828125
-132.75146484375
-136.41357421875
-140.07568359375
-140.07568359375
-132.75146484375
-131.8359375
-134.58251953125
-130.0048828125
-127.25830078125
-130.92041015625
-133.6669921875
-135.498046875
-135.498046875
-122.6806640625
-129.08935546875
-130.92041015625
-127.25830078125
-135.498046875
-139.16015625
-141.90673828125
-140.9912109375
-137.3291015625
-133.6669921875
-132.75146484375
-132.75146484375
-131.8359375
-125.42724609375
-128.173828125
-132.75146484375
-136.41357421875
-140.9912109375
-135.498046875
-134.58251953125
-132.75146484375
-136.41357421875
-128.173828125
-127.25830078125
-130.92041015625
-132.75146484375
-130.92041015625
-135.498046875
-134.58251953125
-132.75146484375
-132.75146484375
-135.498046875
-136.41357421875
-140.07568359375
-142.822265625
-146.484375
-141.90673828125
-140.07568359375
-136.41357421875
-134.58251953125
-130.0048828125
-133.6669921875
-140.9912109375
-138.24462890625
-137.3291015625
-139.16015625
-144.6533203125
-147.39990234375
-138.24462890625
-138.24462890625
-143.73779296875
-142.822265625
-144.6533203125
-139.16015625
-138.24462890625
-139.16015625
-137.3291015625
-140.07568359375
-137.3291015625
-137.3291015625
-135.498046875
-133.6669921875
-130.0048828125
-130.92041015625
-132.75146484375
-136.41357421875
-140.9912109375
-143.73779296875
-142.822265625
-137.3291015625
-136.41357421875
-139.16015625
-140.9912109375
-138.24462890625
-136.41357421875
-130.92041015625
-126.3427734375
-120.849609375
-117.1875
-116.27197265625
-112.60986328125
-105.28564453125
-101.62353515625
-97.0458984375
-96.13037109375
-94.29931640625
-97.0458984375
-93.3837890625
-93.3837890625
-92.46826171875
-87.890625
-84.228515625
-75.0732421875
-72.32666015625
-66.83349609375
-67.7490234375
-58.59375
-54.931640625
-62.255859375
-65.91796875
-73.2421875
-75.0732421875
-76.904296875
-81.48193359375
-81.48193359375
-74.15771484375
-68.66455078125
-73.2421875
-72.32666015625
-83.31298828125
-89.7216796875
-104.3701171875
-114.44091796875
-115.3564453125
-126.3427734375
-129.08935546875
-134.58251953125
-137.3291015625
-136.41357421875
-136.41357421875
-136.41357421875
-139.16015625
-139.16015625
-145.56884765625
-145.56884765625
-149.23095703125
-148.3154296875
-148.3154296875
-145.56884765625
-149.23095703125
-144.6533203125
-139.16015625
-142.822265625
-151.9775390625
-149.23095703125
-155.6396484375
-158.38623046875
-153.80859375
-147.39990234375
-142.822265625
-136.41357421875
-136.41357421875
-135.498046875
-136.41357421875
-136.41357421875
-144.6533203125
-150.146484375
-151.06201171875
-163.87939453125
-160.21728515625
-141.90673828125
-108.0322265625
-75.98876953125
-41.19873046875
2.74658203125
73.2421875
199.5849609375
348.81591796875
524.59716796875
728.759765625
914.61181640625
1064.75830078125
1181.94580078125
1250.6103515625
1213.9892578125
1110.53466796875
987.85400390625
765.380859375
460.51025390625
199.5849609375
10.986328125
-91.552734375
-127.25830078125
-132.75146484375
-107.11669921875
-66.83349609375
-43.02978515625
-26.55029296875
-17.39501953125
-10.986328125
-11.90185546875
-21.05712890625
-30.21240234375
-39.36767578125
-53.1005859375
-59.50927734375
-64.0869140625
-62.255859375
-65.00244140625
-66.83349609375
-74.15771484375
-65.91796875
-73.2421875
-74.15771484375
-76.904296875
-80.56640625
-81.48193359375
-80.56640625
-82.3974609375
-75.0732421875
-75.98876953125
-68.66455078125
-60.4248046875
-64.0869140625
-67.7490234375
-66.83349609375
-65.00244140625
-63.17138671875
-62.255859375
-60.4248046875
-65.00244140625
-59.50927734375
-54.931640625
-52.18505859375
-54.01611328125
-52.18505859375
-52.18505859375
-53.1005859375
-48.52294921875
-43.9453125
-41.19873046875
-32.958984375
-26.55029296875
-26.55029296875
-29.296875
-21.97265625
-17.39501953125
-21.97265625
-17.39501953125
-10.986328125
-3.662109375
-2.74658203125
1.8310546875
2.74658203125
4.57763671875
6.40869140625
13.73291015625
19.22607421875
25.634765625
28.38134765625
32.958984375
44.86083984375
51.26953125
52.18505859375
54.01611328125
55.84716796875
62.255859375
69.580078125
84.228515625
90.63720703125
91.552734375
104.3701171875
109.86328125
123.59619140625
133.6669921875
133.6669921875
139.16015625
142.822265625
151.9775390625
162.9638671875
168.45703125
168.45703125
179.443359375
183.10546875
188.5986328125
189.51416015625
192.2607421875
193.17626953125
188.5986328125
195.9228515625
197.75390625
197.75390625
195.00732421875
198.66943359375
186.767578125
179.443359375
173.03466796875
173.03466796875
167.54150390625
158.38623046875
146.484375
136.41357421875
130.92041015625
113.525390625
97.0458984375
80.56640625
65.91796875
53.1005859375
41.19873046875
28.38134765625
20.1416015625
10.07080078125
0
-10.986328125
-22.88818359375
-33.87451171875
-41.19873046875
-48.52294921875
-52.18505859375
-57.67822265625
-62.255859375
-65.91796875
-69.580078125
-72.32666015625
-77.81982421875
-82.3974609375
-86.0595703125
-91.552734375
-92.46826171875
-93.3837890625
-91.552734375
-95.21484375
-94.29931640625
-97.0458984375
-97.96142578125
-100.7080078125
-104.3701171875
-104.3701171875
-99.79248046875
-105.28564453125
-101.62353515625
-98.876953125
-97.96142578125
-104.3701171875
-105.28564453125
-106.201171875
-101.62353515625
-106.201171875
-105.28564453125
-107.11669921875
-103.45458984375
-97.0458984375
-95.21484375
-95.21484375
-98.876953125
-102.5390625
-97.96142578125
-98.876953125
-98.876953125
-102.5390625
-94.29931640625
-93.3837890625
-85.14404296875
-87.890625
-86.97509765625
-85.14404296875
-92.46826171875
-92.46826171875
-87.890625
-87.890625
-82.3974609375
-91.552734375
-97.0458984375
-96.13037109375
-88.80615234375
-89.7216796875
-85.14404296875
-92.46826171875
-88.80615234375
-83.31298828125
-85.14404296875
-79.65087890625
-77.81982421875
-79.65087890625
-79.65087890625
-80.56640625
-80.56640625
-89.7216796875
-92.46826171875
-86.97509765625
-85.14404296875
-84.228515625
-80.56640625
-86.97509765625
-91.552734375
-83.31298828125
-87.890625
-84.228515625
-88.80615234375
-86.0595703125
-82.3974609375
-85.14404296875
-86.97509765625
-88.80615234375
-88.80615234375
-91.552734375
-96.13037109375
-90.63720703125
-93.3837890625
-95.21484375
-86.97509765625
-86.0595703125
-86.97509765625
-87.890625
-86.0595703125
-86.0595703125
-86.0595703125
-96.13037109375
-92.46826171875
-86.0595703125
-86.0595703125
-86.0595703125
-91.552734375
-93.3837890625
-97.0458984375
-97.0458984375
-101.62353515625
-98.876953125
-101.62353515625
-99.79248046875
-100.7080078125
-100.7080078125
-93.3837890625
-102.5390625
-100.7080078125
-99.79248046875
-98.876953125
-95.21484375
-97.96142578125
-93.3837890625
-92.46826171875
-97.0458984375
-105.28564453125
-97.96142578125
-97.0458984375
-101.62353515625
-103.45458984375
-95.21484375
-97.96142578125
-99.79248046875
-103.45458984375
-104.3701171875
-103.45458984375
-100.7080078125
-99.79248046875
-96.13037109375
-96.13037109375
-103.45458984375
-104.3701171875
-103.45458984375
-100.7080078125
-94.29931640625
-96.13037109375
-106.201171875
-101.62353515625
-98.876953125
-98.876953125
-99.79248046875
-104.3701171875
-100.7080078125
-100.7080078125
-97.0458984375
-99.79248046875
-101.62353515625
-102.5390625
-105.28564453125
-107.11669921875
-104.3701171875
-105.28564453125
-102.5390625
-97.0458984375
-99.79248046875
-95.21484375
-100.7080078125
-97.96142578125
-109.86328125
-107.11669921875
-102.5390625
-102.5390625
-97.96142578125
-101.62353515625
-97.96142578125
-94.29931640625
-96.13037109375
-97.96142578125
-100.7080078125
-102.5390625
-103.45458984375
-102.5390625
-99.79248046875
-102.5390625
-99.79248046875
-104.3701171875
-106.201171875
-107.11669921875
-108.0322265625
-103.45458984375
-98.876953125
-103.45458984375
-97.0458984375
-91.552734375
-87.890625
-78.7353515625
-73.2421875
-69.580078125
-65.00244140625
-68.66455078125
-59.50927734375
-52.18505859375
-43.02978515625
-40.283203125
-42.1142578125
-38.4521484375
-44.86083984375
-44.86083984375
-36.62109375
-32.958984375
-32.04345703125
-23.8037109375
-19.22607421875
-14.6484375
-11.90185546875
-9.1552734375
-16.4794921875
-16.4794921875
-23.8037109375
-30.21240234375
-41.19873046875
-39.36767578125
-35.70556640625
-27.4658203125
-28.38134765625
-26.55029296875
-36.62109375
-47.607421875
-54.01611328125
-57.67822265625
-70.49560546875
-78.7353515625
-86.0595703125
-95.21484375
-97.0458984375
-92.46826171875
-90.63720703125
-101.62353515625
-102.5390625
-105.28564453125
-108.94775390625
-102.5390625
-99.79248046875
-103.45458984375
-105.28564453125
-104.3701171875
-103.45458984375
-109.86328125
-105.28564453125
-108.0322265625
-105.28564453125
-107.11669921875
-110.77880859375
-108.94775390625
-105.28564453125
-99.79248046875
-98.876953125
-101.62353515625
-105.28564453125
-108.94775390625
-106.201171875
-101.62353515625
-104.3701171875
-108.94775390625
-112.60986328125
-118.10302734375
-130.0048828125
-125.42724609375
-95.21484375
-51.26953125
-10.07080078125
32.04345703125
93.3837890625
173.9501953125
314.94140625
472.412109375
662.841796875
863.34228515625
1040.95458984375
1164.55078125
1273.49853515625
1319.27490234375
1244.20166015625
1114.19677734375
955.810546875
672.91259765625
346.98486328125
93.3837890625
-50.35400390625
-125.42724609375
-123.59619140625
-80.56640625
-30.21240234375
1.8310546875
21.97265625
40.283203125
38.4521484375
33.87451171875
20.1416015625
9.1552734375
-8.23974609375
-20.1416015625
-24.71923828125
-21.05712890625
-24.71923828125
-26.55029296875
-34.7900390625
-33.87451171875
-42.1142578125
-48.52294921875
-46.69189453125
-46.69189453125
-43.9453125
-45.7763671875
-43.02978515625
-44.86083984375
-39.36767578125
-40.283203125
-42.1142578125
-40.283203125
-46.69189453125
-40.283203125
-36.62109375
-47.607421875
-43.9453125
-35.70556640625
-31.1279296875
-28.38134765625
-22.88818359375
-21.05712890625
-19.22607421875
-16.4794921875
-14.6484375
-12.8173828125
-15.56396484375
-13.73291015625
-12.8173828125
-12.8173828125
-9.1552734375
0
-1.8310546875
1.8310546875
6.40869140625
10.986328125
16.4794921875
22.88818359375
22.88818359375
26.55029296875
33.87451171875
31.1279296875
37.53662109375
32.958984375
36.62109375
43.02978515625
44.86083984375
51.26953125
54.01611328125
55.84716796875
62.255859375
70.49560546875
74.15771484375
86.97509765625
95.21484375
98.876953125
108.0322265625
110.77880859375
118.10302734375
128.173828125
134.58251953125
143.73779296875
151.06201171875
158.38623046875
162.04833984375
169.37255859375
176.69677734375
189.51416015625
189.51416015625
188.5986328125
201.416015625
209.65576171875
220.64208984375
226.13525390625
228.8818359375
232.5439453125
235.29052734375
235.29052734375
237.12158203125
238.95263671875
238.037109375
233.45947265625
235.29052734375
234.375
227.05078125
221.5576171875
217.8955078125
209.65576171875
197.75390625
190.4296875
177.6123046875
157.470703125
145.56884765625
133.6669921875
115.3564453125
100.7080078125
87.890625
75.0732421875
69.580078125
56.7626953125
43.9453125
32.04345703125
18.310546875
4.57763671875
1.8310546875
-4.57763671875
-16.4794921875
-22.88818359375
-34.7900390625
-43.9453125
-50.35400390625
-51.26953125
-59.50927734375
-62.255859375
-67.7490234375
-68.66455078125
-73.2421875
-81.48193359375
-86.0595703125
-84.228515625
-83.31298828125
-86.0595703125
-85.14404296875
-82.3974609375
-83.31298828125
-83.31298828125
-86.0595703125
-84.228515625
-84.228515625
-86.97509765625
-94.29931640625
-95.21484375
-94.29931640625
-89.7216796875
-90.63720703125
-90.63720703125
-91.552734375
-91.552734375
-89.7216796875
-92.46826171875
-97.0458984375
-87.890625
-90.63720703125
-84.228515625
-91.552734375
-93.3837890625
-90.63720703125
-91.552734375
-93.3837890625
-96.13037109375
-88.80615234375
-85.14404296875
-85.14404296875
-82.3974609375
-79.65087890625
-81.48193359375
-82.3974609375
-85.14404296875
-88.80615234375
-96.13037109375
-95.21484375
-89.7216796875
-86.0595703125
-84.228515625
-78.7353515625
-76.904296875
-74.15771484375
-76.904296875
-78.7353515625
-82.3974609375
-78.7353515625
-80.56640625
-85.14404296875
-84.228515625
-73.2421875
-76.904296875
-77.81982421875
-78.7353515625
-79.65087890625
-75.0732421875
-82.3974609375
-79.65087890625
-79.65087890625
-80.56640625
-80.56640625
-77.81982421875
-81.48193359375
-81.48193359375
-83.31298828125
-86.0595703125
-86.97509765625
-88.80615234375
-84.228515625
-85.14404296875
-84.228515625
-81.48193359375
-78.7353515625
-83.31298828125
-91.552734375
-85.14404296875
-85.14404296875
-85.14404296875
-86.97509765625
-92.46826171875
-88.80615234375
-100.7080078125
-95.21484375
-86.0595703125
-85.14404296875
-88.80615234375
-86.97509765625
-78.7353515625
-87.890625
-90.63720703125
-89.7216796875
-86.97509765625
-96.13037109375
-92.46826171875
-98.876953125
-93.3837890625
-91.552734375
-96.13037109375
-100.7080078125
-100.7080078125
-104.3701171875
-101.62353515625
-87.890625
-89.7216796875
-88.80615234375
-86.0595703125
-95.21484375
-90.63720703125
-94.29931640625
-94.29931640625
-92.46826171875
-100.7080078125
-91.552734375
-96.13037109375
-91.552734375
-90.63720703125
-97.0458984375
-100.7080078125
-101.62353515625
-98.876953125
-102.5390625
-102.5390625
-104.3701171875
-100.7080078125
-102.5390625
-104.3701171875
-111.6943359375
-110.77880859375
-107.11669921875
-96.13037109375
-100.7080078125
-103.45458984375
-106.201171875
-106.201171875
-102.5390625
-100.7080078125
-98.876953125
-99.79248046875
-107.11669921875
-101.62353515625
-106.201171875
-101.62353515625
-102.5390625
-100.7080078125
-98.876953125
-99.79248046875
-102.5390625
-104.3701171875
-107.11669921875
-104.3701171875
-106.201171875
-105.28564453125
-102.5390625
-108.94775390625
-104.3701171875
-102.5390625
-102.5390625
-107.11669921875
-110.77880859375
-106.201171875
-106.201171875
-102.5390625
-108.0322265625
-109.86328125
-105.28564453125
-101.62353515625
-106.201171875
-108.94775390625
-107.11669921875
-109.86328125
-110.77880859375
-109.86328125
-113.525390625
-102.5390625
-100.7080078125
-102.5390625
-101.62353515625
-102.5390625
-94.29931640625
-87.890625
-79.65087890625
-75.0732421875
-67.7490234375
-63.17138671875
-57.67822265625
-54.01611328125
-50.35400390625
-54.01611328125
-54.01611328125
-51.26953125
-52.18505859375
-49.4384765625
-43.02978515625
-36.62109375
-26.55029296875
-31.1279296875
-29.296875
-23.8037109375
-35.70556640625
-42.1142578125
-33.87451171875
-39.36767578125
-39.36767578125
-34.7900390625
-37.53662109375
-37.53662109375
-37.53662109375
-41.19873046875
-37.53662109375
-48.52294921875
-54.931640625
-63.17138671875
-77.81982421875
-86.0595703125
-89.7216796875
-97.0458984375
-106.201171875
-102.5390625
-101.62353515625
-101.62353515625
-108.0322265625
-113.525390625
-109.86328125
-108.94775390625
-113.525390625
-114.44091796875
-118.10302734375
-116.27197265625
-118.10302734375
-120.849609375
-122.6806640625
-115.3564453125
-118.10302734375
-120.849609375
-120.849609375
-119.93408203125
-119.93408203125
-118.10302734375
-125.42724609375
-125.42724609375
-110.77880859375
-112.60986328125
-115.3564453125
-107.11669921875
-109.86328125
-114.44091796875
-120.849609375
-125.42724609375
-135.498046875
-140.9912109375
-144.6533203125
-123.59619140625
-92.46826171875
-50.35400390625
-4.57763671875
43.02978515625
106.201171875
221.5576171875
368.0419921875
541.9921875
741.5771484375
927.42919921875
1086.73095703125
1201.171875
1275.32958984375
1255.18798828125
1148.0712890625
1017.15087890625
795.59326171875
483.3984375
214.2333984375
29.296875
-64.0869140625
-101.62353515625
-104.3701171875
-79.65087890625
-42.1142578125
-11.90185546875
-6.40869140625
1.8310546875
4.57763671875
4.57763671875
-0.91552734375
-12.8173828125
-23.8037109375
-32.958984375
-37.53662109375
-40.283203125
-42.1142578125
-46.69189453125
-44.86083984375
-51.26953125
-54.01611328125
-56.7626953125
-55.84716796875
-61.34033203125
-65.00244140625
-65.00244140625
-60.4248046875
-59.50927734375
-62.255859375
-61.34033203125
-60.4248046875
-58.59375
-49.4384765625
-58.59375
-60.4248046875
-48.52294921875
-45.7763671875
-45.7763671875
-43.9453125
-45.7763671875
-45.7763671875
-42.1142578125
-41.19873046875
-35.70556640625
-35.70556640625
-32.958984375
-33.87451171875
-27.4658203125
-20.1416015625
-22.88818359375
-24.71923828125
-18.310546875
-14.6484375
-10.986328125
-10.986328125
-1.8310546875
2.74658203125
2.74658203125
4.57763671875
10.986328125
17.39501953125
15.56396484375
21.05712890625
27.4658203125
35.70556640625
38.4521484375
41.19873046875
46.69189453125
50.35400390625
52.18505859375
54.931640625
58.59375
65.00244140625
75.0732421875
77.81982421875
85.14404296875
85.14404296875
93.3837890625
102.5390625
100.7080078125
107.11669921875
124.51171875
135.498046875
139.16015625
149.23095703125
156.55517578125
157.470703125
159.3017578125
168.45703125
172.119140625
173.9501953125
182.18994140625
184.02099609375
196.83837890625
206.9091796875
205.99365234375
203.2470703125
209.65576171875
212.40234375
207.82470703125
202.33154296875
203.2470703125
205.078125
202.33154296875
200.50048828125
191.34521484375
174.86572265625
172.119140625
157.470703125
145.56884765625
137.3291015625
130.92041015625
116.27197265625
103.45458984375
93.3837890625
86.0595703125
69.580078125
53.1005859375
38.4521484375
21.97265625
10.07080078125
6.40869140625
-9.1552734375
-21.05712890625
-30.21240234375
-41.19873046875
-42.1142578125
-50.35400390625
-54.01611328125
-64.0869140625
-68.66455078125
-70.49560546875
-77.81982421875
-81.48193359375
-79.65087890625
-85.14404296875
-86.97509765625
-90.63720703125
-94.29931640625
-99.79248046875
-108.94775390625
-106.201171875
-103.45458984375
-98.876953125
-97.0458984375
-94.29931640625
-94.29931640625
-97.96142578125
-95.21484375
-99.79248046875
-109.86328125
-107.11669921875
-103.45458984375
-107.11669921875
-108.0322265625
-102.5390625
-97.0458984375
-102.5390625
-107.11669921875
-117.1875
-115.3564453125
-108.0322265625
-105.28564453125
-102.5390625
-95.21484375
-93.3837890625
-94.29931640625
-97.0458984375
-100.7080078125
-100.7080078125
-96.13037109375
-96.13037109375
-99.79248046875
-102.5390625
-95.21484375
-94.29931640625
-95.21484375
-91.552734375
-87.890625
-88.80615234375
-90.63720703125
-93.3837890625
-90.63720703125
-93.3837890625
-92.46826171875
-90.63720703125
-88.80615234375
-85.14404296875
-86.0595703125
-90.63720703125
-88.80615234375
-92.46826171875
-89.7216796875
-90.63720703125
-90.63720703125
-86.97509765625
-89.7216796875
-89.7216796875
-92.46826171875
-97.96142578125
-89.7216796875
-95.21484375
-90.63720703125
-89.7216796875
-86.0595703125
-91.552734375
-89.7216796875
-86.97509765625
-94.29931640625
-91.552734375
-90.63720703125
-88.80615234375
-89.7216796875
-95.21484375
-93.3837890625
-92.46826171875
-94.29931640625
-94.29931640625
-97.0458984375
-99.79248046875
-95.21484375
-89.7216796875
-91.552734375
-92.46826171875
-96.13037109375
-94.29931640625
-92.46826171875
-97.96142578125
-100.7080078125
-97.0458984375
-93.3837890625
-97.96142578125
-103.45458984375
-104.3701171875
-99.79248046875
-103.45458984375
-103.45458984375
-110.77880859375
-116.27197265625
-112.60986328125
-113.525390625
-103.45458984375
-108.0322265625
-110.77880859375
-114.44091796875
-117.1875
-114.44091796875
-107.11669921875
-109.86328125
-108.0322265625
-108.0322265625
-114.44091796875
-121.76513671875
-113.525390625
-112.60986328125
-116.27197265625
-112.60986328125
-114.44091796875
-115.3564453125
-119.0185546875
-115.3564453125
-109.86328125
-117.1875
-119.93408203125
-113.525390625
-110.77880859375
-108.0322265625
-109.86328125
-114.44091796875
-115.3564453125
-119.93408203125
-120.849609375
-120.849609375
-115.3564453125
-118.10302734375
-121.76513671875
-109.86328125
-115.3564453125
-119.93408203125
-125.42724609375
-118.10302734375
-116.27197265625
-114.44091796875
-118.10302734375
-123.59619140625
-124.51171875
-122.6806640625
-123.59619140625
-123.59619140625
-133.6669921875
-137.3291015625
-134.58251953125
-128.173828125
-118.10302734375
-115.3564453125
-110.77880859375
-121.76513671875
-125.42724609375
-123.59619140625
-127.25830078125
-130.92041015625
-128.173828125
-124.51171875
-119.0185546875
-119.93408203125
-115.3564453125
-119.93408203125
-118.10302734375
-125.42724609375
-123.59619140625
-122.6806640625
-122.6806640625
-122.6806640625
-120.849609375
-112.60986328125
-117.1875
-115.3564453125
-113.525390625
-111.6943359375
-108.0322265625
-104.3701171875
-101.62353515625
-103.45458984375
-97.0458984375
-80.56640625
-73.2421875
-75.98876953125
-81.48193359375
-84.228515625
-84.228515625
-75.98876953125
-67.7490234375
-68.66455078125
-64.0869140625
-63.17138671875
-51.26953125
-43.9453125
-43.02978515625
-47.607421875
-50.35400390625
-50.35400390625
-55.84716796875
-57.67822265625
-61.34033203125
-62.255859375
-60.4248046875
-55.84716796875
-60.4248046875
-56.7626953125
-72.32666015625
-86.97509765625
-96.13037109375
-101.62353515625
-100.7080078125
-108.0322265625
-110.77880859375
-119.0185546875
-130.0048828125
-129.08935546875
-127.25830078125
-123.59619140625
-120.849609375
-130.0048828125
-130.0048828125
-122.6806640625
-126.3427734375
-134.58251953125
-137.3291015625
-133.6669921875
-131.8359375
-130.92041015625
-136.41357421875
-133.6669921875
-122.6806640625
-124.51171875
-130.92041015625
-132.75146484375
-133.6669921875
-136.41357421875
-137.3291015625
-138.24462890625
-127.25830078125
-128.173828125
-130.0048828125
-128.173828125
-130.0048828125
-133.6669921875
-137.3291015625
-146.484375
-146.484375
-147.39990234375
-149.23095703125
-127.25830078125
-95.21484375
-58.59375
-23.8037109375
21.05712890625
111.6943359375
251.77001953125
406.494140625
590.51513671875
778.1982421875
948.486328125
1090.39306640625
1200.25634765625
1235.04638671875
1186.5234375
1085.8154296875
927.42919921875
626.220703125
363.46435546875
162.9638671875
21.05712890625
-46.69189453125
-66.83349609375
-95.21484375
-91.552734375
-69.580078125
-48.52294921875
-47.607421875
-45.7763671875
-42.1142578125
-34.7900390625
-27.4658203125
-32.04345703125
-43.02978515625
-50.35400390625
-58.59375
-64.0869140625
-68.66455078125
-73.2421875
-70.49560546875
-65.91796875
-65.00244140625
-66.83349609375
-75.0732421875
-84.228515625
-83.31298828125
-72.32666015625
-72.32666015625
-72.32666015625
-71.4111328125
-74.15771484375
-69.580078125
-69.580078125
-72.32666015625
-70.49560546875
-64.0869140625
-63.17138671875
-64.0869140625
-70.49560546875
-65.00244140625
-63.17138671875
-60.4248046875
-54.01611328125
-48.52294921875
-45.7763671875
-50.35400390625
-43.02978515625
-40.283203125
-38.4521484375
-35.70556640625
-31.1279296875
-28.38134765625
-30.21240234375
-27.4658203125
-30.21240234375
-23.8037109375
-21.97265625
-21.05712890625
-12.8173828125
-12.8173828125
-14.6484375
-11.90185546875
-10.07080078125
-9.1552734375
3.662109375
8.23974609375
15.56396484375
20.1416015625
20.1416015625
23.8037109375
28.38134765625
33.87451171875
43.9453125
51.26953125
53.1005859375
59.50927734375
67.7490234375
72.32666015625
72.32666015625
80.56640625
89.7216796875
102.5390625
108.0322265625
115.3564453125
122.6806640625
130.92041015625
135.498046875
135.498046875
138.24462890625
137.3291015625
145.56884765625
157.470703125
166.6259765625
170.2880859375
170.2880859375
173.9501953125
177.6123046875
184.02099609375
183.10546875
182.18994140625
180.35888671875
184.02099609375
178.52783203125
174.86572265625
174.86572265625
163.87939453125
153.80859375
152.89306640625
144.6533203125
129.08935546875
116.27197265625
105.28564453125
90.63720703125
77.81982421875
66.83349609375
54.01611328125
38.4521484375
22.88818359375
10.07080078125
-2.74658203125
-11.90185546875
-17.39501953125
-26.55029296875
-37.53662109375
-44.86083984375
-55.84716796875
-65.00244140625
-71.4111328125
-76.904296875
-83.31298828125
-87.890625
-92.46826171875
-97.0458984375
-103.45458984375
-109.86328125
-117.1875
-116.27197265625
-120.849609375
-127.25830078125
-124.51171875
-114.44091796875
-113.525390625
-106.201171875
-100.7080078125
-107.11669921875
-109.86328125
-111.6943359375
-114.44091796875
-121.76513671875
-120.849609375
-119.0185546875
-118.10302734375
-119.93408203125
-118.10302734375
-115.3564453125
-117.1875
-123.59619140625
-119.0185546875
-119.93408203125
-119.93408203125
-117.1875
-114.44091796875
-117.1875
-119.93408203125
-124.51171875
-118.10302734375
-115.3564453125
-115.3564453125
-118.10302734375
-119.93408203125
-116.27197265625
-120.849609375
-115.3564453125
-119.0185546875
-115.3564453125
-111.6943359375
-117.1875
-116.27197265625
-111.6943359375
-110.77880859375
-107.11669921875
-109.86328125
-109.86328125
-108.0322265625
-111.6943359375
-108.94775390625
-102.5390625
-104.3701171875
-104.3701171875
-101.62353515625
-107.11669921875
-106.201171875
-103.45458984375
-99.79248046875
-101.62353515625
-102.5390625
-100.7080078125
-95.21484375
-94.29931640625
-102.5390625
-100.7080078125
-98.876953125
-97.0458984375
-96.13037109375
-97.0458984375
-97.96142578125
-98.876953125
-103.45458984375
-105.28564453125
-101.62353515625
-98.876953125
-101.62353515625
-100.7080078125
-104.3701171875
-103.45458984375
-103.45458984375
-107.11669921875
-111.6943359375
-113.525390625
-113.525390625
-110.77880859375
-104.3701171875
-106.201171875
-109.86328125
-108.0322265625
-110.77880859375
-112.60986328125
-112.60986328125
-119.93408203125
-118.10302734375
-116.27197265625
-116.27197265625
-118.10302734375
-116.27197265625
-119.93408203125
-125.42724609375
-123.59619140625
-127.25830078125
-127.25830078125
-129.08935546875
-128.173828125
-129.08935546875
-120.849609375
-118.10302734375
-119.93408203125
-125.42724609375
-122.6806640625
-127.25830078125
-130.0048828125
-133.6669921875
-129.08935546875
-123.59619140625
-122.6806640625
-125.42724609375
-129.08935546875
-129.08935546875
-129.08935546875
-130.0048828125
-124.51171875
-122.6806640625
-123.59619140625
-128.173828125
-125.42724609375
-125.42724609375
-122.6806640625
-124.51171875
-126.3427734375
-122.6806640625
-119.93408203125
-119.93408203125
-122.6806640625
-125.42724609375
-120.849609375
-124.51171875
-124.51171875
-128.173828125
-136.41357421875
-138.24462890625
-134.58251953125
-134.58251953125
-134.58251953125
-128.173828125
-125.42724609375
-130.0048828125
-134.58251953125
-137.3291015625
-135.498046875
-130.0048828125
-129.08935546875
-130.0048828125
-130.0048828125
-128.173828125
-129.08935546875
-128.173828125
-129.08935546875
-130.0048828125
-130.0048828125
-127.25830078125
-132.75146484375
-133.6669921875
-139.16015625
-136.41357421875
-136.41357421875
-130.0048828125
-133.6669921875
-133.6669921875
-131.8359375
-129.08935546875
-130.0048828125
-139.16015625
-136.41357421875
-132.75146484375
-132.75146484375
-128.173828125
-130.0048828125
-129.08935546875
-133.6669921875
-136.41357421875
-137.3291015625
-132.75146484375
-130.92041015625
-129.08935546875
-127.25830078125
-124.51171875
-117.1875
-112.60986328125
-117.1875
-116.27197265625
-105.28564453125
-92.46826171875
-84.228515625
-82.3974609375
-79.65087890625
-81.48193359375
-76.904296875
-83.31298828125
-82.3974609375
-75.98876953125
-75.0732421875
-74.15771484375
-65.91796875
-62.255859375
-51.26953125
-44.86083984375
-43.02978515625
-49.4384765625
-54.931640625
-60.4248046875
-65.00244140625
-76.904296875
-73.2421875
-72.32666015625
-68.66455078125
-68.66455078125
-74.15771484375
-77.81982421875
-81.48193359375
-96.13037109375
-106.201171875
-112.60986328125
-113.525390625
-116.27197265625
-123.59619140625
-123.59619140625
-130.0048828125
-131.8359375
-129.08935546875
-131.8359375
-138.24462890625
-138.24462890625
-142.822265625
-142.822265625
-140.9912109375
-141.90673828125
-140.9912109375
-140.9912109375
-140.07568359375
-140.07568359375
-144.6533203125
-145.56884765625
-144.6533203125
-142.822265625
-141.90673828125
-145.56884765625
-143.73779296875
-143.73779296875
-146.484375
-148.3154296875
-140.07568359375
-133.6669921875
-139.16015625
-136.41357421875
-143.73779296875
-143.73779296875
-148.3154296875
-151.9775390625
-157.470703125
-148.3154296875
-125.42724609375
-86.0595703125
-47.607421875
-3.662109375
54.931640625
148.3154296875
289.306640625
451.35498046875
649.10888671875
845.03173828125
1007.99560546875
1139.83154296875
1237.79296875
1255.18798828125
1179.19921875
1064.75830078125
894.47021484375
595.0927734375
322.265625
104.3701171875
-40.283203125
-105.28564453125
-120.849609375
-109.86328125
-76.904296875
-48.52294921875
-35.70556640625
-29.296875
-26.55029296875
-20.1416015625
-25.634765625
-31.1279296875
-36.62109375
-43.9453125
-48.52294921875
-55.84716796875
-62.255859375
-67.7490234375
-76.904296875
-77.81982421875
-82.3974609375
-78.7353515625
-75.0732421875
-74.15771484375
-75.0732421875
-79.65087890625
-77.81982421875
-75.98876953125
-74.15771484375
-75.98876953125
-78.7353515625
-73.2421875
-71.4111328125
-67.7490234375
-67.7490234375
-70.49560546875
-72.32666015625
-70.49560546875
-67.7490234375
-65.91796875
-61.34033203125
-57.67822265625
-54.931640625
-54.931640625
-46.69189453125
-43.9453125
-39.36767578125
-42.1142578125
-40.283203125
-34.7900390625
-34.7900390625
-38.4521484375
-33.87451171875
-30.21240234375
-21.97265625
-21.97265625
-20.1416015625
-15.56396484375
-15.56396484375
-13.73291015625
-12.8173828125
-5.4931640625
-1.8310546875
1.8310546875
6.40869140625
15.56396484375
17.39501953125
20.1416015625
25.634765625
25.634765625
30.21240234375
42.1142578125
45.7763671875
50.35400390625
56.7626953125
60.4248046875
65.00244140625
71.4111328125
80.56640625
89.7216796875
