ECG
-11.90185546875
1.8310546875
12.8173828125
39.36767578125
15.56396484375
5.4931640625
-4.57763671875
-1.8310546875
9.1552734375
-7.32421875
-14.6484375
-18.310546875
0.91552734375
-3.662109375
-8.23974609375
0.91552734375
-15.56396484375
-21.05712890625
-21.05712890625
-29.296875
-45.7763671875
-49.4384765625
-65.00244140625
-73.2421875
-93.3837890625
-78.7353515625
-65.91796875
-63.17138671875
-65.00244140625
-68.66455078125
-87.890625
-100.7080078125
-105.28564453125
-102.5390625
-97.96142578125
-104.3701171875
-96.13037109375
-90.63720703125
-105.28564453125
-72.32666015625
-65.91796875
-79.65087890625
-96.13037109375
-91.552734375
-86.97509765625
-94.29931640625
-83.31298828125
-72.32666015625
-54.01611328125
-67.7490234375
-66.83349609375
-65.91796875
-91.552734375
-86.97509765625
-93.3837890625
-108.94775390625
-114.44091796875
-120.849609375
-114.44091796875
-66.83349609375
-28.38134765625
13.73291015625
63.17138671875
114.44091796875
217.8955078125
374.45068359375
554.8095703125
758.056640625
975.03662109375
1169.12841796875
1305.5419921875
1388.85498046875
1345.8251953125
1241.455078125
1094.05517578125
877.0751953125
558.4716796875
291.1376953125
111.6943359375
2.74658203125
-23.8037109375
-31.1279296875
-35.70556640625
-11.90185546875
14.6484375
38.4521484375
43.9453125
43.9453125
59.50927734375
57.67822265625
37.53662109375
36.62109375
33.87451171875
10.986328125
-9.1552734375
-15.56396484375
-10.986328125
-18.310546875
-24.71923828125
-21.05712890625
-7.32421875
-3.662109375
18.310546875
10.07080078125
15.56396484375
-8.23974609375
-24.71923828125
-14.6484375
-9.1552734375
0
12.8173828125
0
8.23974609375
21.05712890625
10.07080078125
7.32421875
0
-26.55029296875
-28.38134765625
-11.90185546875
4.57763671875
-8.23974609375
-1.8310546875
15.56396484375
10.07080078125
14.6484375
3.662109375
2.74658203125
15.56396484375
12.8173828125
19.22607421875
29.296875
23.8037109375
28.38134765625
21.05712890625
23.8037109375
43.9453125
51.26953125
39.36767578125
37.53662109375
43.02978515625
68.66455078125
83.31298828125
78.7353515625
92.46826171875
92.46826171875
82.3974609375
92.46826171875
89.7216796875
75.98876953125
82.3974609375
98.876953125
113.525390625
121.76513671875
132.75146484375
135.498046875
127.25830078125
141.90673828125
146.484375
172.119140625
172.119140625
170.2880859375
178.52783203125
193.17626953125
208.740234375
207.82470703125
193.17626953125
210.5712890625
216.97998046875
216.97998046875
238.037109375
259.09423828125
280.1513671875
282.89794921875
275.57373046875
265.5029296875
260.92529296875
271.91162109375
284.72900390625
291.1376953125
282.89794921875
270.99609375
267.333984375
264.58740234375
259.09423828125
248.10791015625
227.96630859375
208.740234375
180.35888671875
157.470703125
159.3017578125
162.9638671875
170.2880859375
144.6533203125
123.59619140625
93.3837890625
73.2421875
75.98876953125
73.2421875
66.83349609375
60.4248046875
47.607421875
24.71923828125
0
-12.8173828125
-10.07080078125
-15.56396484375
-27.4658203125
-41.19873046875
-47.607421875
-40.283203125
-19.22607421875
-49.4384765625
-70.49560546875
-96.13037109375
-127.25830078125
-135.498046875
-118.10302734375
-56.7626953125
-45.7763671875
-71.4111328125
-56.7626953125
-62.255859375
-68.66455078125
-88.80615234375
-82.3974609375
-45.7763671875
-55.84716796875
-79.65087890625
-92.46826171875
-107.11669921875
-97.96142578125
-89.7216796875
-56.7626953125
-49.4384765625
-55.84716796875
-56.7626953125
-70.49560546875
-86.0595703125
-86.0595703125
-87.890625
-71.4111328125
-53.1005859375
-54.931640625
-62.255859375
-65.00244140625
-73.2421875
-72.32666015625
-74.15771484375
-68.66455078125
-60.4248046875
-75.98876953125
-69.580078125
-63.17138671875
-83.31298828125
-99.79248046875
-102.5390625
-60.4248046875
-43.9453125
-44.86083984375
-56.7626953125
-59.50927734375
-54.931640625
-52.18505859375
-71.4111328125
-83.31298828125
-86.0595703125
-79.65087890625
-65.00244140625
-69.580078125
-35.70556640625
-18.310546875
-26.55029296875
-45.7763671875
-54.931640625
-65.00244140625
-80.56640625
-83.31298828125
-59.50927734375
-54.01611328125
-73.2421875
-67.7490234375
-64.0869140625
-70.49560546875
-74.15771484375
-78.7353515625
-74.15771484375
-63.17138671875
-66.83349609375
-72.32666015625
-89.7216796875
-92.46826171875
-78.7353515625
-55.84716796875
-43.9453125
-46.69189453125
-52.18505859375
-45.7763671875
-54.931640625
-59.50927734375
-82.3974609375
-82.3974609375
-59.50927734375
-54.01611328125
-65.00244140625
-41.19873046875
-55.84716796875
-57.67822265625
-62.255859375
-71.4111328125
-71.4111328125
-64.0869140625
-75.98876953125
-76.904296875
-81.48193359375
-72.32666015625
-79.65087890625
-79.65087890625
-68.66455078125
-78.7353515625
-94.29931640625
-103.45458984375
-108.94775390625
-104.3701171875
-79.65087890625
-74.15771484375
-92.46826171875
-117.1875
-132.75146484375
-130.92041015625
-86.97509765625
-61.34033203125
-29.296875
-56.7626953125
-94.29931640625
-114.44091796875
-97.96142578125
-61.34033203125
-43.02978515625
-43.02978515625
-54.931640625
-69.580078125
-74.15771484375
-77.81982421875
-86.0595703125
-86.0595703125
-79.65087890625
-60.4248046875
-63.17138671875
-58.59375
-54.931640625
-42.1142578125
-39.36767578125
-45.7763671875
-34.7900390625
-23.8037109375
-23.8037109375
-38.4521484375
-43.9453125
-45.7763671875
-66.83349609375
-51.26953125
-36.62109375
-29.296875
-16.4794921875
-32.04345703125
-24.71923828125
-19.22607421875
0.91552734375
17.39501953125
-1.8310546875
-20.1416015625
-35.70556640625
-38.4521484375
-31.1279296875
-29.296875
-25.634765625
-16.4794921875
-19.22607421875
-31.1279296875
-55.84716796875
-61.34033203125
-70.49560546875
-78.7353515625
-89.7216796875
-88.80615234375
-103.45458984375
-94.29931640625
-95.21484375
-97.96142578125
-107.11669921875
-108.0322265625
-113.525390625
-126.3427734375
-115.3564453125
-102.5390625
-61.34033203125
-53.1005859375
-66.83349609375
-73.2421875
-63.17138671875
-92.46826171875
-118.10302734375
-101.62353515625
-87.890625
-74.15771484375
-77.81982421875
-80.56640625
-83.31298828125
-77.81982421875
-75.0732421875
-75.98876953125
-86.97509765625
-81.48193359375
-78.7353515625
-83.31298828125
-92.46826171875
-102.5390625
-118.10302734375
-135.498046875
-150.146484375
-164.794921875
-143.73779296875
-85.14404296875
-18.310546875
26.55029296875
55.84716796875
101.62353515625
184.02099609375
313.1103515625
451.35498046875
639.0380859375
883.48388671875
1102.294921875
1275.32958984375
1400.7568359375
1413.57421875
1297.30224609375
1144.4091796875
927.42919921875
645.44677734375
380.859375
165.71044921875
26.55029296875
-45.7763671875
-68.66455078125
-59.50927734375
-25.634765625
10.07080078125
25.634765625
32.958984375
35.70556640625
31.1279296875
38.4521484375
37.53662109375
30.21240234375
25.634765625
12.8173828125
-3.662109375
1.8310546875
10.07080078125
15.56396484375
2.74658203125
-9.1552734375
-18.310546875
-13.73291015625
-2.74658203125
0
-2.74658203125
-10.07080078125
-17.39501953125
-19.22607421875
-17.39501953125
-16.4794921875
0
3.662109375
-10.986328125
-39.36767578125
-32.04345703125
-20.1416015625
-32.958984375
-36.62109375
-14.6484375
-11.90185546875
-4.57763671875
8.23974609375
17.39501953125
29.296875
39.36767578125
28.38134765625
19.22607421875
2.74658203125
-23.8037109375
-24.71923828125
9.1552734375
36.62109375
37.53662109375
25.634765625
26.55029296875
34.7900390625
56.7626953125
78.7353515625
67.7490234375
65.00244140625
56.7626953125
69.580078125
74.15771484375
75.0732421875
70.49560546875
80.56640625
88.80615234375
101.62353515625
93.3837890625
105.28564453125
105.28564453125
110.77880859375
108.0322265625
119.93408203125
124.51171875
130.0048828125
127.25830078125
143.73779296875
125.42724609375
109.86328125
118.10302734375
134.58251953125
167.54150390625
208.740234375
234.375
257.26318359375
248.10791015625
258.1787109375
260.009765625
259.09423828125
248.10791015625
243.5302734375
250.8544921875
259.09423828125
258.1787109375
282.89794921875
287.4755859375
290.22216796875
287.4755859375
281.982421875
285.64453125
273.74267578125
271.91162109375
264.58740234375
256.34765625
261.8408203125
256.34765625
246.27685546875
229.79736328125
203.2470703125
171.20361328125
146.484375
140.07568359375
137.3291015625
130.0048828125
119.93408203125
102.5390625
80.56640625
55.84716796875
53.1005859375
66.83349609375
69.580078125
55.84716796875
24.71923828125
17.39501953125
3.662109375
-16.4794921875
-15.56396484375
-17.39501953125
-4.57763671875
-14.6484375
-22.88818359375
-35.70556640625
-49.4384765625
-58.59375
-60.4248046875
-62.255859375
-53.1005859375
-55.84716796875
-59.50927734375
-55.84716796875
-63.17138671875
-66.83349609375
-71.4111328125
-76.904296875
-88.80615234375
-94.29931640625
-92.46826171875
-90.63720703125
-81.48193359375
-61.34033203125
-59.50927734375
-59.50927734375
-59.50927734375
-69.580078125
-71.4111328125
-87.890625
-108.0322265625
-113.525390625
-104.3701171875
-74.15771484375
-50.35400390625
-61.34033203125
-69.580078125
-65.00244140625
-79.65087890625
-86.0595703125
-80.56640625
-73.2421875
-50.35400390625
-41.19873046875
-65.00244140625
-67.7490234375
-64.0869140625
-62.255859375
-65.00244140625
-64.0869140625
-61.34033203125
-57.67822265625
-51.26953125
-66.83349609375
-69.580078125
-59.50927734375
-58.59375
-55.84716796875
-63.17138671875
-64.0869140625
-60.4248046875
-65.00244140625
-65.00244140625
-72.32666015625
-66.83349609375
-67.7490234375
-75.98876953125
-61.34033203125
-66.83349609375
-67.7490234375
-72.32666015625
-53.1005859375
-57.67822265625
-70.49560546875
-67.7490234375
-69.580078125
-74.15771484375
-74.15771484375
-61.34033203125
-67.7490234375
-79.65087890625
-74.15771484375
-78.7353515625
-82.3974609375
-88.80615234375
-75.98876953125
-75.98876953125
-84.228515625
-80.56640625
-88.80615234375
-85.14404296875
-82.3974609375
-81.48193359375
-86.97509765625
-88.80615234375
-83.31298828125
-79.65087890625
-78.7353515625
-80.56640625
-76.904296875
-78.7353515625
-84.228515625
-92.46826171875
-104.3701171875
-84.228515625
-82.3974609375
-92.46826171875
-82.3974609375
-82.3974609375
-96.13037109375
-91.552734375
-86.97509765625
-81.48193359375
-98.876953125
-81.48193359375
-89.7216796875
-102.5390625
-107.11669921875
-105.28564453125
-92.46826171875
-97.0458984375
-91.552734375
-79.65087890625
-80.56640625
-94.29931640625
-98.876953125
-109.86328125
-105.28564453125
-95.21484375
-99.79248046875
-101.62353515625
-109.86328125
-116.27197265625
-109.86328125
-104.3701171875
-92.46826171875
-93.3837890625
-87.890625
-77.81982421875
-73.2421875
-84.228515625
-97.96142578125
-93.3837890625
-113.525390625
-110.77880859375
-89.7216796875
-71.4111328125
-77.81982421875
-84.228515625
-82.3974609375
-96.13037109375
-110.77880859375
-111.6943359375
-113.525390625
-85.14404296875
-32.04345703125
-2.74658203125
-34.7900390625
-54.01611328125
-32.04345703125
-19.22607421875
-42.1142578125
-33.87451171875
-42.1142578125
-60.4248046875
-51.26953125
-54.01611328125
-66.83349609375
-64.0869140625
-54.01611328125
-59.50927734375
-52.18505859375
-33.87451171875
-26.55029296875
-28.38134765625
-43.02978515625
-53.1005859375
-68.66455078125
-78.7353515625
-96.13037109375
-91.552734375
-101.62353515625
-108.0322265625
-109.86328125
-119.0185546875
-100.7080078125
-99.79248046875
-104.3701171875
-108.0322265625
-100.7080078125
-114.44091796875
-119.93408203125
-112.60986328125
-99.79248046875
-113.525390625
-115.3564453125
-118.10302734375
-110.77880859375
-103.45458984375
-115.3564453125
-120.849609375
-130.0048828125
-135.498046875
-129.08935546875
-128.173828125
-129.08935546875
-121.76513671875
-122.6806640625
-114.44091796875
-105.28564453125
-113.525390625
-108.0322265625
-120.849609375
-134.58251953125
-139.16015625
-165.71044921875
-172.119140625
-147.39990234375
-130.92041015625
-88.80615234375
-34.7900390625
7.32421875
51.26953125
151.9775390625
311.279296875
495.30029296875
694.88525390625
900.87890625
1118.7744140625
1278.076171875
1366.88232421875
1365.05126953125
1242.37060546875
1085.8154296875
874.32861328125
585.02197265625
328.67431640625
150.146484375
17.39501953125
-56.7626953125
-98.876953125
-101.62353515625
-68.66455078125
-33.87451171875
-10.986328125
1.8310546875
7.32421875
24.71923828125
31.1279296875
32.958984375
19.22607421875
13.73291015625
-5.4931640625
-21.05712890625
-27.4658203125
-43.9453125
-46.69189453125
-41.19873046875
-37.53662109375
-37.53662109375
-37.53662109375
-47.607421875
-50.35400390625
-48.52294921875
-52.18505859375
-49.4384765625
-52.18505859375
-50.35400390625
-37.53662109375
-39.36767578125
-41.19873046875
-34.7900390625
-24.71923828125
-38.4521484375
-43.02978515625
-29.296875
-25.634765625
-22.88818359375
-33.87451171875
-21.05712890625
-21.97265625
-32.04345703125
-40.283203125
-35.70556640625
-2.74658203125
-9.1552734375
-5.4931640625
1.8310546875
12.8173828125
5.4931640625
-3.662109375
0.91552734375
5.4931640625
-0.91552734375
5.4931640625
10.986328125
8.23974609375
9.1552734375
25.634765625
34.7900390625
40.283203125
36.62109375
40.283203125
54.01611328125
55.84716796875
51.26953125
54.01611328125
65.00244140625
71.4111328125
78.7353515625
89.7216796875
90.63720703125
103.45458984375
92.46826171875
103.45458984375
108.94775390625
133.6669921875
136.41357421875
149.23095703125
158.38623046875
173.03466796875
179.443359375
184.02099609375
190.4296875
187.68310546875
197.75390625
213.31787109375
220.64208984375
236.2060546875
228.8818359375
234.375
237.12158203125
215.14892578125
226.13525390625
249.0234375
265.5029296875
275.57373046875
285.64453125
276.4892578125
277.40478515625
278.3203125
286.56005859375
291.1376953125
284.72900390625
275.57373046875
259.09423828125
251.77001953125
233.45947265625
222.47314453125
203.2470703125
184.9365234375
166.6259765625
140.07568359375
115.3564453125
115.3564453125
118.10302734375
109.86328125
88.80615234375
73.2421875
52.18505859375
50.35400390625
36.62109375
24.71923828125
6.40869140625
0.91552734375
-9.1552734375
-9.1552734375
-11.90185546875
-13.73291015625
-16.4794921875
-26.55029296875
-31.1279296875
-40.283203125
-43.9453125
-44.86083984375
-57.67822265625
-59.50927734375
-51.26953125
-59.50927734375
-59.50927734375
-57.67822265625
-53.1005859375
-71.4111328125
-74.15771484375
-63.17138671875
-70.49560546875
-69.580078125
-60.4248046875
-61.34033203125
-60.4248046875
-59.50927734375
-65.00244140625
-73.2421875
-72.32666015625
-83.31298828125
-71.4111328125
-67.7490234375
-76.904296875
-68.66455078125
-70.49560546875
-72.32666015625
-69.580078125
-65.00244140625
-52.18505859375
-52.18505859375
-37.53662109375
-37.53662109375
-41.19873046875
-63.17138671875
-75.0732421875
-64.0869140625
-57.67822265625
-55.84716796875
-42.1142578125
-48.52294921875
-43.9453125
-39.36767578125
-51.26953125
-49.4384765625
-49.4384765625
-53.1005859375
-49.4384765625
-58.59375
-56.7626953125
-56.7626953125
-68.66455078125
-58.59375
-55.84716796875
-55.84716796875
-51.26953125
-49.4384765625
-49.4384765625
-50.35400390625
-36.62109375
-34.7900390625
-37.53662109375
-41.19873046875
-43.02978515625
-40.283203125
-37.53662109375
-42.1142578125
-48.52294921875
-46.69189453125
-56.7626953125
-62.255859375
-54.931640625
-66.83349609375
-55.84716796875
-41.19873046875
-31.1279296875
-42.1142578125
-50.35400390625
-50.35400390625
-43.02978515625
-52.18505859375
-58.59375
-64.0869140625
-74.15771484375
-63.17138671875
-64.0869140625
-67.7490234375
-63.17138671875
-57.67822265625
-52.18505859375
-54.931640625
-61.34033203125
-57.67822265625
-65.91796875
-63.17138671875
-71.4111328125
-75.0732421875
-68.66455078125
-61.34033203125
-65.00244140625
-72.32666015625
-69.580078125
-75.0732421875
-65.91796875
-71.4111328125
-79.65087890625
-59.50927734375
-63.17138671875
-65.91796875
-71.4111328125
-82.3974609375
-83.31298828125
-83.31298828125
-79.65087890625
-81.48193359375
-75.0732421875
-68.66455078125
-68.66455078125
-67.7490234375
-72.32666015625
-72.32666015625
-65.91796875
-67.7490234375
-66.83349609375
-71.4111328125
-60.4248046875
-58.59375
-62.255859375
-58.59375
-61.34033203125
-59.50927734375
-52.18505859375
-39.36767578125
-34.7900390625
-32.958984375
-29.296875
-26.55029296875
-28.38134765625
-29.296875
-28.38134765625
-29.296875
-27.4658203125
-21.97265625
-14.6484375
-17.39501953125
-9.1552734375
-9.1552734375
-4.57763671875
-5.4931640625
-4.57763671875
-14.6484375
-31.1279296875
-39.36767578125
-42.1142578125
-33.87451171875
-27.4658203125
-23.8037109375
-21.97265625
-41.19873046875
-46.69189453125
-53.1005859375
-45.7763671875
-50.35400390625
-47.607421875
-48.52294921875
-64.0869140625
-73.2421875
-69.580078125
-75.98876953125
-84.228515625
-85.14404296875
-77.81982421875
-83.31298828125
-87.890625
-87.890625
-94.29931640625
-89.7216796875
-91.552734375
-94.29931640625
-95.21484375
-89.7216796875
-90.63720703125
-94.29931640625
-91.552734375
-86.97509765625
-84.228515625
-97.96142578125
-107.11669921875
-109.86328125
-103.45458984375
-92.46826171875
-86.97509765625
-85.14404296875
-93.3837890625
-90.63720703125
-89.7216796875
-90.63720703125
-86.97509765625
-90.63720703125
-111.6943359375
-130.92041015625
-134.58251953125
-108.94775390625
-65.00244140625
-21.05712890625
23.8037109375
67.7490234375
147.39990234375
288.39111328125
466.00341796875
657.3486328125
861.51123046875
1086.73095703125
1261.5966796875
1377.86865234375
1385.19287109375
1285.400390625
1135.25390625
939.3310546875
639.95361328125
375.3662109375
180.35888671875
38.4521484375
-40.283203125
-65.00244140625
-79.65087890625
-58.59375
-19.22607421875
2.74658203125
12.8173828125
21.97265625
21.05712890625
23.8037109375
22.88818359375
12.8173828125
14.6484375
-0.91552734375
-4.57763671875
-14.6484375
-13.73291015625
-19.22607421875
-25.634765625
-26.55029296875
-29.296875
-28.38134765625
-26.55029296875
-21.97265625
-24.71923828125
-33.87451171875
-34.7900390625
-32.958984375
-27.4658203125
-29.296875
-28.38134765625
-24.71923828125
-26.55029296875
-22.88818359375
-21.05712890625
-10.986328125
-16.4794921875
-21.05712890625
-22.88818359375
-18.310546875
-15.56396484375
-9.1552734375
-4.57763671875
0
-5.4931640625
-7.32421875
3.662109375
-5.4931640625
-0.91552734375
0.91552734375
5.4931640625
17.39501953125
21.97265625
17.39501953125
21.97265625
14.6484375
25.634765625
39.36767578125
41.19873046875
36.62109375
47.607421875
44.86083984375
61.34033203125
61.34033203125
57.67822265625
65.91796875
76.904296875
89.7216796875
83.31298828125
85.14404296875
78.7353515625
75.0732421875
77.81982421875
95.21484375
119.0185546875
130.92041015625
144.6533203125
152.89306640625
162.9638671875
181.2744140625
177.6123046875
185.85205078125
189.51416015625
187.68310546875
188.5986328125
199.5849609375
215.14892578125
230.712890625
239.8681640625
246.27685546875
250.8544921875
256.34765625
262.75634765625
267.333984375
268.24951171875
270.99609375
272.8271484375
277.40478515625
276.4892578125
280.1513671875
285.64453125
281.06689453125
273.74267578125
269.1650390625
263.671875
260.92529296875
246.27685546875
236.2060546875
224.30419921875
212.40234375
197.75390625
188.5986328125
178.52783203125
155.6396484375
139.16015625
118.10302734375
101.62353515625
87.890625
75.0732421875
57.67822265625
43.02978515625
39.36767578125
33.87451171875
22.88818359375
5.4931640625
0
-9.1552734375
-18.310546875
-21.05712890625
-31.1279296875
-36.62109375
-38.4521484375
-42.1142578125
-47.607421875
-54.931640625
-57.67822265625
-51.26953125
-58.59375
-73.2421875
-77.81982421875
-74.15771484375
-77.81982421875
-82.3974609375
-81.48193359375
-81.48193359375
-82.3974609375
-76.904296875
-71.4111328125
-76.904296875
-77.81982421875
-71.4111328125
-78.7353515625
-80.56640625
-79.65087890625
-86.0595703125
-86.0595703125
-81.48193359375
-82.3974609375
-73.2421875
-73.2421875
-75.0732421875
-82.3974609375
-78.7353515625
-74.15771484375
-71.4111328125
-80.56640625
-80.56640625
-83.31298828125
-78.7353515625
-68.66455078125
-69.580078125
-71.4111328125
-71.4111328125
-66.83349609375
-68.66455078125
-65.00244140625
-62.255859375
-70.49560546875
-75.98876953125
-71.4111328125
-67.7490234375
-64.0869140625
-61.34033203125
-64.0869140625
-63.17138671875
-66.83349609375
-67.7490234375
-60.4248046875
-58.59375
-54.01611328125
-62.255859375
-63.17138671875
-62.255859375
-71.4111328125
-65.00244140625
-55.84716796875
-56.7626953125
-56.7626953125
-67.7490234375
-75.0732421875
-82.3974609375
-83.31298828125
-82.3974609375
-66.83349609375
-61.34033203125
-68.66455078125
-75.0732421875
-72.32666015625
-67.7490234375
-65.00244140625
-69.580078125
-71.4111328125
-65.91796875
-68.66455078125
-71.4111328125
-82.3974609375
-85.14404296875
-87.890625
-95.21484375
-98.876953125
-97.96142578125
-99.79248046875
-104.3701171875
-97.96142578125
-97.0458984375
-98.876953125
-107.11669921875
-124.51171875
-123.59619140625
-99.79248046875
-75.98876953125
-55.84716796875
-41.19873046875
-32.04345703125
-45.7763671875
-57.67822265625
-73.2421875
-72.32666015625
-71.4111328125
-73.2421875
-80.56640625
-79.65087890625
-78.7353515625
-78.7353515625
-80.56640625
-85.14404296875
-90.63720703125
-87.890625
-93.3837890625
-89.7216796875
-90.63720703125
-96.13037109375
-97.96142578125
-99.79248046875
-96.13037109375
-97.0458984375
-92.46826171875
-96.13037109375
-97.96142578125
-98.876953125
-96.13037109375
-97.96142578125
-101.62353515625
-99.79248046875
-103.45458984375
-103.45458984375
-106.201171875
-116.27197265625
-112.60986328125
-107.11669921875
-102.5390625
-100.7080078125
-92.46826171875
-88.80615234375
-89.7216796875
-94.29931640625
-88.80615234375
-81.48193359375
-72.32666015625
-65.91796875
-55.84716796875
-48.52294921875
-40.283203125
-40.283203125
-54.931640625
-65.00244140625
-78.7353515625
-77.81982421875
-66.83349609375
-68.66455078125
-56.7626953125
-39.36767578125
-26.55029296875
-28.38134765625
-29.296875
-34.7900390625
-47.607421875
-56.7626953125
-56.7626953125
-46.69189453125
-44.86083984375
-40.283203125
-35.70556640625
-44.86083984375
-57.67822265625
-64.0869140625
-73.2421875
-82.3974609375
-88.80615234375
-98.876953125
-102.5390625
-100.7080078125
-100.7080078125
-94.29931640625
-104.3701171875
-109.86328125
-111.6943359375
-120.849609375
-135.498046875
-135.498046875
-135.498046875
-125.42724609375
-116.27197265625
-115.3564453125
-101.62353515625
-94.29931640625
-103.45458984375
-117.1875
-120.849609375
-124.51171875
-129.08935546875
-131.8359375
-129.08935546875
-120.849609375
-117.1875
-114.44091796875
-119.0185546875
-116.27197265625
-115.3564453125
-114.44091796875
-113.525390625
-112.60986328125
-115.3564453125
-119.93408203125
-131.8359375
-144.6533203125
-151.9775390625
-135.498046875
-96.13037109375
-53.1005859375
-5.4931640625
43.02978515625
112.60986328125
234.375
387.26806640625
559.38720703125
765.380859375
974.12109375
1159.0576171875
1294.5556640625
1362.3046875
1335.75439453125
1207.58056640625
1045.5322265625
803.8330078125
506.28662109375
258.1787109375
72.32666015625
-30.21240234375
-84.228515625
-99.79248046875
-77.81982421875
-26.55029296875
3.662109375
7.32421875
5.4931640625
3.662109375
10.986328125
13.73291015625
13.73291015625
8.23974609375
4.57763671875
-7.32421875
-18.310546875
-24.71923828125
-28.38134765625
-35.70556640625
-39.36767578125
-40.283203125
-42.1142578125
-42.1142578125
-39.36767578125
-39.36767578125
-36.62109375
-36.62109375
-43.02978515625
-37.53662109375
-39.36767578125
-43.02978515625
-42.1142578125
-43.02978515625
-43.02978515625
-44.86083984375
-38.4521484375
-33.87451171875
-35.70556640625
-31.1279296875
-26.55029296875
-23.8037109375
-24.71923828125
-24.71923828125
-17.39501953125
-8.23974609375
-10.986328125
-16.4794921875
-8.23974609375
-7.32421875
-10.986328125
-9.1552734375
-2.74658203125
9.1552734375
11.90185546875
3.662109375
5.4931640625
4.57763671875
0.91552734375
13.73291015625
24.71923828125
28.38134765625
37.53662109375
47.607421875
50.35400390625
56.7626953125
58.59375
64.0869140625
59.50927734375
54.01611328125
60.4248046875
61.34033203125
78.7353515625
89.7216796875
97.96142578125
101.62353515625
102.5390625
116.27197265625
120.849609375
132.75146484375
140.07568359375
153.80859375
163.87939453125
169.37255859375
172.119140625
176.69677734375
179.443359375
201.416015625
211.48681640625
211.48681640625
212.40234375
219.7265625
229.79736328125
229.79736328125
235.29052734375
248.10791015625
257.26318359375
249.93896484375
240.78369140625
238.95263671875
248.10791015625
256.34765625
270.99609375
277.40478515625
275.57373046875
270.99609375
260.009765625
253.60107421875
239.8681640625
221.5576171875
206.9091796875
189.51416015625
185.85205078125
174.86572265625
162.04833984375
156.55517578125
149.23095703125
127.25830078125
111.6943359375
93.3837890625
67.7490234375
56.7626953125
50.35400390625
33.87451171875
22.88818359375
10.07080078125
4.57763671875
-10.07080078125
-30.21240234375
-29.296875
-22.88818359375
-28.38134765625
-29.296875
-36.62109375
-51.26953125
-65.00244140625
-65.91796875
-65.91796875
-61.34033203125
-65.00244140625
-65.00244140625
-67.7490234375
-81.48193359375
-95.21484375
-101.62353515625
-96.13037109375
-93.3837890625
-85.14404296875
-69.580078125
-63.17138671875
-64.0869140625
-79.65087890625
-89.7216796875
-96.13037109375
-103.45458984375
-107.11669921875
-95.21484375
-86.0595703125
-82.3974609375
-71.4111328125
-68.66455078125
-71.4111328125
-70.49560546875
-63.17138671875
-65.91796875
-67.7490234375
-64.0869140625
-66.83349609375
-63.17138671875
-63.17138671875
-59.50927734375
-57.67822265625
-72.32666015625
-57.67822265625
-55.84716796875
-39.36767578125
-48.52294921875
-46.69189453125
-59.50927734375
-73.2421875
-77.81982421875
-74.15771484375
-69.580078125
-64.0869140625
-57.67822265625
-64.0869140625
-71.4111328125
-77.81982421875
-79.65087890625
-71.4111328125
-64.0869140625
-65.00244140625
-56.7626953125
-51.26953125
-68.66455078125
-70.49560546875
-65.00244140625
-61.34033203125
-65.00244140625
-68.66455078125
-65.00244140625
-69.580078125
-65.00244140625
-70.49560546875
-73.2421875
-75.0732421875
-74.15771484375
-74.15771484375
-74.15771484375
-79.65087890625
-73.2421875
-70.49560546875
-69.580078125
-53.1005859375
-57.67822265625
-66.83349609375
-63.17138671875
-75.0732421875
-77.81982421875
-87.890625
-87.890625
-79.65087890625
-77.81982421875
-72.32666015625
-76.904296875
-82.3974609375
-90.63720703125
-92.46826171875
-90.63720703125
-96.13037109375
-89.7216796875
-78.7353515625
-76.904296875
-75.98876953125
-86.97509765625
-84.228515625
-87.890625
-87.890625
-76.904296875
-67.7490234375
-87.890625
-83.31298828125
-79.65087890625
-94.29931640625
-94.29931640625
-90.63720703125
-86.97509765625
-85.14404296875
-89.7216796875
-85.14404296875
-85.14404296875
-89.7216796875
-100.7080078125
-98.876953125
-93.3837890625
-93.3837890625
-95.21484375
-89.7216796875
-88.80615234375
-86.0595703125
-81.48193359375
-88.80615234375
-92.46826171875
-93.3837890625
-80.56640625
-65.91796875
-73.2421875
-77.81982421875
-74.15771484375
-65.91796875
-68.66455078125
-72.32666015625
-58.59375
-58.59375
-52.18505859375
-54.931640625
-65.00244140625
-50.35400390625
-43.02978515625
-44.86083984375
-32.04345703125
-46.69189453125
-39.36767578125
-38.4521484375
-34.7900390625
-33.87451171875
-37.53662109375
-41.19873046875
-54.931640625
-62.255859375
-50.35400390625
-36.62109375
-32.04345703125
-36.62109375
-38.4521484375
-47.607421875
-65.00244140625
-75.98876953125
-84.228515625
-79.65087890625
-79.65087890625
-93.3837890625
-102.5390625
-109.86328125
-102.5390625
-92.46826171875
-88.80615234375
-106.201171875
-111.6943359375
-110.77880859375
-99.79248046875
-92.46826171875
-98.876953125
-101.62353515625
-110.77880859375
-112.60986328125
-111.6943359375
-125.42724609375
-123.59619140625
-111.6943359375
-104.3701171875
-102.5390625
-104.3701171875
-108.0322265625
-97.96142578125
-97.96142578125
-103.45458984375
-115.3564453125
-112.60986328125
-110.77880859375
-118.10302734375
-119.0185546875
-104.3701171875
-106.201171875
-109.86328125
-121.76513671875
-132.75146484375
-140.9912109375
-128.173828125
-107.11669921875
-75.0732421875
-18.310546875
37.53662109375
129.08935546875
270.99609375
436.70654296875
617.0654296875
826.72119140625
1024.47509765625
1159.97314453125
1278.99169921875
1314.697265625
1263.427734375
1158.14208984375
1006.16455078125
715.02685546875
442.19970703125
236.2060546875
81.48193359375
0
-15.56396484375
-32.958984375
-47.607421875
-54.01611328125
-30.21240234375
-12.8173828125
-9.1552734375
-15.56396484375
-10.07080078125
-1.8310546875
-5.4931640625
-10.07080078125
-25.634765625
-40.283203125
-54.931640625
-49.4384765625
-41.19873046875
-38.4521484375
-37.53662109375
-37.53662109375
-35.70556640625
-41.19873046875
-42.1142578125
-38.4521484375
-36.62109375
-31.1279296875
-36.62109375
-43.02978515625
-48.52294921875
-32.04345703125
-45.7763671875
-49.4384765625
-37.53662109375
-34.7900390625
-25.634765625
-31.1279296875
-36.62109375
-37.53662109375
-31.1279296875
-30.21240234375
-21.05712890625
-27.4658203125
-28.38134765625
-25.634765625
-14.6484375
-1.8310546875
0.91552734375
6.40869140625
11.90185546875
11.90185546875
7.32421875
13.73291015625
22.88818359375
8.23974609375
3.662109375
2.74658203125
16.4794921875
23.8037109375
33.87451171875
48.52294921875
50.35400390625
46.69189453125
43.9453125
56.7626953125
54.931640625
53.1005859375
71.4111328125
72.32666015625
72.32666015625
77.81982421875
84.228515625
94.29931640625
100.7080078125
100.7080078125
103.45458984375
114.44091796875
124.51171875
131.8359375
141.90673828125
155.6396484375
157.470703125
164.794921875
184.9365234375
197.75390625
196.83837890625
199.5849609375
205.078125
215.14892578125
223.388671875
213.31787109375
205.078125
212.40234375
221.5576171875
234.375
237.12158203125
243.5302734375
252.685546875
254.5166015625
256.34765625
251.77001953125
251.77001953125
250.8544921875
249.0234375
249.0234375
227.05078125
220.64208984375
216.064453125
195.00732421875
182.18994140625
173.9501953125
162.9638671875
140.9912109375
125.42724609375
112.60986328125
97.0458984375
79.65087890625
65.91796875
52.18505859375
41.19873046875
22.88818359375
21.97265625
6.40869140625
-4.57763671875
-19.22607421875
-22.88818359375
-39.36767578125
-54.01611328125
-59.50927734375
-67.7490234375
-58.59375
-65.91796875
-75.0732421875
-70.49560546875
-67.7490234375
-83.31298828125
-99.79248046875
-94.29931640625
-75.98876953125
-75.98876953125
-80.56640625
-87.890625
-87.890625
-89.7216796875
-99.79248046875
-93.3837890625
-91.552734375
-95.21484375
-92.46826171875
-97.0458984375
-92.46826171875
-97.0458984375
-97.0458984375
-85.14404296875
-84.228515625
-78.7353515625
-89.7216796875
-86.97509765625
-86.0595703125
-85.14404296875
-86.97509765625
-91.552734375
-91.552734375
-94.29931640625
-98.876953125
-98.876953125
-101.62353515625
-98.876953125
-92.46826171875
-77.81982421875
-86.0595703125
-85.14404296875
-80.56640625
-75.0732421875
-82.3974609375
-75.98876953125
-76.904296875
-78.7353515625
-77.81982421875
-80.56640625
-85.14404296875
-82.3974609375
-95.21484375
-89.7216796875
-94.29931640625
-82.3974609375
-85.14404296875
-83.31298828125
-83.31298828125
-92.46826171875
-97.0458984375
-89.7216796875
-94.29931640625
-90.63720703125
-87.890625
-86.0595703125
-89.7216796875
-84.228515625
-81.48193359375
-87.890625
-86.97509765625
-93.3837890625
-90.63720703125
-93.3837890625
-105.28564453125
-96.13037109375
-96.13037109375
-94.29931640625
-89.7216796875
-94.29931640625
-92.46826171875
-97.96142578125
-105.28564453125
-101.62353515625
-97.0458984375
-96.13037109375
-93.3837890625
-91.552734375
-97.0458984375
-101.62353515625
-107.11669921875
-103.45458984375
-105.28564453125
-100.7080078125
-104.3701171875
-106.201171875
-104.3701171875
-97.0458984375
-98.876953125
-106.201171875
-94.29931640625
-95.21484375
-101.62353515625
-100.7080078125
-91.552734375
-95.21484375
-97.0458984375
-105.28564453125
-108.0322265625
-109.86328125
-108.94775390625
-111.6943359375
-108.94775390625
-101.62353515625
-105.28564453125
-110.77880859375
-115.3564453125
-113.525390625
-107.11669921875
-105.28564453125
-118.10302734375
-119.93408203125
-105.28564453125
-100.7080078125
-93.3837890625
-82.3974609375
-74.15771484375
-75.0732421875
-82.3974609375
-86.97509765625
-83.31298828125
-75.98876953125
-94.29931640625
-93.3837890625
-91.552734375
-81.48193359375
-70.49560546875
-72.32666015625
-63.17138671875
-53.1005859375
-51.26953125
-53.1005859375
-52.18505859375
-59.50927734375
-66.83349609375
-68.66455078125
-71.4111328125
-55.84716796875
-45.7763671875
-48.52294921875
-45.7763671875
-55.84716796875
-71.4111328125
-82.3974609375
-85.14404296875
-85.14404296875
-83.31298828125
-88.80615234375
-92.46826171875
-100.7080078125
-106.201171875
-106.201171875
-103.45458984375
-97.96142578125
-107.11669921875
-103.45458984375
-112.60986328125
-119.0185546875
-118.10302734375
-119.0185546875
-113.525390625
-119.93408203125
-119.0185546875
-111.6943359375
-117.1875
-116.27197265625
-119.0185546875
-123.59619140625
-124.51171875
-132.75146484375
-131.8359375
-130.0048828125
-113.525390625
-111.6943359375
-115.3564453125
-114.44091796875
-110.77880859375
-112.60986328125
-120.849609375
-123.59619140625
-118.10302734375
-110.77880859375
-127.25830078125
-151.9775390625
-143.73779296875
-118.10302734375
-98.876953125
-71.4111328125
-25.634765625
21.97265625
75.98876953125
185.85205078125
325.927734375
486.14501953125
683.89892578125
895.3857421875
1072.08251953125
1197.509765625
1291.80908203125
1292.724609375
1219.482421875
1095.88623046875
902.7099609375
593.26171875
351.5625
168.45703125
40.283203125
-17.39501953125
-26.55029296875
-40.283203125
-49.4384765625
-42.1142578125
-7.32421875
5.4931640625
-0.91552734375
8.23974609375
21.05712890625
9.1552734375
-5.4931640625
-8.23974609375
-15.56396484375
-28.38134765625
-32.04345703125
-24.71923828125
-23.8037109375
-30.21240234375
-26.55029296875
-29.296875
-32.04345703125
-34.7900390625
-38.4521484375
-35.70556640625
-35.70556640625
-38.4521484375
-44.86083984375
-32.958984375
-23.8037109375
-21.97265625
-30.21240234375
-32.04345703125
-30.21240234375
-36.62109375
-38.4521484375
-30.21240234375
-16.4794921875
-9.1552734375
-15.56396484375
-13.73291015625
-14.6484375
-10.986328125
-5.4931640625
-1.8310546875
5.4931640625
11.90185546875
18.310546875
16.4794921875
19.22607421875
21.05712890625
20.1416015625
20.1416015625
20.1416015625
25.634765625
36.62109375
27.4658203125
33.87451171875
42.1142578125
45.7763671875
46.69189453125
55.84716796875
52.18505859375
54.01611328125
62.255859375
65.91796875
69.580078125
73.2421875
86.0595703125
96.13037109375
97.0458984375
97.96142578125
99.79248046875
103.45458984375
117.1875
121.76513671875
125.42724609375
138.24462890625
140.07568359375
151.06201171875
160.21728515625
169.37255859375
173.03466796875
180.35888671875
190.4296875
196.83837890625
210.5712890625
215.14892578125
223.388671875
227.96630859375
229.79736328125
227.96630859375
230.712890625
237.12158203125
241.69921875
248.10791015625
248.10791015625
249.0234375
253.60107421875
258.1787109375
249.0234375
242.61474609375
239.8681640625
235.29052734375
227.96630859375
219.7265625
211.48681640625
199.5849609375
185.85205078125
172.119140625
150.146484375
132.75146484375
124.51171875
116.27197265625
102.5390625
94.29931640625
78.7353515625
55.84716796875
45.7763671875
51.26953125
41.19873046875
24.71923828125
10.986328125
-1.8310546875
-14.6484375
-22.88818359375
-35.70556640625
-38.4521484375
-36.62109375
-42.1142578125
-44.86083984375
-58.59375
-65.91796875
-73.2421875
-78.7353515625
-71.4111328125
-68.66455078125
-64.0869140625
-73.2421875
-71.4111328125
-74.15771484375
-78.7353515625
-84.228515625
-94.29931640625
-95.21484375
-88.80615234375
-86.0595703125
-91.552734375
-88.80615234375
-85.14404296875
-81.48193359375
-75.98876953125
-76.904296875
-85.14404296875
-88.80615234375
-93.3837890625
-99.79248046875
-95.21484375
-72.32666015625
-67.7490234375
-64.0869140625
-58.59375
-66.83349609375
-82.3974609375
-84.228515625
-76.904296875
-83.31298828125
-92.46826171875
-78.7353515625
-70.49560546875
-72.32666015625
-67.7490234375
-75.0732421875
-81.48193359375
-87.890625
-85.14404296875
-70.49560546875
-70.49560546875
-71.4111328125
-78.7353515625
-77.81982421875
-78.7353515625
-75.98876953125
-76.904296875
-72.32666015625
-75.0732421875
-73.2421875
-72.32666015625
-65.00244140625
-69.580078125
-71.4111328125
-73.2421875
-70.49560546875
-78.7353515625
-82.3974609375
-77.81982421875
-82.3974609375
-77.81982421875
-74.15771484375
-81.48193359375
-77.81982421875
-76.904296875
-77.81982421875
-70.49560546875
-64.0869140625
-65.91796875
-74.15771484375
-82.3974609375
-91.552734375
-82.3974609375
-89.7216796875
-97.96142578125
-89.7216796875
-80.56640625
-74.15771484375
-72.32666015625
-70.49560546875
-69.580078125
-69.580078125
-74.15771484375
-79.65087890625
-87.890625
-82.3974609375
-88.80615234375
-93.3837890625
-96.13037109375
-90.63720703125
-81.48193359375
-76.904296875
-85.14404296875
-86.97509765625
-96.13037109375
-108.94775390625
-106.201171875
-112.60986328125
-101.62353515625
-93.3837890625
-87.890625
-81.48193359375
-75.98876953125
-85.14404296875
-97.0458984375
-108.0322265625
-104.3701171875
-97.0458984375
-90.63720703125
-92.46826171875
-97.96142578125
-102.5390625
-100.7080078125
-102.5390625
-108.94775390625
-107.11669921875
-106.201171875
-97.0458984375
-97.0458984375
-98.876953125
-86.97509765625
-90.63720703125
-91.552734375
-93.3837890625
-96.13037109375
-94.29931640625
-90.63720703125
-81.48193359375
-66.83349609375
-66.83349609375
-57.67822265625
-50.35400390625
-53.1005859375
-49.4384765625
-56.7626953125
-57.67822265625
-46.69189453125
-42.1142578125
-46.69189453125
-42.1142578125
-39.36767578125
-46.69189453125
-53.1005859375
-44.86083984375
-30.21240234375
-32.958984375
-42.1142578125
-58.59375
-64.0869140625
-59.50927734375
-64.0869140625
-60.4248046875
-51.26953125
-50.35400390625
-54.01611328125
-58.59375
-57.67822265625
-65.91796875
-66.83349609375
-71.4111328125
-76.904296875
-88.80615234375
-93.3837890625
-105.28564453125
-112.60986328125
-118.10302734375
-116.27197265625
-119.0185546875
-120.849609375
-130.0048828125
-138.24462890625
-135.498046875
-121.76513671875
-119.0185546875
-120.849609375
-120.849609375
-122.6806640625
-124.51171875
-120.849609375
-122.6806640625
-128.173828125
-126.3427734375
-127.25830078125
-129.08935546875
-138.24462890625
-133.6669921875
-131.8359375
-127.25830078125
-119.0185546875
-115.3564453125
-112.60986328125
-121.76513671875
-128.173828125
-131.8359375
-131.8359375
-129.08935546875
-135.498046875
-138.24462890625
-143.73779296875
-130.0048828125
-94.29931640625
-46.69189453125
1.8310546875
55.84716796875
118.10302734375
209.65576171875
356.14013671875
541.07666015625
743.408203125
930.17578125
1097.71728515625
1227.72216796875
1336.669921875
1358.642578125
1260.68115234375
1118.7744140625
918.27392578125
616.14990234375
322.265625
93.3837890625
-42.1142578125
-113.525390625
-125.42724609375
-85.14404296875
-34.7900390625
-3.662109375
14.6484375
31.1279296875
41.19873046875
31.1279296875
18.310546875
-3.662109375
-9.1552734375
-22.88818359375
-27.4658203125
-35.70556640625
-36.62109375
-37.53662109375
-37.53662109375
-39.36767578125
-46.69189453125
-61.34033203125
-60.4248046875
-57.67822265625
-54.01611328125
-51.26953125
-52.18505859375
-52.18505859375
-56.7626953125
-51.26953125
-54.01611328125
-50.35400390625
-51.26953125
-47.607421875
-40.283203125
-41.19873046875
-36.62109375
-37.53662109375
-41.19873046875
-29.296875
-28.38134765625
-27.4658203125
-21.97265625
-23.8037109375
-20.1416015625
-20.1416015625
-22.88818359375
-21.97265625
-19.22607421875
-15.56396484375
-9.1552734375
-8.23974609375
-5.4931640625
-2.74658203125
-1.8310546875
-1.8310546875
0
4.57763671875
0.91552734375
1.8310546875
1.8310546875
5.4931640625
21.05712890625
23.8037109375
26.55029296875
35.70556640625
43.02978515625
43.9453125
51.26953125
58.59375
63.17138671875
72.32666015625
75.98876953125
79.65087890625
80.56640625
80.56640625
99.79248046875
109.86328125
113.525390625
121.76513671875
132.75146484375
144.6533203125
153.80859375
162.9638671875
162.9638671875
172.119140625
179.443359375
179.443359375
182.18994140625
184.9365234375
194.091796875
204.16259765625
222.47314453125
223.388671875
221.5576171875
224.30419921875
227.05078125
227.96630859375
232.5439453125
233.45947265625
234.375
234.375
230.712890625
225.2197265625
224.30419921875
219.7265625
219.7265625
212.40234375
201.416015625
194.091796875
184.9365234375
171.20361328125
160.21728515625
151.9775390625
131.8359375
112.60986328125
106.201171875
87.890625
74.15771484375
63.17138671875
54.01611328125
45.7763671875
35.70556640625
25.634765625
10.986328125
-3.662109375
-8.23974609375
-21.05712890625
-27.4658203125
-32.04345703125
-35.70556640625
-37.53662109375
-40.283203125
-45.7763671875
-49.4384765625
-54.01611328125
-60.4248046875
-65.00244140625
-67.7490234375
-65.91796875
-64.0869140625
-66.83349609375
-68.66455078125
-71.4111328125
-75.0732421875
-73.2421875
-73.2421875
-74.15771484375
-70.49560546875
-70.49560546875
-75.98876953125
-81.48193359375
-81.48193359375
-85.14404296875
-86.0595703125
-79.65087890625
-81.48193359375
-73.2421875
-74.15771484375
-62.255859375
-59.50927734375
-57.67822265625
-61.34033203125
-63.17138671875
-66.83349609375
-67.7490234375
-73.2421875
-67.7490234375
-67.7490234375
-65.91796875
-64.0869140625
-61.34033203125
-63.17138671875
-66.83349609375
-70.49560546875
-73.2421875
-71.4111328125
-73.2421875
-75.0732421875
-78.7353515625
-80.56640625
-70.49560546875
-66.83349609375
-71.4111328125
-78.7353515625
-83.31298828125
-80.56640625
-76.904296875
-77.81982421875
-75.98876953125
-77.81982421875
-74.15771484375
-69.580078125
-70.49560546875
-65.91796875
-75.98876953125
-83.31298828125
-86.97509765625
-88.80615234375
-89.7216796875
-90.63720703125
-89.7216796875
-81.48193359375
-75.0732421875
-77.81982421875
-86.97509765625
-88.80615234375
-86.0595703125
-85.14404296875
-87.890625
-92.46826171875
-88.80615234375
-89.7216796875
-96.13037109375
-91.552734375
-97.0458984375
-102.5390625
-101.62353515625
-106.201171875
-99.79248046875
-95.21484375
-106.201171875
-108.94775390625
-103.45458984375
-101.62353515625
-103.45458984375
-101.62353515625
-105.28564453125
-105.28564453125
-103.45458984375
-104.3701171875
-108.0322265625
-117.1875
-119.93408203125
-119.93408203125
-118.10302734375
-124.51171875
-123.59619140625
-119.93408203125
-114.44091796875
-117.1875
-116.27197265625
-112.60986328125
-113.525390625
-109.86328125
-119.0185546875
-125.42724609375
-132.75146484375
-135.498046875
-138.24462890625
-133.6669921875
-140.9912109375
-143.73779296875
-139.16015625
-131.8359375
-132.75146484375
-137.3291015625
-140.9912109375
-134.58251953125
-134.58251953125
-134.58251953125
-129.08935546875
-121.76513671875
-119.0185546875
-115.3564453125
-119.0185546875
-119.93408203125
-117.1875
-108.0322265625
-100.7080078125
-100.7080078125
-91.552734375
-91.552734375
-91.552734375
-95.21484375
-84.228515625
-81.48193359375
-89.7216796875
-87.890625
-88.80615234375
-81.48193359375
-80.56640625
-79.65087890625
-71.4111328125
-65.00244140625
-69.580078125
-73.2421875
-75.0732421875
-83.31298828125
-89.7216796875
-86.97509765625
-86.97509765625
-78.7353515625
-75.98876953125
-86.97509765625
-97.0458984375
-104.3701171875
-116.27197265625
-113.525390625
-106.201171875
-110.77880859375
-119.93408203125
-127.25830078125
-137.3291015625
-147.39990234375
-151.06201171875
-149.23095703125
-147.39990234375
-150.146484375
-156.55517578125
-152.89306640625
-155.6396484375
-155.6396484375
-153.80859375
-161.1328125
-164.794921875
-158.38623046875
-151.9775390625
-162.9638671875
-162.04833984375
-165.71044921875
-161.1328125
-159.3017578125
-156.55517578125
-157.470703125
-156.55517578125
-154.72412109375
-153.80859375
-154.72412109375
-158.38623046875
-160.21728515625
-154.72412109375
-151.06201171875
-153.80859375
-154.72412109375
-155.6396484375
-160.21728515625
-170.2880859375
-189.51416015625
-191.34521484375
-171.20361328125
-134.58251953125
-93.3837890625
-48.52294921875
12.8173828125
87.890625
195.00732421875
357.97119140625
552.978515625
777.28271484375
978.69873046875
1153.564453125
1276.2451171875
1359.55810546875
1322.93701171875
1195.6787109375
1039.12353515625
815.73486328125
501.708984375
223.388671875
27.4658203125
-89.7216796875
-150.146484375
-151.06201171875
-119.93408203125
-77.81982421875
-43.02978515625
-18.310546875
-2.74658203125
1.8310546875
-9.1552734375
-19.22607421875
-27.4658203125
-38.4521484375
-52.18505859375
-62.255859375
-70.49560546875
-71.4111328125
-80.56640625
-84.228515625
-85.14404296875
-84.228515625
-77.81982421875
-75.0732421875
-70.49560546875
-76.904296875
-89.7216796875
-93.3837890625
-91.552734375
-89.7216796875
-83.31298828125
-81.48193359375
-80.56640625
-75.0732421875
-75.0732421875
-77.81982421875
-74.15771484375
-80.56640625
-80.56640625
-79.65087890625
-71.4111328125
-62.255859375
-49.4384765625
-56.7626953125
-58.59375
-56.7626953125
-55.84716796875
-49.4384765625
-49.4384765625
-50.35400390625
-44.86083984375
-36.62109375
-35.70556640625
-40.283203125
-36.62109375
-34.7900390625
-26.55029296875
-28.38134765625
-21.97265625
-14.6484375
-7.32421875
-7.32421875
-1.8310546875
0
-0.91552734375
3.662109375
11.90185546875
22.88818359375
21.97265625
38.4521484375
48.52294921875
46.69189453125
43.02978515625
39.36767578125
44.86083984375
51.26953125
59.50927734375
75.98876953125
94.29931640625
107.11669921875
117.1875
126.3427734375
130.0048828125
138.24462890625
148.3154296875
155.6396484375
157.470703125
167.54150390625
177.6123046875
184.9365234375
195.00732421875
201.416015625
210.5712890625
215.14892578125
217.8955078125
211.48681640625
213.31787109375
216.97998046875
222.47314453125
223.388671875
232.5439453125
234.375
234.375
228.8818359375
220.64208984375
216.064453125
207.82470703125
204.16259765625
194.091796875
177.6123046875
162.9638671875
156.55517578125
145.56884765625
127.25830078125
112.60986328125
95.21484375
70.49560546875
51.26953125
34.7900390625
26.55029296875
17.39501953125
3.662109375
-10.07080078125
-19.22607421875
-31.1279296875
-44.86083984375
-63.17138671875
-71.4111328125
-70.49560546875
-72.32666015625
-81.48193359375
-85.14404296875
-92.46826171875
-89.7216796875
-94.29931640625
-97.0458984375
-104.3701171875
-105.28564453125
-112.60986328125
-114.44091796875
-123.59619140625
-124.51171875
-120.849609375
-116.27197265625
-112.60986328125
-113.525390625
-116.27197265625
-125.42724609375
-129.08935546875
-126.3427734375
-114.44091796875
-110.77880859375
-111.6943359375
-118.10302734375
-120.849609375
-120.849609375
-118.10302734375
-119.0185546875
-115.3564453125
-118.10302734375
-119.93408203125
-115.3564453125
-117.1875
-120.849609375
-119.0185546875
-116.27197265625
-111.6943359375
-110.77880859375
-108.0322265625
-112.60986328125
-116.27197265625
-112.60986328125
-117.1875
-114.44091796875
-112.60986328125
-110.77880859375
-116.27197265625
-118.10302734375
-117.1875
-109.86328125
-103.45458984375
-107.11669921875
-110.77880859375
-113.525390625
-116.27197265625
-116.27197265625
-116.27197265625
-115.3564453125
-114.44091796875
-111.6943359375
-106.201171875
-104.3701171875
-106.201171875
-108.94775390625
-112.60986328125
-113.525390625
-107.11669921875
-108.0322265625
-108.94775390625
-104.3701171875
-103.45458984375
-97.0458984375
-101.62353515625
-104.3701171875
-111.6943359375
-115.3564453125
-110.77880859375
-110.77880859375
-109.86328125
-110.77880859375
-109.86328125
-106.201171875
-108.94775390625
-113.525390625
-114.44091796875
-104.3701171875
-98.876953125
-102.5390625
-102.5390625
-101.62353515625
-99.79248046875
-97.0458984375
-102.5390625
-108.94775390625
-117.1875
-114.44091796875
-111.6943359375
-119.93408203125
-123.59619140625
-119.0185546875
-118.10302734375
-114.44091796875
-102.5390625
-102.5390625
-107.11669921875
-111.6943359375
-112.60986328125
-122.6806640625
-125.42724609375
-125.42724609375
-119.0185546875
-117.1875
-116.27197265625
-113.525390625
-112.60986328125
-120.849609375
-125.42724609375
-117.1875
-115.3564453125
-117.1875
-117.1875
-117.1875
-123.59619140625
-140.9912109375
-155.6396484375
-166.6259765625
-174.86572265625
-170.2880859375
-160.21728515625
-134.58251953125
-102.5390625
-85.14404296875
-97.0458984375
-113.525390625
-127.25830078125
-136.41357421875
-137.3291015625
-110.77880859375
-92.46826171875
-92.46826171875
-96.13037109375
-100.7080078125
-102.5390625
-105.28564453125
-108.0322265625
-101.62353515625
-95.21484375
-92.46826171875
-91.552734375
-92.46826171875
-87.890625
-88.80615234375
-85.14404296875
-79.65087890625
-77.81982421875
-75.98876953125
-70.49560546875
-69.580078125
-70.49560546875
-77.81982421875
-74.15771484375
-68.66455078125
-62.255859375
-60.4248046875
-56.7626953125
-46.69189453125
-44.86083984375
-54.931640625
-57.67822265625
-53.1005859375
-66.83349609375
-74.15771484375
-73.2421875
-72.32666015625
-71.4111328125
-69.580078125
-72.32666015625
-76.904296875
-83.31298828125
-98.876953125
-102.5390625
-107.11669921875
-109.86328125
-114.44091796875
-114.44091796875
-123.59619140625
-136.41357421875
-138.24462890625
-145.56884765625
-143.73779296875
-137.3291015625
-135.498046875
-141.90673828125
-150.146484375
-152.89306640625
-156.55517578125
-149.23095703125
-143.73779296875
-140.9912109375
-147.39990234375
-151.06201171875
-157.470703125
-158.38623046875
-158.38623046875
-155.6396484375
-147.39990234375
-146.484375
-150.146484375
-139.16015625
-130.92041015625
-133.6669921875
-126.3427734375
-124.51171875
-133.6669921875
-130.92041015625
-135.498046875
-139.16015625
-148.3154296875
-165.71044921875
-177.6123046875
-177.6123046875
-159.3017578125
-126.3427734375
-86.97509765625
-42.1142578125
-1.8310546875
61.34033203125
169.37255859375
325.927734375
500.79345703125
715.9423828125
922.8515625
1111.4501953125
1245.1171875
1340.33203125
1337.58544921875
1219.482421875
1062.92724609375
856.01806640625
547.4853515625
264.58740234375
50.35400390625
-75.98876953125
-142.822265625
-153.80859375
-115.3564453125
-63.17138671875
-22.88818359375
-10.07080078125
-0.91552734375
12.8173828125
13.73291015625
1.8310546875
-9.1552734375
-19.22607421875
-25.634765625
-36.62109375
-52.18505859375
-56.7626953125
-60.4248046875
-67.7490234375
-80.56640625
-76.904296875
-72.32666015625
-72.32666015625
-70.49560546875
-67.7490234375
-66.83349609375
-72.32666015625
-65.91796875
-62.255859375
-67.7490234375
-68.66455078125
-67.7490234375
-65.00244140625
-63.17138671875
-59.50927734375
-63.17138671875
-62.255859375
-61.34033203125
-61.34033203125
-57.67822265625
-60.4248046875
-51.26953125
-54.931640625
-59.50927734375
-46.69189453125
-42.1142578125
-38.4521484375
-36.62109375
-28.38134765625
-20.1416015625
-22.88818359375
-25.634765625
-29.296875
-28.38134765625
-31.1279296875
-24.71923828125
-17.39501953125
-4.57763671875
1.8310546875
6.40869140625
15.56396484375
22.88818359375
17.39501953125
4.57763671875
5.4931640625
-1.8310546875
26.55029296875
38.4521484375
46.69189453125
51.26953125
72.32666015625
64.0869140625
63.17138671875
67.7490234375
78.7353515625
86.97509765625
92.46826171875
106.201171875
116.27197265625
125.42724609375
134.58251953125
139.16015625
135.498046875
150.146484375
149.23095703125
157.470703125
168.45703125
170.2880859375
195.00732421875
205.99365234375
213.31787109375
208.740234375
217.8955078125
224.30419921875
228.8818359375
227.96630859375
230.712890625
229.79736328125
232.5439453125
239.8681640625
241.69921875
244.44580078125
237.12158203125
223.388671875
213.31787109375
216.97998046875
209.65576171875
210.5712890625
197.75390625
184.9365234375
178.52783203125
162.9638671875
147.39990234375
119.93408203125
101.62353515625
85.14404296875
68.66455078125
56.7626953125
45.7763671875
41.19873046875
29.296875
10.07080078125
-1.8310546875
-8.23974609375
-15.56396484375
-28.38134765625
-32.958984375
-38.4521484375
-43.9453125
-51.26953125
-56.7626953125
-66.83349609375
-86.97509765625
-83.31298828125
-85.14404296875
-88.80615234375
-83.31298828125
-81.48193359375
-88.80615234375
-95.21484375
-104.3701171875
-114.44091796875
-110.77880859375
-107.11669921875
-103.45458984375
-99.79248046875
-99.79248046875
-100.7080078125
-94.29931640625
-101.62353515625
-94.29931640625
-94.29931640625
-101.62353515625
-102.5390625
-97.96142578125
-97.96142578125
-101.62353515625
-92.46826171875
-81.48193359375
-83.31298828125
-76.904296875
-84.228515625
-89.7216796875
-88.80615234375
-81.48193359375
-87.890625
-90.63720703125
-75.98876953125
-87.890625
-92.46826171875
-69.580078125
-73.2421875
-86.97509765625
-92.46826171875
-86.0595703125
-90.63720703125
-90.63720703125
-89.7216796875
-86.0595703125
-83.31298828125
-67.7490234375
-75.0732421875
-70.49560546875
-77.81982421875
-68.66455078125
-73.2421875
-71.4111328125
-77.81982421875
-77.81982421875
-73.2421875
-75.0732421875
-83.31298828125
-81.48193359375
-74.15771484375
-78.7353515625
-82.3974609375
-73.2421875
-56.7626953125
-54.01611328125
-61.34033203125
-64.0869140625
-74.15771484375
-76.904296875
-74.15771484375
-72.32666015625
-69.580078125
-69.580078125
-66.83349609375
-67.7490234375
-69.580078125
-75.0732421875
-73.2421875
-70.49560546875
-75.98876953125
-80.56640625
-86.97509765625
-92.46826171875
-86.97509765625
-82.3974609375
-83.31298828125
-86.97509765625
-88.80615234375
-87.890625
-81.48193359375
-86.97509765625
-98.876953125
-93.3837890625
-94.29931640625
-95.21484375
-93.3837890625
-91.552734375
-78.7353515625
-84.228515625
-94.29931640625
-96.13037109375
-94.29931640625
-95.21484375
-97.0458984375
-97.0458984375
-80.56640625
-81.48193359375
-92.46826171875
-97.96142578125
-94.29931640625
-102.5390625
-110.77880859375
-102.5390625
-95.21484375
-98.876953125
-104.3701171875
-98.876953125
-97.0458984375
-96.13037109375
-94.29931640625
-97.0458984375
-104.3701171875
-102.5390625
-101.62353515625
-99.79248046875
-95.21484375
-101.62353515625
-101.62353515625
-99.79248046875
-98.876953125
-105.28564453125
-115.3564453125
-112.60986328125
-119.93408203125
-122.6806640625
-113.525390625
-108.0322265625
-99.79248046875
-88.80615234375
-99.79248046875
-111.6943359375
-106.201171875
-108.0322265625
-112.60986328125
-106.201171875
-108.94775390625
-103.45458984375
-97.96142578125
-103.45458984375
-82.3974609375
-81.48193359375
-75.98876953125
-80.56640625
-76.904296875
-70.49560546875
-65.00244140625
-61.34033203125
-58.59375
-58.59375
-68.66455078125
-62.255859375
-59.50927734375
-54.931640625
-49.4384765625
-49.4384765625
-51.26953125
-45.7763671875
-38.4521484375
-36.62109375
-34.7900390625
-38.4521484375
-40.283203125
-46.69189453125
-58.59375
-57.67822265625
-50.35400390625
-38.4521484375
-34.7900390625
-54.01611328125
-58.59375
-67.7490234375
-81.48193359375
-95.21484375
-95.21484375
-87.890625
-82.3974609375
-99.79248046875
-109.86328125
-116.27197265625
-121.76513671875
-116.27197265625
-117.1875
-120.849609375
-130.0048828125
-152.89306640625
-123.59619140625
-114.44091796875
-103.45458984375
-122.6806640625
-128.173828125
-108.94775390625
-123.59619140625
-131.8359375
-140.9912109375
-121.76513671875
-126.3427734375
-114.44091796875
-121.76513671875
-116.27197265625
-126.3427734375
-140.07568359375
-128.173828125
-126.3427734375
-127.25830078125
-110.77880859375
-119.0185546875
-101.62353515625
-111.6943359375
-115.3564453125
-108.0322265625
-138.24462890625
-151.06201171875
-154.72412109375
-150.146484375
-97.96142578125
-55.84716796875
-21.05712890625
32.958984375
105.28564453125
240.78369140625
391.845703125
563.04931640625
782.77587890625
975.03662109375
1143.49365234375
1272.5830078125
1318.359375
1253.35693359375
1138.00048828125
992.431640625
741.5771484375
463.2568359375
239.8681640625
93.3837890625
-21.97265625
-61.34033203125
-64.0869140625
-61.34033203125
-33.87451171875
14.6484375
29.296875
30.21240234375
32.04345703125
39.36767578125
40.283203125
31.1279296875
38.4521484375
36.62109375
27.4658203125
4.57763671875
-6.40869140625
-9.1552734375
-6.40869140625
-7.32421875
-7.32421875
3.662109375
-3.662109375
-15.56396484375
-6.40869140625
-27.4658203125
-24.71923828125
-21.97265625
-22.88818359375
0.91552734375
22.88818359375
29.296875
25.634765625
4.57763671875
-0.91552734375
13.73291015625
6.40869140625
8.23974609375
22.88818359375
22.88818359375
19.22607421875
19.22607421875
30.21240234375
31.1279296875
29.296875
49.4384765625
57.67822265625
54.01611328125
58.59375
63.17138671875
65.91796875
92.46826171875
63.17138671875
75.98876953125
73.2421875
84.228515625
78.7353515625
74.15771484375
106.201171875
113.525390625
113.525390625
109.86328125
85.14404296875
88.80615234375
93.3837890625
128.173828125
140.07568359375
126.3427734375
125.42724609375
147.39990234375
162.9638671875
154.72412109375
154.72412109375
148.3154296875
159.3017578125
140.07568359375
188.5986328125
189.51416015625
185.85205078125
213.31787109375
222.47314453125
222.47314453125
225.2197265625
234.375
247.1923828125
255.43212890625
270.08056640625
273.74267578125
286.56005859375
294.7998046875
291.1376953125
286.56005859375
289.306640625
296.630859375
285.64453125
298.4619140625
306.70166015625
315.85693359375
330.50537109375
333.251953125
324.0966796875
312.19482421875
315.85693359375
309.4482421875
296.630859375
294.7998046875
284.72900390625
271.91162109375
266.41845703125
249.0234375
214.2333984375
205.99365234375
194.091796875
184.02099609375
171.20361328125
148.3154296875
134.58251953125
122.6806640625
109.86328125
92.46826171875
77.81982421875
75.98876953125
71.4111328125
72.32666015625
62.255859375
48.52294921875
32.958984375
20.1416015625
17.39501953125
17.39501953125
18.310546875
11.90185546875
0
-14.6484375
-25.634765625
-24.71923828125
-25.634765625
-25.634765625
-22.88818359375
-28.38134765625
-33.87451171875
-37.53662109375
-41.19873046875
-36.62109375
-35.70556640625
-34.7900390625
-48.52294921875
-57.67822265625
-45.7763671875
-42.1142578125
-44.86083984375
-43.9453125
-43.02978515625
-47.607421875
-49.4384765625
-49.4384765625
-48.52294921875
-52.18505859375
-60.4248046875
-60.4248046875
-58.59375
-54.01611328125
-43.9453125
-41.19873046875
-47.607421875
-46.69189453125
-47.607421875
-43.9453125
-52.18505859375
-56.7626953125
-38.4521484375
-32.04345703125
-38.4521484375
-34.7900390625
-34.7900390625
-39.36767578125
-33.87451171875
-24.71923828125
-26.55029296875
-36.62109375
-47.607421875
-57.67822265625
-54.01611328125
-50.35400390625
-47.607421875
-41.19873046875
-28.38134765625
-29.296875
-40.283203125
-53.1005859375
-45.7763671875
-39.36767578125
-32.04345703125
-35.70556640625
-47.607421875
-47.607421875
-37.53662109375
-28.38134765625
-30.21240234375
-30.21240234375
-21.97265625
-21.05712890625
-33.87451171875
-40.283203125
-47.607421875
-50.35400390625
-36.62109375
-32.958984375
-24.71923828125
-23.8037109375
-32.04345703125
-43.9453125
-43.02978515625
-39.36767578125
-40.283203125
-51.26953125
-45.7763671875
-51.26953125
-47.607421875
-55.84716796875
-46.69189453125
-41.19873046875
-40.283203125
-41.19873046875
-43.02978515625
-44.86083984375
-56.7626953125
-58.59375
-54.931640625
-40.283203125
-41.19873046875
-43.9453125
-59.50927734375
-54.01611328125
-66.83349609375
-71.4111328125
-69.580078125
-72.32666015625
-68.66455078125
-55.84716796875
-52.18505859375
-61.34033203125
-64.0869140625
-61.34033203125
-64.0869140625
-59.50927734375
-61.34033203125
-43.9453125
-27.4658203125
-27.4658203125
-57.67822265625
-67.7490234375
-61.34033203125
-55.84716796875
-51.26953125
-57.67822265625
-75.98876953125
-71.4111328125
-64.0869140625
-58.59375
-59.50927734375
-44.86083984375
-49.4384765625
-48.52294921875
-54.01611328125
-69.580078125
-66.83349609375
-77.81982421875
-58.59375
-60.4248046875
-51.26953125
-57.67822265625
-56.7626953125
-66.83349609375
-61.34033203125
-76.904296875
-50.35400390625
-47.607421875
-57.67822265625
-67.7490234375
-47.607421875
-32.958984375
-46.69189453125
-66.83349609375
-87.890625
-77.81982421875
-58.59375
-72.32666015625
-49.4384765625
-33.87451171875
-55.84716796875
-56.7626953125
-59.50927734375
-49.4384765625
-62.255859375
-54.01611328125
-46.69189453125
-37.53662109375
-26.55029296875
-6.40869140625
-17.39501953125
-18.310546875
-17.39501953125
-30.21240234375
-20.1416015625
-2.74658203125
3.662109375
-9.1552734375
-10.07080078125
2.74658203125
28.38134765625
22.88818359375
20.1416015625
3.662109375
-12.8173828125
17.39501953125
21.97265625
10.07080078125
3.662109375
0.91552734375
21.97265625
12.8173828125
-0.91552734375
-10.986328125
0
8.23974609375
-1.8310546875
-23.8037109375
-26.55029296875
-18.310546875
-25.634765625
-40.283203125
-59.50927734375
-44.86083984375
-36.62109375
-54.01611328125
-66.83349609375
-48.52294921875
-56.7626953125
-77.81982421875
-65.00244140625
-47.607421875
-62.255859375
-88.80615234375
-78.7353515625
-77.81982421875
-75.0732421875
-59.50927734375
-36.62109375
-55.84716796875
-70.49560546875
-70.49560546875
-60.4248046875
-55.84716796875
-56.7626953125
-33.87451171875
-41.19873046875
-65.00244140625
-68.66455078125
-69.580078125
-62.255859375
-54.01611328125
-54.931640625
-52.18505859375
-48.52294921875
-57.67822265625
-71.4111328125
-82.3974609375
-98.876953125
-87.890625
-47.607421875
-21.97265625
20.1416015625
72.32666015625
154.72412109375
225.2197265625
361.63330078125
540.1611328125
747.98583984375
947.57080078125
1117.85888671875
1265.2587890625
1367.7978515625
1385.19287109375
1292.724609375
1151.7333984375
986.02294921875
711.36474609375
409.24072265625
182.18994140625
50.35400390625
-28.38134765625
-46.69189453125
-17.39501953125
25.634765625
55.84716796875
69.580078125
88.80615234375
104.3701171875
94.29931640625
90.63720703125
81.48193359375
57.67822265625
55.84716796875
62.255859375
66.83349609375
35.70556640625
19.22607421875
27.4658203125
21.97265625
-4.57763671875
-7.32421875
-9.1552734375
14.6484375
28.38134765625
37.53662109375
13.73291015625
21.05712890625
22.88818359375
7.32421875
10.986328125
31.1279296875
47.607421875
36.62109375
9.1552734375
19.22607421875
47.607421875
33.87451171875
50.35400390625
18.310546875
-3.662109375
26.55029296875
21.05712890625
27.4658203125
23.8037109375
44.86083984375
61.34033203125
38.4521484375
31.1279296875
51.26953125
58.59375
75.98876953125
72.32666015625
48.52294921875
24.71923828125
25.634765625
43.9453125
58.59375
48.52294921875
74.15771484375
88.80615234375
80.56640625
59.50927734375
48.52294921875
49.4384765625
96.13037109375
111.6943359375
108.94775390625
116.27197265625
114.44091796875
98.876953125
111.6943359375
102.5390625
106.201171875
112.60986328125
137.3291015625
144.6533203125
145.56884765625
168.45703125
165.71044921875
184.9365234375
181.2744140625
193.17626953125
202.33154296875
198.66943359375
196.83837890625
204.16259765625
218.81103515625
227.96630859375
249.93896484375
254.5166015625
252.685546875
266.41845703125
267.333984375
241.69921875
283.8134765625
285.64453125
260.009765625
257.26318359375
278.3203125
276.4892578125
270.99609375
287.4755859375
287.4755859375
283.8134765625
286.56005859375
271.91162109375
268.24951171875
264.58740234375
215.14892578125
200.50048828125
211.48681640625
180.35888671875
169.37255859375
152.89306640625
142.822265625
126.3427734375
127.25830078125
125.42724609375
107.11669921875
99.79248046875
90.63720703125
69.580078125
51.26953125
35.70556640625
31.1279296875
9.1552734375
-15.56396484375
-5.4931640625
-14.6484375
-10.986328125
9.1552734375
25.634765625
20.1416015625
-12.8173828125
-36.62109375
-25.634765625
-27.4658203125
-43.02978515625
-44.86083984375
-29.296875
-22.88818359375
-27.4658203125
-25.634765625
-25.634765625
-21.97265625
-21.97265625
-17.39501953125
-21.05712890625
-38.4521484375
-39.36767578125
-43.02978515625
-43.02978515625
-34.7900390625
-34.7900390625
-32.04345703125
-34.7900390625
-48.52294921875
-29.296875
-29.296875
-30.21240234375
-21.05712890625
-28.38134765625
-35.70556640625
-40.283203125
-37.53662109375
-26.55029296875
-16.4794921875
-18.310546875
-33.87451171875
-35.70556640625
-29.296875
-21.97265625
-8.23974609375
-21.97265625
-29.296875
-40.283203125
-34.7900390625
-27.4658203125
-17.39501953125
-8.23974609375
6.40869140625
9.1552734375
1.8310546875
-20.1416015625
-25.634765625
-29.296875
-43.02978515625
-37.53662109375
-28.38134765625
-24.71923828125
-5.4931640625
-7.32421875
-1.8310546875
-10.986328125
-28.38134765625
-35.70556640625
-31.1279296875
-31.1279296875
-17.39501953125
-15.56396484375
-21.97265625
-35.70556640625
-38.4521484375
-24.71923828125
-29.296875
-14.6484375
-11.90185546875
1.8310546875
-19.22607421875
-30.21240234375
-18.310546875
-15.56396484375
-19.22607421875
-20.1416015625
-10.986328125
-6.40869140625
-1.8310546875
-1.8310546875
-8.23974609375
-39.36767578125
-61.34033203125
-54.01611328125
-51.26953125
-50.35400390625
-56.7626953125
-27.4658203125
-10.07080078125
-25.634765625
-41.19873046875
-59.50927734375
-46.69189453125
-46.69189453125
-58.59375
-54.931640625
-39.36767578125
-60.4248046875
-50.35400390625
-47.607421875
-47.607421875
-58.59375
-68.66455078125
-54.931640625
-50.35400390625
-38.4521484375
-38.4521484375
-49.4384765625
-59.50927734375
-38.4521484375
-48.52294921875
-37.53662109375
-38.4521484375
-28.38134765625
-37.53662109375
-58.59375
-75.98876953125
-81.48193359375
-65.91796875
-62.255859375
-55.84716796875
-50.35400390625
-51.26953125
-42.1142578125
-40.283203125
-56.7626953125
-77.81982421875
-86.97509765625
-76.904296875
-61.34033203125
-72.32666015625
-73.2421875
-73.2421875
-71.4111328125
-65.91796875
-69.580078125
-75.98876953125
-74.15771484375
-75.98876953125
-85.14404296875
-81.48193359375
-73.2421875
-83.31298828125
-92.46826171875
-96.13037109375
-96.13037109375
-92.46826171875
-93.3837890625
-88.80615234375
-97.96142578125
-90.63720703125
-90.63720703125
-85.14404296875
-86.0595703125
-97.0458984375
-101.62353515625
-90.63720703125
-96.13037109375
-104.3701171875
-90.63720703125
-86.0595703125
-75.98876953125
-65.91796875
-65.00244140625
-67.7490234375
-66.83349609375
-68.66455078125
-69.580078125
-68.66455078125
-77.81982421875
-87.890625
-81.48193359375
-75.98876953125
-65.00244140625
-58.59375
-77.81982421875
-80.56640625
-71.4111328125
-60.4248046875
-50.35400390625
-48.52294921875
-48.52294921875
-68.66455078125
-75.0732421875
-79.65087890625
-83.31298828125
-81.48193359375
-73.2421875
-76.904296875
-90.63720703125
-99.79248046875
-97.96142578125
-91.552734375
-97.96142578125
-107.11669921875
-112.60986328125
-128.173828125
-127.25830078125
-119.0185546875
-118.10302734375
-122.6806640625
-125.42724609375
-129.08935546875
-136.41357421875
-130.92041015625
-130.0048828125
-120.849609375
-119.0185546875
-125.42724609375
-140.9912109375
-146.484375
-146.484375
-143.73779296875
-136.41357421875
-128.173828125
-131.8359375
-135.498046875
-133.6669921875
-125.42724609375
-122.6806640625
-119.0185546875
-120.849609375
-125.42724609375
-119.93408203125
-118.10302734375
-119.0185546875
-117.1875
-116.27197265625
-119.93408203125
-140.9912109375
-150.146484375
-156.55517578125
-133.6669921875
-96.13037109375
-51.26953125
-0.91552734375
56.7626953125
134.58251953125
254.5166015625
409.24072265625
595.0927734375
807.4951171875
995.17822265625
1152.64892578125
1264.34326171875
1326.59912109375
1285.400390625
1140.7470703125
992.431640625
747.98583984375
428.466796875
150.146484375
-20.1416015625
-108.94775390625
-140.07568359375
-111.6943359375
-63.17138671875
-20.1416015625
3.662109375
12.8173828125
12.8173828125
20.1416015625
13.73291015625
3.662109375
-10.986328125
-15.56396484375
-22.88818359375
-31.1279296875
-36.62109375
-27.4658203125
-32.04345703125
-37.53662109375
-35.70556640625
-42.1142578125
-43.9453125
-39.36767578125
-36.62109375
-33.87451171875
-33.87451171875
-41.19873046875
-43.02978515625
-33.87451171875
-29.296875
-33.87451171875
-40.283203125
-44.86083984375
-37.53662109375
-30.21240234375
-35.70556640625
-20.1416015625
-10.986328125
-6.40869140625
-9.1552734375
-12.8173828125
-21.05712890625
-20.1416015625
-11.90185546875
-3.662109375
-1.8310546875
0
0
3.662109375
3.662109375
13.73291015625
17.39501953125
12.8173828125
6.40869140625
9.1552734375
11.90185546875
18.310546875
32.04345703125
40.283203125
45.7763671875
55.84716796875
52.18505859375
52.18505859375
51.26953125
55.84716796875
54.01611328125
57.67822265625
76.904296875
95.21484375
93.3837890625
89.7216796875
98.876953125
97.0458984375
108.94775390625
119.93408203125
127.25830078125
126.3427734375
130.0048828125
143.73779296875
150.146484375
163.87939453125
164.794921875
176.69677734375
189.51416015625
192.2607421875
201.416015625
216.97998046875
228.8818359375
231.62841796875
236.2060546875
243.5302734375
240.78369140625
256.34765625
250.8544921875
255.43212890625
257.26318359375
243.5302734375
245.361328125
258.1787109375
261.8408203125
261.8408203125
259.09423828125
263.671875
260.92529296875
272.8271484375
274.658203125
264.58740234375
259.09423828125
243.5302734375
218.81103515625
197.75390625
173.03466796875
154.72412109375
145.56884765625
121.76513671875
105.28564453125
97.96142578125
91.552734375
67.7490234375
63.17138671875
60.4248046875
37.53662109375
14.6484375
0.91552734375
-6.40869140625
-19.22607421875
-33.87451171875
-47.607421875
-38.4521484375
-47.607421875
-54.931640625
-44.86083984375
-41.19873046875
-53.1005859375
-50.35400390625
-36.62109375
-23.8037109375
-11.90185546875
-38.4521484375
-61.34033203125
-51.26953125
-67.7490234375
-79.65087890625
-81.48193359375
-66.83349609375
-78.7353515625
-91.552734375
-72.32666015625
-53.1005859375
-39.36767578125
-37.53662109375
-54.931640625
-78.7353515625
-78.7353515625
-81.48193359375
-75.98876953125
-75.98876953125
-77.81982421875
-88.80615234375
-85.14404296875
-99.79248046875
-117.1875
-107.11669921875
-84.228515625
-69.580078125
-54.931640625
-54.931640625
-50.35400390625
-61.34033203125
-71.4111328125
-75.0732421875
-76.904296875
-94.29931640625
-86.97509765625
-79.65087890625
-71.4111328125
-71.4111328125
-65.91796875
-56.7626953125
-52.18505859375
-54.01611328125
-54.01611328125
-65.00244140625
-64.0869140625
-66.83349609375
-65.00244140625
-61.34033203125
-64.0869140625
-73.2421875
-86.0595703125
-91.552734375
-75.98876953125
-71.4111328125
-69.580078125
-80.56640625
-91.552734375
-91.552734375
-87.890625
-75.0732421875
-72.32666015625
-72.32666015625
-86.97509765625
-110.77880859375
-110.77880859375
-75.98876953125
-48.52294921875
-52.18505859375
-51.26953125
-67.7490234375
-58.59375
-54.931640625
-65.00244140625
-72.32666015625
-98.876953125
-108.0322265625
-105.28564453125
-100.7080078125
-81.48193359375
-42.1142578125
-27.4658203125
-47.607421875
-44.86083984375
-65.00244140625
-69.580078125
-62.255859375
-63.17138671875
-67.7490234375
-74.15771484375
-66.83349609375
-65.00244140625
-88.80615234375
-88.80615234375
-93.3837890625
-84.228515625
-90.63720703125
-94.29931640625
-97.96142578125
-100.7080078125
-87.890625
-58.59375
-28.38134765625
-17.39501953125
-32.04345703125
-75.98876953125
-114.44091796875
-111.6943359375
-75.98876953125
-69.580078125
-54.931640625
-35.70556640625
-44.86083984375
-54.01611328125
-59.50927734375
-70.49560546875
-64.0869140625
-62.255859375
-80.56640625
-83.31298828125
-80.56640625
-107.11669921875
-103.45458984375
-111.6943359375
-115.3564453125
-127.25830078125
-112.60986328125
-111.6943359375
-98.876953125
-83.31298828125
-93.3837890625
-98.876953125
-108.94775390625
-136.41357421875
-144.6533203125
-126.3427734375
-102.5390625
-93.3837890625
-97.96142578125
-118.10302734375
-105.28564453125
-113.525390625
-129.08935546875
-129.08935546875
-132.75146484375
-127.25830078125
-117.1875
-132.75146484375
-139.16015625
-129.08935546875
-109.86328125
-109.86328125
-119.0185546875
-117.1875
-114.44091796875
-110.77880859375
-115.3564453125
-107.11669921875
-91.552734375
-88.80615234375
-97.0458984375
-87.890625
-55.84716796875
-66.83349609375
-90.63720703125
-106.201171875
-105.28564453125
-94.29931640625
-79.65087890625
-61.34033203125
-48.52294921875
-43.9453125
-35.70556640625
-34.7900390625
-39.36767578125
-29.296875
-34.7900390625
-41.19873046875
-41.19873046875
-40.283203125
-43.02978515625
-37.53662109375
-47.607421875
-69.580078125
-74.15771484375
-71.4111328125
-49.4384765625
-53.1005859375
-54.01611328125
-60.4248046875
-62.255859375
-66.83349609375
-75.0732421875
-90.63720703125
-116.27197265625
-140.07568359375
-132.75146484375
-112.60986328125
-99.79248046875
-96.13037109375
-90.63720703125
-95.21484375
-108.0322265625
-104.3701171875
-117.1875
-128.173828125
-132.75146484375
-145.56884765625
-143.73779296875
-124.51171875
-111.6943359375
-117.1875
-119.93408203125
-119.0185546875
-123.59619140625
-116.27197265625
-107.11669921875
-120.849609375
-119.93408203125
-121.76513671875
-133.6669921875
-136.41357421875
-130.0048828125
-119.0185546875
-110.77880859375
-116.27197265625
-125.42724609375
-117.1875
-118.10302734375
-112.60986328125
-122.6806640625
-130.0048828125
-142.822265625
-144.6533203125
-133.6669921875
-92.46826171875
-53.1005859375
-12.8173828125
59.50927734375
173.9501953125
324.0966796875
505.37109375
727.84423828125
942.9931640625
1127.9296875
1245.1171875
1291.80908203125
1273.49853515625
1164.55078125
1052.8564453125
856.01806640625
541.07666015625
260.009765625
50.35400390625
-72.32666015625
-138.24462890625
-144.6533203125
-86.0595703125
-16.4794921875
16.4794921875
27.4658203125
44.86083984375
52.18505859375
38.4521484375
27.4658203125
10.986328125
-30.21240234375
-38.4521484375
-35.70556640625
-31.1279296875
-23.8037109375
-31.1279296875
-47.607421875
-46.69189453125
-52.18505859375
-37.53662109375
-22.88818359375
-16.4794921875
-18.310546875
-20.1416015625
-19.22607421875
-32.04345703125
-65.91796875
-91.552734375
-91.552734375
-80.56640625
-62.255859375
-45.7763671875
-4.57763671875
4.57763671875
-13.73291015625
-31.1279296875
-9.1552734375
-10.07080078125
-46.69189453125
-65.00244140625
-59.50927734375
-46.69189453125
-37.53662109375
-9.1552734375
-6.40869140625
-17.39501953125
-10.07080078125
-2.74658203125
4.57763671875
5.4931640625
-10.07080078125
-32.04345703125
-21.97265625
-10.07080078125
-10.07080078125
6.40869140625
24.71923828125
13.73291015625
-0.91552734375
4.57763671875
31.1279296875
42.1142578125
64.0869140625
51.26953125
34.7900390625
18.310546875
7.32421875
19.22607421875
42.1142578125
55.84716796875
57.67822265625
65.00244140625
90.63720703125
99.79248046875
97.0458984375
107.11669921875
100.7080078125
108.0322265625
120.849609375
136.41357421875
144.6533203125
136.41357421875
119.0185546875
122.6806640625
143.73779296875
164.794921875
176.69677734375
174.86572265625
173.03466796875
182.18994140625
209.65576171875
215.14892578125
208.740234375
195.9228515625
200.50048828125
210.5712890625
198.66943359375
220.64208984375
248.10791015625
249.93896484375
235.29052734375
226.13525390625
215.14892578125
216.97998046875
216.064453125
205.99365234375
174.86572265625
154.72412109375
148.3154296875
122.6806640625
117.1875
128.173828125
109.86328125
91.552734375
84.228515625
87.890625
72.32666015625
61.34033203125
46.69189453125
10.986328125
-29.296875
-43.9453125
-38.4521484375
-41.19873046875
-57.67822265625
-45.7763671875
-41.19873046875
-59.50927734375
-73.2421875
-90.63720703125
-112.60986328125
-114.44091796875
-84.228515625
-66.83349609375
-66.83349609375
-49.4384765625
-54.931640625
-76.904296875
-81.48193359375
-86.97509765625
-98.876953125
-118.10302734375
-122.6806640625
-112.60986328125
-109.86328125
-106.201171875
-100.7080078125
-89.7216796875
-94.29931640625
-94.29931640625
-96.13037109375
-108.94775390625
-122.6806640625
-138.24462890625
-126.3427734375
-97.96142578125
-95.21484375
-86.97509765625
-99.79248046875
-127.25830078125
-149.23095703125
-121.76513671875
-111.6943359375
-119.93408203125
-117.1875
-129.08935546875
-122.6806640625
-111.6943359375
-88.80615234375
-77.81982421875
-82.3974609375
-96.13037109375
-108.94775390625
-116.27197265625
-113.525390625
-102.5390625
-79.65087890625
-72.32666015625
-70.49560546875
-76.904296875
-90.63720703125
-111.6943359375
-100.7080078125
-104.3701171875
-104.3701171875
-86.0595703125
-91.552734375
-99.79248046875
-111.6943359375
-126.3427734375
-108.94775390625
-99.79248046875
-126.3427734375
-135.498046875
-130.92041015625
-125.42724609375
-117.1875
-115.3564453125
-112.60986328125
-122.6806640625
-137.3291015625
-119.0185546875
-107.11669921875
-93.3837890625
-95.21484375
-114.44091796875
-128.173828125
-137.3291015625
-114.44091796875
-100.7080078125
-97.96142578125
-77.81982421875
-65.00244140625
-77.81982421875
-79.65087890625
-94.29931640625
-104.3701171875
-97.0458984375
-95.21484375
-106.201171875
-112.60986328125
-138.24462890625
-162.04833984375
-165.71044921875
-157.470703125
-148.3154296875
-141.90673828125
-122.6806640625
-118.10302734375
-127.25830078125
-122.6806640625
-130.92041015625
-140.07568359375
-130.92041015625
-135.498046875
-164.794921875
-187.68310546875
-186.767578125
-186.767578125
-138.24462890625
-98.876953125
-108.0322265625
-129.08935546875
-149.23095703125
-177.6123046875
-172.119140625
-144.6533203125
-130.0048828125
-144.6533203125
-135.498046875
-149.23095703125
-171.20361328125
-184.02099609375
-160.21728515625
-146.484375
-120.849609375
-125.42724609375
-137.3291015625
-148.3154296875
-167.54150390625
-158.38623046875
-155.6396484375
-139.16015625
-126.3427734375
-127.25830078125
-154.72412109375
-180.35888671875
-191.34521484375
-214.2333984375
-198.66943359375
-176.69677734375
-151.9775390625
-118.10302734375
-119.0185546875
-133.6669921875
-154.72412109375
-194.091796875
-204.16259765625
-220.64208984375
-216.064453125
-204.16259765625
-166.6259765625
-128.173828125
-133.6669921875
-160.21728515625
-182.18994140625
-174.86572265625
-154.72412109375
-140.07568359375
-117.1875
-133.6669921875
-166.6259765625
-180.35888671875
-184.9365234375
-167.54150390625
-161.1328125
-149.23095703125
-142.822265625
-157.470703125
-154.72412109375
-121.76513671875
-84.228515625
-72.32666015625
-91.552734375
-124.51171875
-143.73779296875
-173.03466796875
-155.6396484375
-153.80859375
-127.25830078125
-108.94775390625
-107.11669921875
-82.3974609375
-71.4111328125
-96.13037109375
-126.3427734375
-140.9912109375
-124.51171875
-92.46826171875
-80.56640625
-81.48193359375
-86.0595703125
-90.63720703125
-97.96142578125
-104.3701171875
-130.92041015625
-154.72412109375
-151.9775390625
-147.39990234375
-148.3154296875
-146.484375
-168.45703125
-156.55517578125
-157.470703125
-175.78125
-200.50048828125
-193.17626953125
-191.34521484375
-212.40234375
-213.31787109375
-195.00732421875
-195.00732421875
-189.51416015625
-165.71044921875
-143.73779296875
-123.59619140625
-144.6533203125
-187.68310546875
-208.740234375
-202.33154296875
-169.37255859375
-149.23095703125
-137.3291015625
-132.75146484375
-141.90673828125
-138.24462890625
-146.484375
-158.38623046875
-160.21728515625
-151.9775390625
-142.822265625
-136.41357421875
-169.37255859375
-216.064453125
-238.037109375
-234.375
-206.9091796875
-149.23095703125
-97.96142578125
-78.7353515625
-54.931640625
2.74658203125
105.28564453125
249.0234375
433.9599609375
615.234375
834.04541015625
1050.10986328125
1195.6787109375
1304.62646484375
1307.373046875
1203.91845703125
1056.5185546875
833.1298828125
501.708984375
220.64208984375
44.86083984375
-79.65087890625
-140.9912109375
-154.72412109375
-113.525390625
-76.904296875
-49.4384765625
-22.88818359375
-10.986328125
-4.57763671875
2.74658203125
1.8310546875
-18.310546875
-23.8037109375
-30.21240234375
-45.7763671875
-29.296875
-33.87451171875
-43.9453125
-66.83349609375
-75.0732421875
-59.50927734375
-69.580078125
-69.580078125
-65.00244140625
-58.59375
-43.9453125
-42.1142578125
-49.4384765625
-75.0732421875
-94.29931640625
-78.7353515625
-62.255859375
-54.931640625
-41.19873046875
-63.17138671875
-91.552734375
-104.3701171875
-86.97509765625
-77.81982421875
-65.00244140625
-33.87451171875
-24.71923828125
-21.05712890625
-25.634765625
-32.958984375
-21.97265625
-30.21240234375
-38.4521484375
-39.36767578125
-35.70556640625
-41.19873046875
-41.19873046875
-24.71923828125
-23.8037109375
-27.4658203125
-43.02978515625
-60.4248046875
-56.7626953125
-19.22607421875
10.07080078125
22.88818359375
21.97265625
12.8173828125
0
-2.74658203125
14.6484375
9.1552734375
-7.32421875
7.32421875
32.958984375
41.19873046875
54.931640625
67.7490234375
66.83349609375
64.0869140625
77.81982421875
86.0595703125
86.97509765625
86.97509765625
103.45458984375
105.28564453125
97.96142578125
101.62353515625
98.876953125
124.51171875
137.3291015625
156.55517578125
165.71044921875
173.03466796875
169.37255859375
168.45703125
175.78125
187.68310546875
194.091796875
182.18994140625
165.71044921875
187.68310546875
191.34521484375
191.34521484375
190.4296875
189.51416015625
196.83837890625
194.091796875
195.00732421875
184.02099609375
178.52783203125
158.38623046875
153.80859375
135.498046875
143.73779296875
140.07568359375
97.0458984375
81.48193359375
59.50927734375
63.17138671875
62.255859375
53.1005859375
38.4521484375
19.22607421875
3.662109375
-18.310546875
-27.4658203125
-26.55029296875
-21.97265625
-23.8037109375
-46.69189453125
-81.48193359375
-103.45458984375
-107.11669921875
-100.7080078125
-86.0595703125
-87.890625
-96.13037109375
-118.10302734375
-109.86328125
-108.0322265625
-111.6943359375
-119.0185546875
-135.498046875
-152.89306640625
-149.23095703125
-174.86572265625
-178.52783203125
-152.89306640625
-120.849609375
-110.77880859375
-127.25830078125
-138.24462890625
-136.41357421875
-135.498046875
-130.92041015625
-127.25830078125
-117.1875
-113.525390625
-128.173828125
-143.73779296875
-133.6669921875
-142.822265625
-165.71044921875
-175.78125
-155.6396484375
-136.41357421875
-149.23095703125
-150.146484375
-135.498046875
-119.93408203125
-123.59619140625
-118.10302734375
-112.60986328125
-109.86328125
-115.3564453125
-123.59619140625
-140.07568359375
-153.80859375
-142.822265625
-119.0185546875
-119.0185546875
-120.849609375
-122.6806640625
-121.76513671875
-127.25830078125
-128.173828125
-135.498046875
-156.55517578125
-149.23095703125
-136.41357421875
-125.42724609375
-105.28564453125
-91.552734375
-99.79248046875
-120.849609375
-138.24462890625
-142.822265625
-170.2880859375
-164.794921875
-149.23095703125
-130.92041015625
-108.0322265625
-92.46826171875
-83.31298828125
-78.7353515625
-95.21484375
-107.11669921875
-119.93408203125
-112.60986328125
-115.3564453125
-123.59619140625
-118.10302734375
-135.498046875
-141.90673828125
-133.6669921875
-118.10302734375
-112.60986328125
-92.46826171875
-96.13037109375
-93.3837890625
-100.7080078125
-113.525390625
-128.173828125
-130.0048828125
-124.51171875
-115.3564453125
-119.93408203125
-130.92041015625
-129.08935546875
-120.849609375
-122.6806640625
-124.51171875
-121.76513671875
-111.6943359375
-119.93408203125
-136.41357421875
-144.6533203125
-148.3154296875
-138.24462890625
-120.849609375
-121.76513671875
-140.9912109375
-154.72412109375
-147.39990234375
-147.39990234375
-135.498046875
-133.6669921875
-131.8359375
-128.173828125
-124.51171875
-119.93408203125
-120.849609375
-138.24462890625
-160.21728515625
-178.52783203125
-154.72412109375
-133.6669921875
-127.25830078125
-119.93408203125
-115.3564453125
-126.3427734375
-123.59619140625
-124.51171875
-120.849609375
-130.92041015625
-151.9775390625
-151.06201171875
-158.38623046875
-145.56884765625
-132.75146484375
-140.07568359375
-136.41357421875
-129.08935546875
-130.0048828125
-138.24462890625
-161.1328125
-184.02099609375
-160.21728515625
-140.9912109375
-136.41357421875
-134.58251953125
-127.25830078125
-130.0048828125
-143.73779296875
-153.80859375
-152.89306640625
-138.24462890625
-119.93408203125
-124.51171875
-140.9912109375
-142.822265625
-162.9638671875
-169.37255859375
-140.07568359375
-111.6943359375
-112.60986328125
-101.62353515625
-110.77880859375
-93.3837890625
-107.11669921875
-100.7080078125
-87.890625
-105.28564453125
-90.63720703125
-83.31298828125
-93.3837890625
-94.29931640625
-90.63720703125
-75.0732421875
-71.4111328125
-74.15771484375
-85.14404296875
-91.552734375
-91.552734375
-100.7080078125
-90.63720703125
-78.7353515625
-84.228515625
-76.904296875
-80.56640625
-55.84716796875
-62.255859375
-102.5390625
-99.79248046875
-131.8359375
-147.39990234375
-141.90673828125
-129.08935546875
-118.10302734375
-128.173828125
-123.59619140625
-113.525390625
-126.3427734375
-157.470703125
-134.58251953125
-150.146484375
-137.3291015625
-146.484375
-162.9638671875
-155.6396484375
-170.2880859375
-153.80859375
-146.484375
-143.73779296875
-144.6533203125
-147.39990234375
-135.498046875
-135.498046875
-139.16015625
-125.42724609375
-136.41357421875
-130.0048828125
-140.07568359375
-146.484375
-150.146484375
-143.73779296875
-128.173828125
-108.0322265625
-119.93408203125
-140.9912109375
-134.58251953125
-146.484375
-170.2880859375
-187.68310546875
-205.99365234375
-196.83837890625
-151.9775390625
-91.552734375
-43.02978515625
3.662109375
112.60986328125
251.77001953125
434.87548828125
633.544921875
822.1435546875
1043.701171875
1181.94580078125
1256.103515625
1233.21533203125
1136.16943359375
992.431640625
803.8330078125
499.8779296875
240.78369140625
79.65087890625
-68.66455078125
-115.3564453125
-123.59619140625
-112.60986328125
-97.0458984375
-66.83349609375
-51.26953125
-22.88818359375
-38.4521484375
-48.52294921875
-48.52294921875
-60.4248046875
-51.26953125
-43.9453125
-72.32666015625
-72.32666015625
-95.21484375
-112.60986328125
-103.45458984375
-92.46826171875
-113.525390625
-75.0732421875
-101.62353515625
-125.42724609375
-134.58251953125
-103.45458984375
-55.84716796875
-81.48193359375
-63.17138671875
-75.98876953125
-91.552734375
-94.29931640625
-64.0869140625
-79.65087890625
-96.13037109375
-86.0595703125
-92.46826171875
-92.46826171875
-82.3974609375
-75.98876953125
-91.552734375
-75.98876953125
-75.0732421875
-74.15771484375
-77.81982421875
-69.580078125
-56.7626953125
-35.70556640625
-31.1279296875
-32.04345703125
-43.9453125
-35.70556640625
-35.70556640625
-25.634765625
-17.39501953125
-23.8037109375
-31.1279296875
-21.05712890625
-34.7900390625
-32.04345703125
-20.1416015625
-15.56396484375
-15.56396484375
-10.986328125
5.4931640625
0.91552734375
-11.90185546875
8.23974609375
32.04345703125
31.1279296875
44.86083984375
62.255859375
70.49560546875
61.34033203125
71.4111328125
55.84716796875
55.84716796875
54.01611328125
85.14404296875
107.11669921875
82.3974609375
87.890625
111.6943359375
127.25830078125
135.498046875
151.06201171875
133.6669921875
140.07568359375
160.21728515625
157.470703125
178.52783203125
174.86572265625
183.10546875
176.69677734375
176.69677734375
167.54150390625
173.03466796875
188.5986328125
203.2470703125
197.75390625
180.35888671875
162.9638671875
194.091796875
169.37255859375
162.9638671875
167.54150390625
167.54150390625
178.52783203125
173.9501953125
144.6533203125
122.6806640625
109.86328125
85.14404296875
52.18505859375
78.7353515625
80.56640625
62.255859375
15.56396484375
-32.958984375
-71.4111328125
-59.50927734375
-61.34033203125
-49.4384765625
-31.1279296875
-35.70556640625
-40.283203125
-47.607421875
-49.4384765625
-62.255859375
-87.890625
-120.849609375
-139.16015625
-134.58251953125
-111.6943359375
-107.11669921875
-112.60986328125
-128.173828125
-161.1328125
-169.37255859375
-154.72412109375
-146.484375
-137.3291015625
-128.173828125
-138.24462890625
-147.39990234375
-158.38623046875
-151.06201171875
-140.07568359375
-137.3291015625
-153.80859375
-143.73779296875
-161.1328125
-196.83837890625
-170.2880859375
-165.71044921875
-157.470703125
-153.80859375
-161.1328125
-178.52783203125
-192.2607421875
-207.82470703125
-180.35888671875
-167.54150390625
-151.9775390625
-148.3154296875
-158.38623046875
-173.03466796875
-175.78125
-170.2880859375
-172.119140625
-175.78125
-170.2880859375
-166.6259765625
-155.6396484375
-155.6396484375
-156.55517578125
-170.2880859375
-176.69677734375
-164.794921875
-161.1328125
-148.3154296875
-132.75146484375
-122.6806640625
-124.51171875
-125.42724609375
-148.3154296875
-176.69677734375
-186.767578125
-188.5986328125
-172.119140625
-140.07568359375
-149.23095703125
-149.23095703125
-146.484375
-145.56884765625
-157.470703125
-147.39990234375
-134.58251953125
-137.3291015625
-125.42724609375
-147.39990234375
-156.55517578125
-160.21728515625
-142.822265625
-133.6669921875
-129.08935546875
-101.62353515625
-123.59619140625
-141.90673828125
-140.9912109375
-163.87939453125
-163.87939453125
-160.21728515625
-143.73779296875
-152.89306640625
-142.822265625
-141.90673828125
-135.498046875
-137.3291015625
-149.23095703125
-160.21728515625
-140.07568359375
-135.498046875
-138.24462890625
-136.41357421875
-128.173828125
-138.24462890625
-151.06201171875
-154.72412109375
-160.21728515625
-149.23095703125
-144.6533203125
-138.24462890625
-130.0048828125
-140.9912109375
-144.6533203125
-151.06201171875
-160.21728515625
-160.21728515625
-162.04833984375
-166.6259765625
-166.6259765625
-155.6396484375
-167.54150390625
-173.9501953125
-178.52783203125
-176.69677734375
-157.470703125
-155.6396484375
-152.89306640625
-146.484375
-161.1328125
-168.45703125
-162.9638671875
-159.3017578125
-151.9775390625
-147.39990234375
-151.9775390625
-153.80859375
-152.89306640625
-156.55517578125
-162.04833984375
-158.38623046875
-149.23095703125
-150.146484375
-154.72412109375
-151.9775390625
-158.38623046875
-171.20361328125
-170.2880859375
-162.9638671875
-146.484375
-159.3017578125
-167.54150390625
-166.6259765625
-163.87939453125
-162.04833984375
-165.71044921875
-174.86572265625
-186.767578125
-169.37255859375
-164.794921875
-154.72412109375
-135.498046875
-128.173828125
-131.8359375
-147.39990234375
-163.87939453125
-154.72412109375
-143.73779296875
-148.3154296875
-145.56884765625
-146.484375
-141.90673828125
-145.56884765625
-141.90673828125
-129.08935546875
-119.0185546875
-115.3564453125
-122.6806640625
-125.42724609375
-115.3564453125
-108.0322265625
-107.11669921875
-98.876953125
-100.7080078125
-84.228515625
-72.32666015625
-73.2421875
-71.4111328125
-75.0732421875
-71.4111328125
-79.65087890625
-93.3837890625
-119.93408203125
-134.58251953125
-130.92041015625
-116.27197265625
-105.28564453125
-95.21484375
-84.228515625
-103.45458984375
-124.51171875
-144.6533203125
-134.58251953125
-128.173828125
-132.75146484375
-149.23095703125
-162.04833984375
-171.20361328125
-183.10546875
-184.9365234375
-165.71044921875
-167.54150390625
-168.45703125
-150.146484375
-159.3017578125
-181.2744140625
-179.443359375
-184.02099609375
-183.10546875
-192.2607421875
-195.9228515625
-181.2744140625
-174.86572265625
-169.37255859375
-175.78125
-183.10546875
-182.18994140625
-165.71044921875
-167.54150390625
-171.20361328125
-165.71044921875
-170.2880859375
-168.45703125
-153.80859375
-168.45703125
-167.54150390625
-173.9501953125
-183.10546875
-189.51416015625
-195.9228515625
-200.50048828125
-199.5849609375
-185.85205078125
-147.39990234375
-86.0595703125
-20.1416015625
38.4521484375
134.58251953125
288.39111328125
471.49658203125
674.74365234375
878.90625
1038.2080078125
1151.7333984375
1238.70849609375
1222.22900390625
1111.4501953125
989.68505859375
812.98828125
497.13134765625
206.9091796875
-1.8310546875
-120.849609375
-157.470703125
-151.9775390625
-113.525390625
-68.66455078125
-35.70556640625
-30.21240234375
-38.4521484375
-48.52294921875
-48.52294921875
-52.18505859375
-58.59375
-51.26953125
-59.50927734375
-61.34033203125
-78.7353515625
-91.552734375
-91.552734375
-87.890625
-88.80615234375
-90.63720703125
-86.0595703125
-93.3837890625
-103.45458984375
-101.62353515625
-100.7080078125
-102.5390625
-82.3974609375
-79.65087890625
-85.14404296875
-89.7216796875
-95.21484375
-92.46826171875
-85.14404296875
-84.228515625
-77.81982421875
-80.56640625
-81.48193359375
-78.7353515625
-75.98876953125
-85.14404296875
-74.15771484375
-56.7626953125
-60.4248046875
-83.31298828125
-75.0732421875
-62.255859375
-56.7626953125
-58.59375
-47.607421875
-40.283203125
-44.86083984375
-41.19873046875
-32.958984375
-38.4521484375
-49.4384765625
-26.55029296875
-31.1279296875
-23.8037109375
-30.21240234375
-41.19873046875
-34.7900390625
-16.4794921875
-12.8173828125
-16.4794921875
-13.73291015625
7.32421875
11.90185546875
39.36767578125
43.9453125
44.86083984375
40.283203125
44.86083984375
43.02978515625
48.52294921875
63.17138671875
70.49560546875
57.67822265625
65.91796875
73.2421875
70.49560546875
87.890625
114.44091796875
98.876953125
119.93408203125
130.0048828125
144.6533203125
161.1328125
173.9501953125
170.2880859375
172.119140625
172.119140625
156.55517578125
164.794921875
167.54150390625
192.2607421875
183.10546875
177.6123046875
190.4296875
196.83837890625
201.416015625
207.82470703125
203.2470703125
202.33154296875
203.2470703125
186.767578125
169.37255859375
165.71044921875
151.06201171875
140.9912109375
134.58251953125
117.1875
101.62353515625
72.32666015625
54.931640625
46.69189453125
46.69189453125
41.19873046875
19.22607421875
11.90185546875
0.91552734375
-26.55029296875
-31.1279296875
-36.62109375
-54.931640625
-70.49560546875
-66.83349609375
-61.34033203125
-66.83349609375
-90.63720703125
-88.80615234375
-76.904296875
-83.31298828125
-91.552734375
-105.28564453125
-134.58251953125
-119.93408203125
-97.0458984375
-94.29931640625
-105.28564453125
-131.8359375
-107.11669921875
-111.6943359375
-102.5390625
-92.46826171875
-104.3701171875
-113.525390625
-108.0322265625
-142.822265625
-118.10302734375
-137.3291015625
-142.822265625
-123.59619140625
-139.16015625
-146.484375
-111.6943359375
-105.28564453125
-110.77880859375
-110.77880859375
-88.80615234375
-77.81982421875
-95.21484375
-137.3291015625
-140.07568359375
-134.58251953125
-140.07568359375
-122.6806640625
-108.0322265625
-118.10302734375
-122.6806640625
-118.10302734375
-98.876953125
-89.7216796875
-120.849609375
-100.7080078125
-117.1875
-116.27197265625
-128.173828125
-119.93408203125
-125.42724609375
-114.44091796875
-105.28564453125
-97.0458984375
-95.21484375
-110.77880859375
-142.822265625
-106.201171875
-108.94775390625
-114.44091796875
-120.849609375
-118.10302734375
-126.3427734375
-119.0185546875
-86.97509765625
-91.552734375
-94.29931640625
-111.6943359375
-113.525390625
-129.08935546875
-112.60986328125
-106.201171875
-131.8359375
-128.173828125
-88.80615234375
-82.3974609375
-77.81982421875
-99.79248046875
-117.1875
-125.42724609375
-141.90673828125
-146.484375
-122.6806640625
-116.27197265625
-100.7080078125
-97.96142578125
-89.7216796875
-107.11669921875
-122.6806640625
-118.10302734375
-109.86328125
-101.62353515625
-98.876953125
-98.876953125
-99.79248046875
-106.201171875
-104.3701171875
-89.7216796875
-90.63720703125
-86.97509765625
-82.3974609375
-92.46826171875
-115.3564453125
-85.14404296875
-77.81982421875
-69.580078125
-69.580078125
-94.29931640625
-92.46826171875
-75.0732421875
-102.5390625
-76.904296875
-66.83349609375
-75.0732421875
-81.48193359375
-93.3837890625
-97.0458984375
-107.11669921875
-119.0185546875
-108.0322265625
-99.79248046875
-103.45458984375
-82.3974609375
-80.56640625
-78.7353515625
-86.97509765625
-91.552734375
-88.80615234375
-87.890625
-87.890625
-89.7216796875
-95.21484375
-99.79248046875
-86.0595703125
-99.79248046875
-104.3701171875
-104.3701171875
-94.29931640625
-76.904296875
-80.56640625
-92.46826171875
-94.29931640625
-86.0595703125
-87.890625
-86.0595703125
-98.876953125
-106.201171875
-98.876953125
-89.7216796875
-80.56640625
-80.56640625
-85.14404296875
-93.3837890625
-101.62353515625
-100.7080078125
-112.60986328125
-112.60986328125
-105.28564453125
-96.13037109375
-99.79248046875
-93.3837890625
-86.97509765625
-87.890625
-81.48193359375
-68.66455078125
-65.91796875
-61.34033203125
-63.17138671875
-59.50927734375
-57.67822265625
-51.26953125
-45.7763671875
-40.283203125
-43.9453125
-30.21240234375
-23.8037109375
-32.958984375
-44.86083984375
-53.1005859375
-43.9453125
-27.4658203125
-21.05712890625
-20.1416015625
-10.986328125
-11.90185546875
-12.8173828125
-25.634765625
-24.71923828125
-31.1279296875
-42.1142578125
-40.283203125
-26.55029296875
-14.6484375
-14.6484375
-32.958984375
-47.607421875
-55.84716796875
-49.4384765625
-58.59375
-59.50927734375
-63.17138671875
-79.65087890625
-89.7216796875
-82.3974609375
-88.80615234375
-83.31298828125
-97.0458984375
-93.3837890625
-95.21484375
-95.21484375
-91.552734375
-98.876953125
-95.21484375
-92.46826171875
-102.5390625
-105.28564453125
-106.201171875
-110.77880859375
-97.96142578125
-108.94775390625
-103.45458984375
-86.0595703125
-77.81982421875
-95.21484375
-90.63720703125
-95.21484375
-94.29931640625
-95.21484375
-102.5390625
-91.552734375
-97.96142578125
-108.94775390625
-102.5390625
-96.13037109375
-94.29931640625
-111.6943359375
-129.08935546875
-131.8359375
-134.58251953125
-112.60986328125
-72.32666015625
-30.21240234375
13.73291015625
70.49560546875
139.16015625
260.009765625
411.9873046875
605.16357421875
834.04541015625
1020.81298828125
1180.11474609375
1289.97802734375
1357.72705078125
1330.26123046875
1200.25634765625
1034.5458984375
787.353515625
476.07421875
199.5849609375
31.1279296875
-63.17138671875
-111.6943359375
-97.0458984375
-43.9453125
10.07080078125
49.4384765625
63.17138671875
63.17138671875
65.91796875
65.00244140625
41.19873046875
29.296875
10.07080078125
12.8173828125
10.07080078125
0
-3.662109375
-14.6484375
-21.05712890625
-24.71923828125
-21.97265625
-5.4931640625
-6.40869140625
-18.310546875
-26.55029296875
-24.71923828125
-20.1416015625
-13.73291015625
-3.662109375
-10.986328125
-18.310546875
-19.22607421875
-14.6484375
-17.39501953125
-12.8173828125
-17.39501953125
-5.4931640625
-0.91552734375
-2.74658203125
-7.32421875
-4.57763671875
13.73291015625
11.90185546875
14.6484375
24.71923828125
14.6484375
3.662109375
5.4931640625
10.986328125
17.39501953125
32.958984375
25.634765625
35.70556640625
39.36767578125
34.7900390625
33.87451171875
41.19873046875
47.607421875
49.4384765625
56.7626953125
56.7626953125
63.17138671875
68.66455078125
70.49560546875
68.66455078125
55.84716796875
66.83349609375
91.552734375
102.5390625
104.3701171875
109.86328125
119.0185546875
120.849609375
126.3427734375
131.8359375
129.08935546875
123.59619140625
131.8359375
161.1328125
174.86572265625
183.10546875
175.78125
197.75390625
210.5712890625
202.33154296875
207.82470703125
203.2470703125
228.8818359375
247.1923828125
257.26318359375
258.1787109375
249.93896484375
262.75634765625
260.009765625
264.58740234375
275.57373046875
290.22216796875
281.06689453125
269.1650390625
270.08056640625
271.91162109375
287.4755859375
292.05322265625
277.40478515625
270.08056640625
261.8408203125
238.95263671875
228.8818359375
232.5439453125
237.12158203125
236.2060546875
217.8955078125
196.83837890625
184.02099609375
160.21728515625
141.90673828125
108.0322265625
87.890625
75.0732421875
75.98876953125
74.15771484375
72.32666015625
59.50927734375
43.02978515625
14.6484375
-2.74658203125
1.8310546875
13.73291015625
3.662109375
-11.90185546875
-26.55029296875
-33.87451171875
-42.1142578125
-42.1142578125
-28.38134765625
-29.296875
-43.02978515625
-54.01611328125
-56.7626953125
-41.19873046875
-51.26953125
-49.4384765625
-48.52294921875
-52.18505859375
-48.52294921875
-52.18505859375
-57.67822265625
-59.50927734375
-55.84716796875
-48.52294921875
-42.1142578125
-41.19873046875
-40.283203125
-38.4521484375
-32.958984375
-48.52294921875
-59.50927734375
-66.83349609375
-74.15771484375
-80.56640625
-72.32666015625
-50.35400390625
-35.70556640625
-39.36767578125
-47.607421875
-58.59375
-46.69189453125
-36.62109375
-35.70556640625
-28.38134765625
-41.19873046875
-50.35400390625
-46.69189453125
-35.70556640625
-28.38134765625
-38.4521484375
-46.69189453125
-50.35400390625
-65.00244140625
-60.4248046875
-50.35400390625
-43.02978515625
-38.4521484375
-31.1279296875
-25.634765625
-25.634765625
-36.62109375
-40.283203125
-40.283203125
-32.04345703125
-40.283203125
-47.607421875
-67.7490234375
-57.67822265625
-39.36767578125
-28.38134765625
-26.55029296875
-17.39501953125
-19.22607421875
-26.55029296875
-28.38134765625
-30.21240234375
-30.21240234375
-37.53662109375
-46.69189453125
-49.4384765625
-59.50927734375
-48.52294921875
-43.9453125
-44.86083984375
-44.86083984375
-32.958984375
-37.53662109375
-34.7900390625
-31.1279296875
-38.4521484375
-47.607421875
-62.255859375
-71.4111328125
-64.0869140625
-40.283203125
-34.7900390625
-21.05712890625
-14.6484375
-32.04345703125
-49.4384765625
-54.931640625
-72.32666015625
-77.81982421875
-80.56640625
-76.904296875
-59.50927734375
-42.1142578125
-36.62109375
-32.04345703125
-36.62109375
-51.26953125
-59.50927734375
-57.67822265625
-61.34033203125
-54.931640625
-58.59375
-56.7626953125
-57.67822265625
-59.50927734375
-68.66455078125
-78.7353515625
-77.81982421875
-68.66455078125
-71.4111328125
-54.931640625
-63.17138671875
-71.4111328125
-65.00244140625
-54.01611328125
-51.26953125
-55.84716796875
-59.50927734375
-68.66455078125
-80.56640625
-57.67822265625
-47.607421875
-53.1005859375
-66.83349609375
-71.4111328125
-56.7626953125
-65.91796875
-72.32666015625
-69.580078125
-71.4111328125
-85.14404296875
-82.3974609375
-71.4111328125
-63.17138671875
-56.7626953125
-61.34033203125
-83.31298828125
-86.0595703125
-74.15771484375
-73.2421875
-61.34033203125
-58.59375
-62.255859375
-71.4111328125
-71.4111328125
-75.98876953125
-89.7216796875
-86.97509765625
-73.2421875
-75.98876953125
-63.17138671875
-58.59375
-61.34033203125
-77.81982421875
-75.98876953125
-72.32666015625
-65.91796875
-64.0869140625
-54.01611328125
-49.4384765625
-47.607421875
-38.4521484375
-34.7900390625
-21.97265625
-12.8173828125
-18.310546875
-33.87451171875
-50.35400390625
-59.50927734375
-58.59375
-49.4384765625
-39.36767578125
-21.05712890625
-22.88818359375
-19.22607421875
-1.8310546875
14.6484375
17.39501953125
10.07080078125
12.8173828125
-8.23974609375
-29.296875
-38.4521484375
-40.283203125
-20.1416015625
-19.22607421875
-10.986328125
0.91552734375
-9.1552734375
-25.634765625
-43.9453125
-53.1005859375
-50.35400390625
-47.607421875
-41.19873046875
-52.18505859375
-72.32666015625
-74.15771484375
-78.7353515625
-79.65087890625
-74.15771484375
-82.3974609375
-90.63720703125
-103.45458984375
-98.876953125
-96.13037109375
-100.7080078125
-103.45458984375
-105.28564453125
-109.86328125
-108.94775390625
-101.62353515625
-93.3837890625
-79.65087890625
-72.32666015625
-86.97509765625
-91.552734375
-97.0458984375
-106.201171875
-105.28564453125
-97.96142578125
-86.97509765625
-86.0595703125
-68.66455078125
-78.7353515625
-95.21484375
-97.0458984375
-86.97509765625
-89.7216796875
-99.79248046875
-115.3564453125
-108.0322265625
-67.7490234375
-24.71923828125
12.8173828125
46.69189453125
88.80615234375
170.2880859375
316.7724609375
504.45556640625
732.421875
963.134765625
1148.98681640625
1277.16064453125
1356.8115234375
1366.88232421875
1257.01904296875
1112.36572265625
920.10498046875
600.5859375
291.1376953125
57.67822265625
-42.1142578125
-108.94775390625
-109.86328125
-50.35400390625
5.4931640625
36.62109375
51.26953125
52.18505859375
58.59375
56.7626953125
53.1005859375
41.19873046875
33.87451171875
24.71923828125
10.07080078125
12.8173828125
-4.57763671875
-14.6484375
-11.90185546875
-0.91552734375
-0.91552734375
-1.8310546875
-16.4794921875
-25.634765625
-32.04345703125
-22.88818359375
-10.07080078125
-16.4794921875
-28.38134765625
-43.9453125
-41.19873046875
-33.87451171875
-27.4658203125
-22.88818359375
-21.05712890625
-22.88818359375
-22.88818359375
-14.6484375
3.662109375
9.1552734375
0
-5.4931640625
-18.310546875
-8.23974609375
0
14.6484375
24.71923828125
29.296875
25.634765625
14.6484375
13.73291015625
23.8037109375
24.71923828125
11.90185546875
18.310546875
12.8173828125
26.55029296875
36.62109375
37.53662109375
45.7763671875
45.7763671875
48.52294921875
65.91796875
61.34033203125
51.26953125
54.931640625
62.255859375
67.7490234375
75.0732421875
87.890625
96.13037109375
104.3701171875
104.3701171875
96.13037109375
89.7216796875
99.79248046875
116.27197265625
133.6669921875
145.56884765625
158.38623046875
168.45703125
181.2744140625
189.51416015625
190.4296875
192.2607421875
198.66943359375
207.82470703125
214.2333984375
222.47314453125
237.12158203125
243.5302734375
246.27685546875
246.27685546875
250.8544921875
249.0234375
249.0234375
252.685546875
252.685546875
249.0234375
250.8544921875
261.8408203125
256.34765625
265.5029296875
269.1650390625
271.91162109375
266.41845703125
246.27685546875
225.2197265625
211.48681640625
198.66943359375
183.10546875
174.86572265625
167.54150390625
148.3154296875
128.173828125
117.1875
110.77880859375
102.5390625
90.63720703125
80.56640625
63.17138671875
48.52294921875
34.7900390625
23.8037109375
21.05712890625
13.73291015625
2.74658203125
-24.71923828125
-52.18505859375
-56.7626953125
-53.1005859375
-41.19873046875
-28.38134765625
-35.70556640625
-48.52294921875
-50.35400390625
-58.59375
-67.7490234375
-71.4111328125
-66.83349609375
-70.49560546875
-84.228515625
-80.56640625
-75.98876953125
-82.3974609375
-82.3974609375
-75.98876953125
-83.31298828125
-78.7353515625
-72.32666015625
-75.0732421875
-86.0595703125
-90.63720703125
-93.3837890625
-88.80615234375
-92.46826171875
-91.552734375
-83.31298828125
-59.50927734375
-53.1005859375
-62.255859375
-78.7353515625
-81.48193359375
-78.7353515625
-80.56640625
-70.49560546875
-68.66455078125
-68.66455078125
-58.59375
-52.18505859375
-61.34033203125
-80.56640625
-96.13037109375
-95.21484375
-89.7216796875
-73.2421875
-58.59375
-58.59375
-65.00244140625
-70.49560546875
-74.15771484375
-75.0732421875
-81.48193359375
-79.65087890625
-74.15771484375
-75.0732421875
-61.34033203125
-60.4248046875
-59.50927734375
-63.17138671875
-54.01611328125
-59.50927734375
-75.98876953125
-89.7216796875
-81.48193359375
-66.83349609375
-57.67822265625
-53.1005859375
-56.7626953125
-63.17138671875
-72.32666015625
-71.4111328125
-63.17138671875
-63.17138671875
-75.98876953125
-80.56640625
-75.0732421875
-75.0732421875
-76.904296875
-78.7353515625
-76.904296875
-72.32666015625
-73.2421875
-81.48193359375
-74.15771484375
-74.15771484375
-84.228515625
-87.890625
-87.890625
-78.7353515625
-75.0732421875
-80.56640625
-95.21484375
-104.3701171875
-99.79248046875
-94.29931640625
-80.56640625
-70.49560546875
-67.7490234375
-65.00244140625
-64.0869140625
-71.4111328125
-86.0595703125
-79.65087890625
-77.81982421875
-79.65087890625
-101.62353515625
-115.3564453125
-112.60986328125
-108.94775390625
-93.3837890625
-81.48193359375
-97.0458984375
-112.60986328125
-110.77880859375
-104.3701171875
-99.79248046875
-93.3837890625
-81.48193359375
-74.15771484375
-86.97509765625
-100.7080078125
-116.27197265625
-125.42724609375
-129.08935546875
-131.8359375
-122.6806640625
-108.0322265625
-88.80615234375
-75.0732421875
-78.7353515625
-86.97509765625
-100.7080078125
-104.3701171875
-97.96142578125
-93.3837890625
-93.3837890625
-101.62353515625
-101.62353515625
-105.28564453125
-106.201171875
-110.77880859375
-100.7080078125
-94.29931640625
-96.13037109375
-108.94775390625
-117.1875
-114.44091796875
-100.7080078125
-100.7080078125
-101.62353515625
-102.5390625
-103.45458984375
-99.79248046875
-99.79248046875
-96.13037109375
-97.96142578125
-101.62353515625
-105.28564453125
-110.77880859375
-110.77880859375
-120.849609375
-124.51171875
-119.0185546875
-120.849609375
-120.849609375
-111.6943359375
-91.552734375
-85.14404296875
-93.3837890625
-86.97509765625
-80.56640625
-90.63720703125
-82.3974609375
-78.7353515625
-78.7353515625
-72.32666015625
-74.15771484375
-65.00244140625
-75.0732421875
-76.904296875
-70.49560546875
-60.4248046875
-48.52294921875
-60.4248046875
-64.0869140625
-64.0869140625
-58.59375
-53.1005859375
-37.53662109375
-30.21240234375
-29.296875
-34.7900390625
-41.19873046875
-43.9453125
-56.7626953125
-69.580078125
-75.0732421875
-60.4248046875
-59.50927734375
-50.35400390625
-41.19873046875
-49.4384765625
-66.83349609375
-76.904296875
-83.31298828125
-80.56640625
-82.3974609375
-80.56640625
-89.7216796875
-100.7080078125
-111.6943359375
-117.1875
-126.3427734375
-132.75146484375
-133.6669921875
-135.498046875
-104.3701171875
-82.3974609375
-87.890625
-92.46826171875
-95.21484375
-108.94775390625
-116.27197265625
-111.6943359375
-110.77880859375
-119.93408203125
-123.59619140625
-134.58251953125
-142.822265625
-140.9912109375
-144.6533203125
-140.9912109375
-120.849609375
-99.79248046875
-97.96142578125
-93.3837890625
-104.3701171875
-116.27197265625
-120.849609375
-119.93408203125
-110.77880859375
-125.42724609375
-132.75146484375
-142.822265625
-135.498046875
-122.6806640625
-92.46826171875
-65.00244140625
-25.634765625
15.56396484375
83.31298828125
227.05078125
399.169921875
590.51513671875
791.93115234375
997.9248046875
1148.98681640625
1265.2587890625
1297.30224609375
1231.38427734375
1118.7744140625
968.6279296875
707.70263671875
445.86181640625
217.8955078125
40.283203125
-53.1005859375
-88.80615234375
-103.45458984375
-86.97509765625
-44.86083984375
-18.310546875
0.91552734375
17.39501953125
33.87451171875
28.38134765625
19.22607421875
18.310546875
-1.8310546875
-27.4658203125
-38.4521484375
-31.1279296875
-28.38134765625
-37.53662109375
-46.69189453125
-52.18505859375
-54.01611328125
-46.69189453125
-38.4521484375
-24.71923828125
-43.02978515625
-45.7763671875
-39.36767578125
-30.21240234375
-47.607421875
-44.86083984375
-59.50927734375
-68.66455078125
-68.66455078125
-58.59375
-55.84716796875
-40.283203125
-31.1279296875
-22.88818359375
-23.8037109375
-42.1142578125
-52.18505859375
-32.958984375
-22.88818359375
-23.8037109375
-22.88818359375
-5.4931640625
7.32421875
10.07080078125
1.8310546875
-6.40869140625
-13.73291015625
-18.310546875
-3.662109375
8.23974609375
16.4794921875
15.56396484375
14.6484375
16.4794921875
37.53662109375
39.36767578125
27.4658203125
24.71923828125
22.88818359375
28.38134765625
32.04345703125
43.9453125
63.17138671875
76.904296875
82.3974609375
81.48193359375
76.904296875
78.7353515625
91.552734375
86.0595703125
98.876953125
102.5390625
97.0458984375
100.7080078125
108.0322265625
118.10302734375
128.173828125
134.58251953125
146.484375
154.72412109375
173.03466796875
189.51416015625
195.9228515625
193.17626953125
202.33154296875
211.48681640625
212.40234375
216.97998046875
217.8955078125
223.388671875
227.96630859375
222.47314453125
226.13525390625
220.64208984375
219.7265625
236.2060546875
247.1923828125
245.361328125
238.037109375
233.45947265625
225.2197265625
207.82470703125
191.34521484375
199.5849609375
191.34521484375
178.52783203125
159.3017578125
142.822265625
126.3427734375
112.60986328125
93.3837890625
79.65087890625
68.66455078125
58.59375
45.7763671875
44.86083984375
41.19873046875
30.21240234375
-0.91552734375
-15.56396484375
-24.71923828125
-23.8037109375
-28.38134765625
-36.62109375
-43.9453125
-60.4248046875
-65.91796875
-75.0732421875
-80.56640625
-77.81982421875
-73.2421875
-75.98876953125
-81.48193359375
-77.81982421875
-91.552734375
-97.96142578125
-100.7080078125
-85.14404296875
-83.31298828125
-83.31298828125
-79.65087890625
-94.29931640625
-92.46826171875
-97.96142578125
-107.11669921875
-105.28564453125
-101.62353515625
-102.5390625
-97.0458984375
-98.876953125
-107.11669921875
-102.5390625
-98.876953125
-101.62353515625
-97.96142578125
-103.45458984375
-99.79248046875
-86.0595703125
-73.2421875
-69.580078125
-69.580078125
-82.3974609375
-96.13037109375
-108.0322265625
-111.6943359375
-104.3701171875
-95.21484375
-93.3837890625
-99.79248046875
-99.79248046875
-92.46826171875
-80.56640625
-75.98876953125
-77.81982421875
-78.7353515625
-85.14404296875
-95.21484375
-92.46826171875
-84.228515625
-76.904296875
-80.56640625
-83.31298828125
-87.890625
-90.63720703125
-102.5390625
-104.3701171875
-93.3837890625
-83.31298828125
-77.81982421875
-79.65087890625
-67.7490234375
-59.50927734375
-74.15771484375
-85.14404296875
-102.5390625
-100.7080078125
-91.552734375
-98.876953125
-100.7080078125
-100.7080078125
-97.0458984375
-96.13037109375
-88.80615234375
-92.46826171875
-99.79248046875
-97.96142578125
-87.890625
-97.0458984375
-99.79248046875
-111.6943359375
-117.1875
-115.3564453125
-112.60986328125
-108.0322265625
-107.11669921875
-106.201171875
-109.86328125
-119.0185546875
-111.6943359375
-111.6943359375
-107.11669921875
-115.3564453125
-129.08935546875
-143.73779296875
-142.822265625
-133.6669921875
-124.51171875
-114.44091796875
-108.94775390625
-100.7080078125
-98.876953125
-111.6943359375
-126.3427734375
-130.0048828125
-129.08935546875
-134.58251953125
-145.56884765625
-156.55517578125
-150.146484375
-137.3291015625
-134.58251953125
-136.41357421875
-128.173828125
-125.42724609375
-127.25830078125
-124.51171875
-130.0048828125
-137.3291015625
-151.9775390625
-152.89306640625
-143.73779296875
-146.484375
-145.56884765625
-126.3427734375
-121.76513671875
-138.24462890625
-143.73779296875
-156.55517578125
-149.23095703125
-139.16015625
-137.3291015625
-147.39990234375
-157.470703125
-155.6396484375
-161.1328125
-155.6396484375
-146.484375
-145.56884765625
-151.06201171875
-151.9775390625
-151.9775390625
-173.03466796875
-164.794921875
-158.38623046875
-158.38623046875
-153.80859375
-155.6396484375
-149.23095703125
-130.0048828125
-119.0185546875
-124.51171875
-129.08935546875
-124.51171875
-114.44091796875
-98.876953125
-97.0458984375
-104.3701171875
-104.3701171875
-104.3701171875
-112.60986328125
-110.77880859375
-110.77880859375
-99.79248046875
-92.46826171875
-106.201171875
-96.13037109375
-87.890625
-100.7080078125
-113.525390625
-95.21484375
-101.62353515625
-102.5390625
-118.10302734375
-115.3564453125
-123.59619140625
-130.0048828125
-116.27197265625
-102.5390625
-108.94775390625
-125.42724609375
-120.849609375
-124.51171875
-138.24462890625
-144.6533203125
-152.89306640625
-176.69677734375
-179.443359375
-173.03466796875
-167.54150390625
-155.6396484375
-160.21728515625
-152.89306640625
-169.37255859375
-179.443359375
-175.78125
-183.10546875
-158.38623046875
-158.38623046875
-152.89306640625
-164.794921875
-178.52783203125
-172.119140625
-186.767578125
-188.5986328125
-152.89306640625
-155.6396484375
-162.04833984375
-165.71044921875
-171.20361328125
-166.6259765625
-183.10546875
-184.02099609375
-159.3017578125
-159.3017578125
-174.86572265625
-167.54150390625
-167.54150390625
-191.34521484375
-205.99365234375
-210.5712890625
-210.5712890625
-180.35888671875
-152.89306640625
-115.3564453125
-105.28564453125
-65.91796875
34.7900390625
142.822265625
299.37744140625
452.2705078125
647.27783203125
856.93359375
1039.12353515625
1162.7197265625
1230.46875
1209.41162109375
1110.53466796875
983.2763671875
758.97216796875
462.34130859375
244.44580078125
91.552734375
-33.87451171875
-57.67822265625
-75.98876953125
-78.7353515625
-86.0595703125
-108.0322265625
-65.00244140625
-80.56640625
-53.1005859375
-58.59375
-47.607421875
-40.283203125
-50.35400390625
-47.607421875
-35.70556640625
-35.70556640625
-31.1279296875
-22.88818359375
-65.91796875
-54.931640625
-79.65087890625
-105.28564453125
-66.83349609375
-54.01611328125
-52.18505859375
-50.35400390625
-39.36767578125
-41.19873046875
-61.34033203125
-41.19873046875
-46.69189453125
-39.36767578125
-76.904296875
-62.255859375
-62.255859375
-52.18505859375
-46.69189453125
-24.71923828125
-32.958984375
-15.56396484375
-44.86083984375
-31.1279296875
-28.38134765625
-34.7900390625
-44.86083984375
-41.19873046875
-10.986328125
-18.310546875
-24.71923828125
-13.73291015625
-14.6484375
-2.74658203125
-9.1552734375
3.662109375
6.40869140625
-0.91552734375
0
16.4794921875
8.23974609375
12.8173828125
34.7900390625
27.4658203125
43.9453125
23.8037109375
29.296875
35.70556640625
40.283203125
46.69189453125
65.00244140625
61.34033203125
88.80615234375
93.3837890625
91.552734375
59.50927734375
66.83349609375
73.2421875
108.0322265625
117.1875
118.10302734375
128.173828125
115.3564453125
113.525390625
150.146484375
200.50048828125
195.00732421875
189.51416015625
183.10546875
184.9365234375
183.10546875
188.5986328125
185.85205078125
204.16259765625
204.16259765625
213.31787109375
227.96630859375
232.5439453125
232.5439453125
247.1923828125
226.13525390625
214.2333984375
216.064453125
191.34521484375
218.81103515625
174.86572265625
193.17626953125
183.10546875
189.51416015625
219.7265625
202.33154296875
178.52783203125
167.54150390625
117.1875
108.0322265625
70.49560546875
75.98876953125
83.31298828125
78.7353515625
43.02978515625
29.296875
-10.07080078125
-28.38134765625
-15.56396484375
1.8310546875
0
-23.8037109375
-47.607421875
-44.86083984375
-40.283203125
-54.01611328125
-71.4111328125
-62.255859375
-86.97509765625
-102.5390625
-81.48193359375
-99.79248046875
-91.552734375
-82.3974609375
-79.65087890625
-97.96142578125
-99.79248046875
-97.96142578125
-83.31298828125
-106.201171875
-103.45458984375
-101.62353515625
-92.46826171875
-77.81982421875
-105.28564453125
-115.3564453125
-115.3564453125
-111.6943359375
-113.525390625
-125.42724609375
-99.79248046875
-98.876953125
-107.11669921875
-99.79248046875
-89.7216796875
-103.45458984375
-119.93408203125
-92.46826171875
-75.0732421875
-104.3701171875
-92.46826171875
-86.0595703125
-105.28564453125
-93.3837890625
-92.46826171875
-95.21484375
-87.890625
-73.2421875
-86.0595703125
-115.3564453125
-76.904296875
-119.0185546875
-121.76513671875
-94.29931640625
-102.5390625
-115.3564453125
-115.3564453125
-97.0458984375
-59.50927734375
-45.7763671875
-65.00244140625
-93.3837890625
-82.3974609375
-84.228515625
-104.3701171875
-69.580078125
-84.228515625
-104.3701171875
-51.26953125
-49.4384765625
-61.34033203125
-100.7080078125
-108.94775390625
-102.5390625
-99.79248046875
-86.0595703125
-73.2421875
-66.83349609375
-62.255859375
-90.63720703125
-102.5390625
-103.45458984375
-133.6669921875
-132.75146484375
-133.6669921875
-104.3701171875
-90.63720703125
-54.01611328125
-70.49560546875
-67.7490234375
-96.13037109375
-83.31298828125
-82.3974609375
-83.31298828125
-113.525390625
-114.44091796875
-65.91796875
-75.0732421875
-105.28564453125
-89.7216796875
-75.98876953125
-91.552734375
-120.849609375
-126.3427734375
-132.75146484375
-130.92041015625
-99.79248046875
-119.93408203125
-106.201171875
-102.5390625
-112.60986328125
-97.0458984375
-93.3837890625
-92.46826171875
-86.97509765625
-98.876953125
-109.86328125
-145.56884765625
-132.75146484375
-107.11669921875
-117.1875
-139.16015625
-132.75146484375
-100.7080078125
-82.3974609375
-63.17138671875
-86.97509765625
-112.60986328125
-123.59619140625
-94.29931640625
-98.876953125
-122.6806640625
-150.146484375
-166.6259765625
-86.0595703125
-73.2421875
-100.7080078125
-84.228515625
-103.45458984375
-133.6669921875
-140.07568359375
-149.23095703125
-121.76513671875
-106.201171875
-99.79248046875
-140.07568359375
-119.93408203125
-122.6806640625
-105.28564453125
-128.173828125
-135.498046875
-141.90673828125
-98.876953125
-73.2421875
-112.60986328125
-119.0185546875
-149.23095703125
-161.1328125
-134.58251953125
-99.79248046875
-66.83349609375
-63.17138671875
-74.15771484375
-52.18505859375
-20.1416015625
-34.7900390625
-51.26953125
-92.46826171875
-69.580078125
-75.98876953125
-77.81982421875
-58.59375
-29.296875
-47.607421875
-42.1142578125
-34.7900390625
-24.71923828125
-34.7900390625
-27.4658203125
-17.39501953125
-32.04345703125
-35.70556640625
-43.9453125
-71.4111328125
-76.904296875
-30.21240234375
-29.296875
-32.958984375
-23.8037109375
-5.4931640625
-21.97265625
-42.1142578125
-38.4521484375
-63.17138671875
-61.34033203125
-58.59375
-83.31298828125
-110.77880859375
-108.0322265625
-87.890625
-110.77880859375
-108.94775390625
-118.10302734375
-67.7490234375
-62.255859375
-100.7080078125
-103.45458984375
-97.0458984375
-77.81982421875
-74.15771484375
-91.552734375
-75.0732421875
-54.931640625
-83.31298828125
-81.48193359375
-69.580078125
-88.80615234375
-103.45458984375
-111.6943359375
-88.80615234375
-57.67822265625
-46.69189453125
-76.904296875
-93.3837890625
-105.28564453125
-133.6669921875
-130.92041015625
-115.3564453125
-78.7353515625
-68.66455078125
-99.79248046875
-74.15771484375
-3.662109375
59.50927734375
114.44091796875
162.9638671875
239.8681640625
357.97119140625
515.44189453125
685.72998046875
913.6962890625
1106.87255859375
