ECG
-49.4384765625
-39.36767578125
-33.87451171875
-29.296875
-25.634765625
-18.310546875
-10.986328125
-10.986328125
-14.6484375
-10.986328125
-3.662109375
7.32421875
7.32421875
13.73291015625
14.6484375
19.22607421875
29.296875
36.62109375
30.21240234375
35.70556640625
41.19873046875
56.7626953125
65.00244140625
80.56640625
81.48193359375
80.56640625
85.14404296875
94.29931640625
98.876953125
107.11669921875
118.10302734375
133.6669921875
147.39990234375
153.80859375
147.39990234375
156.55517578125
164.794921875
168.45703125
172.119140625
178.52783203125
177.6123046875
189.51416015625
191.34521484375
201.416015625
205.078125
206.9091796875
204.16259765625
218.81103515625
214.2333984375
216.064453125
222.47314453125
226.13525390625
221.5576171875
227.05078125
227.96630859375
222.47314453125
219.7265625
212.40234375
199.5849609375
183.10546875
182.18994140625
178.52783203125
165.71044921875
155.6396484375
140.9912109375
129.08935546875
110.77880859375
97.96142578125
77.81982421875
65.00244140625
54.931640625
39.36767578125
22.88818359375
16.4794921875
-3.662109375
-15.56396484375
-31.1279296875
-41.19873046875
-59.50927734375
-68.66455078125
-71.4111328125
-78.7353515625
-90.63720703125
-97.96142578125
-104.3701171875
-111.6943359375
-117.1875
-122.6806640625
-131.8359375
-135.498046875
-140.9912109375
-140.9912109375
-136.41357421875
-143.73779296875
-151.9775390625
-151.06201171875
-154.72412109375
-162.9638671875
-172.119140625
-165.71044921875
-165.71044921875
-167.54150390625
-170.2880859375
-169.37255859375
-160.21728515625
-168.45703125
-169.37255859375
-171.20361328125
-176.69677734375
-180.35888671875
-179.443359375
-173.03466796875
-182.18994140625
-162.04833984375
-161.1328125
-171.20361328125
-166.6259765625
-168.45703125
-164.794921875
-167.54150390625
-161.1328125
-164.794921875
-174.86572265625
-163.87939453125
-160.21728515625
-162.04833984375
-162.04833984375
-161.1328125
-162.04833984375
-168.45703125
-166.6259765625
-162.9638671875
-158.38623046875
-151.9775390625
-153.80859375
-157.470703125
-151.9775390625
-153.80859375
-161.1328125
-162.04833984375
-161.1328125
-157.470703125
-159.3017578125
-157.470703125
-156.55517578125
-162.9638671875
-159.3017578125
-155.6396484375
-160.21728515625
-158.38623046875
-157.470703125
-155.6396484375
-162.9638671875
-156.55517578125
-147.39990234375
-151.9775390625
-154.72412109375
-143.73779296875
-162.04833984375
-163.87939453125
-159.3017578125
-165.71044921875
-160.21728515625
-157.470703125
-162.04833984375
-160.21728515625
-157.470703125
-162.9638671875
-165.71044921875
-165.71044921875
-160.21728515625
-164.794921875
-173.03466796875
-162.9638671875
-162.9638671875
-166.6259765625
-163.87939453125
-168.45703125
-172.119140625
-172.119140625
-171.20361328125
-177.6123046875
-178.52783203125
-166.6259765625
-165.71044921875
-172.119140625
-171.20361328125
-172.119140625
-184.9365234375
-178.52783203125
-178.52783203125
-176.69677734375
-184.9365234375
-173.03466796875
-169.37255859375
-185.85205078125
-180.35888671875
-167.54150390625
-182.18994140625
-186.767578125
-181.2744140625
-182.18994140625
-189.51416015625
-173.9501953125
-182.18994140625
-195.00732421875
-183.10546875
-183.10546875
-186.767578125
-191.34521484375
-195.9228515625
-194.091796875
-185.85205078125
-182.18994140625
-184.9365234375
-183.10546875
-185.85205078125
-188.5986328125
-195.9228515625
-192.2607421875
-189.51416015625
-192.2607421875
-193.17626953125
-187.68310546875
-188.5986328125
-192.2607421875
-189.51416015625
-189.51416015625
-195.9228515625
-195.9228515625
-194.091796875
-195.00732421875
-187.68310546875
-184.9365234375
-194.091796875
-190.4296875
-192.2607421875
-190.4296875
-196.83837890625
-195.9228515625
-195.00732421875
-192.2607421875
-197.75390625
-190.4296875
-191.34521484375
-195.00732421875
-193.17626953125
-185.85205078125
-201.416015625
-199.5849609375
-196.83837890625
-191.34521484375
-194.091796875
-186.767578125
-194.091796875
-195.00732421875
-189.51416015625
-194.091796875
-193.17626953125
-196.83837890625
-191.34521484375
-194.091796875
-192.2607421875
-184.9365234375
-188.5986328125
-195.00732421875
-195.9228515625
-192.2607421875
-198.66943359375
-197.75390625
-196.83837890625
-189.51416015625
-193.17626953125
-190.4296875
-183.10546875
-184.9365234375
-190.4296875
-181.2744140625
-190.4296875
-199.5849609375
-195.00732421875
-197.75390625
-193.17626953125
-190.4296875
-186.767578125
-191.34521484375
-186.767578125
-184.9365234375
-193.17626953125
-195.00732421875
-188.5986328125
-193.17626953125
-195.9228515625
-185.85205078125
-186.767578125
-188.5986328125
-185.85205078125
-190.4296875
-196.83837890625
-198.66943359375
-191.34521484375
-192.2607421875
-186.767578125
-190.4296875
-194.091796875
-192.2607421875
-188.5986328125
-191.34521484375
-188.5986328125
-181.2744140625
-185.85205078125
-180.35888671875
-187.68310546875
-188.5986328125
-181.2744140625
-183.10546875
-183.10546875
-178.52783203125
-195.9228515625
-203.2470703125
-206.9091796875
-212.40234375
-214.2333984375
-207.82470703125
-195.9228515625
-195.00732421875
-196.83837890625
-186.767578125
-201.416015625
-205.078125
-197.75390625
-197.75390625
-187.68310546875
-186.767578125
-195.00732421875
-190.4296875
-201.416015625
-200.50048828125
-205.078125
-207.82470703125
-209.65576171875
-202.33154296875
-200.50048828125
-195.00732421875
-196.83837890625
-201.416015625
-196.83837890625
-189.51416015625
-198.66943359375
-194.091796875
-194.091796875
-196.83837890625
-192.2607421875
-191.34521484375
-190.4296875
-191.34521484375
-186.767578125
-192.2607421875
-203.2470703125
-199.5849609375
-193.17626953125
-192.2607421875
-186.767578125
-172.119140625
-152.89306640625
-129.08935546875
-73.2421875
5.4931640625
81.48193359375
179.443359375
279.23583984375
393.6767578125
510.8642578125
646.3623046875
782.77587890625
926.513671875
1087.646484375
1172.79052734375
1178.28369140625
1094.970703125
960.38818359375
792.8466796875
636.29150390625
539.24560546875
403.74755859375
188.5986328125
15.56396484375
-86.97509765625
-174.86572265625
-219.7265625
-220.64208984375
-205.99365234375
-213.31787109375
-205.99365234375
-184.02099609375
-159.3017578125
-133.6669921875
-115.3564453125
-116.27197265625
-109.86328125
-103.45458984375
-104.3701171875
-108.0322265625
-106.201171875
-108.94775390625
-114.44091796875
-110.77880859375
-108.0322265625
-116.27197265625
-116.27197265625
-116.27197265625
-119.93408203125
-114.44091796875
-107.11669921875
-105.28564453125
-108.94775390625
-107.11669921875
-106.201171875
-103.45458984375
-105.28564453125
-101.62353515625
-102.5390625
-104.3701171875
-101.62353515625
-86.97509765625
-87.890625
-84.228515625
-85.14404296875
-87.890625
-91.552734375
-89.7216796875
-77.81982421875
-74.15771484375
-68.66455078125
-70.49560546875
-70.49560546875
-62.255859375
-54.01611328125
-60.4248046875
-63.17138671875
-60.4248046875
-45.7763671875
-43.9453125
-41.19873046875
-36.62109375
-27.4658203125
-31.1279296875
-22.88818359375
-28.38134765625
-21.97265625
-18.310546875
-21.05712890625
-10.986328125
7.32421875
10.986328125
10.07080078125
15.56396484375
23.8037109375
26.55029296875
32.958984375
37.53662109375
40.283203125
52.18505859375
57.67822265625
62.255859375
66.83349609375
77.81982421875
88.80615234375
83.31298828125
85.14404296875
95.21484375
106.201171875
118.10302734375
126.3427734375
134.58251953125
136.41357421875
146.484375
162.04833984375
152.89306640625
165.71044921875
167.54150390625
171.20361328125
184.9365234375
191.34521484375
196.83837890625
203.2470703125
208.740234375
217.8955078125
216.064453125
212.40234375
227.96630859375
234.375
233.45947265625
242.61474609375
244.44580078125
235.29052734375
240.78369140625
241.69921875
233.45947265625
238.037109375
237.12158203125
235.29052734375
226.13525390625
221.5576171875
206.9091796875
191.34521484375
184.9365234375
168.45703125
149.23095703125
132.75146484375
122.6806640625
110.77880859375
98.876953125
84.228515625
69.580078125
59.50927734375
46.69189453125
22.88818359375
7.32421875
-10.07080078125
-16.4794921875
-29.296875
-40.283203125
-53.1005859375
-65.91796875
-79.65087890625
-86.0595703125
-90.63720703125
-103.45458984375
-114.44091796875
-119.0185546875
-119.0185546875
-125.42724609375
-128.173828125
-132.75146484375
-138.24462890625
-143.73779296875
-145.56884765625
-157.470703125
-157.470703125
-154.72412109375
-155.6396484375
-160.21728515625
-158.38623046875
-159.3017578125
-162.04833984375
-164.794921875
-156.55517578125
-171.20361328125
-169.37255859375
-167.54150390625
-163.87939453125
-171.20361328125
-162.9638671875
-165.71044921875
-166.6259765625
-173.9501953125
-170.2880859375
-175.78125
-177.6123046875
-170.2880859375
-170.2880859375
-173.03466796875
-166.6259765625
-167.54150390625
-169.37255859375
-172.119140625
-171.20361328125
-168.45703125
-172.119140625
-165.71044921875
-167.54150390625
-174.86572265625
-161.1328125
-160.21728515625
-161.1328125
-156.55517578125
-162.9638671875
-161.1328125
-159.3017578125
-158.38623046875
-162.04833984375
-162.9638671875
-159.3017578125
-153.80859375
-158.38623046875
-157.470703125
-158.38623046875
-159.3017578125
-159.3017578125
-157.470703125
-160.21728515625
-156.55517578125
-147.39990234375
-151.06201171875
-155.6396484375
-148.3154296875
-159.3017578125
-161.1328125
-159.3017578125
-159.3017578125
-159.3017578125
-152.89306640625
-152.89306640625
-152.89306640625
-162.04833984375
-160.21728515625
-156.55517578125
-161.1328125
-163.87939453125
-169.37255859375
-161.1328125
-164.794921875
-161.1328125
-159.3017578125
-163.87939453125
-162.9638671875
-166.6259765625
-173.03466796875
-173.03466796875
-168.45703125
-168.45703125
-165.71044921875
-162.9638671875
-168.45703125
-173.03466796875
-177.6123046875
-168.45703125
-173.9501953125
-177.6123046875
-180.35888671875
-184.02099609375
-178.52783203125
-174.86572265625
-176.69677734375
-173.9501953125
-176.69677734375
-180.35888671875
-185.85205078125
-185.85205078125
-182.18994140625
-183.10546875
-184.02099609375
-180.35888671875
-181.2744140625
-184.9365234375
-182.18994140625
-183.10546875
-194.091796875
-188.5986328125
-187.68310546875
-189.51416015625
-186.767578125
-184.02099609375
-183.10546875
-186.767578125
-187.68310546875
-184.9365234375
-193.17626953125
-193.17626953125
-185.85205078125
-187.68310546875
-189.51416015625
-185.85205078125
-187.68310546875
-190.4296875
-192.2607421875
-193.17626953125
-196.83837890625
-201.416015625
-192.2607421875
-194.091796875
-194.091796875
-191.34521484375
-194.091796875
-195.00732421875
-185.85205078125
-190.4296875
-198.66943359375
-198.66943359375
-192.2607421875
-192.2607421875
-198.66943359375
-194.091796875
-190.4296875
-194.091796875
-192.2607421875
-191.34521484375
-196.83837890625
-197.75390625
-195.9228515625
-189.51416015625
-199.5849609375
-188.5986328125
-192.2607421875
-198.66943359375
-197.75390625
-199.5849609375
-200.50048828125
-195.00732421875
-196.83837890625
-195.00732421875
-199.5849609375
-194.091796875
-191.34521484375
-198.66943359375
-195.9228515625
-193.17626953125
-200.50048828125
-203.2470703125
-205.078125
-197.75390625
-192.2607421875
-191.34521484375
-192.2607421875
-197.75390625
-195.9228515625
-192.2607421875
-198.66943359375
-193.17626953125
-196.83837890625
-198.66943359375
-193.17626953125
-194.091796875
-193.17626953125
-199.5849609375
-199.5849609375
-194.091796875
-201.416015625
-199.5849609375
-196.83837890625
-205.078125
-199.5849609375
-197.75390625
-195.9228515625
-197.75390625
-195.9228515625
-193.17626953125
-202.33154296875
-203.2470703125
-195.9228515625
-190.4296875
-201.416015625
-195.00732421875
-197.75390625
-194.091796875
-195.9228515625
-204.16259765625
-198.66943359375
-200.50048828125
-194.091796875
-197.75390625
-199.5849609375
-192.2607421875
-193.17626953125
-197.75390625
-202.33154296875
-196.83837890625
-202.33154296875
-194.091796875
-197.75390625
-200.50048828125
-198.66943359375
-182.18994140625
-181.2744140625
-184.9365234375
-193.17626953125
-194.091796875
-202.33154296875
-195.9228515625
-192.2607421875
-195.00732421875
-183.10546875
-175.78125
-181.2744140625
-178.52783203125
-180.35888671875
-183.10546875
-187.68310546875
-185.85205078125
-187.68310546875
-187.68310546875
-188.5986328125
-195.00732421875
-209.65576171875
-219.7265625
-215.14892578125
-212.40234375
-215.14892578125
-210.5712890625
-200.50048828125
-197.75390625
-207.82470703125
-200.50048828125
-195.00732421875
-199.5849609375
-198.66943359375
-199.5849609375
-207.82470703125
-212.40234375
-210.5712890625
-211.48681640625
-212.40234375
-203.2470703125
-207.82470703125
-215.14892578125
-199.5849609375
-201.416015625
-210.5712890625
-205.99365234375
-203.2470703125
-198.66943359375
-203.2470703125
-195.9228515625
-190.4296875
-190.4296875
-193.17626953125
-191.34521484375
-196.83837890625
-192.2607421875
-194.091796875
-196.83837890625
-198.66943359375
-201.416015625
-209.65576171875
-205.078125
-195.00732421875
-174.86572265625
-162.9638671875
-128.173828125
-78.7353515625
-12.8173828125
82.3974609375
188.5986328125
286.56005859375
404.6630859375
520.93505859375
650.0244140625
782.77587890625
938.41552734375
1092.22412109375
1178.28369140625
1198.42529296875
1120.60546875
986.02294921875
824.89013671875
656.43310546875
550.23193359375
406.494140625
187.68310546875
0.91552734375
-115.3564453125
-187.68310546875
-224.30419921875
-217.8955078125
-216.064453125
-216.064453125
-204.16259765625
-195.9228515625
-162.04833984375
-139.16015625
-122.6806640625
-110.77880859375
-97.96142578125
-100.7080078125
-105.28564453125
-116.27197265625
-113.525390625
-126.3427734375
-125.42724609375
-117.1875
-119.0185546875
-124.51171875
-116.27197265625
-116.27197265625
-116.27197265625
-119.93408203125
-118.10302734375
-119.93408203125
-120.849609375
-116.27197265625
-114.44091796875
-114.44091796875
-107.11669921875
-105.28564453125
-109.86328125
-109.86328125
-97.0458984375
-103.45458984375
-98.876953125
-100.7080078125
-97.0458984375
-102.5390625
-86.97509765625
-79.65087890625
-82.3974609375
-82.3974609375
-65.91796875
-75.98876953125
-76.904296875
-67.7490234375
-69.580078125
-63.17138671875
-57.67822265625
-52.18505859375
-54.931640625
-51.26953125
-45.7763671875
-49.4384765625
-48.52294921875
-39.36767578125
-31.1279296875
-31.1279296875
-26.55029296875
-19.22607421875
-15.56396484375
-12.8173828125
-14.6484375
-1.8310546875
7.32421875
10.07080078125
14.6484375
10.986328125
20.1416015625
31.1279296875
34.7900390625
40.283203125
47.607421875
57.67822265625
49.4384765625
56.7626953125
66.83349609375
75.98876953125
90.63720703125
98.876953125
103.45458984375
105.28564453125
117.1875
113.525390625
119.93408203125
132.75146484375
142.822265625
148.3154296875
158.38623046875
167.54150390625
171.20361328125
177.6123046875
189.51416015625
184.9365234375
188.5986328125
199.5849609375
201.416015625
211.48681640625
220.64208984375
223.388671875
224.30419921875
226.13525390625
231.62841796875
227.05078125
229.79736328125
237.12158203125
237.12158203125
236.2060546875
241.69921875
233.45947265625
220.64208984375
218.81103515625
216.064453125
201.416015625
185.85205078125
181.2744140625
166.6259765625
155.6396484375
150.146484375
136.41357421875
120.849609375
98.876953125
86.0595703125
72.32666015625
46.69189453125
35.70556640625
22.88818359375
5.4931640625
3.662109375
-10.07080078125
-29.296875
-40.283203125
-49.4384765625
-65.00244140625
-78.7353515625
-84.228515625
-93.3837890625
-101.62353515625
-107.11669921875
-114.44091796875
-118.10302734375
-126.3427734375
-131.8359375
-143.73779296875
-151.9775390625
-152.89306640625
-152.89306640625
-158.38623046875
-151.9775390625
-155.6396484375
-163.87939453125
-165.71044921875
-165.71044921875
-172.119140625
-173.03466796875
-173.9501953125
-173.03466796875
-173.03466796875
-172.119140625
-170.2880859375
-174.86572265625
-171.20361328125
-170.2880859375
-175.78125
-181.2744140625
-177.6123046875
-175.78125
-179.443359375
-171.20361328125
-170.2880859375
-170.2880859375
-173.03466796875
-176.69677734375
-183.10546875
-178.52783203125
-180.35888671875
-180.35888671875
-181.2744140625
-174.86572265625
-167.54150390625
-169.37255859375
-167.54150390625
-165.71044921875
-178.52783203125
-168.45703125
-165.71044921875
-163.87939453125
-169.37255859375
-164.794921875
-165.71044921875
-162.9638671875
-157.470703125
-162.9638671875
-165.71044921875
-164.794921875
-166.6259765625
-167.54150390625
-168.45703125
-162.9638671875
-162.9638671875
-166.6259765625
-172.119140625
-166.6259765625
-166.6259765625
-165.71044921875
-165.71044921875
-165.71044921875
-161.1328125
-162.04833984375
-166.6259765625
-165.71044921875
-167.54150390625
-160.21728515625
-164.794921875
-177.6123046875
-176.69677734375
-166.6259765625
-169.37255859375
-166.6259765625
-164.794921875
-175.78125
-167.54150390625
-171.20361328125
-175.78125
-184.02099609375
-178.52783203125
-175.78125
-180.35888671875
-180.35888671875
-174.86572265625
-181.2744140625
-183.10546875
-182.18994140625
-189.51416015625
-189.51416015625
-183.10546875
-189.51416015625
-190.4296875
-186.767578125
-184.9365234375
-184.02099609375
-187.68310546875
-195.00732421875
-197.75390625
-192.2607421875
-189.51416015625
-195.9228515625
-198.66943359375
-195.00732421875
-196.83837890625
-198.66943359375
-194.091796875
-194.091796875
-198.66943359375
-206.9091796875
-204.16259765625
-202.33154296875
-201.416015625
-203.2470703125
-204.16259765625
-206.9091796875
-200.50048828125
-198.66943359375
-204.16259765625
-204.16259765625
-200.50048828125
-202.33154296875
-207.82470703125
-195.9228515625
-203.2470703125
-199.5849609375
-200.50048828125
-204.16259765625
-207.82470703125
-210.5712890625
-209.65576171875
-214.2333984375
-210.5712890625
-208.740234375
-205.99365234375
-201.416015625
-202.33154296875
-203.2470703125
-205.99365234375
-210.5712890625
-208.740234375
-206.9091796875
-214.2333984375
-210.5712890625
-196.83837890625
-204.16259765625
-209.65576171875
-207.82470703125
-212.40234375
-218.81103515625
-220.64208984375
-213.31787109375
-215.14892578125
-210.5712890625
-202.33154296875
-209.65576171875
-206.9091796875
-204.16259765625
-211.48681640625
-213.31787109375
-213.31787109375
-215.14892578125
-209.65576171875
-211.48681640625
-209.65576171875
-213.31787109375
-218.81103515625
-216.064453125
-216.97998046875
-220.64208984375
-221.5576171875
-215.14892578125
-219.7265625
-216.97998046875
-213.31787109375
-216.064453125
-214.2333984375
-217.8955078125
-217.8955078125
-221.5576171875
-222.47314453125
-208.740234375
-218.81103515625
-212.40234375
-213.31787109375
-216.064453125
-214.2333984375
-210.5712890625
-219.7265625
-219.7265625
-220.64208984375
-217.8955078125
-219.7265625
-218.81103515625
-212.40234375
-218.81103515625
-216.064453125
-216.97998046875
-224.30419921875
-225.2197265625
-218.81103515625
-220.64208984375
-218.81103515625
-211.48681640625
-208.740234375
-213.31787109375
-219.7265625
-211.48681640625
-222.47314453125
-221.5576171875
-222.47314453125
-216.97998046875
-222.47314453125
-217.8955078125
-217.8955078125
-214.2333984375
-216.97998046875
-217.8955078125
-222.47314453125
-224.30419921875
-225.2197265625
-218.81103515625
-219.7265625
-216.97998046875
-216.97998046875
-214.2333984375
-213.31787109375
-215.14892578125
-216.97998046875
-227.05078125
-228.8818359375
-221.5576171875
-226.13525390625
-216.97998046875
-212.40234375
-213.31787109375
-219.7265625
-212.40234375
-218.81103515625
-224.30419921875
-222.47314453125
-203.2470703125
-200.50048828125
-205.078125
-207.82470703125
-221.5576171875
-232.5439453125
-228.8818359375
-236.2060546875
-239.8681640625
-227.96630859375
-221.5576171875
-220.64208984375
-224.30419921875
-218.81103515625
-223.388671875
-216.97998046875
-216.97998046875
-222.47314453125
-221.5576171875
-225.2197265625
-232.5439453125
-232.5439453125
-223.388671875
-227.96630859375
-227.96630859375
-234.375
-228.8818359375
-239.8681640625
-241.69921875
-229.79736328125
-231.62841796875
-222.47314453125
-219.7265625
-217.8955078125
-216.97998046875
-213.31787109375
-216.97998046875
-221.5576171875
-223.388671875
-219.7265625
-217.8955078125
-221.5576171875
-217.8955078125
-222.47314453125
-225.2197265625
-228.8818359375
-227.96630859375
-236.2060546875
-223.388671875
-212.40234375
-182.18994140625
-141.90673828125
-59.50927734375
21.05712890625
107.11669921875
210.5712890625
326.84326171875
440.36865234375
562.1337890625
704.04052734375
834.9609375
989.68505859375
1103.21044921875
1116.02783203125
1047.36328125
915.52734375
749.81689453125
581.35986328125
489.80712890625
393.6767578125
217.8955078125
34.7900390625
-66.83349609375
-136.41357421875
-193.17626953125
-222.47314453125
-227.05078125
-240.78369140625
-260.92529296875
-249.93896484375
-236.2060546875
-216.064453125
-191.34521484375
-173.9501953125
-159.3017578125
-140.07568359375
-139.16015625
-140.9912109375
-146.484375
-149.23095703125
-141.90673828125
-143.73779296875
-140.9912109375
-141.90673828125
-148.3154296875
-149.23095703125
-145.56884765625
-142.822265625
-155.6396484375
-155.6396484375
-147.39990234375
-141.90673828125
-137.3291015625
-130.92041015625
-134.58251953125
-136.41357421875
-132.75146484375
-142.822265625
-143.73779296875
-127.25830078125
-131.8359375
-131.8359375
-122.6806640625
-114.44091796875
-119.0185546875
-115.3564453125
-110.77880859375
-114.44091796875
-127.25830078125
-108.94775390625
-105.28564453125
-109.86328125
-97.0458984375
-93.3837890625
-96.13037109375
-85.14404296875
-76.904296875
-78.7353515625
-77.81982421875
-77.81982421875
-78.7353515625
-74.15771484375
-62.255859375
-57.67822265625
-54.931640625
-50.35400390625
-36.62109375
-43.9453125
-42.1142578125
-35.70556640625
-33.87451171875
-25.634765625
-23.8037109375
-10.986328125
-13.73291015625
-10.07080078125
6.40869140625
9.1552734375
10.07080078125
20.1416015625
24.71923828125
27.4658203125
44.86083984375
52.18505859375
54.01611328125
60.4248046875
66.83349609375
71.4111328125
74.15771484375
86.97509765625
92.46826171875
103.45458984375
112.60986328125
114.44091796875
121.76513671875
132.75146484375
141.90673828125
142.822265625
151.06201171875
159.3017578125
163.87939453125
172.119140625
180.35888671875
183.10546875
189.51416015625
198.66943359375
194.091796875
189.51416015625
199.5849609375
202.33154296875
209.65576171875
212.40234375
215.14892578125
211.48681640625
212.40234375
205.078125
210.5712890625
198.66943359375
189.51416015625
176.69677734375
162.9638671875
148.3154296875
142.822265625
136.41357421875
117.1875
105.28564453125
87.890625
70.49560546875
57.67822265625
44.86083984375
32.04345703125
21.97265625
0.91552734375
-11.90185546875
-24.71923828125
-32.958984375
-47.607421875
-76.904296875
-86.97509765625
-87.890625
-99.79248046875
-113.525390625
-106.201171875
-117.1875
-127.25830078125
-136.41357421875
-140.9912109375
-152.89306640625
-159.3017578125
-167.54150390625
-165.71044921875
-167.54150390625
-171.20361328125
-171.20361328125
-173.9501953125
-186.767578125
-186.767578125
-191.34521484375
-193.17626953125
-195.9228515625
-196.83837890625
-200.50048828125
-200.50048828125
-195.9228515625
-205.99365234375
-196.83837890625
-198.66943359375
-204.16259765625
-209.65576171875
-205.99365234375
-205.99365234375
-207.82470703125
-203.2470703125
-207.82470703125
-202.33154296875
-198.66943359375
-199.5849609375
-205.078125
-206.9091796875
-206.9091796875
-209.65576171875
-198.66943359375
-206.9091796875
-207.82470703125
-208.740234375
-204.16259765625
-203.2470703125
-201.416015625
-204.16259765625
-202.33154296875
-195.9228515625
-203.2470703125
-199.5849609375
-193.17626953125
-194.091796875
-196.83837890625
-189.51416015625
-195.00732421875
-202.33154296875
-195.9228515625
-198.66943359375
-197.75390625
-196.83837890625
-192.2607421875
-184.9365234375
-188.5986328125
-191.34521484375
-195.00732421875
-195.9228515625
-193.17626953125
-193.17626953125
-195.9228515625
-190.4296875
-193.17626953125
-193.17626953125
-197.75390625
-195.00732421875
-204.16259765625
-203.2470703125
-205.078125
-207.82470703125
-200.50048828125
-194.091796875
-195.9228515625
-197.75390625
-195.9228515625
-197.75390625
-202.33154296875
-206.9091796875
-203.2470703125
-203.2470703125
-195.9228515625
-205.078125
-206.9091796875
-213.31787109375
-204.16259765625
-198.66943359375
-206.9091796875
-216.064453125
-221.5576171875
-209.65576171875
-207.82470703125
-212.40234375
-212.40234375
-214.2333984375
-215.14892578125
-213.31787109375
-215.14892578125
-222.47314453125
-217.8955078125
-219.7265625
-214.2333984375
-215.14892578125
-216.97998046875
-212.40234375
-215.14892578125
-218.81103515625
-224.30419921875
-219.7265625
-218.81103515625
-226.13525390625
-227.05078125
-224.30419921875
-218.81103515625
-224.30419921875
-221.5576171875
-225.2197265625
-224.30419921875
-229.79736328125
-234.375
-227.96630859375
-229.79736328125
-224.30419921875
-224.30419921875
-225.2197265625
-231.62841796875
-228.8818359375
-229.79736328125
-231.62841796875
-232.5439453125
-235.29052734375
-234.375
-225.2197265625
-219.7265625
-232.5439453125
-232.5439453125
-227.96630859375
-236.2060546875
-235.29052734375
-230.712890625
-233.45947265625
-231.62841796875
-230.712890625
-230.712890625
-229.79736328125
-235.29052734375
-230.712890625
-229.79736328125
-227.96630859375
-237.12158203125
-233.45947265625
-230.712890625
-231.62841796875
-231.62841796875
-234.375
-223.388671875
-238.037109375
-240.78369140625
-238.95263671875
-243.5302734375
-238.95263671875
-232.5439453125
-232.5439453125
-228.8818359375
-232.5439453125
-232.5439453125
-229.79736328125
-229.79736328125
-235.29052734375
-234.375
-233.45947265625
-234.375
-233.45947265625
-231.62841796875
-241.69921875
-238.95263671875
-228.8818359375
-232.5439453125
-239.8681640625
-242.61474609375
-238.037109375
-234.375
-230.712890625
-227.96630859375
-232.5439453125
-238.037109375
-231.62841796875
-238.037109375
-237.12158203125
-236.2060546875
-238.037109375
-233.45947265625
-234.375
-228.8818359375
-235.29052734375
-234.375
-225.2197265625
-235.29052734375
-238.95263671875
-237.12158203125
-239.8681640625
-229.79736328125
-226.13525390625
-227.96630859375
-240.78369140625
-243.5302734375
-239.8681640625
-239.8681640625
-238.95263671875
-236.2060546875
-233.45947265625
-235.29052734375
-228.8818359375
-223.388671875
-227.05078125
-225.2197265625
-216.064453125
-225.2197265625
-236.2060546875
-237.12158203125
-244.44580078125
-249.93896484375
-245.361328125
-241.69921875
-244.44580078125
-240.78369140625
-227.96630859375
-237.12158203125
-248.10791015625
-243.5302734375
-238.037109375
-235.29052734375
-228.8818359375
-231.62841796875
-237.12158203125
-241.69921875
-242.61474609375
-248.10791015625
-249.0234375
-245.361328125
-243.5302734375
-244.44580078125
-237.12158203125
-237.12158203125
-239.8681640625
-242.61474609375
-237.12158203125
-240.78369140625
-241.69921875
-239.8681640625
-234.375
-231.62841796875
-222.47314453125
-222.47314453125
-226.13525390625
-228.8818359375
-225.2197265625
-234.375
-239.8681640625
-240.78369140625
-246.27685546875
-254.5166015625
-244.44580078125
-238.037109375
-227.96630859375
-205.99365234375
-180.35888671875
-120.849609375
-43.9453125
41.19873046875
146.484375
249.93896484375
367.12646484375
492.5537109375
609.7412109375
739.74609375
890.80810546875
1037.29248046875
1114.19677734375
1086.73095703125
974.12109375
827.63671875
644.53125
507.2021484375
431.21337890625
304.87060546875
124.51171875
-5.4931640625
-95.21484375
-158.38623046875
-193.17626953125
-220.64208984375
-234.375
-241.69921875
-253.60107421875
-251.77001953125
-236.2060546875
-223.388671875
-209.65576171875
-189.51416015625
-172.119140625
-157.470703125
-155.6396484375
-154.72412109375
-157.470703125
-153.80859375
-160.21728515625
-162.04833984375
-163.87939453125
-166.6259765625
-161.1328125
-161.1328125
-154.72412109375
-156.55517578125
-154.72412109375
-155.6396484375
-146.484375
-151.9775390625
-148.3154296875
-143.73779296875
-140.9912109375
-147.39990234375
-141.90673828125
-140.07568359375
-142.822265625
-139.16015625
-130.92041015625
-136.41357421875
-135.498046875
-130.92041015625
-119.93408203125
-124.51171875
-116.27197265625
-115.3564453125
-113.525390625
-113.525390625
-109.86328125
-111.6943359375
-104.3701171875
-100.7080078125
-99.79248046875
-98.876953125
-95.21484375
-83.31298828125
-85.14404296875
-79.65087890625
-74.15771484375
-79.65087890625
-76.904296875
-70.49560546875
-67.7490234375
-61.34033203125
-49.4384765625
-47.607421875
-46.69189453125
-41.19873046875
-32.958984375
-32.958984375
-33.87451171875
-29.296875
-21.05712890625
-15.56396484375
-1.8310546875
5.4931640625
9.1552734375
13.73291015625
17.39501953125
23.8037109375
32.04345703125
40.283203125
49.4384765625
47.607421875
65.00244140625
68.66455078125
75.98876953125
85.14404296875
98.876953125
96.13037109375
97.96142578125
113.525390625
118.10302734375
133.6669921875
135.498046875
145.56884765625
151.06201171875
156.55517578125
167.54150390625
163.87939453125
164.794921875
172.119140625
176.69677734375
178.52783203125
184.9365234375
192.2607421875
192.2607421875
193.17626953125
194.091796875
188.5986328125
191.34521484375
185.85205078125
188.5986328125
180.35888671875
178.52783203125
173.03466796875
167.54150390625
151.06201171875
146.484375
126.3427734375
106.201171875
98.876953125
86.97509765625
75.0732421875
59.50927734375
47.607421875
29.296875
14.6484375
0
-24.71923828125
-37.53662109375
-43.02978515625
-56.7626953125
-65.91796875
-75.98876953125
-86.97509765625
-104.3701171875
-107.11669921875
-117.1875
-132.75146484375
-140.9912109375
-144.6533203125
-150.146484375
-152.89306640625
-164.794921875
-168.45703125
-169.37255859375
-174.86572265625
-179.443359375
-186.767578125
-195.00732421875
-190.4296875
-192.2607421875
-197.75390625
-198.66943359375
-195.00732421875
-196.83837890625
-201.416015625
-205.99365234375
-206.9091796875
-206.9091796875
-210.5712890625
-212.40234375
-213.31787109375
-217.8955078125
-205.078125
-206.9091796875
-208.740234375
-206.9091796875
-210.5712890625
-215.14892578125
-213.31787109375
-209.65576171875
-213.31787109375
-206.9091796875
-206.9091796875
-206.9091796875
-206.9091796875
-202.33154296875
-207.82470703125
-212.40234375
-213.31787109375
-205.99365234375
-206.9091796875
-201.416015625
-203.2470703125
-199.5849609375
-206.9091796875
-202.33154296875
-204.16259765625
-205.078125
-203.2470703125
-202.33154296875
-202.33154296875
-194.091796875
-197.75390625
-196.83837890625
-198.66943359375
-193.17626953125
-197.75390625
-202.33154296875
-200.50048828125
-195.00732421875
-191.34521484375
-195.00732421875
-194.091796875
-195.9228515625
-195.9228515625
-195.9228515625
-197.75390625
-203.2470703125
-204.16259765625
-199.5849609375
-203.2470703125
-196.83837890625
-194.091796875
-198.66943359375
-204.16259765625
-197.75390625
-201.416015625
-208.740234375
-211.48681640625
-211.48681640625
-201.416015625
-205.078125
-199.5849609375
-205.078125
-210.5712890625
-198.66943359375
-211.48681640625
-214.2333984375
-209.65576171875
-205.99365234375
-209.65576171875
-208.740234375
-205.99365234375
-211.48681640625
-216.064453125
-215.14892578125
-216.97998046875
-215.14892578125
-213.31787109375
-212.40234375
-209.65576171875
-213.31787109375
-208.740234375
-211.48681640625
-214.2333984375
-216.97998046875
-219.7265625
-218.81103515625
-224.30419921875
-216.97998046875
-222.47314453125
-214.2333984375
-223.388671875
-221.5576171875
-222.47314453125
-211.48681640625
-221.5576171875
-227.96630859375
-225.2197265625
-220.64208984375
-228.8818359375
-223.388671875
-224.30419921875
-222.47314453125
-229.79736328125
-227.05078125
-232.5439453125
-234.375
-229.79736328125
-228.8818359375
-229.79736328125
-234.375
-227.96630859375
-228.8818359375
-226.13525390625
-233.45947265625
-234.375
-242.61474609375
-232.5439453125
-227.05078125
-228.8818359375
-228.8818359375
-222.47314453125
-226.13525390625
-228.8818359375
-223.388671875
-229.79736328125
-236.2060546875
-235.29052734375
-234.375
-227.96630859375
-228.8818359375
-220.64208984375
-228.8818359375
-229.79736328125
-227.05078125
-236.2060546875
-235.29052734375
-236.2060546875
-235.29052734375
-230.712890625
-227.05078125
-223.388671875
-228.8818359375
-231.62841796875
-235.29052734375
-230.712890625
-231.62841796875
-232.5439453125
-234.375
-228.8818359375
-232.5439453125
-232.5439453125
-231.62841796875
-227.96630859375
-230.712890625
-235.29052734375
-241.69921875
-230.712890625
-233.45947265625
-237.12158203125
-229.79736328125
-227.96630859375
-228.8818359375
-232.5439453125
-228.8818359375
-236.2060546875
-240.78369140625
-235.29052734375
-234.375
-237.12158203125
-227.05078125
-230.712890625
-230.712890625
-227.05078125
-232.5439453125
-234.375
-237.12158203125
-234.375
-235.29052734375
-233.45947265625
-230.712890625
-231.62841796875
-234.375
-238.037109375
-227.05078125
-237.12158203125
-243.5302734375
-238.95263671875
-238.95263671875
-235.29052734375
-228.8818359375
-231.62841796875
-227.05078125
-231.62841796875
-233.45947265625
-231.62841796875
-237.12158203125
-234.375
-229.79736328125
-231.62841796875
-241.69921875
-228.8818359375
-231.62841796875
-227.96630859375
-225.2197265625
-227.96630859375
-235.29052734375
-242.61474609375
-242.61474609375
-237.12158203125
-234.375
-229.79736328125
-222.47314453125
-220.64208984375
-227.05078125
-227.96630859375
-230.712890625
-228.8818359375
-230.712890625
-226.13525390625
-224.30419921875
-222.47314453125
-231.62841796875
-243.5302734375
-241.69921875
-253.60107421875
-256.34765625
-251.77001953125
-244.44580078125
-239.8681640625
-235.29052734375
-234.375
-240.78369140625
-233.45947265625
-227.05078125
-235.29052734375
-244.44580078125
-242.61474609375
-242.61474609375
-246.27685546875
-253.60107421875
-245.361328125
-246.27685546875
-240.78369140625
-241.69921875
-243.5302734375
-254.5166015625
-249.0234375
-252.685546875
-238.037109375
-236.2060546875
-232.5439453125
-236.2060546875
-231.62841796875
-230.712890625
-228.8818359375
-242.61474609375
-228.8818359375
-227.05078125
-225.2197265625
-234.375
-231.62841796875
-233.45947265625
-240.78369140625
-241.69921875
-244.44580078125
-244.44580078125
-230.712890625
-203.2470703125
-174.86572265625
-100.7080078125
-22.88818359375
68.66455078125
167.54150390625
276.4892578125
385.43701171875
494.384765625
622.55859375
765.380859375
912.78076171875
1061.09619140625
1133.4228515625
1115.1123046875
1011.65771484375
870.66650390625
679.3212890625
535.58349609375
455.9326171875
303.955078125
105.28564453125
-41.19873046875
-132.75146484375
-208.740234375
-248.10791015625
-241.69921875
-247.1923828125
-268.24951171875
-260.92529296875
-238.95263671875
-219.7265625
-191.34521484375
-170.2880859375
-162.9638671875
-160.21728515625
-150.146484375
-148.3154296875
-155.6396484375
-161.1328125
-158.38623046875
-164.794921875
-162.04833984375
-161.1328125
-160.21728515625
-162.9638671875
-151.9775390625
-159.3017578125
-162.04833984375
-162.9638671875
-166.6259765625
-157.470703125
-148.3154296875
-149.23095703125
-145.56884765625
-143.73779296875
-143.73779296875
-142.822265625
-144.6533203125
-139.16015625
-136.41357421875
-140.07568359375
-136.41357421875
-130.92041015625
-130.92041015625
-126.3427734375
-124.51171875
-120.849609375
-122.6806640625
-124.51171875
-119.93408203125
-108.94775390625
-113.525390625
-105.28564453125
-102.5390625
-99.79248046875
-95.21484375
-98.876953125
-104.3701171875
-98.876953125
-86.0595703125
-87.890625
-74.15771484375
-61.34033203125
-66.83349609375
-63.17138671875
-56.7626953125
-55.84716796875
-54.01611328125
-52.18505859375
-45.7763671875
-38.4521484375
-35.70556640625
-22.88818359375
-21.05712890625
-25.634765625
-7.32421875
-2.74658203125
0
1.8310546875
13.73291015625
13.73291015625
28.38134765625
37.53662109375
42.1142578125
50.35400390625
58.59375
63.17138671875
65.91796875
69.580078125
86.0595703125
91.552734375
99.79248046875
106.201171875
117.1875
127.25830078125
133.6669921875
135.498046875
133.6669921875
144.6533203125
155.6396484375
162.9638671875
169.37255859375
173.03466796875
174.86572265625
179.443359375
184.9365234375
189.51416015625
191.34521484375
186.767578125
197.75390625
195.00732421875
194.091796875
198.66943359375
198.66943359375
195.9228515625
194.091796875
187.68310546875
175.78125
170.2880859375
156.55517578125
149.23095703125
140.07568359375
128.173828125
108.94775390625
99.79248046875
86.97509765625
68.66455078125
52.18505859375
39.36767578125
26.55029296875
14.6484375
-2.74658203125
-8.23974609375
-24.71923828125
-45.7763671875
-58.59375
-71.4111328125
-87.890625
-96.13037109375
-107.11669921875
-118.10302734375
-123.59619140625
-133.6669921875
-140.9912109375
-146.484375
-152.89306640625
-160.21728515625
-167.54150390625
-174.86572265625
-182.18994140625
-180.35888671875
-178.52783203125
-181.2744140625
-188.5986328125
-193.17626953125
-200.50048828125
-196.83837890625
-199.5849609375
-202.33154296875
-200.50048828125
-202.33154296875
-202.33154296875
-203.2470703125
-205.99365234375
-206.9091796875
-206.9091796875
-208.740234375
-216.064453125
-218.81103515625
-214.2333984375
-213.31787109375
-213.31787109375
-206.9091796875
-209.65576171875
-212.40234375
-215.14892578125
-209.65576171875
-215.14892578125
-209.65576171875
-213.31787109375
-206.9091796875
-208.740234375
-204.16259765625
-198.66943359375
-204.16259765625
-202.33154296875
-199.5849609375
-208.740234375
-207.82470703125
-203.2470703125
-201.416015625
-195.00732421875
-192.2607421875
-196.83837890625
-194.091796875
-191.34521484375
-195.00732421875
-195.9228515625
-200.50048828125
-200.50048828125
-194.091796875
-194.091796875
-190.4296875
-187.68310546875
-192.2607421875
-194.091796875
-193.17626953125
-192.2607421875
-190.4296875
-196.83837890625
-195.00732421875
-194.091796875
-187.68310546875
-190.4296875
-191.34521484375
-194.091796875
-191.34521484375
-194.091796875
-194.091796875
-192.2607421875
-192.2607421875
-190.4296875
-189.51416015625
-187.68310546875
-195.9228515625
-198.66943359375
-195.9228515625
-206.9091796875
-205.078125
-198.66943359375
-205.99365234375
-200.50048828125
-195.9228515625
-205.99365234375
-198.66943359375
-199.5849609375
-200.50048828125
-205.078125
-207.82470703125
-215.14892578125
-209.65576171875
-212.40234375
-209.65576171875
-201.416015625
-211.48681640625
-205.99365234375
-210.5712890625
-216.97998046875
-219.7265625
-219.7265625
-216.064453125
-216.064453125
-211.48681640625
-209.65576171875
-213.31787109375
-215.14892578125
-213.31787109375
-220.64208984375
-221.5576171875
-220.64208984375
-215.14892578125
-210.5712890625
-212.40234375
-215.14892578125
-220.64208984375
-219.7265625
-222.47314453125
-226.13525390625
-227.05078125
-223.388671875
-222.47314453125
-224.30419921875
-221.5576171875
-219.7265625
-227.96630859375
-225.2197265625
-227.05078125
-232.5439453125
-227.05078125
-232.5439453125
-221.5576171875
-217.8955078125
-223.388671875
-225.2197265625
-223.388671875
-223.388671875
-227.05078125
-234.375
-229.79736328125
-224.30419921875
-227.05078125
-228.8818359375
-226.13525390625
-226.13525390625
-225.2197265625
-228.8818359375
-227.05078125
-231.62841796875
-228.8818359375
-224.30419921875
-229.79736328125
-226.13525390625
-222.47314453125
-230.712890625
-230.712890625
-225.2197265625
-229.79736328125
-233.45947265625
-227.96630859375
-223.388671875
-228.8818359375
-227.05078125
-226.13525390625
-224.30419921875
-226.13525390625
-226.13525390625
-229.79736328125
-235.29052734375
-233.45947265625
-235.29052734375
-236.2060546875
-225.2197265625
-223.388671875
-221.5576171875
-228.8818359375
-229.79736328125
-230.712890625
-237.12158203125
-234.375
-224.30419921875
-233.45947265625
-230.712890625
-227.96630859375
-222.47314453125
-227.05078125
-226.13525390625
-227.05078125
-236.2060546875
-230.712890625
-229.79736328125
-224.30419921875
-229.79736328125
-229.79736328125
-226.13525390625
-227.96630859375
-227.96630859375
-226.13525390625
-231.62841796875
-233.45947265625
-228.8818359375
-231.62841796875
-229.79736328125
-227.05078125
-227.96630859375
-227.05078125
-227.96630859375
-229.79736328125
-233.45947265625
-234.375
-231.62841796875
-235.29052734375
-229.79736328125
-223.388671875
-220.64208984375
-224.30419921875
-222.47314453125
-232.5439453125
-235.29052734375
-237.12158203125
-233.45947265625
-227.05078125
-227.96630859375
-227.96630859375
-225.2197265625
-221.5576171875
-227.05078125
-227.05078125
-227.96630859375
-227.05078125
-229.79736328125
-228.8818359375
-223.388671875
-212.40234375
-208.740234375
-212.40234375
-226.13525390625
-239.8681640625
-233.45947265625
-229.79736328125
-227.96630859375
-227.05078125
-209.65576171875
-211.48681640625
-212.40234375
-214.2333984375
-207.82470703125
-218.81103515625
-217.8955078125
-218.81103515625
-216.97998046875
-216.064453125
-225.2197265625
-232.5439453125
-232.5439453125
-245.361328125
-240.78369140625
-237.12158203125
-242.61474609375
-230.712890625
-229.79736328125
-233.45947265625
-228.8818359375
-221.5576171875
-221.5576171875
-230.712890625
-227.96630859375
-232.5439453125
-238.95263671875
-245.361328125
-238.95263671875
-238.037109375
-238.037109375
-235.29052734375
-231.62841796875
-235.29052734375
-232.5439453125
-228.8818359375
-234.375
-235.29052734375
-232.5439453125
-229.79736328125
-226.13525390625
-223.388671875
-216.064453125
-228.8818359375
-222.47314453125
-217.8955078125
-227.96630859375
-222.47314453125
-227.05078125
-229.79736328125
-227.96630859375
-227.96630859375
-231.62841796875
-226.13525390625
-216.064453125
-213.31787109375
-206.9091796875
-163.87939453125
-105.28564453125
-30.21240234375
62.255859375
162.04833984375
268.24951171875
375.3662109375
493.46923828125
628.0517578125
770.8740234375
921.93603515625
1068.42041015625
1158.14208984375
1161.80419921875
1066.58935546875
929.26025390625
769.04296875
608.82568359375
507.2021484375
359.80224609375
151.06201171875
-31.1279296875
-139.16015625
-220.64208984375
-252.685546875
-249.93896484375
-245.361328125
-252.685546875
-249.93896484375
-223.388671875
-197.75390625
-175.78125
-162.04833984375
-151.06201171875
-134.58251953125
-127.25830078125
-139.16015625
-140.07568359375
-142.822265625
-149.23095703125
-153.80859375
-147.39990234375
-152.89306640625
-151.06201171875
-148.3154296875
-147.39990234375
-147.39990234375
-149.23095703125
-151.06201171875
-149.23095703125
-153.80859375
-144.6533203125
-140.9912109375
-139.16015625
-133.6669921875
-134.58251953125
-131.8359375
-132.75146484375
-126.3427734375
-136.41357421875
-130.92041015625
-131.8359375
-127.25830078125
-120.849609375
-114.44091796875
-112.60986328125
-115.3564453125
-110.77880859375
-106.201171875
-110.77880859375
-112.60986328125
-106.201171875
-99.79248046875
-97.0458984375
-84.228515625
-86.97509765625
-86.0595703125
-85.14404296875
-74.15771484375
-75.98876953125
-76.904296875
-68.66455078125
-63.17138671875
-53.1005859375
-55.84716796875
-54.931640625
-43.9453125
-38.4521484375
-36.62109375
-38.4521484375
-31.1279296875
-32.04345703125
-17.39501953125
-14.6484375
-6.40869140625
0
4.57763671875
9.1552734375
17.39501953125
25.634765625
30.21240234375
32.04345703125
43.9453125
54.931640625
62.255859375
68.66455078125
76.904296875
87.890625
90.63720703125
96.13037109375
97.96142578125
111.6943359375
119.93408203125
127.25830078125
136.41357421875
143.73779296875
150.146484375
159.3017578125
168.45703125
168.45703125
172.119140625
176.69677734375
179.443359375
184.02099609375
195.9228515625
197.75390625
195.9228515625
202.33154296875
205.99365234375
208.740234375
210.5712890625
210.5712890625
213.31787109375
214.2333984375
212.40234375
212.40234375
211.48681640625
196.83837890625
187.68310546875
173.03466796875
160.21728515625
158.38623046875
144.6533203125
130.0048828125
115.3564453125
101.62353515625
87.890625
74.15771484375
58.59375
38.4521484375
23.8037109375
10.986328125
-6.40869140625
-26.55029296875
-30.21240234375
-40.283203125
-58.59375
-71.4111328125
-83.31298828125
-102.5390625
-114.44091796875
-114.44091796875
-130.0048828125
-135.498046875
-140.9912109375
-150.146484375
-156.55517578125
-161.1328125
-162.9638671875
-180.35888671875
-184.9365234375
-178.52783203125
-186.767578125
-184.9365234375
-185.85205078125
-188.5986328125
-192.2607421875
-192.2607421875
-195.00732421875
-203.2470703125
-204.16259765625
-202.33154296875
-205.99365234375
-205.99365234375
-204.16259765625
-210.5712890625
-214.2333984375
-212.40234375
-209.65576171875
-210.5712890625
-218.81103515625
-217.8955078125
-209.65576171875
-213.31787109375
-205.99365234375
-204.16259765625
-210.5712890625
-204.16259765625
-203.2470703125
-205.99365234375
-209.65576171875
-208.740234375
-207.82470703125
-204.16259765625
-195.00732421875
-195.9228515625
-204.16259765625
-203.2470703125
-202.33154296875
-206.9091796875
-204.16259765625
-201.416015625
-204.16259765625
-205.078125
-192.2607421875
-196.83837890625
-194.091796875
-199.5849609375
-205.078125
-207.82470703125
-197.75390625
-196.83837890625
-195.00732421875
-195.00732421875
-194.091796875
-191.34521484375
-193.17626953125
-199.5849609375
-194.091796875
-201.416015625
-200.50048828125
-204.16259765625
-201.416015625
-202.33154296875
-197.75390625
-197.75390625
-192.2607421875
-194.091796875
-196.83837890625
-205.078125
-203.2470703125
-204.16259765625
-202.33154296875
-202.33154296875
-192.2607421875
-195.9228515625
-196.83837890625
-201.416015625
-199.5849609375
-205.078125
-205.078125
-201.416015625
-204.16259765625
-203.2470703125
-199.5849609375
-195.9228515625
-206.9091796875
-205.078125
-205.99365234375
-218.81103515625
-219.7265625
-216.97998046875
-213.31787109375
-217.8955078125
-213.31787109375
-208.740234375
-213.31787109375
-216.97998046875
-217.8955078125
-226.13525390625
-231.62841796875
-219.7265625
-221.5576171875
-225.2197265625
-221.5576171875
-215.14892578125
-223.388671875
-220.64208984375
-215.14892578125
-228.8818359375
-230.712890625
-222.47314453125
-224.30419921875
-228.8818359375
-223.388671875
-217.8955078125
-226.13525390625
-224.30419921875
-227.05078125
-232.5439453125
-234.375
-232.5439453125
-230.712890625
-230.712890625
-221.5576171875
-226.13525390625
-226.13525390625
-227.05078125
-226.13525390625
-237.12158203125
-236.2060546875
-235.29052734375
-237.12158203125
-238.95263671875
-229.79736328125
-229.79736328125
-240.78369140625
-237.12158203125
-230.712890625
-236.2060546875
-241.69921875
-239.8681640625
-240.78369140625
-238.037109375
-233.45947265625
-236.2060546875
-239.8681640625
-237.12158203125
-235.29052734375
-249.0234375
-244.44580078125
-244.44580078125
-242.61474609375
-236.2060546875
-237.12158203125
-233.45947265625
-232.5439453125
-237.12158203125
-232.5439453125
-238.037109375
-240.78369140625
-241.69921875
-239.8681640625
-241.69921875
-235.29052734375
-229.79736328125
-239.8681640625
-238.95263671875
-228.8818359375
-241.69921875
-238.037109375
-241.69921875
-241.69921875
-244.44580078125
-240.78369140625
-232.5439453125
-236.2060546875
-238.95263671875
-231.62841796875
-240.78369140625
-240.78369140625
-241.69921875
-236.2060546875
-239.8681640625
-236.2060546875
-234.375
-238.037109375
-242.61474609375
-247.1923828125
-253.60107421875
-246.27685546875
-248.10791015625
-250.8544921875
-248.10791015625
-239.8681640625
-237.12158203125
-247.1923828125
-247.1923828125
-248.10791015625
-251.77001953125
-249.0234375
-246.27685546875
-240.78369140625
-243.5302734375
-242.61474609375
-236.2060546875
-240.78369140625
-244.44580078125
-241.69921875
-250.8544921875
-250.8544921875
-247.1923828125
-240.78369140625
-242.61474609375
-236.2060546875
-236.2060546875
-237.12158203125
-245.361328125
-247.1923828125
-242.61474609375
-248.10791015625
-248.10791015625
-242.61474609375
-242.61474609375
-242.61474609375
-236.2060546875
-239.8681640625
-242.61474609375
-237.12158203125
-249.0234375
-249.93896484375
-249.0234375
-243.5302734375
-244.44580078125
-240.78369140625
-238.037109375
-245.361328125
-238.95263671875
-241.69921875
-241.69921875
-240.78369140625
-247.1923828125
-247.1923828125
-247.1923828125
-247.1923828125
-250.8544921875
-249.93896484375
-242.61474609375
-233.45947265625
-246.27685546875
-241.69921875
-239.8681640625
-238.037109375
-236.2060546875
-234.375
-223.388671875
-237.12158203125
-241.69921875
-245.361328125
-259.09423828125
-260.92529296875
-259.09423828125
-263.671875
-257.26318359375
-246.27685546875
-241.69921875
-246.27685546875
-251.77001953125
-253.60107421875
-256.34765625
-252.685546875
-257.26318359375
-260.009765625
-256.34765625
-258.1787109375
-260.009765625
-260.92529296875
-262.75634765625
-260.92529296875
-267.333984375
-264.58740234375
-264.58740234375
-260.009765625
-253.60107421875
-253.60107421875
-249.93896484375
-257.26318359375
-251.77001953125
-252.685546875
-260.009765625
-254.5166015625
-252.685546875
-256.34765625
-249.0234375
-242.61474609375
-246.27685546875
-253.60107421875
-257.26318359375
-256.34765625
-267.333984375
-265.5029296875
-268.24951171875
-262.75634765625
-246.27685546875
-224.30419921875
-193.17626953125
-135.498046875
-65.00244140625
26.55029296875
124.51171875
236.2060546875
350.64697265625
468.75
591.4306640625
736.99951171875
887.14599609375
1029.96826171875
1096.8017578125
1077.57568359375
968.6279296875
823.05908203125
645.44677734375
507.2021484375
425.72021484375
300.29296875
113.525390625
-45.7763671875
-132.75146484375
-203.2470703125
-248.10791015625
-267.333984375
-264.58740234375
-276.4892578125
-286.56005859375
-269.1650390625
-248.10791015625
-235.29052734375
-208.740234375
-188.5986328125
-181.2744140625
-173.9501953125
-172.119140625
-173.03466796875
-175.78125
-166.6259765625
-173.03466796875
-179.443359375
-179.443359375
-178.52783203125
-189.51416015625
-190.4296875
-186.767578125
-181.2744140625
-184.02099609375
-172.119140625
-175.78125
-172.119140625
-171.20361328125
-172.119140625
-173.03466796875
-170.2880859375
-163.87939453125
-167.54150390625
-167.54150390625
-154.72412109375
-160.21728515625
-159.3017578125
-156.55517578125
-149.23095703125
-153.80859375
-151.06201171875
-146.484375
-150.146484375
-139.16015625
-136.41357421875
-130.92041015625
-131.8359375
-124.51171875
-125.42724609375
-122.6806640625
-116.27197265625
-112.60986328125
-110.77880859375
-106.201171875
-99.79248046875
-101.62353515625
-95.21484375
-91.552734375
-84.228515625
-90.63720703125
-83.31298828125
-81.48193359375
-74.15771484375
-68.66455078125
-56.7626953125
-54.931640625
-51.26953125
-53.1005859375
-48.52294921875
-47.607421875
-37.53662109375
-29.296875
-25.634765625
-16.4794921875
-4.57763671875
4.57763671875
9.1552734375
13.73291015625
19.22607421875
20.1416015625
32.04345703125
40.283203125
41.19873046875
51.26953125
69.580078125
74.15771484375
72.32666015625
75.0732421875
92.46826171875
90.63720703125
94.29931640625
108.94775390625
119.93408203125
132.75146484375
139.16015625
143.73779296875
146.484375
149.23095703125
155.6396484375
156.55517578125
161.1328125
164.794921875
171.20361328125
172.119140625
180.35888671875
178.52783203125
178.52783203125
175.78125
181.2744140625
174.86572265625
163.87939453125
164.794921875
162.04833984375
159.3017578125
146.484375
136.41357421875
124.51171875
108.94775390625
100.7080078125
69.580078125
60.4248046875
52.18505859375
41.19873046875
24.71923828125
15.56396484375
-3.662109375
-18.310546875
-37.53662109375
-41.19873046875
-65.00244140625
-86.0595703125
-95.21484375
-103.45458984375
-111.6943359375
-119.93408203125
-137.3291015625
-151.9775390625
-153.80859375
-159.3017578125
-172.119140625
-185.85205078125
-184.9365234375
-196.83837890625
-205.99365234375
-203.2470703125
-206.9091796875
-204.16259765625
-212.40234375
-215.14892578125
-217.8955078125
-223.388671875
-224.30419921875
-226.13525390625
-225.2197265625
-220.64208984375
-227.96630859375
-243.5302734375
-244.44580078125
-233.45947265625
-249.0234375
-250.8544921875
-244.44580078125
-237.12158203125
-245.361328125
-238.037109375
-237.12158203125
-243.5302734375
-244.44580078125
-240.78369140625
-249.0234375
-240.78369140625
-242.61474609375
-232.5439453125
-240.78369140625
-238.037109375
-237.12158203125
-235.29052734375
-232.5439453125
-227.96630859375
-236.2060546875
-241.69921875
-236.2060546875
-238.95263671875
-240.78369140625
-243.5302734375
-235.29052734375
-229.79736328125
-233.45947265625
-237.12158203125
-239.8681640625
-233.45947265625
-236.2060546875
-234.375
-228.8818359375
-218.81103515625
-219.7265625
-229.79736328125
-227.96630859375
-230.712890625
-238.037109375
-238.037109375
-231.62841796875
-222.47314453125
-225.2197265625
-227.05078125
-217.8955078125
-226.13525390625
-227.05078125
-228.8818359375
-228.8818359375
-234.375
-234.375
-235.29052734375
-237.12158203125
-231.62841796875
-228.8818359375
-227.05078125
-227.05078125
-227.96630859375
-228.8818359375
-235.29052734375
-241.69921875
-230.712890625
-229.79736328125
-228.8818359375
-236.2060546875
-233.45947265625
-231.62841796875
-238.037109375
-241.69921875
-240.78369140625
-243.5302734375
-244.44580078125
-243.5302734375
-241.69921875
-246.27685546875
-249.93896484375
-255.43212890625
-249.0234375
-254.5166015625
-259.09423828125
-258.1787109375
-249.0234375
-251.77001953125
-249.93896484375
-250.8544921875
-244.44580078125
-253.60107421875
-241.69921875
-255.43212890625
-255.43212890625
-254.5166015625
-250.8544921875
-256.34765625
-250.8544921875
-252.685546875
-260.009765625
-257.26318359375
-253.60107421875
-262.75634765625
-265.5029296875
-264.58740234375
-262.75634765625
-260.92529296875
-256.34765625
-253.60107421875
-254.5166015625
-254.5166015625
-250.8544921875
-262.75634765625
-264.58740234375
-257.26318359375
-259.09423828125
-258.1787109375
-258.1787109375
-257.26318359375
-265.5029296875
-265.5029296875
-269.1650390625
-270.99609375
-268.24951171875
-268.24951171875
-263.671875
-262.75634765625
-256.34765625
-256.34765625
-258.1787109375
-263.671875
-267.333984375
-275.57373046875
-271.91162109375
-267.333984375
-265.5029296875
-261.8408203125
-256.34765625
-267.333984375
-264.58740234375
-260.92529296875
-265.5029296875
-269.1650390625
-265.5029296875
-270.08056640625
-267.333984375
-267.333984375
-264.58740234375
-264.58740234375
-264.58740234375
-265.5029296875
-258.1787109375
-258.1787109375
-266.41845703125
-270.08056640625
-268.24951171875
-270.99609375
-261.8408203125
-261.8408203125
-260.009765625
-259.09423828125
-255.43212890625
-272.8271484375
-276.4892578125
-269.1650390625
-268.24951171875
-263.671875
-258.1787109375
-264.58740234375
-260.92529296875
-265.5029296875
-264.58740234375
-269.1650390625
-277.40478515625
-270.08056640625
-264.58740234375
-270.99609375
-267.333984375
-265.5029296875
-264.58740234375
-261.8408203125
-263.671875
-266.41845703125
-262.75634765625
-265.5029296875
-259.09423828125
-266.41845703125
-259.09423828125
-254.5166015625
-266.41845703125
-264.58740234375
-261.8408203125
-270.08056640625
-276.4892578125
-271.91162109375
-275.57373046875
-277.40478515625
-274.658203125
-258.1787109375
-260.009765625
-258.1787109375
-257.26318359375
-264.58740234375
-265.5029296875
-260.009765625
-254.5166015625
-255.43212890625
-255.43212890625
-252.685546875
-264.58740234375
-270.08056640625
-270.99609375
-277.40478515625
-271.91162109375
-266.41845703125
-265.5029296875
-264.58740234375
-261.8408203125
-264.58740234375
-265.5029296875
-256.34765625
-257.26318359375
-264.58740234375
-266.41845703125
-267.333984375
-276.4892578125
-276.4892578125
-265.5029296875
-265.5029296875
-269.1650390625
-270.99609375
-266.41845703125
-273.74267578125
-272.8271484375
-269.1650390625
-263.671875
-262.75634765625
-257.26318359375
-255.43212890625
-257.26318359375
-255.43212890625
-254.5166015625
-260.92529296875
-260.92529296875
-257.26318359375
-249.0234375
-249.93896484375
-258.1787109375
-260.92529296875
-265.5029296875
-270.99609375
-273.74267578125
-275.57373046875
-270.99609375
-252.685546875
-214.2333984375
-160.21728515625
-79.65087890625
7.32421875
107.11669921875
220.64208984375
339.66064453125
451.35498046875
568.54248046875
704.9560546875
845.03173828125
1011.65771484375
1101.37939453125
1087.646484375
970.458984375
835.87646484375
641.78466796875
483.3984375
416.56494140625
293.88427734375
125.42724609375
-14.6484375
-88.80615234375
-151.06201171875
-202.33154296875
-230.712890625
-239.8681640625
-260.92529296875
-272.8271484375
-281.06689453125
-267.333984375
-252.685546875
-237.12158203125
-214.2333984375
-200.50048828125
-189.51416015625
-176.69677734375
-178.52783203125
-179.443359375
-183.10546875
-181.2744140625
-186.767578125
-179.443359375
-178.52783203125
-177.6123046875
-180.35888671875
-175.78125
-182.18994140625
-182.18994140625
-179.443359375
-177.6123046875
-182.18994140625
-170.2880859375
-162.9638671875
-166.6259765625
-168.45703125
-172.119140625
-169.37255859375
-170.2880859375
-171.20361328125
-166.6259765625
-164.794921875
-153.80859375
-150.146484375
-151.9775390625
-147.39990234375
-145.56884765625
-141.90673828125
-142.822265625
-145.56884765625
-137.3291015625
-131.8359375
-126.3427734375
-127.25830078125
-126.3427734375
-122.6806640625
-115.3564453125
-115.3564453125
-111.6943359375
-101.62353515625
-100.7080078125
-100.7080078125
-92.46826171875
-85.14404296875
-85.14404296875
-80.56640625
-81.48193359375
-80.56640625
-68.66455078125
-67.7490234375
-61.34033203125
-50.35400390625
-36.62109375
-35.70556640625
-39.36767578125
-31.1279296875
-19.22607421875
-21.97265625
-19.22607421875
-6.40869140625
2.74658203125
3.662109375
14.6484375
20.1416015625
25.634765625
32.958984375
42.1142578125
45.7763671875
51.26953125
60.4248046875
65.91796875
74.15771484375
83.31298828125
91.552734375
101.62353515625
102.5390625
109.86328125
112.60986328125
118.10302734375
128.173828125
135.498046875
140.9912109375
146.484375
157.470703125
153.80859375
156.55517578125
163.87939453125
165.71044921875
162.9638671875
168.45703125
169.37255859375
173.03466796875
178.52783203125
174.86572265625
166.6259765625
161.1328125
157.470703125
142.822265625
132.75146484375
132.75146484375
123.59619140625
112.60986328125
106.201171875
100.7080078125
74.15771484375
60.4248046875
40.283203125
21.05712890625
10.986328125
0
-14.6484375
-23.8037109375
-43.02978515625
-54.931640625
-77.81982421875
-81.48193359375
-82.3974609375
-107.11669921875
-118.10302734375
-125.42724609375
-135.498046875
-140.9912109375
-145.56884765625
-149.23095703125
-163.87939453125
-162.04833984375
-176.69677734375
-187.68310546875
-193.17626953125
-187.68310546875
-195.00732421875
-199.5849609375
-201.416015625
-202.33154296875
-203.2470703125
-207.82470703125
-209.65576171875
-217.8955078125
-221.5576171875
-231.62841796875
-229.79736328125
-219.7265625
-218.81103515625
-221.5576171875
-222.47314453125
-229.79736328125
-228.8818359375
-231.62841796875
-227.96630859375
-227.05078125
-229.79736328125
-229.79736328125
-225.2197265625
-227.96630859375
-227.96630859375
-227.05078125
-227.05078125
-230.712890625
-230.712890625
-225.2197265625
-226.13525390625
-229.79736328125
-225.2197265625
-224.30419921875
-222.47314453125
-219.7265625
-221.5576171875
-225.2197265625
-229.79736328125
-221.5576171875
-218.81103515625
-216.97998046875
-216.97998046875
-217.8955078125
-222.47314453125
-220.64208984375
-218.81103515625
-215.14892578125
-217.8955078125
-218.81103515625
-215.14892578125
-206.9091796875
-212.40234375
-212.40234375
-208.740234375
-217.8955078125
-216.97998046875
-219.7265625
-211.48681640625
-210.5712890625
-210.5712890625
-213.31787109375
-209.65576171875
-208.740234375
-214.2333984375
-207.82470703125
-211.48681640625
-215.14892578125
-217.8955078125
-216.97998046875
-213.31787109375
-213.31787109375
-213.31787109375
-214.2333984375
-215.14892578125
-212.40234375
-206.9091796875
-213.31787109375
-223.388671875
-223.388671875
-220.64208984375
-223.388671875
-223.388671875
-214.2333984375
-216.97998046875
-224.30419921875
-220.64208984375
-224.30419921875
-228.8818359375
-232.5439453125
-227.96630859375
-228.8818359375
-225.2197265625
-227.05078125
-228.8818359375
-234.375
-237.12158203125
-241.69921875
-238.037109375
-235.29052734375
-229.79736328125
-232.5439453125
-230.712890625
-227.96630859375
-232.5439453125
-238.037109375
-238.95263671875
-241.69921875
-242.61474609375
-245.361328125
-241.69921875
-246.27685546875
-239.8681640625
-238.95263671875
-241.69921875
-238.95263671875
-242.61474609375
-236.2060546875
-243.5302734375
-250.8544921875
-241.69921875
-244.44580078125
-241.69921875
-238.95263671875
-242.61474609375
-245.361328125
-239.8681640625
-247.1923828125
-252.685546875
-244.44580078125
-248.10791015625
-244.44580078125
-243.5302734375
-242.61474609375
-242.61474609375
-246.27685546875
-238.95263671875
-247.1923828125
-251.77001953125
-254.5166015625
-255.43212890625
-242.61474609375
-246.27685546875
-244.44580078125
-244.44580078125
-244.44580078125
-239.8681640625
-250.8544921875
-256.34765625
-249.93896484375
-249.0234375
-243.5302734375
-239.8681640625
-240.78369140625
-241.69921875
-251.77001953125
-249.93896484375
-246.27685546875
-250.8544921875
-249.93896484375
-250.8544921875
-250.8544921875
-244.44580078125
-247.1923828125
-250.8544921875
-252.685546875
-255.43212890625
-253.60107421875
-251.77001953125
-253.60107421875
-250.8544921875
-252.685546875
-249.93896484375
-249.0234375
-250.8544921875
-249.0234375
-247.1923828125
-248.10791015625
-253.60107421875
-249.0234375
-254.5166015625
-250.8544921875
-247.1923828125
-242.61474609375
-246.27685546875
-243.5302734375
-242.61474609375
-249.0234375
-250.8544921875
-259.09423828125
-251.77001953125
-255.43212890625
-251.77001953125
-254.5166015625
-252.685546875
-254.5166015625
-242.61474609375
-249.0234375
-252.685546875
-254.5166015625
-257.26318359375
-253.60107421875
-247.1923828125
-238.037109375
-245.361328125
-245.361328125
-249.93896484375
-249.0234375
-246.27685546875
-249.93896484375
-251.77001953125
-249.0234375
-243.5302734375
-241.69921875
-243.5302734375
-247.1923828125
-240.78369140625
-240.78369140625
-249.0234375
-246.27685546875
-247.1923828125
-252.685546875
-243.5302734375
-239.8681640625
-245.361328125
-242.61474609375
-229.79736328125
-226.13525390625
-230.712890625
-231.62841796875
-234.375
-239.8681640625
-233.45947265625
-228.8818359375
-233.45947265625
-242.61474609375
-247.1923828125
-259.09423828125
-271.91162109375
-273.74267578125
-271.91162109375
-261.8408203125
-253.60107421875
-244.44580078125
-242.61474609375
-242.61474609375
-254.5166015625
-257.26318359375
-255.43212890625
-246.27685546875
-249.93896484375
-247.1923828125
-250.8544921875
-252.685546875
-258.1787109375
-253.60107421875
-254.5166015625
-257.26318359375
-267.333984375
-260.009765625
-254.5166015625
-254.5166015625
-254.5166015625
-248.10791015625
-250.8544921875
-246.27685546875
-241.69921875
-248.10791015625
-257.26318359375
-253.60107421875
-245.361328125
-249.0234375
-243.5302734375
-243.5302734375
-238.95263671875
-244.44580078125
-248.10791015625
-257.26318359375
-261.8408203125
-252.685546875
-238.95263671875
-231.62841796875
-204.16259765625
-161.1328125
-99.79248046875
-21.97265625
77.81982421875
173.03466796875
264.58740234375
387.26806640625
507.2021484375
639.95361328125
790.10009765625
946.6552734375
1085.8154296875
1144.4091796875
1125.18310546875
1010.7421875
864.2578125
695.80078125
557.55615234375
455.9326171875
290.22216796875
74.15771484375
-86.97509765625
-180.35888671875
-244.44580078125
-275.57373046875
-270.99609375
-266.41845703125
-270.08056640625
-253.60107421875
-226.13525390625
-196.83837890625
-182.18994140625
-170.2880859375
-159.3017578125
-156.55517578125
-161.1328125
-160.21728515625
-164.794921875
-162.9638671875
-162.9638671875
-158.38623046875
-167.54150390625
-172.119140625
-164.794921875
-170.2880859375
-176.69677734375
-169.37255859375
-167.54150390625
-173.03466796875
-166.6259765625
-164.794921875
-163.87939453125
-160.21728515625
-156.55517578125
-162.04833984375
-162.9638671875
-160.21728515625
-158.38623046875
-150.146484375
-142.822265625
-140.9912109375
-142.822265625
-141.90673828125
-140.9912109375
-138.24462890625
-136.41357421875
-135.498046875
-126.3427734375
-124.51171875
-119.0185546875
-117.1875
-112.60986328125
-112.60986328125
-110.77880859375
-110.77880859375
-110.77880859375
-107.11669921875
-99.79248046875
-97.96142578125
-93.3837890625
-83.31298828125
-75.98876953125
-77.81982421875
-72.32666015625
-75.98876953125
-76.904296875
-61.34033203125
-55.84716796875
-56.7626953125
-44.86083984375
-36.62109375
-31.1279296875
-32.04345703125
-27.4658203125
-22.88818359375
-21.05712890625
-10.07080078125
-8.23974609375
0.91552734375
8.23974609375
23.8037109375
28.38134765625
32.958984375
38.4521484375
47.607421875
46.69189453125
62.255859375
76.904296875
75.98876953125
84.228515625
94.29931640625
98.876953125
102.5390625
112.60986328125
119.93408203125
124.51171875
128.173828125
139.16015625
143.73779296875
154.72412109375
160.21728515625
170.2880859375
171.20361328125
178.52783203125
179.443359375
179.443359375
187.68310546875
193.17626953125
194.091796875
196.83837890625
204.16259765625
200.50048828125
199.5849609375
192.2607421875
188.5986328125
174.86572265625
174.86572265625
170.2880859375
165.71044921875
159.3017578125
148.3154296875
136.41357421875
119.93408203125
108.0322265625
91.552734375
67.7490234375
63.17138671875
47.607421875
26.55029296875
10.07080078125
6.40869140625
-7.32421875
-27.4658203125
-41.19873046875
-58.59375
-76.904296875
-89.7216796875
-100.7080078125
-113.525390625
-116.27197265625
-118.10302734375
-135.498046875
-148.3154296875
-160.21728515625
-163.87939453125
-173.03466796875
-179.443359375
-182.18994140625
-188.5986328125
-193.17626953125
-191.34521484375
-195.9228515625
-195.00732421875
-205.078125
-210.5712890625
-215.14892578125
-212.40234375
-216.064453125
-219.7265625
-214.2333984375
-214.2333984375
-216.064453125
-221.5576171875
-219.7265625
-228.8818359375
-232.5439453125
-227.05078125
-220.64208984375
-221.5576171875
-222.47314453125
-218.81103515625
-218.81103515625
-218.81103515625
-216.97998046875
-220.64208984375
-227.96630859375
-229.79736328125
-226.13525390625
-227.96630859375
-227.96630859375
-217.8955078125
-217.8955078125
-224.30419921875
-220.64208984375
-216.97998046875
-217.8955078125
-217.8955078125
-215.14892578125
-214.2333984375
-215.14892578125
-210.5712890625
-213.31787109375
-216.97998046875
-215.14892578125
-207.82470703125
-204.16259765625
-215.14892578125
-212.40234375
-219.7265625
-210.5712890625
-198.66943359375
-203.2470703125
-205.99365234375
-205.078125
-205.078125
-210.5712890625
-213.31787109375
-205.078125
-205.078125
-209.65576171875
-206.9091796875
-205.99365234375
-201.416015625
-202.33154296875
-204.16259765625
-223.388671875
-207.82470703125
-207.82470703125
-205.99365234375
-206.9091796875
-200.50048828125
-202.33154296875
-204.16259765625
-210.5712890625
-210.5712890625
-221.5576171875
-221.5576171875
-217.8955078125
-209.65576171875
-209.65576171875
-208.740234375
-206.9091796875
-212.40234375
-210.5712890625
-218.81103515625
-221.5576171875
-221.5576171875
-219.7265625
-230.712890625
-222.47314453125
-212.40234375
-211.48681640625
-220.64208984375
-227.05078125
-226.13525390625
-230.712890625
-227.05078125
-229.79736328125
-232.5439453125
-228.8818359375
-226.13525390625
-230.712890625
-232.5439453125
-230.712890625
-230.712890625
-231.62841796875
-241.69921875
-239.8681640625
-239.8681640625
-236.2060546875
-231.62841796875
-237.12158203125
-242.61474609375
-240.78369140625
-244.44580078125
-242.61474609375
-243.5302734375
-244.44580078125
-242.61474609375
-240.78369140625
-234.375
-237.12158203125
-242.61474609375
-247.1923828125
-245.361328125
-248.10791015625
-250.8544921875
-248.10791015625
-249.0234375
-246.27685546875
-241.69921875
-240.78369140625
-243.5302734375
-240.78369140625
-242.61474609375
-248.10791015625
-247.1923828125
-241.69921875
-240.78369140625
-246.27685546875
-239.8681640625
-238.037109375
-243.5302734375
-243.5302734375
-241.69921875
-249.0234375
-247.1923828125
-245.361328125
-251.77001953125
-241.69921875
-239.8681640625
-245.361328125
-239.8681640625
-242.61474609375
-246.27685546875
-248.10791015625
-249.0234375
-246.27685546875
-247.1923828125
-247.1923828125
-244.44580078125
-245.361328125
-244.44580078125
-243.5302734375
-249.93896484375
-249.0234375
-249.0234375
-238.95263671875
-238.037109375
-244.44580078125
-244.44580078125
-238.95263671875
-240.78369140625
-243.5302734375
-240.78369140625
-248.10791015625
-248.10791015625
-242.61474609375
-242.61474609375
-245.361328125
-238.95263671875
-238.95263671875
-239.8681640625
-237.12158203125
-239.8681640625
-245.361328125
-247.1923828125
-236.2060546875
-240.78369140625
-238.95263671875
-235.29052734375
-236.2060546875
-236.2060546875
-240.78369140625
-242.61474609375
-245.361328125
-247.1923828125
-244.44580078125
-238.037109375
-238.037109375
-245.361328125
-245.361328125
-244.44580078125
-246.27685546875
-243.5302734375
-244.44580078125
-239.8681640625
-238.95263671875
-239.8681640625
-239.8681640625
-234.375
-235.29052734375
-238.95263671875
-232.5439453125
-238.037109375
-244.44580078125
-247.1923828125
-236.2060546875
-239.8681640625
-237.12158203125
-235.29052734375
-235.29052734375
-235.29052734375
-232.5439453125
-237.12158203125
-243.5302734375
-238.95263671875
-228.8818359375
-242.61474609375
-233.45947265625
-227.96630859375
-234.375
-235.29052734375
-232.5439453125
-232.5439453125
-230.712890625
-234.375
-237.12158203125
-236.2060546875
-235.29052734375
-227.96630859375
-229.79736328125
-221.5576171875
-218.81103515625
-223.388671875
-231.62841796875
-231.62841796875
-233.45947265625
-227.96630859375
-217.8955078125
-218.81103515625
-218.81103515625
-231.62841796875
-239.8681640625
-251.77001953125
-259.09423828125
-254.5166015625
-250.8544921875
-240.78369140625
-236.2060546875
-229.79736328125
-241.69921875
-243.5302734375
-246.27685546875
-234.375
-241.69921875
-242.61474609375
-245.361328125
-239.8681640625
-244.44580078125
-245.361328125
-249.0234375
-251.77001953125
-240.78369140625
-244.44580078125
-255.43212890625
-249.93896484375
-247.1923828125
-249.0234375
-243.5302734375
-233.45947265625
-238.95263671875
-240.78369140625
-241.69921875
-232.5439453125
-241.69921875
-239.8681640625
-236.2060546875
-238.037109375
-232.5439453125
-230.712890625
-237.12158203125
-245.361328125
-249.0234375
-248.10791015625
-246.27685546875
-234.375
-227.96630859375
-208.740234375
-172.119140625
-102.5390625
-29.296875
66.83349609375
169.37255859375
271.91162109375
381.77490234375
497.13134765625
632.62939453125
780.94482421875
939.3310546875
1078.4912109375
1159.97314453125
1155.3955078125
1065.673828125
921.0205078125
747.0703125
593.26171875
497.13134765625
341.49169921875
130.92041015625
-45.7763671875
-146.484375
-228.8818359375
-261.8408203125
-252.685546875
-258.1787109375
-256.34765625
-242.61474609375
-216.064453125
-190.4296875
-169.37255859375
-151.06201171875
-145.56884765625
-139.16015625
-142.822265625
-146.484375
-146.484375
-150.146484375
-150.146484375
-154.72412109375
-149.23095703125
-151.06201171875
-152.89306640625
-155.6396484375
-156.55517578125
-160.21728515625
-159.3017578125
-160.21728515625
-151.9775390625
-156.55517578125
-147.39990234375
-151.9775390625
-146.484375
-147.39990234375
-141.90673828125
-144.6533203125
-135.498046875
-133.6669921875
-140.9912109375
-133.6669921875
-130.0048828125
-127.25830078125
-126.3427734375
-122.6806640625
-119.0185546875
-119.93408203125
-117.1875
-111.6943359375
-108.0322265625
-114.44091796875
-101.62353515625
-99.79248046875
-98.876953125
-96.13037109375
-89.7216796875
-97.0458984375
-91.552734375
-85.14404296875
-85.14404296875
-78.7353515625
-65.00244140625
-69.580078125
-58.59375
-54.01611328125
-56.7626953125
-59.50927734375
-54.01611328125
-47.607421875
-46.69189453125
-39.36767578125
-31.1279296875
-23.8037109375
-19.22607421875
-17.39501953125
-5.4931640625
-5.4931640625
-0.91552734375
16.4794921875
21.05712890625
20.1416015625
33.87451171875
41.19873046875
48.52294921875
54.931640625
58.59375
61.34033203125
65.91796875
78.7353515625
81.48193359375
91.552734375
117.1875
125.42724609375
116.27197265625
126.3427734375
134.58251953125
140.07568359375
145.56884765625
151.06201171875
157.470703125
173.03466796875
176.69677734375
180.35888671875
187.68310546875
195.00732421875
200.50048828125
200.50048828125
199.5849609375
201.416015625
208.740234375
207.82470703125
215.14892578125
206.9091796875
206.9091796875
206.9091796875
207.82470703125
198.66943359375
190.4296875
187.68310546875
179.443359375
167.54150390625
151.06201171875
140.9912109375
119.93408203125
111.6943359375
99.79248046875
83.31298828125
60.4248046875
50.35400390625
35.70556640625
16.4794921875
8.23974609375
-1.8310546875
-23.8037109375
-32.958984375
-48.52294921875
-71.4111328125
-81.48193359375
-91.552734375
-101.62353515625
-109.86328125
-121.76513671875
-129.08935546875
-143.73779296875
-141.90673828125
-151.06201171875
-169.37255859375
-165.71044921875
-167.54150390625
-174.86572265625
-184.02099609375
-180.35888671875
-185.85205078125
-191.34521484375
-190.4296875
-205.99365234375
-213.31787109375
-204.16259765625
-207.82470703125
-205.99365234375
-206.9091796875
-206.9091796875
-205.078125
-220.64208984375
-216.97998046875
-223.388671875
-232.5439453125
-211.48681640625
-208.740234375
-224.30419921875
-221.5576171875
-214.2333984375
-216.064453125
-214.2333984375
-210.5712890625
-205.99365234375
-221.5576171875
-214.2333984375
-203.2470703125
-215.14892578125
-224.30419921875
-210.5712890625
-194.091796875
-197.75390625
-202.33154296875
-210.5712890625
-213.31787109375
-211.48681640625
-206.9091796875
-214.2333984375
-210.5712890625
-203.2470703125
-194.091796875
-205.078125
-189.51416015625
-180.35888671875
-201.416015625
-205.078125
-202.33154296875
-200.50048828125
-202.33154296875
-204.16259765625
-203.2470703125
-198.66943359375
-196.83837890625
-199.5849609375
-205.078125
-200.50048828125
-203.2470703125
-203.2470703125
-207.82470703125
-196.83837890625
-188.5986328125
-190.4296875
-193.17626953125
-203.2470703125
-211.48681640625
-213.31787109375
-200.50048828125
-195.00732421875
-191.34521484375
-205.078125
-207.82470703125
-207.82470703125
-218.81103515625
-203.2470703125
-195.00732421875
-203.2470703125
-205.078125
-210.5712890625
-215.14892578125
-206.9091796875
-205.99365234375
-214.2333984375
-209.65576171875
-198.66943359375
-211.48681640625
-212.40234375
-222.47314453125
-211.48681640625
-215.14892578125
-215.14892578125
-208.740234375
-208.740234375
-205.99365234375
-207.82470703125
-219.7265625
-222.47314453125
-219.7265625
-200.50048828125
-215.14892578125
-217.8955078125
-217.8955078125
-225.2197265625
-229.79736328125
-227.96630859375
-226.13525390625
-227.96630859375
-227.05078125
-212.40234375
-220.64208984375
-220.64208984375
-216.064453125
-226.13525390625
-227.96630859375
-217.8955078125
-222.47314453125
-223.388671875
-214.2333984375
-221.5576171875
-226.13525390625
-224.30419921875
-222.47314453125
-227.96630859375
-227.96630859375
-233.45947265625
-238.037109375
-224.30419921875
-223.388671875
-217.8955078125
-232.5439453125
-227.96630859375
-216.97998046875
-229.79736328125
-238.037109375
-227.96630859375
-241.69921875
-242.61474609375
-239.8681640625
-239.8681640625
-229.79736328125
-236.2060546875
-229.79736328125
-234.375
-238.95263671875
-229.79736328125
-235.29052734375
-243.5302734375
-229.79736328125
-240.78369140625
-230.712890625
-220.64208984375
-221.5576171875
-237.12158203125
-233.45947265625
-232.5439453125
-235.29052734375
-225.2197265625
-233.45947265625
-249.0234375
-241.69921875
-227.96630859375
-218.81103515625
-234.375
-241.69921875
-243.5302734375
-247.1923828125
-240.78369140625
-241.69921875
-245.361328125
-251.77001953125
-246.27685546875
-242.61474609375
-245.361328125
-237.12158203125
-237.12158203125
-253.60107421875
-248.10791015625
-246.27685546875
-246.27685546875
-245.361328125
-232.5439453125
-228.8818359375
-242.61474609375
-249.0234375
-242.61474609375
-250.8544921875
-246.27685546875
-254.5166015625
-256.34765625
-248.10791015625
-242.61474609375
-240.78369140625
-236.2060546875
-238.95263671875
-232.5439453125
-241.69921875
-238.95263671875
-241.69921875
-245.361328125
-251.77001953125
-242.61474609375
-240.78369140625
-238.95263671875
-235.29052734375
-236.2060546875
-247.1923828125
-248.10791015625
-249.0234375
-249.93896484375
-247.1923828125
-237.12158203125
-234.375
-245.361328125
-237.12158203125
-227.96630859375
-232.5439453125
-238.037109375
-245.361328125
-241.69921875
-240.78369140625
-232.5439453125
-232.5439453125
-228.8818359375
-217.8955078125
-220.64208984375
-230.712890625
-245.361328125
-249.0234375
-242.61474609375
-233.45947265625
-230.712890625
-221.5576171875
-236.2060546875
-246.27685546875
-252.685546875
-267.333984375
-270.99609375
-257.26318359375
-244.44580078125
-243.5302734375
-238.037109375
-239.8681640625
-249.0234375
-249.93896484375
-236.2060546875
-242.61474609375
-250.8544921875
-249.0234375
-241.69921875
-248.10791015625
-249.93896484375
-254.5166015625
-253.60107421875
-248.10791015625
-241.69921875
-249.93896484375
-250.8544921875
-249.0234375
-248.10791015625
-247.1923828125
-248.10791015625
-239.8681640625
-234.375
-236.2060546875
-230.712890625
-238.037109375
-238.95263671875
-237.12158203125
-233.45947265625
-230.712890625
-227.96630859375
-228.8818359375
-241.69921875
-242.61474609375
-237.12158203125
-238.037109375
-240.78369140625
-221.5576171875
-212.40234375
-169.37255859375
-116.27197265625
-58.59375
25.634765625
125.42724609375
220.64208984375
314.94140625
432.12890625
560.302734375
693.05419921875
844.1162109375
1000.67138671875
1101.37939453125
1131.591796875
1060.1806640625
944.82421875
783.69140625
637.20703125
531.005859375
406.494140625
195.00732421875
-8.23974609375
-119.0185546875
-206.9091796875
-262.75634765625
-253.60107421875
-246.27685546875
-255.43212890625
-247.1923828125
-227.96630859375
-205.99365234375
-178.52783203125
-167.54150390625
-141.90673828125
-140.07568359375
-137.3291015625
-145.56884765625
-149.23095703125
-151.9775390625
-156.55517578125
-148.3154296875
-151.9775390625
-148.3154296875
-157.470703125
-147.39990234375
-147.39990234375
-155.6396484375
-160.21728515625
-152.89306640625
-154.72412109375
-147.39990234375
-140.9912109375
-135.498046875
-140.07568359375
-140.9912109375
-138.24462890625
-140.9912109375
-130.92041015625
-135.498046875
-132.75146484375
-131.8359375
-125.42724609375
-116.27197265625
-121.76513671875
-111.6943359375
-111.6943359375
-122.6806640625
-118.10302734375
-118.10302734375
-105.28564453125
-102.5390625
-96.13037109375
-92.46826171875
-90.63720703125
-89.7216796875
-86.0595703125
-90.63720703125
-87.890625
-83.31298828125
-80.56640625
-63.17138671875
-64.0869140625
-66.83349609375
-59.50927734375
-59.50927734375
-52.18505859375
-52.18505859375
-43.9453125
-41.19873046875
-36.62109375
-32.04345703125
-23.8037109375
-18.310546875
-4.57763671875
-4.57763671875
-1.8310546875
-0.91552734375
8.23974609375
10.986328125
18.310546875
32.04345703125
38.4521484375
43.9453125
53.1005859375
59.50927734375
66.83349609375
69.580078125
76.904296875
87.890625
94.29931640625
102.5390625
110.77880859375
129.08935546875
130.0048828125
138.24462890625
146.484375
150.146484375
144.6533203125
159.3017578125
173.9501953125
173.03466796875
179.443359375
186.767578125
195.9228515625
203.2470703125
205.99365234375
207.82470703125
210.5712890625
213.31787109375
209.65576171875
211.48681640625
223.388671875
226.13525390625
217.8955078125
215.14892578125
212.40234375
200.50048828125
192.2607421875
190.4296875
178.52783203125
173.03466796875
169.37255859375
151.06201171875
134.58251953125
115.3564453125
107.11669921875
79.65087890625
63.17138671875
50.35400390625
45.7763671875
28.38134765625
14.6484375
-1.8310546875
-19.22607421875
-38.4521484375
-46.69189453125
-65.91796875
-80.56640625
-87.890625
-96.13037109375
-108.0322265625
-109.86328125
-119.93408203125
-130.92041015625
-132.75146484375
-144.6533203125
-162.9638671875
-166.6259765625
-168.45703125
-172.119140625
-178.52783203125
-181.2744140625
-184.02099609375
-183.10546875
-190.4296875
-195.9228515625
-195.00732421875
-195.00732421875
-203.2470703125
-200.50048828125
-197.75390625
-199.5849609375
-203.2470703125
-203.2470703125
-212.40234375
-208.740234375
-210.5712890625
-210.5712890625
-211.48681640625
-214.2333984375
-214.2333984375
-207.82470703125
-207.82470703125
-204.16259765625
-205.99365234375
-218.81103515625
-219.7265625
-210.5712890625
-213.31787109375
-206.9091796875
-209.65576171875
-205.078125
-207.82470703125
-207.82470703125
-207.82470703125
-204.16259765625
-204.16259765625
-212.40234375
-205.99365234375
-203.2470703125
-198.66943359375
-195.00732421875
-202.33154296875
-202.33154296875
-205.078125
-193.17626953125
-195.9228515625
-199.5849609375
-197.75390625
-195.00732421875
-194.091796875
-192.2607421875
-189.51416015625
-188.5986328125
-195.9228515625
-193.17626953125
-194.091796875
-196.83837890625
-192.2607421875
-192.2607421875
-190.4296875
-185.85205078125
-189.51416015625
-192.2607421875
-193.17626953125
-194.091796875
-198.66943359375
-197.75390625
-194.091796875
-194.091796875
-201.416015625
-192.2607421875
-192.2607421875
-195.9228515625
-196.83837890625
-194.091796875
-203.2470703125
-205.99365234375
-205.078125
-204.16259765625
-205.99365234375
-196.83837890625
-194.091796875
-204.16259765625
-204.16259765625
-201.416015625
-205.99365234375
-209.65576171875
-208.740234375
-208.740234375
-208.740234375
-205.078125
-205.99365234375
-208.740234375
-208.740234375
-214.2333984375
-223.388671875
-215.14892578125
-209.65576171875
-214.2333984375
-217.8955078125
-213.31787109375
-214.2333984375
-217.8955078125
-224.30419921875
-223.388671875
-227.05078125
-229.79736328125
-219.7265625
-223.388671875
-223.388671875
-216.97998046875
-215.14892578125
-218.81103515625
-222.47314453125
-223.388671875
-224.30419921875
-226.13525390625
-227.05078125
-226.13525390625
-234.375
-225.2197265625
-221.5576171875
-225.2197265625
-223.388671875
-219.7265625
-227.05078125
-230.712890625
-230.712890625
-226.13525390625
-228.8818359375
-230.712890625
-234.375
-228.8818359375
-227.96630859375
-227.96630859375
-238.037109375
-235.29052734375
-236.2060546875
-236.2060546875
-232.5439453125
-227.96630859375
-228.8818359375
-229.79736328125
-234.375
-227.05078125
-231.62841796875
-231.62841796875
-236.2060546875
-238.037109375
-236.2060546875
-231.62841796875
-239.8681640625
-236.2060546875
-238.037109375
-235.29052734375
-237.12158203125
-237.12158203125
-231.62841796875
-235.29052734375
-237.12158203125
-234.375
-231.62841796875
-235.29052734375
-236.2060546875
-230.712890625
-239.8681640625
-243.5302734375
-239.8681640625
-239.8681640625
-243.5302734375
-241.69921875
-232.5439453125
-236.2060546875
-234.375
-232.5439453125
-238.037109375
-242.61474609375
-233.45947265625
-236.2060546875
-243.5302734375
-237.12158203125
-232.5439453125
-235.29052734375
-243.5302734375
-235.29052734375
-238.95263671875
-247.1923828125
-244.44580078125
-245.361328125
-244.44580078125
-241.69921875
-241.69921875
-236.2060546875
-242.61474609375
-238.95263671875
-243.5302734375
-242.61474609375
-240.78369140625
-239.8681640625
-239.8681640625
-235.29052734375
-228.8818359375
-230.712890625
-236.2060546875
-243.5302734375
-247.1923828125
-246.27685546875
-244.44580078125
-239.8681640625
-246.27685546875
-238.95263671875
-233.45947265625
-233.45947265625
-235.29052734375
-237.12158203125
-248.10791015625
-253.60107421875
-249.0234375
-249.0234375
-245.361328125
-228.8818359375
-229.79736328125
-232.5439453125
-229.79736328125
-231.62841796875
-241.69921875
-242.61474609375
-234.375
-238.95263671875
-238.037109375
-237.12158203125
-247.1923828125
-257.26318359375
-259.09423828125
-253.60107421875
-254.5166015625
-258.1787109375
-250.8544921875
-251.77001953125
-255.43212890625
-250.8544921875
-248.10791015625
-243.5302734375
-244.44580078125
-249.93896484375
-251.77001953125
-258.1787109375
-254.5166015625
-254.5166015625
-256.34765625
-246.27685546875
-248.10791015625
-251.77001953125
-252.685546875
-246.27685546875
-249.93896484375
-260.009765625
-255.43212890625
-256.34765625
-249.0234375
-241.69921875
-240.78369140625
-240.78369140625
-236.2060546875
-242.61474609375
-243.5302734375
-244.44580078125
-238.037109375
-240.78369140625
-248.10791015625
-250.8544921875
-258.1787109375
-259.09423828125
-259.09423828125
-244.44580078125
-238.95263671875
-216.97998046875
-182.18994140625
-108.0322265625
-28.38134765625
62.255859375
168.45703125
276.4892578125
394.59228515625
509.033203125
635.3759765625
767.2119140625
924.6826171875
1039.12353515625
1093.1396484375
1058.349609375
946.6552734375
777.28271484375
618.896484375
506.28662109375
409.24072265625
248.10791015625
58.59375
-74.15771484375
-157.470703125
-225.2197265625
-260.009765625
-258.1787109375
-256.34765625
-265.5029296875
-271.91162109375
-258.1787109375
-236.2060546875
-207.82470703125
-198.66943359375
-175.78125
-170.2880859375
-164.794921875
-163.87939453125
-171.20361328125
-178.52783203125
-186.767578125
-189.51416015625
-184.9365234375
-178.52783203125
-175.78125
-172.119140625
-173.03466796875
-177.6123046875
-177.6123046875
-180.35888671875
-184.02099609375
-175.78125
-172.119140625
-176.69677734375
-166.6259765625
-161.1328125
-159.3017578125
-164.794921875
-154.72412109375
-157.470703125
-165.71044921875
-161.1328125
-156.55517578125
-152.89306640625
-143.73779296875
-140.9912109375
-146.484375
-149.23095703125
-143.73779296875
-137.3291015625
-140.9912109375
-137.3291015625
-134.58251953125
-131.8359375
-128.173828125
-116.27197265625
-114.44091796875
-110.77880859375
-108.0322265625
-102.5390625
-107.11669921875
-105.28564453125
-100.7080078125
-91.552734375
-87.890625
-82.3974609375
-71.4111328125
-67.7490234375
-65.00244140625
-60.4248046875
-63.17138671875
-60.4248046875
-47.607421875
-49.4384765625
-35.70556640625
-26.55029296875
-23.8037109375
-21.05712890625
-19.22607421875
-18.310546875
-10.07080078125
-1.8310546875
11.90185546875
17.39501953125
21.97265625
34.7900390625
36.62109375
45.7763671875
55.84716796875
60.4248046875
65.00244140625
72.32666015625
80.56640625
96.13037109375
104.3701171875
103.45458984375
105.28564453125
118.10302734375
119.0185546875
121.76513671875
130.92041015625
140.9912109375
145.56884765625
150.146484375
163.87939453125
170.2880859375
166.6259765625
173.03466796875
179.443359375
176.69677734375
172.119140625
173.9501953125
173.9501953125
175.78125
181.2744140625
179.443359375
164.794921875
158.38623046875
154.72412109375
145.56884765625
129.08935546875
124.51171875
116.27197265625
97.0458984375
85.14404296875
66.83349609375
52.18505859375
34.7900390625
26.55029296875
8.23974609375
-7.32421875
-31.1279296875
-36.62109375
-50.35400390625
-64.0869140625
-67.7490234375
-87.890625
-98.876953125
-113.525390625
-125.42724609375
-142.822265625
-152.89306640625
-160.21728515625
-172.119140625
-172.119140625
-171.20361328125
-182.18994140625
-195.00732421875
-200.50048828125
-203.2470703125
-213.31787109375
-207.82470703125
-217.8955078125
-220.64208984375
-218.81103515625
-223.388671875
-228.8818359375
-227.96630859375
-226.13525390625
-233.45947265625
-238.037109375
-232.5439453125
-234.375
-237.12158203125
-237.12158203125
-234.375
-245.361328125
-248.10791015625
-245.361328125
-245.361328125
-250.8544921875
-246.27685546875
-249.0234375
-249.93896484375
-247.1923828125
-234.375
-238.95263671875
-243.5302734375
-242.61474609375
-238.037109375
-239.8681640625
-241.69921875
-237.12158203125
-237.12158203125
-233.45947265625
-229.79736328125
-236.2060546875
-237.12158203125
-238.037109375
-235.29052734375
-234.375
-234.375
-236.2060546875
-231.62841796875
-233.45947265625
-227.05078125
-226.13525390625
-224.30419921875
-222.47314453125
-223.388671875
-230.712890625
-228.8818359375
-230.712890625
-227.05078125
-227.96630859375
-229.79736328125
-226.13525390625
-224.30419921875
-226.13525390625
-227.05078125
-232.5439453125
-237.12158203125
-216.97998046875
-223.388671875
-223.388671875
-220.64208984375
-231.62841796875
-226.13525390625
-225.2197265625
-223.388671875
-227.96630859375
-233.45947265625
-231.62841796875
-227.96630859375
-227.05078125
-227.05078125
-218.81103515625
-226.13525390625
-227.05078125
-229.79736328125
-239.8681640625
-228.8818359375
-230.712890625
-237.12158203125
-238.95263671875
-233.45947265625
-237.12158203125
-235.29052734375
-241.69921875
-238.037109375
-244.44580078125
-236.2060546875
-240.78369140625
-245.361328125
-238.037109375
-234.375
-233.45947265625
-239.8681640625
-238.037109375
-245.361328125
-252.685546875
-249.0234375
-249.93896484375
-251.77001953125
-254.5166015625
-243.5302734375
-252.685546875
-256.34765625
-252.685546875
-253.60107421875
-259.09423828125
-260.92529296875
-251.77001953125
-255.43212890625
-255.43212890625
-260.009765625
-259.09423828125
-256.34765625
-250.8544921875
-255.43212890625
-256.34765625
-264.58740234375
-261.8408203125
-262.75634765625
-260.92529296875
-259.09423828125
-258.1787109375
-257.26318359375
-263.671875
-260.92529296875
-268.24951171875
-262.75634765625
-266.41845703125
-256.34765625
-258.1787109375
-255.43212890625
-258.1787109375
-258.1787109375
-251.77001953125
-258.1787109375
-259.09423828125
-254.5166015625
-260.92529296875
-266.41845703125
-264.58740234375
-263.671875
-263.671875
-262.75634765625
-261.8408203125
-261.8408203125
-268.24951171875
-260.92529296875
-263.671875
-261.8408203125
-260.009765625
-259.09423828125
-265.5029296875
-269.1650390625
-265.5029296875
-261.8408203125
-269.1650390625
-265.5029296875
-271.91162109375
-270.08056640625
-263.671875
-270.08056640625
-265.5029296875
-266.41845703125
-265.5029296875
-264.58740234375
-269.1650390625
-272.8271484375
-265.5029296875
-272.8271484375
-264.58740234375
-258.1787109375
-262.75634765625
-263.671875
-260.92529296875
-270.99609375
-272.8271484375
-270.99609375
-269.1650390625
-268.24951171875
-258.1787109375
-260.009765625
-262.75634765625
-277.40478515625
-272.8271484375
-271.91162109375
-281.06689453125
-280.1513671875
-270.99609375
-262.75634765625
-267.333984375
-262.75634765625
-269.1650390625
-270.08056640625
-261.8408203125
-260.009765625
-259.09423828125
-266.41845703125
-268.24951171875
-270.08056640625
-276.4892578125
-279.23583984375
-275.57373046875
-271.91162109375
-272.8271484375
-264.58740234375
-267.333984375
-267.333984375
-271.91162109375
-271.91162109375
-262.75634765625
-257.26318359375
-260.009765625
-270.99609375
-270.99609375
-276.4892578125
-282.89794921875
-278.3203125
-281.06689453125
-278.3203125
-272.8271484375
-270.08056640625
-270.99609375
-270.08056640625
-270.08056640625
-271.91162109375
-281.06689453125
-278.3203125
-267.333984375
-267.333984375
-258.1787109375
-260.009765625
-264.58740234375
-261.8408203125
-253.60107421875
-263.671875
-269.1650390625
-270.08056640625
-271.91162109375
-280.1513671875
-285.64453125
-282.89794921875
-281.06689453125
-272.8271484375
-268.24951171875
-239.8681640625
-191.34521484375
-106.201171875
-23.8037109375
66.83349609375
182.18994140625
304.87060546875
428.466796875
544.73876953125
675.6591796875
812.98828125
966.796875
1054.6875
1037.29248046875
924.6826171875
783.69140625
592.34619140625
447.69287109375
385.43701171875
276.4892578125
108.94775390625
-14.6484375
-86.97509765625
-145.56884765625
-195.00732421875
-227.96630859375
-245.361328125
-276.4892578125
-293.88427734375
-297.54638671875
-292.05322265625
-289.306640625
-264.58740234375
-239.8681640625
-220.64208984375
-210.5712890625
-201.416015625
-190.4296875
-197.75390625
-195.9228515625
-202.33154296875
-206.9091796875
-206.9091796875
-206.9091796875
-200.50048828125
-192.2607421875
-195.9228515625
-195.00732421875
-192.2607421875
-191.34521484375
-189.51416015625
-197.75390625
-196.83837890625
-192.2607421875
-185.85205078125
-190.4296875
-179.443359375
-181.2744140625
-175.78125
-174.86572265625
-173.9501953125
-175.78125
-171.20361328125
-168.45703125
-168.45703125
-166.6259765625
-156.55517578125
-159.3017578125
-159.3017578125
-152.89306640625
-151.06201171875
-151.06201171875
-150.146484375
-140.9912109375
-140.9912109375
-130.92041015625
-128.173828125
-129.08935546875
-130.92041015625
-118.10302734375
-111.6943359375
-119.93408203125
-115.3564453125
-108.0322265625
-101.62353515625
-97.0458984375
-93.3837890625
-82.3974609375
-79.65087890625
-77.81982421875
-70.49560546875
-69.580078125
-63.17138671875
-57.67822265625
-52.18505859375
-47.607421875
-40.283203125
-29.296875
-28.38134765625
-18.310546875
-14.6484375
-14.6484375
-7.32421875
4.57763671875
13.73291015625
18.310546875
36.62109375
38.4521484375
39.36767578125
45.7763671875
52.18505859375
58.59375
65.00244140625
77.81982421875
84.228515625
89.7216796875
106.201171875
104.3701171875
110.77880859375
119.93408203125
125.42724609375
119.93408203125
130.0048828125
135.498046875
143.73779296875
140.9912109375
152.89306640625
152.89306640625
152.89306640625
154.72412109375
159.3017578125
152.89306640625
152.89306640625
153.80859375
152.89306640625
143.73779296875
140.07568359375
125.42724609375
119.0185546875
105.28564453125
90.63720703125
80.56640625
65.00244140625
54.01611328125
39.36767578125
27.4658203125
21.97265625
2.74658203125
-14.6484375
-30.21240234375
-47.607421875
-62.255859375
-74.15771484375
-92.46826171875
-107.11669921875
-113.525390625
-119.93408203125
-125.42724609375
-145.56884765625
-151.06201171875
-161.1328125
-172.119140625
-181.2744140625
-188.5986328125
-188.5986328125
-198.66943359375
-195.00732421875
-203.2470703125
-216.064453125
-214.2333984375
-218.81103515625
-235.29052734375
-234.375
-234.375
-237.12158203125
-237.12158203125
-229.79736328125
-230.712890625
-235.29052734375
-235.29052734375
-239.8681640625
-248.10791015625
-248.10791015625
-248.10791015625
-252.685546875
-246.27685546875
-243.5302734375
-239.8681640625
-249.0234375
-251.77001953125
-249.93896484375
-254.5166015625
-253.60107421875
-253.60107421875
-253.60107421875
-255.43212890625
-238.037109375
-238.95263671875
-247.1923828125
-247.1923828125
-249.0234375
-248.10791015625
-248.10791015625
-249.93896484375
-242.61474609375
-243.5302734375
-238.95263671875
-237.12158203125
-240.78369140625
-244.44580078125
-234.375
-238.95263671875
-240.78369140625
-235.29052734375
-238.037109375
-237.12158203125
-233.45947265625
-234.375
-234.375
-227.05078125
-224.30419921875
-233.45947265625
-237.12158203125
-235.29052734375
-230.712890625
-229.79736328125
-225.2197265625
-229.79736328125
-227.96630859375
-226.13525390625
-233.45947265625
-234.375
-237.12158203125
-230.712890625
-224.30419921875
-230.712890625
-220.64208984375
-226.13525390625
-227.05078125
-225.2197265625
-227.96630859375
-238.95263671875
-236.2060546875
-228.8818359375
-231.62841796875
-229.79736328125
-225.2197265625
-227.96630859375
-230.712890625
-227.05078125
-233.45947265625
-243.5302734375
-239.8681640625
-238.037109375
-232.5439453125
-230.712890625
-230.712890625
-239.8681640625
-238.95263671875
-234.375
-234.375
-247.1923828125
-250.8544921875
-250.8544921875
-246.27685546875
-246.27685546875
-237.12158203125
-244.44580078125
-247.1923828125
-241.69921875
-243.5302734375
-249.0234375
-252.685546875
-247.1923828125
-241.69921875
-247.1923828125
-247.1923828125
-251.77001953125
-245.361328125
-249.93896484375
-249.93896484375
-252.685546875
-262.75634765625
-256.34765625
-254.5166015625
-252.685546875
-253.60107421875
-258.1787109375
-256.34765625
-256.34765625
-251.77001953125
-255.43212890625
-260.009765625
-252.685546875
-251.77001953125
-252.685546875
-249.0234375
-244.44580078125
-251.77001953125
-253.60107421875
-252.685546875
-255.43212890625
-260.92529296875
-258.1787109375
-255.43212890625
-256.34765625
-251.77001953125
-252.685546875
-253.60107421875
-255.43212890625
-260.92529296875
-265.5029296875
-260.92529296875
-261.8408203125
-263.671875
-262.75634765625
-249.0234375
-253.60107421875
-259.09423828125
-260.92529296875
-258.1787109375
-263.671875
-262.75634765625
-260.009765625
-262.75634765625
-259.09423828125
-256.34765625
-256.34765625
-259.09423828125
-261.8408203125
-260.92529296875
-256.34765625
-260.92529296875
-254.5166015625
-250.8544921875
-256.34765625
-256.34765625
-253.60107421875
-260.009765625
-260.009765625
-249.0234375
-257.26318359375
-256.34765625
-252.685546875
-251.77001953125
-252.685546875
-249.93896484375
-252.685546875
-248.10791015625
-246.27685546875
-250.8544921875
-269.1650390625
-269.1650390625
-258.1787109375
-251.77001953125
-249.93896484375
-237.12158203125
-233.45947265625
-240.78369140625
-251.77001953125
-249.93896484375
-263.671875
-251.77001953125
-245.361328125
-245.361328125
-246.27685546875
-255.43212890625
-259.09423828125
-267.333984375
-273.74267578125
-271.91162109375
-276.4892578125
-271.91162109375
-263.671875
-259.09423828125
-263.671875
-258.1787109375
-261.8408203125
-254.5166015625
-256.34765625
-254.5166015625
-266.41845703125
-271.91162109375
-268.24951171875
-270.08056640625
-266.41845703125
-261.8408203125
-264.58740234375
-262.75634765625
-266.41845703125
-265.5029296875
-267.333984375
-262.75634765625
-262.75634765625
-260.92529296875
-257.26318359375
-256.34765625
-253.60107421875
-253.60107421875
-256.34765625
-250.8544921875
-251.77001953125
-249.0234375
-250.8544921875
-250.8544921875
-261.8408203125
-261.8408203125
-255.43212890625
-257.26318359375
-259.09423828125
-244.44580078125
-239.8681640625
-215.14892578125
-182.18994140625
-114.44091796875
-32.04345703125
65.91796875
173.9501953125
265.5029296875
380.859375
491.63818359375
615.234375
750.732421875
909.11865234375
1048.27880859375
1104.1259765625
1079.40673828125
970.458984375
812.98828125
647.27783203125
518.1884765625
421.142578125
261.8408203125
58.59375
-80.56640625
-162.9638671875
-220.64208984375
-258.1787109375
-262.75634765625
-265.5029296875
-271.91162109375
-276.4892578125
-262.75634765625
-234.375
-207.82470703125
-188.5986328125
-176.69677734375
-167.54150390625
-164.794921875
-170.2880859375
-173.03466796875
-178.52783203125
-177.6123046875
-178.52783203125
-177.6123046875
-179.443359375
-171.20361328125
-171.20361328125
-178.52783203125
-175.78125
-167.54150390625
-173.9501953125
-176.69677734375
-172.119140625
-172.119140625
-172.119140625
-162.9638671875
-162.9638671875
-155.6396484375
-156.55517578125
-158.38623046875
-166.6259765625
-161.1328125
-157.470703125
-155.6396484375
-147.39990234375
-139.16015625
-139.16015625
-135.498046875
-130.92041015625
-135.498046875
-136.41357421875
-139.16015625
-131.8359375
-130.92041015625
-122.6806640625
-108.0322265625
-109.86328125
-110.77880859375
-108.0322265625
-98.876953125
-108.0322265625
-103.45458984375
-95.21484375
-86.97509765625
-83.31298828125
-74.15771484375
-67.7490234375
-73.2421875
-69.580078125
-60.4248046875
-62.255859375
-56.7626953125
-49.4384765625
-43.02978515625
-36.62109375
-24.71923828125
-17.39501953125
-16.4794921875
-15.56396484375
-4.57763671875
-1.8310546875
0.91552734375
12.8173828125
19.22607421875
30.21240234375
43.9453125
52.18505859375
56.7626953125
64.0869140625
64.0869140625
61.34033203125
67.7490234375
87.890625
97.0458984375
104.3701171875
110.77880859375
128.173828125
131.8359375
138.24462890625
143.73779296875
138.24462890625
145.56884765625
154.72412109375
157.470703125
169.37255859375
177.6123046875
187.68310546875
182.18994140625
188.5986328125
191.34521484375
186.767578125
180.35888671875
184.02099609375
184.9365234375
189.51416015625
191.34521484375
185.85205078125
174.86572265625
165.71044921875
159.3017578125
140.07568359375
125.42724609375
118.10302734375
105.28564453125
87.890625
79.65087890625
60.4248046875
41.19873046875
23.8037109375
17.39501953125
-3.662109375
-21.97265625
-32.958984375
-45.7763671875
-57.67822265625
-76.904296875
-85.14404296875
-97.0458984375
-109.86328125
-119.0185546875
-140.9912109375
-158.38623046875
-162.9638671875
-169.37255859375
-166.6259765625
-171.20361328125
-178.52783203125
-184.02099609375
-190.4296875
-196.83837890625
-205.078125
-209.65576171875
-204.16259765625
-210.5712890625
-216.064453125
-212.40234375
-212.40234375
-212.40234375
-218.81103515625
-222.47314453125
-228.8818359375
-232.5439453125
-234.375
-231.62841796875
-229.79736328125
-228.8818359375
-228.8818359375
-226.13525390625
-230.712890625
-231.62841796875
-238.95263671875
-242.61474609375
-232.5439453125
-231.62841796875
-234.375
-233.45947265625
-229.79736328125
-235.29052734375
-231.62841796875
-230.712890625
-240.78369140625
-238.037109375
-241.69921875
-231.62841796875
-234.375
-229.79736328125
-227.05078125
-230.712890625
-234.375
-230.712890625
-239.8681640625
-234.375
-234.375
-227.96630859375
-222.47314453125
-217.8955078125
-212.40234375
-218.81103515625
-221.5576171875
-216.97998046875
-219.7265625
-224.30419921875
-221.5576171875
-221.5576171875
-223.388671875
-219.7265625
-214.2333984375
-216.064453125
-218.81103515625
-217.8955078125
-221.5576171875
-220.64208984375
-217.8955078125
-216.064453125
-220.64208984375
-215.14892578125
-207.82470703125
-212.40234375
-215.14892578125
-211.48681640625
-218.81103515625
-225.2197265625
-217.8955078125
-216.97998046875
-217.8955078125
-212.40234375
-212.40234375
-210.5712890625
-217.8955078125
-217.8955078125
-225.2197265625
-227.05078125
-222.47314453125
-223.388671875
-227.96630859375
-221.5576171875
-218.81103515625
-216.064453125
-220.64208984375
-217.8955078125
-227.05078125
-233.45947265625
-230.712890625
-231.62841796875
-227.96630859375
-225.2197265625
-232.5439453125
-227.05078125
-234.375
-229.79736328125
-232.5439453125
-240.78369140625
-238.037109375
-231.62841796875
-232.5439453125
-234.375
-233.45947265625
-234.375
-238.037109375
-236.2060546875
-245.361328125
-243.5302734375
-241.69921875
-239.8681640625
-238.95263671875
-239.8681640625
-247.1923828125
-243.5302734375
-246.27685546875
-242.61474609375
-249.0234375
-252.685546875
-249.0234375
-247.1923828125
-242.61474609375
-243.5302734375
-243.5302734375
-240.78369140625
-239.8681640625
-246.27685546875
-259.09423828125
-249.0234375
-251.77001953125
-249.0234375
-248.10791015625
-240.78369140625
-244.44580078125
-246.27685546875
-250.8544921875
-244.44580078125
-250.8544921875
-255.43212890625
-255.43212890625
-249.0234375
-249.0234375
-249.93896484375
-250.8544921875
-253.60107421875
-249.0234375
-251.77001953125
-255.43212890625
-250.8544921875
-253.60107421875
-250.8544921875
-252.685546875
-245.361328125
-246.27685546875
-249.93896484375
-250.8544921875
-248.10791015625
-253.60107421875
-259.09423828125
-252.685546875
-251.77001953125
-257.26318359375
-246.27685546875
-246.27685546875
-251.77001953125
-252.685546875
-252.685546875
-258.1787109375
-258.1787109375
-249.0234375
-255.43212890625
-261.8408203125
-250.8544921875
-243.5302734375
-249.93896484375
-250.8544921875
-254.5166015625
-258.1787109375
-262.75634765625
-253.60107421875
-249.93896484375
-253.60107421875
-246.27685546875
-239.8681640625
-253.60107421875
-255.43212890625
-247.1923828125
-251.77001953125
-255.43212890625
-253.60107421875
-254.5166015625
-252.685546875
-246.27685546875
-250.8544921875
-250.8544921875
-251.77001953125
-245.361328125
-249.93896484375
-254.5166015625
-255.43212890625
-251.77001953125
-251.77001953125
-248.10791015625
-244.44580078125
-245.361328125
-251.77001953125
-251.77001953125
-250.8544921875
-250.8544921875
-249.0234375
-246.27685546875
-244.44580078125
-247.1923828125
-246.27685546875
-242.61474609375
-239.8681640625
-237.12158203125
-241.69921875
-248.10791015625
-256.34765625
-253.60107421875
-251.77001953125
-244.44580078125
-244.44580078125
-230.712890625
-230.712890625
-234.375
-250.8544921875
-249.0234375
-251.77001953125
-239.8681640625
-238.95263671875
-239.8681640625
-235.29052734375
-244.44580078125
-254.5166015625
-262.75634765625
-266.41845703125
-272.8271484375
-270.08056640625
-258.1787109375
-248.10791015625
-245.361328125
-249.0234375
-255.43212890625
-254.5166015625
-243.5302734375
-246.27685546875
-250.8544921875
-260.92529296875
-260.009765625
-260.009765625
-261.8408203125
-254.5166015625
-258.1787109375
-257.26318359375
-257.26318359375
-263.671875
-264.58740234375
-257.26318359375
-253.60107421875
-250.8544921875
-252.685546875
-248.10791015625
-246.27685546875
-248.10791015625
-242.61474609375
-239.8681640625
-249.0234375
-238.95263671875
-238.037109375
-242.61474609375
-238.95263671875
-240.78369140625
-246.27685546875
-245.361328125
-244.44580078125
-252.685546875
-241.69921875
-234.375
-220.64208984375
-202.33154296875
-165.71044921875
-98.876953125
-20.1416015625
75.98876953125
177.6123046875
268.24951171875
379.0283203125
491.63818359375
632.62939453125
772.705078125
929.26025390625
1068.42041015625
1134.33837890625
1122.4365234375
1025.390625
866.0888671875
695.80078125
555.72509765625
455.9326171875
304.87060546875
100.7080078125
-63.17138671875
-162.04833984375
-238.95263671875
-270.99609375
-263.671875
-269.1650390625
-271.91162109375
-257.26318359375
-236.2060546875
-206.9091796875
-184.9365234375
-171.20361328125
-163.87939453125
-153.80859375
-158.38623046875
-159.3017578125
-170.2880859375
-169.37255859375
-168.45703125
-162.04833984375
-165.71044921875
-173.03466796875
-168.45703125
-162.04833984375
-167.54150390625
-170.2880859375
-171.20361328125
-169.37255859375
-163.87939453125
-156.55517578125
-157.470703125
-153.80859375
-153.80859375
-156.55517578125
-155.6396484375
-165.71044921875
-161.1328125
-150.146484375
-154.72412109375
-145.56884765625
-140.07568359375
-144.6533203125
-138.24462890625
-131.8359375
-136.41357421875
-141.90673828125
-140.07568359375
-131.8359375
-127.25830078125
-118.10302734375
-116.27197265625
-117.1875
-117.1875
-113.525390625
-118.10302734375
-108.94775390625
-108.0322265625
-104.3701171875
-98.876953125
-88.80615234375
-81.48193359375
-83.31298828125
-76.904296875
-72.32666015625
-80.56640625
-71.4111328125
-65.00244140625
-63.17138671875
-54.01611328125
-50.35400390625
-37.53662109375
-34.7900390625
-30.21240234375
-21.05712890625
-13.73291015625
-18.310546875
-10.986328125
-0.91552734375
0
19.22607421875
23.8037109375
32.958984375
43.02978515625
45.7763671875
54.01611328125
54.931640625
65.91796875
72.32666015625
75.98876953125
97.0458984375
109.86328125
111.6943359375
119.93408203125
128.173828125
132.75146484375
137.3291015625
142.822265625
145.56884765625
151.9775390625
167.54150390625
174.86572265625
179.443359375
180.35888671875
188.5986328125
195.00732421875
191.34521484375
193.17626953125
195.00732421875
200.50048828125
203.2470703125
205.078125
199.5849609375
201.416015625
198.66943359375
188.5986328125
177.6123046875
177.6123046875
163.87939453125
155.6396484375
143.73779296875
136.41357421875
116.27197265625
100.7080078125
90.63720703125
69.580078125
49.4384765625
37.53662109375
22.88818359375
5.4931640625
0.91552734375
-7.32421875
-27.4658203125
-45.7763671875
-60.4248046875
-75.0732421875
-89.7216796875
-98.876953125
-109.86328125
-119.93408203125
-127.25830078125
-134.58251953125
-146.484375
-151.9775390625
-157.470703125
-171.20361328125
-175.78125
-179.443359375
-184.9365234375
-185.85205078125
-191.34521484375
-188.5986328125
-191.34521484375
-190.4296875
-195.00732421875
-198.66943359375
-207.82470703125
-212.40234375
-215.14892578125
-205.99365234375
-211.48681640625
-209.65576171875
-218.81103515625
-216.064453125
-216.064453125
-218.81103515625
-225.2197265625
-220.64208984375
-225.2197265625
-225.2197265625
-230.712890625
-220.64208984375
-226.13525390625
-224.30419921875
-218.81103515625
-222.47314453125
-227.96630859375
-225.2197265625
-223.388671875
-223.388671875
-216.064453125
-216.97998046875
-216.064453125
-221.5576171875
-211.48681640625
-222.47314453125
-218.81103515625
-220.64208984375
-220.64208984375
-218.81103515625
-215.14892578125
-213.31787109375
-215.14892578125
-211.48681640625
-215.14892578125
-213.31787109375
-213.31787109375
-209.65576171875
-205.078125
-204.16259765625
-209.65576171875
-204.16259765625
-206.9091796875
-207.82470703125
-207.82470703125
-210.5712890625
-209.65576171875
-212.40234375
-206.9091796875
-207.82470703125
-205.99365234375
-201.416015625
-201.416015625
-198.66943359375
-203.2470703125
-206.9091796875
-205.078125
-205.99365234375
-211.48681640625
-209.65576171875
-205.078125
-203.2470703125
-204.16259765625
-206.9091796875
-206.9091796875
-215.14892578125
-215.14892578125
-213.31787109375
-217.8955078125
-214.2333984375
-209.65576171875
-205.99365234375
-210.5712890625
-212.40234375
-216.064453125
-217.8955078125
-220.64208984375
-222.47314453125
-225.2197265625
-219.7265625
-219.7265625
-215.14892578125
-218.81103515625
-222.47314453125
-227.05078125
-227.05078125
-231.62841796875
-230.712890625
-232.5439453125
-227.96630859375
-225.2197265625
-219.7265625
-223.388671875
-227.96630859375
-232.5439453125
-240.78369140625
-237.12158203125
-234.375
-233.45947265625
-232.5439453125
-232.5439453125
-223.388671875
-227.05078125
-233.45947265625
-235.29052734375
-233.45947265625
-241.69921875
-234.375
-233.45947265625
-233.45947265625
-236.2060546875
-233.45947265625
-233.45947265625
-238.95263671875
-235.29052734375
-240.78369140625
-241.69921875
-237.12158203125
-239.8681640625
-240.78369140625
-238.95263671875
-238.037109375
-231.62841796875
-237.12158203125
-234.375
-238.037109375
-246.27685546875
-242.61474609375
-244.44580078125
-238.037109375
-236.2060546875
-228.8818359375
-236.2060546875
-238.95263671875
-234.375
-237.12158203125
-243.5302734375
-247.1923828125
-241.69921875
-239.8681640625
-245.361328125
-240.78369140625
-239.8681640625
-238.95263671875
-240.78369140625
-237.12158203125
-243.5302734375
-238.037109375
-237.12158203125
-236.2060546875
-244.44580078125
-235.29052734375
-232.5439453125
-243.5302734375
-239.8681640625
-236.2060546875
-238.95263671875
-246.27685546875
-238.037109375
-241.69921875
-238.037109375
-235.29052734375
-230.712890625
-243.5302734375
-238.95263671875
-238.037109375
-243.5302734375
-240.78369140625
-239.8681640625
-245.361328125
-237.12158203125
-232.5439453125
-235.29052734375
-234.375
-229.79736328125
-238.95263671875
-245.361328125
-248.10791015625
-237.12158203125
-235.29052734375
-239.8681640625
-234.375
-234.375
-239.8681640625
-234.375
-236.2060546875
-246.27685546875
-248.10791015625
-237.12158203125
-239.8681640625
-241.69921875
-234.375
-239.8681640625
-241.69921875
-240.78369140625
-245.361328125
-249.93896484375
-246.27685546875
-236.2060546875
-242.61474609375
-244.44580078125
-235.29052734375
-239.8681640625
-238.95263671875
-244.44580078125
-238.037109375
-249.0234375
-248.10791015625
-242.61474609375
-242.61474609375
-238.95263671875
-234.375
-237.12158203125
-236.2060546875
-236.2060546875
-238.037109375
-248.10791015625
-245.361328125
-248.10791015625
-246.27685546875
-238.037109375
-230.712890625
-237.12158203125
-240.78369140625
-243.5302734375
-249.0234375
-251.77001953125
-249.93896484375
-246.27685546875
-235.29052734375
-227.05078125
-227.05078125
-230.712890625
-235.29052734375
-233.45947265625
-234.375
-236.2060546875
-244.44580078125
-238.037109375
-248.10791015625
-255.43212890625
-256.34765625
-261.8408203125
-266.41845703125
-260.009765625
-260.92529296875
-261.8408203125
-256.34765625
-253.60107421875
-252.685546875
-257.26318359375
-247.1923828125
-240.78369140625
-249.93896484375
-246.27685546875
-251.77001953125
-261.8408203125
-263.671875
-258.1787109375
-252.685546875
-251.77001953125
-252.685546875
-249.0234375
-251.77001953125
-250.8544921875
-253.60107421875
-253.60107421875
-249.93896484375
-248.10791015625
-243.5302734375
-240.78369140625
-235.29052734375
-239.8681640625
-238.95263671875
-240.78369140625
-233.45947265625
-238.95263671875
-236.2060546875
-237.12158203125
-236.2060546875
-239.8681640625
-243.5302734375
-242.61474609375
-244.44580078125
-232.5439453125
-226.13525390625
-212.40234375
-195.00732421875
-149.23095703125
-74.15771484375
8.23974609375
115.3564453125
207.82470703125
309.4482421875
420.22705078125
538.330078125
671.08154296875
806.57958984375
964.9658203125
1060.1806640625
1107.7880859375
1058.349609375
944.82421875
779.11376953125
617.98095703125
496.2158203125
401.0009765625
226.13525390625
31.1279296875
-94.29931640625
-176.69677734375
-241.69921875
-260.009765625
-256.34765625
-255.43212890625
-265.5029296875
-258.1787109375
-237.12158203125
-210.5712890625
-186.767578125
-174.86572265625
-161.1328125
-161.1328125
-160.21728515625
-154.72412109375
-162.04833984375
-178.52783203125
-175.78125
-171.20361328125
-172.119140625
-177.6123046875
-164.794921875
-170.2880859375
-166.6259765625
-164.794921875
-162.9638671875
-168.45703125
-172.119140625
-167.54150390625
-167.54150390625
-164.794921875
-161.1328125
-157.470703125
-161.1328125
-155.6396484375
-152.89306640625
-164.794921875
-160.21728515625
-154.72412109375
-151.9775390625
-145.56884765625
-141.90673828125
-135.498046875
-130.92041015625
-132.75146484375
-135.498046875
-134.58251953125
-130.92041015625
-129.08935546875
-127.25830078125
-122.6806640625
-114.44091796875
-106.201171875
-104.3701171875
-100.7080078125
-97.0458984375
-96.13037109375
-94.29931640625
-87.890625
-81.48193359375
-80.56640625
-74.15771484375
-72.32666015625
-67.7490234375
-58.59375
-55.84716796875
-62.255859375
-51.26953125
-43.9453125
-43.02978515625
-45.7763671875
-30.21240234375
-23.8037109375
-14.6484375
-6.40869140625
-6.40869140625
-4.57763671875
0.91552734375
10.07080078125
17.39501953125
32.958984375
40.283203125
43.02978515625
51.26953125
64.0869140625
73.2421875
75.0732421875
75.98876953125
84.228515625
99.79248046875
112.60986328125
120.849609375
120.849609375
131.8359375
153.80859375
154.72412109375
149.23095703125
152.89306640625
162.04833984375
171.20361328125
173.03466796875
185.85205078125
195.00732421875
191.34521484375
186.767578125
194.091796875
193.17626953125
195.9228515625
200.50048828125
205.99365234375
206.9091796875
201.416015625
197.75390625
184.02099609375
179.443359375
177.6123046875
151.06201171875
142.822265625
130.92041015625
115.3564453125
111.6943359375
97.0458984375
84.228515625
72.32666015625
51.26953125
34.7900390625
10.07080078125
-5.4931640625
-17.39501953125
-32.958984375
-50.35400390625
-60.4248046875
-74.15771484375
-93.3837890625
-100.7080078125
-101.62353515625
-116.27197265625
-133.6669921875
-148.3154296875
-150.146484375
-157.470703125
-163.87939453125
-172.119140625
-179.443359375
-182.18994140625
-187.68310546875
-204.16259765625
-203.2470703125
-205.99365234375
-205.99365234375
-210.5712890625
-212.40234375
-216.064453125
-210.5712890625
-215.14892578125
-217.8955078125
-227.96630859375
-229.79736328125
-225.2197265625
-222.47314453125
-229.79736328125
-224.30419921875
-229.79736328125
-225.2197265625
-223.388671875
-228.8818359375
-232.5439453125
-240.78369140625
-234.375
-234.375
-235.29052734375
-233.45947265625
-227.96630859375
-230.712890625
-228.8818359375
-228.8818359375
-238.037109375
-249.0234375
-242.61474609375
-238.95263671875
-237.12158203125
-229.79736328125
-224.30419921875
-239.8681640625
-227.96630859375
-227.96630859375
-243.5302734375
-238.95263671875
-238.037109375
-237.12158203125
-227.05078125
-220.64208984375
-221.5576171875
-230.712890625
-225.2197265625
-211.48681640625
-228.8818359375
-237.12158203125
-227.96630859375
-229.79736328125
-229.79736328125
-232.5439453125
-226.13525390625
-222.47314453125
-217.8955078125
-218.81103515625
-225.2197265625
-222.47314453125
-224.30419921875
-218.81103515625
-215.14892578125
-215.14892578125
-219.7265625
-231.62841796875
-226.13525390625
-216.97998046875
-225.2197265625
-225.2197265625
-234.375
-225.2197265625
-223.388671875
-220.64208984375
-224.30419921875
-220.64208984375
-220.64208984375
-228.8818359375
-234.375
-233.45947265625
-227.05078125
-223.388671875
-227.05078125
-221.5576171875
-227.96630859375
-229.79736328125
-230.712890625
-234.375
-235.29052734375
-238.95263671875
-239.8681640625
-234.375
-238.037109375
-224.30419921875
-227.05078125
-234.375
-234.375
-232.5439453125
-238.95263671875
-238.95263671875
-242.61474609375
-246.27685546875
-249.0234375
-240.78369140625
-243.5302734375
-246.27685546875
-255.43212890625
-251.77001953125
-254.5166015625
-245.361328125
-254.5166015625
-246.27685546875
-240.78369140625
-245.361328125
-246.27685546875
-246.27685546875
-245.361328125
-251.77001953125
-250.8544921875
-259.09423828125
-252.685546875
-258.1787109375
-249.0234375
-251.77001953125
-246.27685546875
-249.0234375
-250.8544921875
-251.77001953125
-255.43212890625
-262.75634765625
-252.685546875
-246.27685546875
-252.685546875
-242.61474609375
-245.361328125
-252.685546875
-255.43212890625
-259.09423828125
-262.75634765625
-261.8408203125
-257.26318359375
-250.8544921875
-256.34765625
-251.77001953125
-249.93896484375
-258.1787109375
-257.26318359375
-249.93896484375
-270.08056640625
-267.333984375
-265.5029296875
-266.41845703125
-260.009765625
-249.0234375
-250.8544921875
-258.1787109375
-256.34765625
-256.34765625
-270.08056640625
-267.333984375
-269.1650390625
-265.5029296875
-261.8408203125
-259.09423828125
-260.009765625
-256.34765625
-252.685546875
-259.09423828125
-270.99609375
-266.41845703125
-264.58740234375
-262.75634765625
-260.009765625
-258.1787109375
-252.685546875
-262.75634765625
-260.009765625
-252.685546875
-262.75634765625
-264.58740234375
-260.009765625
-260.009765625
-258.1787109375
-255.43212890625
-249.0234375
-260.92529296875
-260.92529296875
-261.8408203125
-260.009765625
-262.75634765625
-260.009765625
-262.75634765625
-258.1787109375
-252.685546875
-252.685546875
-256.34765625
-262.75634765625
-264.58740234375
-257.26318359375
-255.43212890625
-265.5029296875
-258.1787109375
-264.58740234375
-251.77001953125
-252.685546875
-256.34765625
-268.24951171875
-274.658203125
-272.8271484375
-268.24951171875
-275.57373046875
-260.92529296875
-256.34765625
-252.685546875
-257.26318359375
-256.34765625
-258.1787109375
-263.671875
-260.92529296875
-255.43212890625
-255.43212890625
-251.77001953125
-260.009765625
-262.75634765625
-263.671875
-265.5029296875
-268.24951171875
-261.8408203125
-262.75634765625
-258.1787109375
-258.1787109375
-260.92529296875
-261.8408203125
-255.43212890625
-257.26318359375
-254.5166015625
-264.58740234375
-260.009765625
-270.99609375
-276.4892578125
-269.1650390625
-267.333984375
-264.58740234375
-268.24951171875
-264.58740234375
-260.92529296875
-262.75634765625
-264.58740234375
-270.99609375
-272.8271484375
-270.08056640625
-269.1650390625
-258.1787109375
-254.5166015625
-252.685546875
-251.77001953125
-251.77001953125
-244.44580078125
-255.43212890625
-258.1787109375
-251.77001953125
-256.34765625
-260.009765625
-255.43212890625
-260.92529296875
-268.24951171875
-273.74267578125
-263.671875
-261.8408203125
-244.44580078125
-209.65576171875
-147.39990234375
-57.67822265625
31.1279296875
133.6669921875
249.0234375
372.61962890625
488.8916015625
616.14990234375
742.49267578125
896.30126953125
1044.61669921875
1099.54833984375
1053.77197265625
932.92236328125
763.5498046875
566.71142578125
468.75
384.521484375
234.375
86.0595703125
-23.8037109375
-106.201171875
-159.3017578125
-203.2470703125
-236.2060546875
-258.1787109375
-269.1650390625
-291.1376953125
-277.40478515625
-278.3203125
-264.58740234375
-241.69921875
-213.31787109375
-198.66943359375
-187.68310546875
-189.51416015625
-181.2744140625
-183.10546875
-188.5986328125
-189.51416015625
-189.51416015625
-189.51416015625
-187.68310546875
-176.69677734375
-180.35888671875
-181.2744140625
-184.02099609375
-191.34521484375
-191.34521484375
-186.767578125
-185.85205078125
-176.69677734375
-173.03466796875
-169.37255859375
-170.2880859375
-173.9501953125
-174.86572265625
-172.119140625
-174.86572265625
-171.20361328125
-167.54150390625
-167.54150390625
-160.21728515625
-153.80859375
-155.6396484375
-148.3154296875
-147.39990234375
-153.80859375
-152.89306640625
-144.6533203125
-138.24462890625
-143.73779296875
-131.8359375
-130.0048828125
-128.173828125
-121.76513671875
-110.77880859375
-113.525390625
-110.77880859375
-104.3701171875
-99.79248046875
-104.3701171875
-98.876953125
