ECG
-194.091796875
-195.9228515625
-204.16259765625
-193.17626953125
-192.2607421875
-193.17626953125
-191.34521484375
-192.2607421875
-203.2470703125
-188.5986328125
-190.4296875
-184.9365234375
-181.2744140625
-173.03466796875
-180.35888671875
-184.9365234375
-183.10546875
-183.10546875
-184.02099609375
-195.9228515625
-173.9501953125
-172.119140625
-176.69677734375
-194.091796875
-196.83837890625
-203.2470703125
-215.14892578125
-201.416015625
-150.146484375
-79.65087890625
-9.1552734375
39.36767578125
68.66455078125
86.97509765625
148.3154296875
209.65576171875
309.4482421875
398.25439453125
461.42578125
559.38720703125
700.37841796875
881.65283203125
994.2626953125
932.0068359375
739.74609375
487.97607421875
314.02587890625
216.97998046875
103.45458984375
28.38134765625
-13.73291015625
-21.97265625
-15.56396484375
-62.255859375
-136.41357421875
-212.40234375
-266.41845703125
-311.279296875
-329.58984375
-312.19482421875
-303.03955078125
-303.955078125
-295.71533203125
-278.3203125
-260.92529296875
-234.375
-195.9228515625
-167.54150390625
-152.89306640625
-155.6396484375
-159.3017578125
-163.87939453125
-172.119140625
-158.38623046875
-150.146484375
-146.484375
-159.3017578125
-164.794921875
-158.38623046875
-143.73779296875
-146.484375
-145.56884765625
-135.498046875
-141.90673828125
-149.23095703125
-158.38623046875
-139.16015625
-146.484375
-151.06201171875
-147.39990234375
-128.173828125
-138.24462890625
-130.92041015625
-130.0048828125
-134.58251953125
-133.6669921875
-140.07568359375
-128.173828125
-145.56884765625
-136.41357421875
-132.75146484375
-132.75146484375
-136.41357421875
-130.92041015625
-118.10302734375
-133.6669921875
-125.42724609375
-115.3564453125
-115.3564453125
-120.849609375
-121.76513671875
-120.849609375
-120.849609375
-116.27197265625
-108.0322265625
-126.3427734375
-119.0185546875
-118.10302734375
-120.849609375
-111.6943359375
-108.0322265625
-108.94775390625
-97.0458984375
-94.29931640625
-97.0458984375
-104.3701171875
-98.876953125
-101.62353515625
-97.96142578125
-92.46826171875
-95.21484375
-88.80615234375
-84.228515625
-77.81982421875
-71.4111328125
-75.0732421875
-60.4248046875
-51.26953125
-67.7490234375
-65.00244140625
-57.67822265625
-44.86083984375
-43.9453125
-51.26953125
-44.86083984375
-36.62109375
-32.958984375
-37.53662109375
-32.04345703125
-26.55029296875
-23.8037109375
-23.8037109375
-9.1552734375
-13.73291015625
-9.1552734375
-15.56396484375
-6.40869140625
7.32421875
4.57763671875
14.6484375
5.4931640625
-1.8310546875
5.4931640625
-3.662109375
0.91552734375
5.4931640625
-6.40869140625
10.07080078125
11.90185546875
6.40869140625
-3.662109375
5.4931640625
3.662109375
-4.57763671875
2.74658203125
-9.1552734375
-12.8173828125
-17.39501953125
-20.1416015625
-30.21240234375
-35.70556640625
-47.607421875
-49.4384765625
-49.4384765625
-71.4111328125
-73.2421875
-71.4111328125
-92.46826171875
-92.46826171875
-83.31298828125
-103.45458984375
-115.3564453125
-104.3701171875
-114.44091796875
-121.76513671875
-129.08935546875
-128.173828125
-138.24462890625
-130.92041015625
-135.498046875
-145.56884765625
-158.38623046875
-167.54150390625
-150.146484375
-147.39990234375
-162.9638671875
-166.6259765625
-170.2880859375
-162.04833984375
-179.443359375
-176.69677734375
-166.6259765625
-169.37255859375
-178.52783203125
-184.02099609375
-162.9638671875
-167.54150390625
-169.37255859375
-174.86572265625
-185.85205078125
-172.119140625
-174.86572265625
-181.2744140625
-168.45703125
-165.71044921875
-172.119140625
-181.2744140625
-183.10546875
-169.37255859375
-166.6259765625
-168.45703125
-172.119140625
-172.119140625
-172.119140625
-167.54150390625
-170.2880859375
-171.20361328125
-169.37255859375
-181.2744140625
-172.119140625
-162.9638671875
-149.23095703125
-181.2744140625
-187.68310546875
-154.72412109375
-160.21728515625
-170.2880859375
-163.87939453125
-161.1328125
-163.87939453125
-165.71044921875
-156.55517578125
-148.3154296875
-158.38623046875
-154.72412109375
-162.9638671875
-172.119140625
-171.20361328125
-164.794921875
-162.9638671875
-153.80859375
-151.06201171875
-161.1328125
-161.1328125
-152.89306640625
-158.38623046875
-159.3017578125
-157.470703125
-154.72412109375
-148.3154296875
-152.89306640625
-152.89306640625
-148.3154296875
-151.06201171875
-158.38623046875
-147.39990234375
-148.3154296875
-147.39990234375
-157.470703125
-158.38623046875
-146.484375
-149.23095703125
-147.39990234375
-162.9638671875
-161.1328125
-144.6533203125
-151.06201171875
-170.2880859375
-162.04833984375
-143.73779296875
-141.90673828125
-152.89306640625
-148.3154296875
-142.822265625
-142.822265625
-142.822265625
-147.39990234375
-152.89306640625
-156.55517578125
-161.1328125
-150.146484375
-141.90673828125
-152.89306640625
-154.72412109375
-142.822265625
-149.23095703125
-151.9775390625
-154.72412109375
-158.38623046875
-149.23095703125
-152.89306640625
-151.9775390625
-152.89306640625
-161.1328125
-162.9638671875
-162.04833984375
-151.9775390625
-150.146484375
-155.6396484375
-156.55517578125
-157.470703125
-162.04833984375
-158.38623046875
-159.3017578125
-155.6396484375
-166.6259765625
-167.54150390625
-149.23095703125
-160.21728515625
-150.146484375
-148.3154296875
-151.06201171875
-162.04833984375
-161.1328125
-166.6259765625
-152.89306640625
-151.06201171875
-162.04833984375
-151.9775390625
-152.89306640625
-151.06201171875
-150.146484375
-147.39990234375
-147.39990234375
-144.6533203125
-147.39990234375
-136.41357421875
-152.89306640625
-150.146484375
-145.56884765625
-159.3017578125
-140.9912109375
-141.90673828125
-134.58251953125
-128.173828125
-127.25830078125
-128.173828125
-133.6669921875
-135.498046875
-125.42724609375
-119.93408203125
-107.11669921875
-97.96142578125
-81.48193359375
-77.81982421875
-85.14404296875
-89.7216796875
-95.21484375
-104.3701171875
-113.525390625
-125.42724609375
-113.525390625
-126.3427734375
-134.58251953125
-124.51171875
-135.498046875
-149.23095703125
-137.3291015625
-135.498046875
-136.41357421875
-139.16015625
-128.173828125
-150.146484375
-129.08935546875
-127.25830078125
-138.24462890625
-144.6533203125
-161.1328125
-165.71044921875
-163.87939453125
-173.03466796875
-165.71044921875
-173.03466796875
-177.6123046875
-179.443359375
-183.10546875
-178.52783203125
-167.54150390625
-182.18994140625
-173.9501953125
-161.1328125
-151.06201171875
-173.03466796875
-158.38623046875
-155.6396484375
-157.470703125
-171.20361328125
-163.87939453125
-166.6259765625
-167.54150390625
-153.80859375
-155.6396484375
-156.55517578125
-164.794921875
-162.04833984375
-168.45703125
-194.091796875
-198.66943359375
-176.69677734375
-137.3291015625
-54.931640625
20.1416015625
77.81982421875
113.525390625
131.8359375
192.2607421875
269.1650390625
372.61962890625
462.34130859375
531.92138671875
634.46044921875
788.26904296875
946.6552734375
1066.58935546875
1026.30615234375
856.93359375
597.83935546875
362.548828125
220.64208984375
117.1875
25.634765625
-2.74658203125
-13.73291015625
-53.1005859375
-133.6669921875
-187.68310546875
-249.0234375
-303.03955078125
-324.0966796875
-313.1103515625
-286.56005859375
-284.72900390625
-287.4755859375
-262.75634765625
-244.44580078125
-200.50048828125
-162.04833984375
-148.3154296875
-142.822265625
-130.92041015625
-138.24462890625
-128.173828125
-119.0185546875
-139.16015625
-130.0048828125
-143.73779296875
-133.6669921875
-127.25830078125
-123.59619140625
-125.42724609375
-129.08935546875
-123.59619140625
-117.1875
-114.44091796875
-120.849609375
-122.6806640625
-108.0322265625
-102.5390625
-113.525390625
-118.10302734375
-111.6943359375
-101.62353515625
-113.525390625
-130.0048828125
-119.93408203125
-110.77880859375
-108.94775390625
-113.525390625
-117.1875
-102.5390625
-98.876953125
-105.28564453125
-97.96142578125
-99.79248046875
-101.62353515625
-99.79248046875
-107.11669921875
-91.552734375
-98.876953125
-90.63720703125
-85.14404296875
-87.890625
-80.56640625
-83.31298828125
-102.5390625
-93.3837890625
-75.0732421875
-78.7353515625
-85.14404296875
-75.0732421875
-74.15771484375
-70.49560546875
-76.904296875
-78.7353515625
-60.4248046875
-56.7626953125
-60.4248046875
-55.84716796875
-54.931640625
-56.7626953125
-53.1005859375
-56.7626953125
-47.607421875
-50.35400390625
-47.607421875
-32.04345703125
-10.986328125
-15.56396484375
-28.38134765625
-16.4794921875
-10.07080078125
-9.1552734375
-9.1552734375
-2.74658203125
0.91552734375
9.1552734375
12.8173828125
13.73291015625
21.97265625
18.310546875
24.71923828125
31.1279296875
22.88818359375
32.04345703125
33.87451171875
40.283203125
45.7763671875
45.7763671875
50.35400390625
49.4384765625
57.67822265625
65.00244140625
65.91796875
57.67822265625
59.50927734375
77.81982421875
68.66455078125
67.7490234375
58.59375
55.84716796875
66.83349609375
62.255859375
52.18505859375
67.7490234375
61.34033203125
58.59375
46.69189453125
41.19873046875
36.62109375
23.8037109375
10.986328125
8.23974609375
-4.57763671875
-11.90185546875
-21.97265625
-21.05712890625
-27.4658203125
-34.7900390625
-43.02978515625
-48.52294921875
-62.255859375
-64.0869140625
-68.66455078125
-66.83349609375
-73.2421875
-86.97509765625
-89.7216796875
-101.62353515625
-107.11669921875
-111.6943359375
-108.94775390625
-108.94775390625
-111.6943359375
-119.0185546875
-120.849609375
-125.42724609375
-130.92041015625
-122.6806640625
-131.8359375
-124.51171875
-132.75146484375
-144.6533203125
-140.9912109375
-128.173828125
-125.42724609375
-145.56884765625
-145.56884765625
-136.41357421875
-140.07568359375
-139.16015625
-137.3291015625
-135.498046875
-132.75146484375
-145.56884765625
-137.3291015625
-131.8359375
-131.8359375
-137.3291015625
-147.39990234375
-140.07568359375
-128.173828125
-142.822265625
-135.498046875
-141.90673828125
-145.56884765625
-150.146484375
-146.484375
-143.73779296875
-143.73779296875
-153.80859375
-159.3017578125
-151.06201171875
-134.58251953125
-138.24462890625
-137.3291015625
-131.8359375
-138.24462890625
-133.6669921875
-132.75146484375
-130.92041015625
-127.25830078125
-133.6669921875
-130.0048828125
-128.173828125
-127.25830078125
-128.173828125
-141.90673828125
-134.58251953125
-115.3564453125
-110.77880859375
-120.849609375
-125.42724609375
-127.25830078125
-130.0048828125
-122.6806640625
-123.59619140625
-129.08935546875
-121.76513671875
-129.08935546875
-110.77880859375
-107.11669921875
-119.0185546875
-117.1875
-117.1875
-119.0185546875
-107.11669921875
-112.60986328125
-119.93408203125
-119.93408203125
-115.3564453125
-116.27197265625
-108.0322265625
-109.86328125
-113.525390625
-112.60986328125
-107.11669921875
-100.7080078125
-111.6943359375
-115.3564453125
-115.3564453125
-113.525390625
-117.1875
-106.201171875
-108.0322265625
-107.11669921875
-114.44091796875
-127.25830078125
-123.59619140625
-108.0322265625
-116.27197265625
-117.1875
-116.27197265625
-119.93408203125
-132.75146484375
-118.10302734375
-107.11669921875
-128.173828125
-123.59619140625
-113.525390625
-119.0185546875
-118.10302734375
-118.10302734375
-115.3564453125
-109.86328125
-117.1875
-114.44091796875
-119.0185546875
-116.27197265625
-119.93408203125
-119.0185546875
-119.0185546875
-122.6806640625
-123.59619140625
-119.93408203125
-121.76513671875
-119.93408203125
-115.3564453125
-114.44091796875
-128.173828125
-110.77880859375
-123.59619140625
-125.42724609375
-119.93408203125
-119.0185546875
-116.27197265625
-109.86328125
-120.849609375
-123.59619140625
-123.59619140625
-110.77880859375
-114.44091796875
-116.27197265625
-112.60986328125
-113.525390625
-117.1875
-130.0048828125
-120.849609375
-116.27197265625
-123.59619140625
-125.42724609375
-119.93408203125
-119.0185546875
-123.59619140625
-125.42724609375
-116.27197265625
-112.60986328125
-119.93408203125
-123.59619140625
-130.0048828125
-120.849609375
-111.6943359375
-105.28564453125
-125.42724609375
-119.0185546875
-117.1875
-119.93408203125
-116.27197265625
-122.6806640625
-122.6806640625
-121.76513671875
-115.3564453125
-112.60986328125
-111.6943359375
-123.59619140625
-98.876953125
-119.93408203125
-101.62353515625
-100.7080078125
-103.45458984375
-105.28564453125
-111.6943359375
-104.3701171875
-118.10302734375
-111.6943359375
-108.94775390625
-81.48193359375
-78.7353515625
-84.228515625
-93.3837890625
-95.21484375
-89.7216796875
-89.7216796875
-95.21484375
-81.48193359375
-64.0869140625
-56.7626953125
-41.19873046875
-37.53662109375
-43.9453125
-50.35400390625
-54.931640625
-60.4248046875
-74.15771484375
-91.552734375
-95.21484375
-97.96142578125
-89.7216796875
-99.79248046875
-95.21484375
-97.0458984375
-99.79248046875
-104.3701171875
-100.7080078125
-100.7080078125
-103.45458984375
-101.62353515625
-101.62353515625
-107.11669921875
-111.6943359375
-110.77880859375
-127.25830078125
-139.16015625
-143.73779296875
-135.498046875
-126.3427734375
-131.8359375
-136.41357421875
-129.08935546875
-133.6669921875
-136.41357421875
-127.25830078125
-138.24462890625
-138.24462890625
-130.92041015625
-143.73779296875
-133.6669921875
-117.1875
-123.59619140625
-125.42724609375
-122.6806640625
-135.498046875
-120.849609375
-123.59619140625
-120.849609375
-116.27197265625
-118.10302734375
-123.59619140625
-125.42724609375
-139.16015625
-160.21728515625
-131.8359375
-98.876953125
-46.69189453125
20.1416015625
92.46826171875
133.6669921875
172.119140625
210.5712890625
284.72900390625
390.0146484375
484.31396484375
577.69775390625
689.39208984375
805.6640625
936.58447265625
1088.56201171875
1118.7744140625
994.2626953125
762.63427734375
489.80712890625
312.19482421875
214.2333984375
111.6943359375
6.40869140625
-11.90185546875
-50.35400390625
-132.75146484375
-202.33154296875
-243.5302734375
-286.56005859375
-288.39111328125
-265.5029296875
-260.92529296875
-261.8408203125
-241.69921875
-211.48681640625
-176.69677734375
-138.24462890625
-111.6943359375
-92.46826171875
-85.14404296875
-84.228515625
-92.46826171875
-97.96142578125
-101.62353515625
-99.79248046875
-93.3837890625
-97.96142578125
-95.21484375
-95.21484375
-95.21484375
-86.0595703125
-84.228515625
-95.21484375
-89.7216796875
-87.890625
-89.7216796875
-82.3974609375
-90.63720703125
-89.7216796875
-88.80615234375
-82.3974609375
-85.14404296875
-81.48193359375
-72.32666015625
-70.49560546875
-77.81982421875
-74.15771484375
-75.98876953125
-71.4111328125
-75.98876953125
-75.98876953125
-66.83349609375
-65.00244140625
-70.49560546875
-50.35400390625
-72.32666015625
-61.34033203125
-65.00244140625
-54.931640625
-61.34033203125
-65.91796875
-53.1005859375
-52.18505859375
-52.18505859375
-48.52294921875
-43.02978515625
-46.69189453125
-59.50927734375
-57.67822265625
-48.52294921875
-51.26953125
-43.02978515625
-44.86083984375
-41.19873046875
-45.7763671875
-32.958984375
-37.53662109375
-43.9453125
-37.53662109375
-24.71923828125
-14.6484375
-3.662109375
-26.55029296875
-18.310546875
-1.8310546875
-1.8310546875
-10.07080078125
-1.8310546875
2.74658203125
6.40869140625
14.6484375
30.21240234375
5.4931640625
10.986328125
23.8037109375
22.88818359375
33.87451171875
40.283203125
49.4384765625
43.9453125
50.35400390625
68.66455078125
66.83349609375
75.0732421875
76.904296875
63.17138671875
73.2421875
73.2421875
75.98876953125
84.228515625
84.228515625
84.228515625
87.890625
86.0595703125
105.28564453125
103.45458984375
101.62353515625
92.46826171875
94.29931640625
97.96142578125
89.7216796875
87.890625
97.0458984375
95.21484375
96.13037109375
93.3837890625
82.3974609375
76.904296875
75.0732421875
65.91796875
80.56640625
74.15771484375
54.931640625
54.931640625
48.52294921875
28.38134765625
16.4794921875
4.57763671875
14.6484375
10.986328125
0
-9.1552734375
-29.296875
-36.62109375
-43.02978515625
-33.87451171875
-37.53662109375
-51.26953125
-61.34033203125
-62.255859375
-63.17138671875
-75.0732421875
-75.0732421875
-79.65087890625
-83.31298828125
-79.65087890625
-94.29931640625
-96.13037109375
-90.63720703125
-91.552734375
-99.79248046875
-86.0595703125
-97.96142578125
-94.29931640625
-97.0458984375
-106.201171875
-109.86328125
-110.77880859375
-108.0322265625
-110.77880859375
-110.77880859375
-107.11669921875
-114.44091796875
-113.525390625
-113.525390625
-99.79248046875
-109.86328125
-116.27197265625
-108.94775390625
-107.11669921875
-103.45458984375
-105.28564453125
-110.77880859375
-110.77880859375
-108.94775390625
-102.5390625
-119.0185546875
-123.59619140625
-115.3564453125
-109.86328125
-99.79248046875
-94.29931640625
-106.201171875
-107.11669921875
-98.876953125
-108.0322265625
-108.0322265625
-104.3701171875
-112.60986328125
-95.21484375
-95.21484375
-108.0322265625
-94.29931640625
-97.96142578125
-111.6943359375
-102.5390625
-109.86328125
-108.94775390625
-96.13037109375
-98.876953125
-95.21484375
-97.0458984375
-108.0322265625
-97.0458984375
-98.876953125
-91.552734375
-88.80615234375
-89.7216796875
-99.79248046875
-108.94775390625
-83.31298828125
-97.96142578125
-88.80615234375
-88.80615234375
-93.3837890625
-80.56640625
-90.63720703125
-86.97509765625
-86.0595703125
-86.0595703125
-90.63720703125
-82.3974609375
-83.31298828125
-94.29931640625
-86.0595703125
-86.0595703125
-90.63720703125
-85.14404296875
-86.97509765625
-86.97509765625
-89.7216796875
-82.3974609375
-88.80615234375
-80.56640625
-86.97509765625
-83.31298828125
-75.0732421875
-94.29931640625
-89.7216796875
-81.48193359375
-86.97509765625
-87.890625
-83.31298828125
-87.890625
-97.96142578125
-86.0595703125
-83.31298828125
-87.890625
-97.0458984375
-99.79248046875
-97.96142578125
-90.63720703125
-92.46826171875
-102.5390625
-96.13037109375
-96.13037109375
-101.62353515625
-94.29931640625
-81.48193359375
-93.3837890625
-91.552734375
-104.3701171875
-97.0458984375
-90.63720703125
-92.46826171875
-86.0595703125
-100.7080078125
-100.7080078125
-97.0458984375
-92.46826171875
-91.552734375
-97.96142578125
-107.11669921875
-97.0458984375
-95.21484375
-99.79248046875
-105.28564453125
-97.0458984375
-97.96142578125
-100.7080078125
-97.0458984375
-87.890625
-93.3837890625
-102.5390625
-88.80615234375
-105.28564453125
-102.5390625
-93.3837890625
-84.228515625
-98.876953125
-93.3837890625
-91.552734375
-96.13037109375
-97.96142578125
-95.21484375
-90.63720703125
-104.3701171875
-101.62353515625
-100.7080078125
-98.876953125
-99.79248046875
-107.11669921875
-104.3701171875
-86.0595703125
-94.29931640625
-93.3837890625
-95.21484375
-103.45458984375
-103.45458984375
-101.62353515625
-98.876953125
-92.46826171875
-97.0458984375
-99.79248046875
-100.7080078125
-99.79248046875
-101.62353515625
-117.1875
-105.28564453125
-106.201171875
-104.3701171875
-90.63720703125
-85.14404296875
-105.28564453125
-89.7216796875
-97.0458984375
-100.7080078125
-97.0458984375
-101.62353515625
-94.29931640625
-89.7216796875
-82.3974609375
-75.98876953125
-89.7216796875
-83.31298828125
-88.80615234375
-95.21484375
-84.228515625
-82.3974609375
-86.0595703125
-69.580078125
-58.59375
-61.34033203125
-70.49560546875
-83.31298828125
-82.3974609375
-74.15771484375
-71.4111328125
-46.69189453125
-33.87451171875
-42.1142578125
-36.62109375
-36.62109375
-24.71923828125
-23.8037109375
-41.19873046875
-50.35400390625
-53.1005859375
-60.4248046875
-62.255859375
-72.32666015625
-71.4111328125
-72.32666015625
-85.14404296875
-76.904296875
-73.2421875
-69.580078125
-80.56640625
-77.81982421875
-80.56640625
-75.98876953125
-98.876953125
-93.3837890625
-83.31298828125
-100.7080078125
-98.876953125
-111.6943359375
-110.77880859375
-116.27197265625
-112.60986328125
-108.94775390625
-112.60986328125
-113.525390625
-125.42724609375
-111.6943359375
-112.60986328125
-105.28564453125
-107.11669921875
-108.0322265625
-114.44091796875
-107.11669921875
-113.525390625
-110.77880859375
-108.94775390625
-93.3837890625
-99.79248046875
-98.876953125
-98.876953125
-93.3837890625
-100.7080078125
-95.21484375
-94.29931640625
-105.28564453125
-104.3701171875
-114.44091796875
-121.76513671875
-102.5390625
-63.17138671875
-14.6484375
74.15771484375
126.3427734375
158.38623046875
195.00732421875
250.8544921875
343.32275390625
450.439453125
550.23193359375
632.62939453125
734.2529296875
868.83544921875
1021.728515625
1123.35205078125
1094.05517578125
899.0478515625
653.6865234375
417.48046875
282.89794921875
173.03466796875
80.56640625
10.986328125
-6.40869140625
-54.931640625
-132.75146484375
-195.9228515625
-243.5302734375
-268.24951171875
-259.09423828125
-250.8544921875
-223.388671875
-222.47314453125
-208.740234375
-181.2744140625
-139.16015625
-98.876953125
-78.7353515625
-67.7490234375
-58.59375
-65.91796875
-71.4111328125
-76.904296875
-74.15771484375
-64.0869140625
-71.4111328125
-75.98876953125
-80.56640625
-68.66455078125
-66.83349609375
-81.48193359375
-74.15771484375
-55.84716796875
-58.59375
-62.255859375
-55.84716796875
-60.4248046875
-58.59375
-65.91796875
-68.66455078125
-56.7626953125
-66.83349609375
-57.67822265625
-55.84716796875
-64.0869140625
-54.931640625
-52.18505859375
-45.7763671875
-44.86083984375
-44.86083984375
-56.7626953125
-52.18505859375
-41.19873046875
-38.4521484375
-40.283203125
-45.7763671875
-42.1142578125
-39.36767578125
-35.70556640625
-47.607421875
-49.4384765625
-39.36767578125
-39.36767578125
-26.55029296875
-25.634765625
-35.70556640625
-31.1279296875
-27.4658203125
-36.62109375
-36.62109375
-28.38134765625
-13.73291015625
-13.73291015625
-18.310546875
-15.56396484375
-9.1552734375
-11.90185546875
-16.4794921875
-0.91552734375
-7.32421875
-5.4931640625
2.74658203125
0.91552734375
4.57763671875
9.1552734375
7.32421875
13.73291015625
21.97265625
10.986328125
32.958984375
27.4658203125
31.1279296875
23.8037109375
35.70556640625
44.86083984375
51.26953125
51.26953125
60.4248046875
61.34033203125
62.255859375
69.580078125
73.2421875
77.81982421875
83.31298828125
79.65087890625
81.48193359375
88.80615234375
89.7216796875
97.96142578125
104.3701171875
101.62353515625
103.45458984375
111.6943359375
112.60986328125
107.11669921875
113.525390625
111.6943359375
115.3564453125
106.201171875
106.201171875
120.849609375
108.94775390625
104.3701171875
105.28564453125
112.60986328125
103.45458984375
93.3837890625
106.201171875
91.552734375
84.228515625
94.29931640625
73.2421875
73.2421875
66.83349609375
65.91796875
55.84716796875
44.86083984375
33.87451171875
23.8037109375
16.4794921875
14.6484375
12.8173828125
3.662109375
-2.74658203125
-11.90185546875
-32.04345703125
-44.86083984375
-36.62109375
-32.04345703125
-43.9453125
-50.35400390625
-59.50927734375
-58.59375
-63.17138671875
-67.7490234375
-61.34033203125
-54.01611328125
-84.228515625
-69.580078125
-66.83349609375
-75.0732421875
-65.91796875
-71.4111328125
-75.98876953125
-75.0732421875
-86.0595703125
-78.7353515625
-80.56640625
-86.0595703125
-78.7353515625
-88.80615234375
-89.7216796875
-81.48193359375
-83.31298828125
-75.0732421875
-83.31298828125
-97.96142578125
-86.0595703125
-77.81982421875
-92.46826171875
-94.29931640625
-100.7080078125
-93.3837890625
-86.97509765625
-91.552734375
-86.97509765625
-89.7216796875
-85.14404296875
-75.0732421875
-81.48193359375
-105.28564453125
-87.890625
-92.46826171875
-80.56640625
-80.56640625
-77.81982421875
-72.32666015625
-76.904296875
-80.56640625
-87.890625
-91.552734375
-83.31298828125
-90.63720703125
-82.3974609375
-69.580078125
-73.2421875
-74.15771484375
-79.65087890625
-63.17138671875
-77.81982421875
-80.56640625
-70.49560546875
-73.2421875
-85.14404296875
-84.228515625
-75.0732421875
-71.4111328125
-72.32666015625
-72.32666015625
-75.0732421875
-75.0732421875
-72.32666015625
-65.00244140625
-62.255859375
-67.7490234375
-73.2421875
-59.50927734375
-71.4111328125
-77.81982421875
-52.18505859375
-58.59375
-57.67822265625
-64.0869140625
-56.7626953125
-65.00244140625
-75.0732421875
-62.255859375
-62.255859375
-56.7626953125
-53.1005859375
-70.49560546875
-75.98876953125
-73.2421875
-67.7490234375
-55.84716796875
-58.59375
-56.7626953125
-63.17138671875
-72.32666015625
-68.66455078125
-63.17138671875
-62.255859375
-66.83349609375
-75.98876953125
-74.15771484375
-68.66455078125
-59.50927734375
-69.580078125
-86.0595703125
-58.59375
-55.84716796875
-76.904296875
-59.50927734375
-65.00244140625
-65.91796875
-82.3974609375
-74.15771484375
-69.580078125
-74.15771484375
-75.98876953125
-77.81982421875
-72.32666015625
-70.49560546875
-75.0732421875
-77.81982421875
-77.81982421875
-76.904296875
-68.66455078125
-74.15771484375
-81.48193359375
-77.81982421875
-74.15771484375
-79.65087890625
-79.65087890625
-78.7353515625
-78.7353515625
-70.49560546875
-76.904296875
-75.0732421875
-79.65087890625
-79.65087890625
-61.34033203125
-75.98876953125
-85.14404296875
-76.904296875
-87.890625
-93.3837890625
-75.0732421875
-75.0732421875
-71.4111328125
-78.7353515625
-87.890625
-72.32666015625
-82.3974609375
-83.31298828125
-62.255859375
-54.931640625
-65.91796875
-84.228515625
-84.228515625
-82.3974609375
-81.48193359375
-90.63720703125
-78.7353515625
-75.98876953125
-76.904296875
-78.7353515625
-80.56640625
-75.98876953125
-83.31298828125
-77.81982421875
-81.48193359375
-93.3837890625
-76.904296875
-79.65087890625
-75.0732421875
-76.904296875
-76.904296875
-83.31298828125
-83.31298828125
-84.228515625
-74.15771484375
-85.14404296875
-71.4111328125
-68.66455078125
-73.2421875
-86.0595703125
-83.31298828125
-75.0732421875
-71.4111328125
-81.48193359375
-75.0732421875
-75.98876953125
-75.98876953125
-71.4111328125
-78.7353515625
-76.904296875
-65.00244140625
-58.59375
-58.59375
-73.2421875
-71.4111328125
-74.15771484375
-65.91796875
-51.26953125
-45.7763671875
-47.607421875
-54.01611328125
-64.0869140625
-59.50927734375
-54.931640625
-50.35400390625
-45.7763671875
-25.634765625
-6.40869140625
0.91552734375
-8.23974609375
-10.07080078125
-5.4931640625
-10.07080078125
-28.38134765625
-25.634765625
-33.87451171875
-50.35400390625
-53.1005859375
-53.1005859375
-54.931640625
-61.34033203125
-65.91796875
-65.00244140625
-62.255859375
-62.255859375
-62.255859375
-69.580078125
-66.83349609375
-54.931640625
-73.2421875
-75.98876953125
-74.15771484375
-92.46826171875
-100.7080078125
-98.876953125
-99.79248046875
-86.97509765625
-101.62353515625
-107.11669921875
-100.7080078125
-105.28564453125
-107.11669921875
-97.0458984375
-88.80615234375
-86.97509765625
-92.46826171875
-105.28564453125
-107.11669921875
-107.11669921875
-91.552734375
-86.0595703125
-92.46826171875
-95.21484375
-86.97509765625
-77.81982421875
-84.228515625
-80.56640625
-83.31298828125
-85.14404296875
-85.14404296875
-97.0458984375
-107.11669921875
-119.0185546875
-95.21484375
-48.52294921875
19.22607421875
106.201171875
151.06201171875
184.9365234375
205.99365234375
255.43212890625
347.900390625
467.83447265625
541.9921875
617.98095703125
735.16845703125
883.48388671875
1046.44775390625
1117.85888671875
1040.0390625
832.21435546875
586.85302734375
368.95751953125
267.333984375
176.69677734375
87.890625
44.86083984375
23.8037109375
-32.04345703125
-104.3701171875
-162.9638671875
-211.48681640625
-254.5166015625
-265.5029296875
-238.037109375
-226.13525390625
-223.388671875
-199.5849609375
-187.68310546875
-158.38623046875
-116.27197265625
-83.31298828125
-71.4111328125
-64.0869140625
-65.00244140625
-83.31298828125
-68.66455078125
-60.4248046875
-73.2421875
-80.56640625
-58.59375
-59.50927734375
-68.66455078125
-60.4248046875
-71.4111328125
-76.904296875
-66.83349609375
-45.7763671875
-65.91796875
-60.4248046875
-55.84716796875
-64.0869140625
-62.255859375
-58.59375
-57.67822265625
-54.931640625
-60.4248046875
-56.7626953125
-46.69189453125
-51.26953125
-51.26953125
-47.607421875
-59.50927734375
-59.50927734375
-53.1005859375
-52.18505859375
-61.34033203125
-47.607421875
-52.18505859375
-53.1005859375
-56.7626953125
-54.931640625
-38.4521484375
-36.62109375
-37.53662109375
-47.607421875
-37.53662109375
-42.1142578125
-25.634765625
-34.7900390625
-30.21240234375
-31.1279296875
-19.22607421875
-42.1142578125
-32.04345703125
-18.310546875
-53.1005859375
-21.05712890625
-12.8173828125
-18.310546875
-17.39501953125
-12.8173828125
-20.1416015625
-22.88818359375
-3.662109375
-2.74658203125
-7.32421875
-4.57763671875
0.91552734375
5.4931640625
10.986328125
11.90185546875
10.986328125
1.8310546875
7.32421875
21.05712890625
21.97265625
23.8037109375
33.87451171875
34.7900390625
51.26953125
46.69189453125
45.7763671875
43.02978515625
58.59375
69.580078125
65.00244140625
65.00244140625
55.84716796875
80.56640625
77.81982421875
76.904296875
71.4111328125
89.7216796875
87.890625
93.3837890625
106.201171875
91.552734375
84.228515625
89.7216796875
95.21484375
105.28564453125
91.552734375
99.79248046875
102.5390625
98.876953125
96.13037109375
108.94775390625
84.228515625
97.96142578125
86.97509765625
82.3974609375
78.7353515625
71.4111328125
70.49560546875
65.91796875
63.17138671875
42.1142578125
44.86083984375
36.62109375
31.1279296875
12.8173828125
12.8173828125
6.40869140625
4.57763671875
1.8310546875
-9.1552734375
-30.21240234375
-31.1279296875
-26.55029296875
-28.38134765625
-44.86083984375
-43.9453125
-59.50927734375
-47.607421875
-53.1005859375
-54.931640625
-55.84716796875
-69.580078125
-83.31298828125
-75.98876953125
-83.31298828125
-69.580078125
-75.98876953125
-87.890625
-81.48193359375
-79.65087890625
-85.14404296875
-87.890625
-83.31298828125
-97.0458984375
-91.552734375
-103.45458984375
-95.21484375
-97.96142578125
-99.79248046875
-86.0595703125
-102.5390625
-97.0458984375
-105.28564453125
-101.62353515625
-93.3837890625
-87.890625
-99.79248046875
-105.28564453125
-108.0322265625
-100.7080078125
-108.0322265625
-107.11669921875
-97.96142578125
-98.876953125
-91.552734375
-92.46826171875
-106.201171875
-100.7080078125
-94.29931640625
-99.79248046875
-103.45458984375
-108.0322265625
-98.876953125
-92.46826171875
-90.63720703125
-105.28564453125
-92.46826171875
-84.228515625
-95.21484375
-97.96142578125
-96.13037109375
-88.80615234375
-93.3837890625
-96.13037109375
-89.7216796875
-91.552734375
-89.7216796875
-84.228515625
-86.97509765625
-86.0595703125
-86.0595703125
-86.97509765625
-68.66455078125
-79.65087890625
-97.96142578125
-75.0732421875
-74.15771484375
-79.65087890625
-82.3974609375
-81.48193359375
-85.14404296875
-87.890625
-87.890625
-87.890625
-70.49560546875
-87.890625
-92.46826171875
-78.7353515625
-73.2421875
-77.81982421875
-84.228515625
-81.48193359375
-70.49560546875
-65.00244140625
-59.50927734375
-72.32666015625
-86.97509765625
-97.0458984375
-80.56640625
-75.98876953125
-83.31298828125
-95.21484375
-75.98876953125
-79.65087890625
-88.80615234375
-79.65087890625
-77.81982421875
-75.98876953125
-80.56640625
-70.49560546875
-88.80615234375
-91.552734375
-90.63720703125
-91.552734375
-92.46826171875
-105.28564453125
-90.63720703125
-82.3974609375
-85.14404296875
-90.63720703125
-89.7216796875
-84.228515625
-79.65087890625
-87.890625
-83.31298828125
-86.97509765625
-97.0458984375
-88.80615234375
-96.13037109375
-85.14404296875
-92.46826171875
-87.890625
-89.7216796875
-97.96142578125
-103.45458984375
-99.79248046875
-96.13037109375
-98.876953125
-94.29931640625
-96.13037109375
-98.876953125
-108.0322265625
-98.876953125
-89.7216796875
-114.44091796875
-108.94775390625
-93.3837890625
-85.14404296875
-103.45458984375
-96.13037109375
-95.21484375
-78.7353515625
-86.97509765625
-102.5390625
-108.94775390625
-100.7080078125
-99.79248046875
-85.14404296875
-98.876953125
-108.0322265625
-90.63720703125
-93.3837890625
-102.5390625
-103.45458984375
-108.0322265625
-106.201171875
-100.7080078125
-105.28564453125
-106.201171875
-98.876953125
-95.21484375
-97.0458984375
-100.7080078125
-91.552734375
-92.46826171875
-113.525390625
-90.63720703125
-80.56640625
-89.7216796875
-89.7216796875
-88.80615234375
-98.876953125
-97.0458984375
-93.3837890625
-89.7216796875
-93.3837890625
-98.876953125
-83.31298828125
-78.7353515625
-79.65087890625
-84.228515625
-74.15771484375
-72.32666015625
-74.15771484375
-66.83349609375
-62.255859375
-51.26953125
-33.87451171875
-41.19873046875
-12.8173828125
-21.05712890625
-22.88818359375
-28.38134765625
-47.607421875
-46.69189453125
-43.9453125
-62.255859375
-67.7490234375
-82.3974609375
-75.0732421875
-77.81982421875
-80.56640625
-80.56640625
-92.46826171875
-88.80615234375
-88.80615234375
-83.31298828125
-79.65087890625
-77.81982421875
-83.31298828125
-85.14404296875
-85.14404296875
-108.94775390625
-96.13037109375
-104.3701171875
-122.6806640625
-117.1875
-119.93408203125
-112.60986328125
-118.10302734375
-125.42724609375
-121.76513671875
-114.44091796875
-114.44091796875
-119.0185546875
-124.51171875
-119.93408203125
-121.76513671875
-105.28564453125
-111.6943359375
-120.849609375
-110.77880859375
-99.79248046875
-113.525390625
-111.6943359375
-101.62353515625
-103.45458984375
-96.13037109375
-99.79248046875
-104.3701171875
-102.5390625
-129.08935546875
-139.16015625
-130.0048828125
-100.7080078125
-51.26953125
28.38134765625
90.63720703125
123.59619140625
160.21728515625
195.9228515625
249.0234375
347.900390625
430.2978515625
509.033203125
589.599609375
690.3076171875
877.99072265625
1030.8837890625
1035.46142578125
897.216796875
677.490234375
428.466796875
306.70166015625
222.47314453125
134.58251953125
80.56640625
63.17138671875
51.26953125
18.310546875
-44.86083984375
-126.3427734375
-209.65576171875
-238.95263671875
-259.09423828125
-253.60107421875
-246.27685546875
-226.13525390625
-228.8818359375
-211.48681640625
-198.66943359375
-165.71044921875
-126.3427734375
-104.3701171875
-95.21484375
-75.98876953125
-90.63720703125
-97.96142578125
-86.0595703125
-86.0595703125
-79.65087890625
-86.0595703125
-78.7353515625
-67.7490234375
-79.65087890625
-85.14404296875
-78.7353515625
-71.4111328125
-74.15771484375
-84.228515625
-68.66455078125
-79.65087890625
-86.0595703125
-67.7490234375
-73.2421875
-71.4111328125
-66.83349609375
-68.66455078125
-64.0869140625
-71.4111328125
-66.83349609375
-65.91796875
-60.4248046875
-64.0869140625
-67.7490234375
-70.49560546875
-63.17138671875
-76.904296875
-74.15771484375
-68.66455078125
-61.34033203125
-62.255859375
-61.34033203125
-59.50927734375
-59.50927734375
-46.69189453125
-50.35400390625
-47.607421875
-51.26953125
-65.00244140625
-43.9453125
-40.283203125
-48.52294921875
-43.02978515625
-32.04345703125
-31.1279296875
-44.86083984375
-45.7763671875
-41.19873046875
-23.8037109375
-28.38134765625
-37.53662109375
-35.70556640625
-28.38134765625
-34.7900390625
-30.21240234375
-20.1416015625
-20.1416015625
-20.1416015625
-11.90185546875
5.4931640625
-3.662109375
1.8310546875
8.23974609375
-9.1552734375
10.07080078125
9.1552734375
6.40869140625
-1.8310546875
26.55029296875
19.22607421875
29.296875
20.1416015625
22.88818359375
31.1279296875
43.02978515625
39.36767578125
43.9453125
48.52294921875
53.1005859375
47.607421875
55.84716796875
54.931640625
69.580078125
69.580078125
75.0732421875
79.65087890625
73.2421875
73.2421875
71.4111328125
68.66455078125
75.98876953125
74.15771484375
63.17138671875
77.81982421875
73.2421875
65.00244140625
71.4111328125
79.65087890625
79.65087890625
65.00244140625
59.50927734375
65.00244140625
45.7763671875
43.02978515625
47.607421875
42.1142578125
39.36767578125
35.70556640625
26.55029296875
8.23974609375
15.56396484375
1.8310546875
0
-18.310546875
-20.1416015625
-9.1552734375
-25.634765625
-41.19873046875
-30.21240234375
-38.4521484375
-39.36767578125
-52.18505859375
-64.0869140625
-73.2421875
-65.00244140625
-60.4248046875
-64.0869140625
-76.904296875
-77.81982421875
-76.904296875
-92.46826171875
-95.21484375
-100.7080078125
-93.3837890625
-91.552734375
-91.552734375
-97.0458984375
-98.876953125
-102.5390625
-97.0458984375
-101.62353515625
-107.11669921875
-110.77880859375
-105.28564453125
-111.6943359375
-105.28564453125
-101.62353515625
-103.45458984375
-96.13037109375
-99.79248046875
-100.7080078125
-101.62353515625
-98.876953125
-111.6943359375
-93.3837890625
-100.7080078125
-103.45458984375
-91.552734375
-100.7080078125
-119.93408203125
-102.5390625
-93.3837890625
-97.0458984375
-107.11669921875
-106.201171875
-108.0322265625
-116.27197265625
-94.29931640625
-97.96142578125
-113.525390625
-111.6943359375
-97.0458984375
-89.7216796875
-91.552734375
-97.96142578125
-92.46826171875
-100.7080078125
-95.21484375
-96.13037109375
-93.3837890625
-99.79248046875
-90.63720703125
-92.46826171875
-99.79248046875
-99.79248046875
-84.228515625
-85.14404296875
-92.46826171875
-91.552734375
-81.48193359375
-86.0595703125
-98.876953125
-89.7216796875
-81.48193359375
-89.7216796875
-100.7080078125
-96.13037109375
-88.80615234375
-66.83349609375
-77.81982421875
-80.56640625
-75.98876953125
-89.7216796875
-77.81982421875
-76.904296875
-84.228515625
-74.15771484375
-78.7353515625
-86.97509765625
-75.98876953125
-70.49560546875
-78.7353515625
-76.904296875
-82.3974609375
-79.65087890625
-77.81982421875
-79.65087890625
-97.0458984375
-76.904296875
-76.904296875
-74.15771484375
-68.66455078125
-77.81982421875
-78.7353515625
-79.65087890625
-70.49560546875
-75.98876953125
-91.552734375
-76.904296875
-84.228515625
-91.552734375
-92.46826171875
-82.3974609375
-85.14404296875
-75.0732421875
-96.13037109375
-86.0595703125
-85.14404296875
-77.81982421875
-79.65087890625
-88.80615234375
-83.31298828125
-86.97509765625
-93.3837890625
-96.13037109375
-92.46826171875
-89.7216796875
-90.63720703125
-81.48193359375
-86.97509765625
-94.29931640625
-87.890625
-84.228515625
-81.48193359375
-85.14404296875
-82.3974609375
-98.876953125
-85.14404296875
-82.3974609375
-90.63720703125
-80.56640625
-86.97509765625
-97.0458984375
-82.3974609375
-96.13037109375
-91.552734375
-89.7216796875
-79.65087890625
-82.3974609375
-82.3974609375
-78.7353515625
-77.81982421875
-76.904296875
-61.34033203125
-70.49560546875
-75.98876953125
-86.0595703125
-76.904296875
-74.15771484375
-63.17138671875
-58.59375
-65.91796875
-66.83349609375
-63.17138671875
-67.7490234375
-67.7490234375
-41.19873046875
-17.39501953125
1.8310546875
-7.32421875
-10.07080078125
-10.07080078125
-28.38134765625
-32.958984375
-29.296875
-47.607421875
-56.7626953125
-63.17138671875
-40.283203125
-54.931640625
-62.255859375
-65.91796875
-69.580078125
-74.15771484375
-65.91796875
-65.91796875
-67.7490234375
-70.49560546875
-65.00244140625
-77.81982421875
-74.15771484375
-72.32666015625
-84.228515625
-95.21484375
-104.3701171875
-105.28564453125
-109.86328125
-101.62353515625
-97.96142578125
-101.62353515625
-97.96142578125
-102.5390625
-101.62353515625
-107.11669921875
-103.45458984375
-117.1875
-101.62353515625
-86.0595703125
-102.5390625
-102.5390625
-96.13037109375
-98.876953125
-97.0458984375
-98.876953125
-99.79248046875
-94.29931640625
-89.7216796875
-90.63720703125
-97.0458984375
-88.80615234375
-108.94775390625
-120.849609375
-131.8359375
-102.5390625
-47.607421875
8.23974609375
84.228515625
140.9912109375
177.6123046875
202.33154296875
263.671875
335.0830078125
446.77734375
537.41455078125
628.0517578125
725.09765625
877.99072265625
1055.60302734375
1144.4091796875
1063.8427734375
878.90625
590.51513671875
388.18359375
282.89794921875
173.9501953125
85.14404296875
54.01611328125
47.607421875
10.07080078125
-51.26953125
-105.28564453125
-177.6123046875
-232.5439453125
-257.26318359375
-267.333984375
-227.05078125
-224.30419921875
-227.96630859375
-200.50048828125
-175.78125
-132.75146484375
-107.11669921875
-87.890625
-77.81982421875
-75.98876953125
-71.4111328125
-78.7353515625
-75.0732421875
-71.4111328125
-65.00244140625
-65.00244140625
-67.7490234375
-67.7490234375
-66.83349609375
-67.7490234375
-59.50927734375
-54.01611328125
-66.83349609375
-63.17138671875
-50.35400390625
-64.0869140625
-65.00244140625
-55.84716796875
-59.50927734375
-59.50927734375
-52.18505859375
-51.26953125
-55.84716796875
-43.9453125
-53.1005859375
-58.59375
-46.69189453125
-47.607421875
-47.607421875
-49.4384765625
-42.1142578125
-51.26953125
-43.9453125
-33.87451171875
-46.69189453125
-42.1142578125
-47.607421875
-38.4521484375
-42.1142578125
-41.19873046875
-32.958984375
-23.8037109375
-23.8037109375
-22.88818359375
-22.88818359375
-29.296875
-32.04345703125
-26.55029296875
-32.958984375
-22.88818359375
-3.662109375
-13.73291015625
-0.91552734375
-9.1552734375
-3.662109375
-0.91552734375
-6.40869140625
-8.23974609375
3.662109375
4.57763671875
-0.91552734375
10.07080078125
10.07080078125
12.8173828125
10.986328125
8.23974609375
21.97265625
29.296875
31.1279296875
29.296875
31.1279296875
42.1142578125
46.69189453125
46.69189453125
55.84716796875
63.17138671875
51.26953125
66.83349609375
68.66455078125
52.18505859375
69.580078125
84.228515625
83.31298828125
96.13037109375
97.0458984375
93.3837890625
97.96142578125
97.96142578125
105.28564453125
91.552734375
105.28564453125
105.28564453125
107.11669921875
108.94775390625
110.77880859375
102.5390625
99.79248046875
100.7080078125
114.44091796875
123.59619140625
100.7080078125
98.876953125
105.28564453125
107.11669921875
86.0595703125
103.45458984375
95.21484375
77.81982421875
77.81982421875
77.81982421875
66.83349609375
64.0869140625
51.26953125
52.18505859375
44.86083984375
36.62109375
24.71923828125
24.71923828125
3.662109375
-6.40869140625
-16.4794921875
-7.32421875
-13.73291015625
-22.88818359375
-32.04345703125
-27.4658203125
-40.283203125
-54.01611328125
-45.7763671875
-61.34033203125
-58.59375
-59.50927734375
-65.91796875
-80.56640625
-71.4111328125
-74.15771484375
-83.31298828125
-79.65087890625
-76.904296875
-73.2421875
-78.7353515625
-78.7353515625
-77.81982421875
-73.2421875
-87.890625
-88.80615234375
-88.80615234375
-84.228515625
-86.0595703125
-92.46826171875
-98.876953125
-83.31298828125
-84.228515625
-83.31298828125
-97.96142578125
-101.62353515625
-94.29931640625
-86.97509765625
-96.13037109375
-90.63720703125
-90.63720703125
-95.21484375
-103.45458984375
-81.48193359375
-82.3974609375
-88.80615234375
-87.890625
-83.31298828125
-92.46826171875
-97.96142578125
-84.228515625
-86.0595703125
-93.3837890625
-80.56640625
-90.63720703125
-82.3974609375
-82.3974609375
-83.31298828125
-78.7353515625
-89.7216796875
-91.552734375
-86.97509765625
-91.552734375
-76.904296875
-77.81982421875
-69.580078125
-75.98876953125
-83.31298828125
-68.66455078125
-78.7353515625
-73.2421875
-64.0869140625
-77.81982421875
-78.7353515625
-70.49560546875
-78.7353515625
-74.15771484375
-75.0732421875
-70.49560546875
-68.66455078125
-66.83349609375
-75.98876953125
-73.2421875
-63.17138671875
-65.00244140625
-66.83349609375
-68.66455078125
-65.00244140625
-58.59375
-76.904296875
-77.81982421875
-66.83349609375
-64.0869140625
-72.32666015625
-59.50927734375
-63.17138671875
-71.4111328125
-64.0869140625
-53.1005859375
-60.4248046875
-69.580078125
-82.3974609375
-80.56640625
-79.65087890625
-60.4248046875
-65.00244140625
-73.2421875
-65.91796875
-65.91796875
-76.904296875
-69.580078125
-78.7353515625
-86.0595703125
-65.91796875
-69.580078125
-73.2421875
-75.0732421875
-73.2421875
-72.32666015625
-73.2421875
-80.56640625
-80.56640625
-75.98876953125
-68.66455078125
-79.65087890625
-74.15771484375
-75.0732421875
-68.66455078125
-85.14404296875
-84.228515625
-80.56640625
-81.48193359375
-73.2421875
-76.904296875
-86.0595703125
-75.0732421875
-75.98876953125
-69.580078125
-87.890625
-91.552734375
-69.580078125
-69.580078125
-85.14404296875
-78.7353515625
-76.904296875
-76.904296875
-77.81982421875
-75.98876953125
-86.0595703125
-85.14404296875
-92.46826171875
-86.0595703125
-77.81982421875
-84.228515625
-75.98876953125
-85.14404296875
-84.228515625
-90.63720703125
-83.31298828125
-94.29931640625
-91.552734375
-73.2421875
-82.3974609375
-83.31298828125
-80.56640625
-72.32666015625
-76.904296875
-83.31298828125
-80.56640625
-75.0732421875
-72.32666015625
-65.91796875
-63.17138671875
-72.32666015625
-70.49560546875
-62.255859375
-75.98876953125
-94.29931640625
-76.904296875
-65.91796875
-53.1005859375
-43.9453125
-46.69189453125
-45.7763671875
-50.35400390625
-60.4248046875
-60.4248046875
-55.84716796875
-37.53662109375
-20.1416015625
-24.71923828125
-28.38134765625
-14.6484375
-4.57763671875
-20.1416015625
-34.7900390625
-27.4658203125
-32.958984375
-40.283203125
-41.19873046875
-63.17138671875
-65.00244140625
-58.59375
-67.7490234375
-70.49560546875
-67.7490234375
-75.0732421875
-70.49560546875
-58.59375
-72.32666015625
-73.2421875
-68.66455078125
-64.0869140625
-65.91796875
-72.32666015625
-82.3974609375
-96.13037109375
-106.201171875
-103.45458984375
-105.28564453125
-95.21484375
-100.7080078125
-97.96142578125
-100.7080078125
-111.6943359375
-110.77880859375
-98.876953125
-96.13037109375
-105.28564453125
-115.3564453125
-100.7080078125
-94.29931640625
-96.13037109375
-93.3837890625
-91.552734375
-84.228515625
-90.63720703125
-100.7080078125
-91.552734375
-86.0595703125
-97.96142578125
-91.552734375
-94.29931640625
-107.11669921875
-120.849609375
-107.11669921875
-75.98876953125
-25.634765625
44.86083984375
131.8359375
173.03466796875
195.9228515625
242.61474609375
312.19482421875
412.90283203125
524.59716796875
618.896484375
720.52001953125
840.4541015625
984.19189453125
1132.50732421875
1148.98681640625
1012.5732421875
772.705078125
507.2021484375
332.33642578125
232.5439453125
130.0048828125
38.4521484375
0.91552734375
-34.7900390625
-102.5390625
-151.06201171875
-218.81103515625
-241.69921875
-260.92529296875
-253.60107421875
-222.47314453125
-209.65576171875
-217.8955078125
-210.5712890625
-159.3017578125
-108.0322265625
-75.98876953125
-68.66455078125
-72.32666015625
-63.17138671875
-56.7626953125
-73.2421875
-76.904296875
-57.67822265625
-65.00244140625
-75.0732421875
-54.931640625
-55.84716796875
-66.83349609375
-76.904296875
-75.0732421875
-63.17138671875
-65.00244140625
-64.0869140625
-48.52294921875
-49.4384765625
-54.931640625
-45.7763671875
-58.59375
-53.1005859375
-57.67822265625
-59.50927734375
-50.35400390625
-52.18505859375
-54.01611328125
-54.01611328125
-43.02978515625
-45.7763671875
-53.1005859375
-51.26953125
-32.04345703125
-44.86083984375
-54.01611328125
-47.607421875
-45.7763671875
-32.958984375
-32.04345703125
-27.4658203125
-27.4658203125
-47.607421875
-34.7900390625
-21.97265625
-26.55029296875
-41.19873046875
-36.62109375
-15.56396484375
-13.73291015625
-16.4794921875
-18.310546875
-20.1416015625
-16.4794921875
-8.23974609375
-17.39501953125
-16.4794921875
-17.39501953125
-4.57763671875
3.662109375
-8.23974609375
1.8310546875
6.40869140625
6.40869140625
6.40869140625
-0.91552734375
19.22607421875
22.88818359375
27.4658203125
28.38134765625
27.4658203125
29.296875
33.87451171875
39.36767578125
43.9453125
47.607421875
48.52294921875
61.34033203125
54.01611328125
58.59375
75.98876953125
83.31298828125
74.15771484375
80.56640625
90.63720703125
95.21484375
86.0595703125
92.46826171875
88.80615234375
100.7080078125
115.3564453125
107.11669921875
105.28564453125
118.10302734375
115.3564453125
115.3564453125
106.201171875
121.76513671875
124.51171875
126.3427734375
123.59619140625
116.27197265625
116.27197265625
108.0322265625
120.849609375
117.1875
115.3564453125
108.0322265625
109.86328125
111.6943359375
110.77880859375
97.0458984375
93.3837890625
84.228515625
72.32666015625
61.34033203125
65.00244140625
64.0869140625
57.67822265625
43.9453125
27.4658203125
25.634765625
20.1416015625
19.22607421875
8.23974609375
6.40869140625
-12.8173828125
-21.05712890625
-26.55029296875
-21.05712890625
-42.1142578125
-38.4521484375
-44.86083984375
-39.36767578125
-52.18505859375
-56.7626953125
-63.17138671875
-55.84716796875
-61.34033203125
-65.91796875
-67.7490234375
-65.00244140625
-76.904296875
-78.7353515625
-65.91796875
-64.0869140625
-72.32666015625
-86.97509765625
-78.7353515625
-74.15771484375
-71.4111328125
-82.3974609375
-79.65087890625
-80.56640625
-88.80615234375
-84.228515625
-77.81982421875
-85.14404296875
-67.7490234375
-78.7353515625
-89.7216796875
-96.13037109375
-85.14404296875
-78.7353515625
-86.0595703125
-90.63720703125
-86.97509765625
-78.7353515625
-68.66455078125
-75.0732421875
-78.7353515625
-81.48193359375
-86.97509765625
-75.0732421875
-74.15771484375
-75.0732421875
-74.15771484375
-82.3974609375
-82.3974609375
-74.15771484375
-78.7353515625
-80.56640625
-88.80615234375
-72.32666015625
-63.17138671875
-72.32666015625
-77.81982421875
-71.4111328125
-81.48193359375
-78.7353515625
-73.2421875
-66.83349609375
-63.17138671875
-80.56640625
-66.83349609375
-66.83349609375
-69.580078125
-71.4111328125
-73.2421875
-71.4111328125
-58.59375
-61.34033203125
-64.0869140625
-57.67822265625
-60.4248046875
-55.84716796875
-73.2421875
-70.49560546875
-81.48193359375
-58.59375
-54.931640625
-59.50927734375
-62.255859375
-65.00244140625
-57.67822265625
-58.59375
-66.83349609375
-61.34033203125
-46.69189453125
-55.84716796875
-60.4248046875
-53.1005859375
-58.59375
-58.59375
-68.66455078125
-58.59375
-55.84716796875
-63.17138671875
-55.84716796875
-60.4248046875
-54.01611328125
-43.9453125
-53.1005859375
-68.66455078125
-83.31298828125
-61.34033203125
-62.255859375
-65.00244140625
-61.34033203125
-63.17138671875
-61.34033203125
-65.91796875
-64.0869140625
-58.59375
-76.904296875
-70.49560546875
-64.0869140625
-68.66455078125
-63.17138671875
-54.931640625
-65.91796875
-79.65087890625
-70.49560546875
-65.91796875
-61.34033203125
-67.7490234375
-66.83349609375
-82.3974609375
-86.0595703125
-57.67822265625
-58.59375
-72.32666015625
-72.32666015625
-60.4248046875
-65.00244140625
-65.91796875
-75.0732421875
-75.0732421875
-69.580078125
-71.4111328125
-78.7353515625
-65.00244140625
-65.91796875
-69.580078125
-69.580078125
-72.32666015625
-75.0732421875
-63.17138671875
-64.0869140625
-61.34033203125
-64.0869140625
-67.7490234375
-65.91796875
-65.91796875
-65.00244140625
-68.66455078125
-74.15771484375
-74.15771484375
-65.91796875
-72.32666015625
-77.81982421875
-73.2421875
-66.83349609375
-68.66455078125
-69.580078125
-87.890625
-82.3974609375
-63.17138671875
-65.91796875
-73.2421875
-71.4111328125
-62.255859375
-59.50927734375
-47.607421875
-59.50927734375
-67.7490234375
-49.4384765625
-54.01611328125
-69.580078125
-62.255859375
-52.18505859375
-40.283203125
-25.634765625
-32.958984375
-38.4521484375
-42.1142578125
-40.283203125
-48.52294921875
-45.7763671875
-26.55029296875
-15.56396484375
0.91552734375
0.91552734375
4.57763671875
8.23974609375
1.8310546875
-5.4931640625
-10.986328125
-18.310546875
-30.21240234375
-36.62109375
-29.296875
-44.86083984375
-47.607421875
-49.4384765625
-57.67822265625
-57.67822265625
-57.67822265625
-47.607421875
-54.931640625
-56.7626953125
-47.607421875
-40.283203125
-49.4384765625
-55.84716796875
-61.34033203125
-73.2421875
-85.14404296875
-82.3974609375
-84.228515625
-83.31298828125
-88.80615234375
-75.98876953125
-80.56640625
-86.97509765625
-95.21484375
-89.7216796875
-96.13037109375
-94.29931640625
-88.80615234375
-82.3974609375
-80.56640625
-80.56640625
-69.580078125
-73.2421875
-74.15771484375
-75.0732421875
-78.7353515625
-65.00244140625
-61.34033203125
-74.15771484375
-70.49560546875
-73.2421875
-66.83349609375
-78.7353515625
-97.96142578125
-100.7080078125
-80.56640625
-43.02978515625
19.22607421875
92.46826171875
148.3154296875
185.85205078125
227.05078125
277.40478515625
355.224609375
454.1015625
558.4716796875
637.20703125
743.408203125
877.99072265625
1032.71484375
1160.888671875
1115.1123046875
941.162109375
696.71630859375
458.67919921875
323.18115234375
224.30419921875
116.27197265625
45.7763671875
20.1416015625
-14.6484375
-79.65087890625
-145.56884765625
-203.2470703125
-238.037109375
-242.61474609375
-216.97998046875
-203.2470703125
-195.9228515625
-175.78125
-159.3017578125
-124.51171875
-78.7353515625
-55.84716796875
-45.7763671875
-36.62109375
-39.36767578125
-51.26953125
-46.69189453125
-53.1005859375
-50.35400390625
-44.86083984375
-39.36767578125
-39.36767578125
-47.607421875
-43.02978515625
-40.283203125
-47.607421875
-43.02978515625
-37.53662109375
-39.36767578125
-43.9453125
-32.04345703125
-25.634765625
-42.1142578125
-35.70556640625
-17.39501953125
-24.71923828125
-21.97265625
-23.8037109375
-35.70556640625
-20.1416015625
-38.4521484375
-32.04345703125
-21.05712890625
-25.634765625
-32.04345703125
-25.634765625
-18.310546875
-12.8173828125
-17.39501953125
-18.310546875
-14.6484375
-16.4794921875
-23.8037109375
-19.22607421875
-14.6484375
-19.22607421875
-9.1552734375
-6.40869140625
-1.8310546875
-3.662109375
-10.07080078125
0.91552734375
-6.40869140625
2.74658203125
2.74658203125
13.73291015625
10.986328125
3.662109375
21.05712890625
24.71923828125
21.97265625
18.310546875
13.73291015625
19.22607421875
30.21240234375
28.38134765625
29.296875
30.21240234375
31.1279296875
47.607421875
47.607421875
53.1005859375
57.67822265625
59.50927734375
64.0869140625
65.91796875
60.4248046875
72.32666015625
73.2421875
74.15771484375
77.81982421875
91.552734375
90.63720703125
91.552734375
93.3837890625
94.29931640625
115.3564453125
114.44091796875
108.94775390625
113.525390625
117.1875
117.1875
120.849609375
131.8359375
126.3427734375
131.8359375
139.16015625
129.08935546875
138.24462890625
126.3427734375
138.24462890625
138.24462890625
130.0048828125
145.56884765625
155.6396484375
143.73779296875
141.90673828125
141.90673828125
140.07568359375
128.173828125
131.8359375
125.42724609375
124.51171875
117.1875
118.10302734375
115.3564453125
91.552734375
91.552734375
75.0732421875
68.66455078125
68.66455078125
53.1005859375
44.86083984375
42.1142578125
45.7763671875
32.958984375
22.88818359375
14.6484375
10.986328125
4.57763671875
0
-6.40869140625
-2.74658203125
-19.22607421875
-27.4658203125
-27.4658203125
-26.55029296875
-54.01611328125
-51.26953125
-33.87451171875
-46.69189453125
-35.70556640625
-45.7763671875
-43.9453125
-39.36767578125
-43.02978515625
-45.7763671875
-38.4521484375
-41.19873046875
-51.26953125
-59.50927734375
-43.02978515625
-55.84716796875
-65.91796875
-53.1005859375
-54.01611328125
-51.26953125
-58.59375
-69.580078125
-64.0869140625
-64.0869140625
-60.4248046875
-66.83349609375
-59.50927734375
-53.1005859375
-59.50927734375
-61.34033203125
-65.00244140625
-54.931640625
-53.1005859375
-59.50927734375
-58.59375
-59.50927734375
-56.7626953125
-57.67822265625
-47.607421875
-39.36767578125
-62.255859375
-67.7490234375
-75.98876953125
-55.84716796875
-56.7626953125
-54.01611328125
-49.4384765625
-62.255859375
-54.01611328125
-47.607421875
-49.4384765625
-55.84716796875
-56.7626953125
-43.9453125
-51.26953125
-54.931640625
-61.34033203125
-53.1005859375
-52.18505859375
-45.7763671875
-48.52294921875
-47.607421875
-30.21240234375
-30.21240234375
-47.607421875
-55.84716796875
-38.4521484375
-39.36767578125
-37.53662109375
-48.52294921875
-35.70556640625
-43.9453125
-32.04345703125
-33.87451171875
-36.62109375
-33.87451171875
-28.38134765625
-41.19873046875
-33.87451171875
-31.1279296875
-41.19873046875
-41.19873046875
-29.296875
-25.634765625
-29.296875
-40.283203125
-27.4658203125
-36.62109375
-36.62109375
-33.87451171875
-24.71923828125
-21.05712890625
-42.1142578125
-44.86083984375
-35.70556640625
-30.21240234375
-21.05712890625
-30.21240234375
-43.9453125
-54.931640625
-52.18505859375
-29.296875
-43.02978515625
-34.7900390625
-37.53662109375
-44.86083984375
-43.02978515625
-34.7900390625
-33.87451171875
-30.21240234375
-32.958984375
-45.7763671875
-48.52294921875
-44.86083984375
-36.62109375
-39.36767578125
-41.19873046875
-42.1142578125
-42.1142578125
-48.52294921875
-43.02978515625
-37.53662109375
-54.931640625
-53.1005859375
-32.04345703125
-44.86083984375
-43.02978515625
-41.19873046875
-40.283203125
-28.38134765625
-38.4521484375
-54.01611328125
-41.19873046875
-37.53662109375
-35.70556640625
-41.19873046875
-42.1142578125
-42.1142578125
-35.70556640625
-41.19873046875
-43.9453125
-41.19873046875
-43.9453125
-40.283203125
-46.69189453125
-53.1005859375
-44.86083984375
-35.70556640625
-52.18505859375
-51.26953125
-28.38134765625
-52.18505859375
-43.02978515625
-45.7763671875
-52.18505859375
-41.19873046875
-34.7900390625
-43.02978515625
-39.36767578125
-44.86083984375
-47.607421875
-58.59375
-51.26953125
-49.4384765625
-53.1005859375
-53.1005859375
-44.86083984375
-43.02978515625
-35.70556640625
-48.52294921875
-53.1005859375
-43.02978515625
-43.9453125
-32.04345703125
-25.634765625
-22.88818359375
-36.62109375
-33.87451171875
-30.21240234375
-38.4521484375
-37.53662109375
-40.283203125
-41.19873046875
-22.88818359375
-15.56396484375
-21.05712890625
-10.986328125
-17.39501953125
-21.05712890625
-4.57763671875
25.634765625
19.22607421875
23.8037109375
43.02978515625
39.36767578125
16.4794921875
11.90185546875
6.40869140625
-2.74658203125
-8.23974609375
-14.6484375
-6.40869140625
-10.986328125
-18.310546875
-35.70556640625
-32.04345703125
-30.21240234375
-33.87451171875
-29.296875
-21.97265625
-34.7900390625
-43.9453125
-38.4521484375
-32.958984375
-32.04345703125
-34.7900390625
-48.52294921875
-61.34033203125
-64.0869140625
-59.50927734375
-79.65087890625
-72.32666015625
-72.32666015625
-70.49560546875
-56.7626953125
-64.0869140625
-69.580078125
-61.34033203125
-75.0732421875
-70.49560546875
-63.17138671875
-65.00244140625
-64.0869140625
-57.67822265625
-55.84716796875
-64.0869140625
-69.580078125
-67.7490234375
-57.67822265625
-43.9453125
-59.50927734375
-50.35400390625
-37.53662109375
-52.18505859375
-65.00244140625
-83.31298828125
-91.552734375
-65.91796875
-1.8310546875
65.00244140625
139.16015625
197.75390625
236.2060546875
249.93896484375
325.927734375
405.57861328125
494.384765625
586.85302734375
682.06787109375
798.33984375
940.24658203125
1096.8017578125
1143.49365234375
1027.2216796875
804.74853515625
541.07666015625
390.0146484375
300.29296875
189.51416015625
98.876953125
68.66455078125
46.69189453125
-4.57763671875
-80.56640625
-144.6533203125
-190.4296875
-225.2197265625
-227.05078125
-210.5712890625
-191.34521484375
-188.5986328125
-174.86572265625
-141.90673828125
-91.552734375
-65.91796875
-43.02978515625
-35.70556640625
-18.310546875
-32.04345703125
-28.38134765625
-38.4521484375
-36.62109375
-31.1279296875
-34.7900390625
-32.04345703125
-32.958984375
-34.7900390625
-34.7900390625
-43.9453125
-36.62109375
-27.4658203125
-26.55029296875
-25.634765625
-33.87451171875
-42.1142578125
-34.7900390625
-21.05712890625
-20.1416015625
-21.05712890625
-21.97265625
-19.22607421875
-18.310546875
-16.4794921875
-20.1416015625
-19.22607421875
-7.32421875
-18.310546875
-17.39501953125
-21.05712890625
-22.88818359375
-16.4794921875
-15.56396484375
-6.40869140625
-5.4931640625
-14.6484375
-11.90185546875
-11.90185546875
-2.74658203125
4.57763671875
4.57763671875
-9.1552734375
-11.90185546875
0
-1.8310546875
1.8310546875
3.662109375
7.32421875
11.90185546875
14.6484375
4.57763671875
5.4931640625
13.73291015625
6.40869140625
7.32421875
17.39501953125
32.958984375
9.1552734375
16.4794921875
27.4658203125
34.7900390625
40.283203125
29.296875
40.283203125
43.02978515625
42.1142578125
29.296875
43.9453125
62.255859375
60.4248046875
67.7490234375
62.255859375
73.2421875
81.48193359375
64.0869140625
68.66455078125
82.3974609375
89.7216796875
92.46826171875
97.96142578125
107.11669921875
96.13037109375
98.876953125
103.45458984375
108.94775390625
112.60986328125
114.44091796875
119.93408203125
101.62353515625
120.849609375
129.08935546875
131.8359375
120.849609375
122.6806640625
131.8359375
130.92041015625
137.3291015625
130.92041015625
128.173828125
137.3291015625
121.76513671875
125.42724609375
120.849609375
113.525390625
130.0048828125
121.76513671875
109.86328125
105.28564453125
118.10302734375
111.6943359375
108.0322265625
76.904296875
69.580078125
84.228515625
77.81982421875
58.59375
53.1005859375
54.01611328125
35.70556640625
25.634765625
17.39501953125
18.310546875
11.90185546875
-4.57763671875
-1.8310546875
-4.57763671875
-24.71923828125
-16.4794921875
-10.07080078125
-19.22607421875
-25.634765625
-36.62109375
-36.62109375
-21.05712890625
-38.4521484375
-37.53662109375
-50.35400390625
-57.67822265625
-55.84716796875
-55.84716796875
-61.34033203125
-61.34033203125
-50.35400390625
-48.52294921875
-57.67822265625
-64.0869140625
-66.83349609375
-65.91796875
-75.0732421875
-65.91796875
-64.0869140625
-62.255859375
-62.255859375
-57.67822265625
-71.4111328125
-59.50927734375
-66.83349609375
-72.32666015625
-62.255859375
-54.931640625
-69.580078125
-81.48193359375
-82.3974609375
-64.0869140625
-78.7353515625
-63.17138671875
-63.17138671875
-80.56640625
-78.7353515625
-70.49560546875
-61.34033203125
-59.50927734375
-65.91796875
-73.2421875
-65.91796875
-64.0869140625
-37.53662109375
-56.7626953125
-75.0732421875
-65.00244140625
-64.0869140625
-58.59375
-59.50927734375
-68.66455078125
-72.32666015625
-57.67822265625
-54.931640625
-52.18505859375
-59.50927734375
-54.01611328125
-54.931640625
-54.01611328125
-58.59375
-49.4384765625
-40.283203125
-40.283203125
-43.02978515625
-51.26953125
-43.02978515625
-52.18505859375
-50.35400390625
-43.9453125
-41.19873046875
-36.62109375
-38.4521484375
-48.52294921875
-34.7900390625
-50.35400390625
-53.1005859375
-38.4521484375
-44.86083984375
-56.7626953125
-50.35400390625
-42.1142578125
-43.9453125
-43.02978515625
-46.69189453125
-53.1005859375
-39.36767578125
-34.7900390625
-52.18505859375
-47.607421875
-40.283203125
-37.53662109375
-49.4384765625
-43.02978515625
-44.86083984375
-40.283203125
-40.283203125
-52.18505859375
-54.01611328125
-60.4248046875
-54.01611328125
-52.18505859375
-49.4384765625
-52.18505859375
-57.67822265625
-75.0732421875
-54.01611328125
-58.59375
-38.4521484375
-40.283203125
-54.931640625
-54.931640625
-59.50927734375
-60.4248046875
-56.7626953125
-68.66455078125
-72.32666015625
-75.98876953125
-55.84716796875
-60.4248046875
-48.52294921875
-53.1005859375
-84.228515625
-61.34033203125
-63.17138671875
-64.0869140625
-68.66455078125
-66.83349609375
-62.255859375
-73.2421875
-59.50927734375
-54.01611328125
-64.0869140625
-62.255859375
-65.91796875
-56.7626953125
-64.0869140625
-64.0869140625
-66.83349609375
-64.0869140625
-68.66455078125
-60.4248046875
-62.255859375
-67.7490234375
-70.49560546875
-69.580078125
-52.18505859375
-45.7763671875
-61.34033203125
-54.01611328125
-58.59375
-59.50927734375
-70.49560546875
-54.931640625
-55.84716796875
-48.52294921875
-39.36767578125
-54.01611328125
-59.50927734375
-52.18505859375
-54.931640625
-43.02978515625
-34.7900390625
-27.4658203125
3.662109375
7.32421875
-0.91552734375
21.05712890625
34.7900390625
-3.662109375
-4.57763671875
-9.1552734375
-16.4794921875
-43.9453125
-48.52294921875
-30.21240234375
-47.607421875
-52.18505859375
-49.4384765625
-58.59375
-48.52294921875
-52.18505859375
-63.17138671875
-62.255859375
-56.7626953125
-46.69189453125
-38.4521484375
-62.255859375
-53.1005859375
-71.4111328125
-73.2421875
-82.3974609375
-87.890625
-86.0595703125
-86.0595703125
-83.31298828125
-91.552734375
-113.525390625
-93.3837890625
-88.80615234375
-83.31298828125
-84.228515625
-86.97509765625
-88.80615234375
-83.31298828125
-70.49560546875
-72.32666015625
-77.81982421875
-88.80615234375
-79.65087890625
-89.7216796875
-85.14404296875
-83.31298828125
-75.98876953125
-81.48193359375
-77.81982421875
-73.2421875
-69.580078125
-100.7080078125
-122.6806640625
-118.10302734375
-79.65087890625
-19.22607421875
56.7626953125
119.0185546875
161.1328125
177.6123046875
213.31787109375
270.99609375
344.23828125
448.6083984375
522.76611328125
605.16357421875
701.2939453125
888.0615234375
1051.025390625
1061.09619140625
906.3720703125
702.20947265625
467.83447265625
353.3935546875
244.44580078125
162.9638671875
102.5390625
86.97509765625
86.97509765625
69.580078125
10.986328125
-69.580078125
-136.41357421875
-204.16259765625
-242.61474609375
-224.30419921875
-208.740234375
-206.9091796875
-210.5712890625
-201.416015625
-184.02099609375
-152.89306640625
-109.86328125
-80.56640625
-64.0869140625
-54.01611328125
-65.91796875
-71.4111328125
-56.7626953125
-55.84716796875
-65.91796875
-61.34033203125
-65.91796875
-53.1005859375
-48.52294921875
-54.01611328125
-68.66455078125
-54.01611328125
-41.19873046875
-41.19873046875
-52.18505859375
-49.4384765625
-50.35400390625
-56.7626953125
-48.52294921875
-57.67822265625
-60.4248046875
-55.84716796875
-43.02978515625
-36.62109375
-40.283203125
-49.4384765625
-37.53662109375
-40.283203125
-32.04345703125
-39.36767578125
-40.283203125
-35.70556640625
-32.958984375
-35.70556640625
-43.9453125
-38.4521484375
-37.53662109375
-27.4658203125
-39.36767578125
-34.7900390625
-26.55029296875
-42.1142578125
-25.634765625
-21.05712890625
-28.38134765625
-24.71923828125
-23.8037109375
-37.53662109375
-14.6484375
2.74658203125
-10.07080078125
-13.73291015625
-14.6484375
-21.97265625
-16.4794921875
-14.6484375
-13.73291015625
2.74658203125
-0.91552734375
1.8310546875
-1.8310546875
-8.23974609375
-0.91552734375
7.32421875
15.56396484375
15.56396484375
14.6484375
17.39501953125
21.97265625
28.38134765625
37.53662109375
19.22607421875
25.634765625
36.62109375
54.01611328125
45.7763671875
41.19873046875
58.59375
65.00244140625
46.69189453125
67.7490234375
45.7763671875
67.7490234375
75.98876953125
76.904296875
63.17138671875
67.7490234375
79.65087890625
84.228515625
83.31298828125
88.80615234375
76.904296875
75.98876953125
79.65087890625
97.0458984375
87.890625
82.3974609375
87.890625
90.63720703125
86.97509765625
75.98876953125
80.56640625
75.98876953125
86.0595703125
78.7353515625
75.98876953125
70.49560546875
62.255859375
60.4248046875
60.4248046875
47.607421875
50.35400390625
42.1142578125
27.4658203125
30.21240234375
11.90185546875
0
10.986328125
0.91552734375
-14.6484375
-16.4794921875
-6.40869140625
-25.634765625
-36.62109375
-35.70556640625
-36.62109375
-44.86083984375
-49.4384765625
-43.02978515625
-51.26953125
-72.32666015625
-67.7490234375
-54.01611328125
-54.931640625
-63.17138671875
-81.48193359375
-70.49560546875
-73.2421875
-81.48193359375
-77.81982421875
-82.3974609375
-90.63720703125
-92.46826171875
-81.48193359375
-86.0595703125
-93.3837890625
-86.97509765625
-69.580078125
-78.7353515625
-84.228515625
-87.890625
-90.63720703125
-92.46826171875
-78.7353515625
-75.0732421875
-77.81982421875
-79.65087890625
-93.3837890625
-80.56640625
-82.3974609375
-95.21484375
-85.14404296875
-82.3974609375
-83.31298828125
-82.3974609375
-77.81982421875
-88.80615234375
-97.96142578125
-86.97509765625
-97.0458984375
-89.7216796875
-98.876953125
-77.81982421875
-72.32666015625
-79.65087890625
-70.49560546875
-75.98876953125
-77.81982421875
-77.81982421875
-86.0595703125
-76.904296875
-90.63720703125
-93.3837890625
-75.0732421875
-72.32666015625
-81.48193359375
-85.14404296875
-81.48193359375
-70.49560546875
-68.66455078125
-71.4111328125
-78.7353515625
-80.56640625
-65.00244140625
-59.50927734375
-69.580078125
-71.4111328125
-85.14404296875
-61.34033203125
-64.0869140625
-69.580078125
-67.7490234375
-65.91796875
-73.2421875
-85.14404296875
-60.4248046875
-67.7490234375
-53.1005859375
-64.0869140625
-60.4248046875
-78.7353515625
-79.65087890625
-69.580078125
-65.91796875
-60.4248046875
-65.00244140625
-70.49560546875
-66.83349609375
-70.49560546875
-70.49560546875
-64.0869140625
-74.15771484375
-71.4111328125
-73.2421875
-68.66455078125
-70.49560546875
-72.32666015625
-73.2421875
-73.2421875
-70.49560546875
-87.890625
-86.97509765625
-79.65087890625
-68.66455078125
-65.91796875
-75.0732421875
-90.63720703125
-83.31298828125
-87.890625
-91.552734375
-94.29931640625
-69.580078125
-75.0732421875
-90.63720703125
-82.3974609375
-69.580078125
-74.15771484375
-72.32666015625
-80.56640625
-82.3974609375
-71.4111328125
-76.904296875
-88.80615234375
-75.0732421875
-75.0732421875
-87.890625
-90.63720703125
-89.7216796875
-88.80615234375
-80.56640625
-82.3974609375
-81.48193359375
-86.97509765625
-74.15771484375
-66.83349609375
-73.2421875
-68.66455078125
-71.4111328125
-64.0869140625
-65.00244140625
-77.81982421875
-76.904296875
-89.7216796875
-84.228515625
-60.4248046875
-44.86083984375
-55.84716796875
-56.7626953125
-61.34033203125
-65.91796875
-43.9453125
-44.86083984375
-40.283203125
-17.39501953125
-4.57763671875
3.662109375
0.91552734375
-19.22607421875
-24.71923828125
-28.38134765625
-40.283203125
-57.67822265625
-47.607421875
-47.607421875
-52.18505859375
-57.67822265625
-66.83349609375
-74.15771484375
-62.255859375
-55.84716796875
-47.607421875
-75.0732421875
-65.91796875
-69.580078125
-64.0869140625
-69.580078125
-67.7490234375
-85.14404296875
-99.79248046875
-106.201171875
-99.79248046875
-99.79248046875
-105.28564453125
-98.876953125
-92.46826171875
-98.876953125
-97.0458984375
-102.5390625
-97.0458984375
-103.45458984375
-103.45458984375
-105.28564453125
-103.45458984375
-91.552734375
-90.63720703125
-98.876953125
-99.79248046875
-93.3837890625
-94.29931640625
-91.552734375
-79.65087890625
-88.80615234375
-86.97509765625
-87.890625
-96.13037109375
-96.13037109375
-105.28564453125
-122.6806640625
-119.0185546875
-65.00244140625
-5.4931640625
74.15771484375
129.08935546875
168.45703125
194.091796875
249.93896484375
318.603515625
426.6357421875
513.61083984375
590.51513671875
686.6455078125
823.974609375
993.34716796875
1129.7607421875
1116.943359375
957.6416015625
704.04052734375
446.77734375
317.68798828125
226.13525390625
140.9912109375
78.7353515625
65.00244140625
39.36767578125
-30.21240234375
-86.0595703125
-147.39990234375
-208.740234375
-245.361328125
-243.5302734375
-226.13525390625
-233.45947265625
-208.740234375
-200.50048828125
-177.6123046875
-146.484375
-114.44091796875
-93.3837890625
-80.56640625
-72.32666015625
-63.17138671875
-56.7626953125
-55.84716796875
-65.91796875
-61.34033203125
-54.01611328125
-68.66455078125
-67.7490234375
-68.66455078125
-51.26953125
-55.84716796875
-45.7763671875
-42.1142578125
-36.62109375
-43.9453125
-55.84716796875
-32.958984375
-23.8037109375
-42.1142578125
-46.69189453125
-50.35400390625
-44.86083984375
-46.69189453125
-37.53662109375
-44.86083984375
-43.9453125
-41.19873046875
-39.36767578125
-34.7900390625
-27.4658203125
-36.62109375
-32.04345703125
-41.19873046875
-39.36767578125
-35.70556640625
-34.7900390625
-38.4521484375
-30.21240234375
-30.21240234375
-27.4658203125
-20.1416015625
-16.4794921875
-30.21240234375
-28.38134765625
-14.6484375
-19.22607421875
-21.97265625
-12.8173828125
-17.39501953125
-4.57763671875
-0.91552734375
-8.23974609375
-13.73291015625
1.8310546875
-3.662109375
-13.73291015625
2.74658203125
23.8037109375
4.57763671875
8.23974609375
18.310546875
10.986328125
9.1552734375
10.986328125
30.21240234375
31.1279296875
32.958984375
43.02978515625
43.9453125
44.86083984375
48.52294921875
46.69189453125
43.9453125
50.35400390625
59.50927734375
65.00244140625
48.52294921875
66.83349609375
75.98876953125
75.98876953125
74.15771484375
95.21484375
86.0595703125
101.62353515625
101.62353515625
108.94775390625
103.45458984375
106.201171875
108.0322265625
112.60986328125
110.77880859375
106.201171875
108.0322265625
120.849609375
113.525390625
111.6943359375
116.27197265625
130.92041015625
126.3427734375
127.25830078125
119.0185546875
104.3701171875
108.94775390625
105.28564453125
114.44091796875
120.849609375
101.62353515625
95.21484375
86.0595703125
69.580078125
68.66455078125
66.83349609375
62.255859375
52.18505859375
50.35400390625
40.283203125
35.70556640625
30.21240234375
16.4794921875
4.57763671875
0
-8.23974609375
-23.8037109375
-11.90185546875
-26.55029296875
-40.283203125
-38.4521484375
-32.04345703125
-32.04345703125
-32.04345703125
-42.1142578125
-49.4384765625
-60.4248046875
-49.4384765625
-53.1005859375
-65.00244140625
-70.49560546875
-73.2421875
-75.98876953125
-72.32666015625
-67.7490234375
-79.65087890625
-72.32666015625
-75.0732421875
-68.66455078125
-62.255859375
-67.7490234375
-73.2421875
-68.66455078125
-75.0732421875
-81.48193359375
-75.0732421875
-83.31298828125
-69.580078125
-76.904296875
-76.904296875
-85.14404296875
-76.904296875
-87.890625
-79.65087890625
-85.14404296875
-85.14404296875
-92.46826171875
-76.904296875
-76.904296875
-77.81982421875
-84.228515625
-75.0732421875
-79.65087890625
-83.31298828125
-82.3974609375
-75.0732421875
-73.2421875
-74.15771484375
-80.56640625
-82.3974609375
-75.0732421875
-75.98876953125
-81.48193359375
-60.4248046875
-67.7490234375
-73.2421875
-79.65087890625
-61.34033203125
-61.34033203125
-65.91796875
-63.17138671875
-61.34033203125
-68.66455078125
-66.83349609375
-61.34033203125
-61.34033203125
-65.91796875
-69.580078125
-48.52294921875
-51.26953125
-65.91796875
-73.2421875
-62.255859375
-62.255859375
-63.17138671875
-54.01611328125
-66.83349609375
-59.50927734375
-54.01611328125
-62.255859375
-65.91796875
-64.0869140625
-49.4384765625
-43.02978515625
-56.7626953125
-62.255859375
-60.4248046875
-60.4248046875
-53.1005859375
-65.91796875
-54.931640625
-54.931640625
-60.4248046875
-65.91796875
-63.17138671875
-53.1005859375
-50.35400390625
-56.7626953125
-54.01611328125
-49.4384765625
-62.255859375
-56.7626953125
-53.1005859375
-62.255859375
-60.4248046875
-59.50927734375
-58.59375
-61.34033203125
-62.255859375
-60.4248046875
-62.255859375
-56.7626953125
-62.255859375
-64.0869140625
-61.34033203125
-64.0869140625
-58.59375
-64.0869140625
-66.83349609375
-53.1005859375
-54.01611328125
-52.18505859375
-70.49560546875
-73.2421875
-65.91796875
-70.49560546875
-60.4248046875
-65.00244140625
-57.67822265625
-62.255859375
-65.00244140625
-62.255859375
-62.255859375
-66.83349609375
-67.7490234375
-61.34033203125
-57.67822265625
-64.0869140625
-71.4111328125
-61.34033203125
-75.98876953125
-65.00244140625
-59.50927734375
-65.91796875
-67.7490234375
-65.91796875
-60.4248046875
-59.50927734375
-65.00244140625
-75.0732421875
-78.7353515625
-77.81982421875
-67.7490234375
-56.7626953125
-54.931640625
-65.91796875
-71.4111328125
-66.83349609375
-66.83349609375
-71.4111328125
-67.7490234375
-61.34033203125
-54.01611328125
-63.17138671875
-46.69189453125
-62.255859375
-55.84716796875
-41.19873046875
-54.01611328125
-70.49560546875
-64.0869140625
-47.607421875
-43.02978515625
-27.4658203125
-43.02978515625
-52.18505859375
-43.02978515625
-43.9453125
-29.296875
-17.39501953125
-16.4794921875
-9.1552734375
11.90185546875
11.90185546875
17.39501953125
7.32421875
2.74658203125
-12.8173828125
-13.73291015625
-30.21240234375
-34.7900390625
-34.7900390625
-32.04345703125
-38.4521484375
-48.52294921875
-51.26953125
-55.84716796875
-51.26953125
-42.1142578125
-47.607421875
-47.607421875
-55.84716796875
-55.84716796875
-44.86083984375
-39.36767578125
-67.7490234375
-70.49560546875
-69.580078125
-84.228515625
-82.3974609375
-97.0458984375
-93.3837890625
-93.3837890625
-96.13037109375
-88.80615234375
-88.80615234375
-75.0732421875
-92.46826171875
-72.32666015625
-72.32666015625
-84.228515625
-80.56640625
-82.3974609375
-86.97509765625
-87.890625
-71.4111328125
-76.904296875
-73.2421875
-71.4111328125
-71.4111328125
-71.4111328125
-80.56640625
-76.904296875
-76.904296875
-84.228515625
-94.29931640625
-97.0458984375
-75.98876953125
-29.296875
58.59375
121.76513671875
168.45703125
221.5576171875
256.34765625
314.94140625
404.6630859375
527.34375
608.82568359375
704.04052734375
820.3125
961.3037109375
1112.36572265625
1178.28369140625
1074.8291015625
858.7646484375
577.69775390625
376.28173828125
275.57373046875
172.119140625
76.904296875
33.87451171875
-3.662109375
-63.17138671875
-123.59619140625
-181.2744140625
-232.5439453125
-238.95263671875
-231.62841796875
-218.81103515625
-207.82470703125
-190.4296875
-169.37255859375
-140.9912109375
-105.28564453125
-69.580078125
-60.4248046875
-46.69189453125
-46.69189453125
-42.1142578125
-42.1142578125
-58.59375
-43.9453125
-43.02978515625
-54.01611328125
-62.255859375
-43.02978515625
-42.1142578125
-39.36767578125
-32.04345703125
-30.21240234375
-49.4384765625
-41.19873046875
-37.53662109375
-32.04345703125
-33.87451171875
-29.296875
-35.70556640625
-31.1279296875
-35.70556640625
-37.53662109375
-34.7900390625
-30.21240234375
-21.97265625
-21.97265625
-32.958984375
-21.97265625
-27.4658203125
-22.88818359375
-31.1279296875
-28.38134765625
-21.97265625
-19.22607421875
-19.22607421875
-18.310546875
-15.56396484375
-17.39501953125
-16.4794921875
-13.73291015625
-14.6484375
-10.986328125
-7.32421875
-1.8310546875
-13.73291015625
-10.986328125
0.91552734375
-1.8310546875
3.662109375
10.986328125
1.8310546875
3.662109375
-1.8310546875
3.662109375
18.310546875
28.38134765625
21.05712890625
8.23974609375
23.8037109375
23.8037109375
28.38134765625
32.958984375
34.7900390625
32.958984375
41.19873046875
32.958984375
44.86083984375
65.91796875
64.0869140625
43.02978515625
55.84716796875
64.0869140625
64.0869140625
62.255859375
68.66455078125
75.0732421875
79.65087890625
86.0595703125
84.228515625
81.48193359375
94.29931640625
109.86328125
103.45458984375
109.86328125
119.93408203125
123.59619140625
115.3564453125
119.0185546875
125.42724609375
128.173828125
130.0048828125
130.92041015625
130.92041015625
139.16015625
139.16015625
134.58251953125
140.9912109375
126.3427734375
124.51171875
137.3291015625
143.73779296875
141.90673828125
140.07568359375
138.24462890625
134.58251953125
136.41357421875
129.08935546875
111.6943359375
124.51171875
113.525390625
102.5390625
87.890625
90.63720703125
72.32666015625
75.0732421875
69.580078125
66.83349609375
49.4384765625
43.02978515625
36.62109375
26.55029296875
32.04345703125
13.73291015625
10.07080078125
10.07080078125
-10.986328125
-13.73291015625
-8.23974609375
-16.4794921875
-29.296875
-24.71923828125
-28.38134765625
-42.1142578125
-40.283203125
-43.02978515625
-48.52294921875
-46.69189453125
-43.9453125
-46.69189453125
-46.69189453125
-45.7763671875
-65.00244140625
-57.67822265625
-60.4248046875
-53.1005859375
-63.17138671875
-65.91796875
-67.7490234375
-76.904296875
-57.67822265625
-64.0869140625
-82.3974609375
-72.32666015625
-44.86083984375
-53.1005859375
-66.83349609375
-65.00244140625
-55.84716796875
-63.17138671875
-56.7626953125
-54.01611328125
-63.17138671875
-72.32666015625
-68.66455078125
-63.17138671875
-62.255859375
-68.66455078125
-56.7626953125
-52.18505859375
-58.59375
-55.84716796875
-53.1005859375
-65.91796875
-64.0869140625
-55.84716796875
-51.26953125
-62.255859375
-77.81982421875
-64.0869140625
-60.4248046875
-66.83349609375
-60.4248046875
-51.26953125
-58.59375
-55.84716796875
-55.84716796875
-54.931640625
-66.83349609375
-45.7763671875
-57.67822265625
-56.7626953125
-54.931640625
-49.4384765625
-53.1005859375
-43.02978515625
-39.36767578125
-40.283203125
-50.35400390625
-49.4384765625
-49.4384765625
-49.4384765625
-36.62109375
-41.19873046875
-49.4384765625
-39.36767578125
-40.283203125
-44.86083984375
-51.26953125
-52.18505859375
-49.4384765625
-56.7626953125
-49.4384765625
-38.4521484375
-40.283203125
-43.02978515625
-38.4521484375
-47.607421875
-49.4384765625
-43.02978515625
-42.1142578125
-41.19873046875
-32.04345703125
-43.02978515625
-47.607421875
-43.9453125
-52.18505859375
-49.4384765625
-52.18505859375
-39.36767578125
-44.86083984375
-48.52294921875
-45.7763671875
-42.1142578125
-51.26953125
-38.4521484375
-39.36767578125
-49.4384765625
-56.7626953125
-51.26953125
-54.931640625
-50.35400390625
-56.7626953125
-38.4521484375
-48.52294921875
-47.607421875
-37.53662109375
-43.02978515625
-55.84716796875
-58.59375
-57.67822265625
-56.7626953125
-45.7763671875
-51.26953125
-54.01611328125
-53.1005859375
-59.50927734375
-52.18505859375
-52.18505859375
-46.69189453125
-52.18505859375
-45.7763671875
-60.4248046875
-60.4248046875
-53.1005859375
-49.4384765625
-51.26953125
-37.53662109375
-50.35400390625
-52.18505859375
-62.255859375
-52.18505859375
-45.7763671875
-46.69189453125
-52.18505859375
-57.67822265625
-56.7626953125
-49.4384765625
-42.1142578125
-54.931640625
-62.255859375
-55.84716796875
-46.69189453125
-43.9453125
-62.255859375
-51.26953125
-52.18505859375
-61.34033203125
-54.931640625
-54.01611328125
-53.1005859375
-53.1005859375
-48.52294921875
-54.931640625
-54.931640625
-55.84716796875
-53.1005859375
-50.35400390625
-51.26953125
-54.931640625
-46.69189453125
-42.1142578125
-39.36767578125
-42.1142578125
-49.4384765625
-53.1005859375
-53.1005859375
-28.38134765625
-16.4794921875
-32.958984375
-27.4658203125
-22.88818359375
-24.71923828125
-19.22607421875
-15.56396484375
4.57763671875
16.4794921875
29.296875
28.38134765625
21.05712890625
18.310546875
4.57763671875
-0.91552734375
-5.4931640625
-17.39501953125
-37.53662109375
-30.21240234375
-18.310546875
-21.97265625
-32.958984375
-30.21240234375
-42.1142578125
-34.7900390625
-21.97265625
-32.04345703125
-36.62109375
-60.4248046875
-53.1005859375
-44.86083984375
-40.283203125
-42.1142578125
-52.18505859375
-64.0869140625
-66.83349609375
-81.48193359375
-74.15771484375
-76.904296875
-69.580078125
-75.0732421875
-77.81982421875
-67.7490234375
-71.4111328125
-75.0732421875
-78.7353515625
-77.81982421875
-79.65087890625
-72.32666015625
-69.580078125
-66.83349609375
-69.580078125
-70.49560546875
-58.59375
-58.59375
-66.83349609375
-58.59375
-52.18505859375
-52.18505859375
-57.67822265625
-56.7626953125
-86.97509765625
-104.3701171875
-86.0595703125
-51.26953125
-6.40869140625
69.580078125
155.6396484375
196.83837890625
220.64208984375
262.75634765625
333.251953125
433.9599609375
536.4990234375
637.20703125
716.85791015625
835.87646484375
992.431640625
1149.90234375
1170.95947265625
1051.94091796875
816.650390625
543.8232421875
357.97119140625
264.58740234375
153.80859375
75.98876953125
40.283203125
5.4931640625
-75.98876953125
-123.59619140625
-169.37255859375
-215.14892578125
-223.388671875
-210.5712890625
-203.2470703125
-201.416015625
-189.51416015625
-152.89306640625
-119.0185546875
-66.83349609375
-40.283203125
-32.04345703125
-24.71923828125
-32.04345703125
-47.607421875
-40.283203125
-42.1142578125
-58.59375
-26.55029296875
-24.71923828125
-23.8037109375
-31.1279296875
-24.71923828125
-20.1416015625
-18.310546875
-26.55029296875
-37.53662109375
-24.71923828125
-23.8037109375
-10.986328125
-23.8037109375
-26.55029296875
-18.310546875
-25.634765625
-25.634765625
-11.90185546875
-22.88818359375
-32.04345703125
-21.05712890625
-20.1416015625
-11.90185546875
-11.90185546875
-0.91552734375
-7.32421875
-20.1416015625
-17.39501953125
-21.05712890625
-15.56396484375
-12.8173828125
-7.32421875
-4.57763671875
-2.74658203125
-8.23974609375
5.4931640625
-4.57763671875
-7.32421875
3.662109375
9.1552734375
3.662109375
-4.57763671875
7.32421875
8.23974609375
-4.57763671875
12.8173828125
17.39501953125
13.73291015625
22.88818359375
18.310546875
22.88818359375
7.32421875
18.310546875
28.38134765625
23.8037109375
26.55029296875
36.62109375
38.4521484375
44.86083984375
46.69189453125
39.36767578125
32.958984375
46.69189453125
45.7763671875
62.255859375
62.255859375
61.34033203125
67.7490234375
75.0732421875
74.15771484375
85.14404296875
81.48193359375
88.80615234375
93.3837890625
88.80615234375
90.63720703125
100.7080078125
107.11669921875
113.525390625
110.77880859375
111.6943359375
118.10302734375
115.3564453125
120.849609375
134.58251953125
128.173828125
120.849609375
136.41357421875
138.24462890625
131.8359375
141.90673828125
136.41357421875
133.6669921875
138.24462890625
138.24462890625
135.498046875
145.56884765625
137.3291015625
140.07568359375
130.0048828125
127.25830078125
129.08935546875
120.849609375
119.0185546875
113.525390625
108.94775390625
111.6943359375
95.21484375
91.552734375
84.228515625
73.2421875
75.0732421875
65.91796875
46.69189453125
37.53662109375
43.02978515625
43.02978515625
29.296875
18.310546875
11.90185546875
3.662109375
4.57763671875
-3.662109375
-20.1416015625
-20.1416015625
-21.05712890625
-26.55029296875
-21.97265625
-31.1279296875
-28.38134765625
-40.283203125
-43.02978515625
-43.9453125
-46.69189453125
-42.1142578125
-43.9453125
-48.52294921875
-51.26953125
-45.7763671875
-53.1005859375
-51.26953125
-60.4248046875
-62.255859375
-59.50927734375
-59.50927734375
-57.67822265625
-54.01611328125
-61.34033203125
-54.931640625
-59.50927734375
-53.1005859375
-50.35400390625
-62.255859375
-52.18505859375
-43.9453125
-45.7763671875
-61.34033203125
-63.17138671875
-66.83349609375
-65.00244140625
-52.18505859375
-47.607421875
-56.7626953125
-67.7490234375
-56.7626953125
-60.4248046875
-63.17138671875
-51.26953125
-58.59375
-62.255859375
-55.84716796875
-54.01611328125
-60.4248046875
-57.67822265625
-54.01611328125
-48.52294921875
-48.52294921875
-50.35400390625
-54.01611328125
-46.69189453125
-48.52294921875
-49.4384765625
-47.607421875
-67.7490234375
-51.26953125
-44.86083984375
-27.4658203125
-56.7626953125
-55.84716796875
-40.283203125
-43.9453125
-43.02978515625
-39.36767578125
-43.9453125
-55.84716796875
-46.69189453125
-51.26953125
-38.4521484375
-43.02978515625
-36.62109375
-32.04345703125
-40.283203125
-38.4521484375
-42.1142578125
-35.70556640625
-31.1279296875
-37.53662109375
-47.607421875
-41.19873046875
-45.7763671875
-31.1279296875
-37.53662109375
-36.62109375
-42.1142578125
-40.283203125
-55.84716796875
-49.4384765625
-33.87451171875
-45.7763671875
-27.4658203125
-32.958984375
-48.52294921875
-41.19873046875
-21.97265625
-32.958984375
-43.02978515625
-40.283203125
-38.4521484375
-43.02978515625
-38.4521484375
-43.9453125
-39.36767578125
-40.283203125
-52.18505859375
-52.18505859375
-51.26953125
-43.02978515625
-42.1142578125
-49.4384765625
-52.18505859375
-46.69189453125
-46.69189453125
-46.69189453125
-48.52294921875
-45.7763671875
-45.7763671875
-42.1142578125
-43.9453125
-44.86083984375
-47.607421875
-42.1142578125
-53.1005859375
-47.607421875
-53.1005859375
-47.607421875
-46.69189453125
-46.69189453125
-50.35400390625
-51.26953125
-51.26953125
-46.69189453125
-49.4384765625
-59.50927734375
-46.69189453125
-42.1142578125
-54.01611328125
-59.50927734375
-65.91796875
-54.01611328125
-53.1005859375
-51.26953125
-54.931640625
-56.7626953125
-45.7763671875
-53.1005859375
-47.607421875
-46.69189453125
-38.4521484375
-41.19873046875
-53.1005859375
-46.69189453125
-57.67822265625
-45.7763671875
-44.86083984375
-54.01611328125
-45.7763671875
-56.7626953125
-55.84716796875
-50.35400390625
-51.26953125
-54.01611328125
-42.1142578125
-48.52294921875
-54.01611328125
-56.7626953125
-54.01611328125
-56.7626953125
-45.7763671875
-43.9453125
-49.4384765625
-48.52294921875
-49.4384765625
-41.19873046875
-39.36767578125
-36.62109375
-32.958984375
-52.18505859375
-21.05712890625
-25.634765625
-40.283203125
-46.69189453125
-46.69189453125
-44.86083984375
-34.7900390625
-3.662109375
-6.40869140625
-21.97265625
-31.1279296875
-26.55029296875
-24.71923828125
-24.71923828125
-14.6484375
-10.07080078125
11.90185546875
21.97265625
28.38134765625
24.71923828125
11.90185546875
16.4794921875
10.986328125
-4.57763671875
-6.40869140625
-21.05712890625
-27.4658203125
-18.310546875
-32.958984375
-29.296875
-29.296875
-40.283203125
-31.1279296875
-23.8037109375
-39.36767578125
-32.04345703125
-36.62109375
-32.958984375
-36.62109375
-50.35400390625
-50.35400390625
-55.84716796875
-63.17138671875
-73.2421875
-86.97509765625
-74.15771484375
-76.904296875
-72.32666015625
-65.00244140625
-66.83349609375
-67.7490234375
-75.98876953125
-66.83349609375
-59.50927734375
-74.15771484375
-67.7490234375
-60.4248046875
-61.34033203125
-64.0869140625
-64.0869140625
-48.52294921875
-57.67822265625
-53.1005859375
-54.01611328125
-62.255859375
-60.4248046875
-43.02978515625
-60.4248046875
-78.7353515625
-65.91796875
-76.904296875
-74.15771484375
-60.4248046875
-6.40869140625
58.59375
130.92041015625
180.35888671875
202.33154296875
243.5302734375
306.70166015625
401.0009765625
513.61083984375
592.34619140625
691.22314453125
786.43798828125
930.17578125
1105.95703125
1170.0439453125
1059.26513671875
865.17333984375
582.275390625
392.76123046875
296.630859375
195.9228515625
99.79248046875
49.4384765625
32.04345703125
-14.6484375
-88.80615234375
-159.3017578125
-205.99365234375
-236.2060546875
-218.81103515625
-211.48681640625
-205.99365234375
-184.02099609375
-158.38623046875
-133.6669921875
-90.63720703125
-68.66455078125
-43.9453125
-39.36767578125
-30.21240234375
-40.283203125
-32.958984375
-40.283203125
-34.7900390625
-34.7900390625
-38.4521484375
-31.1279296875
-34.7900390625
-43.02978515625
-54.01611328125
-24.71923828125
-24.71923828125
-42.1142578125
-42.1142578125
-21.05712890625
-18.310546875
-36.62109375
-34.7900390625
-20.1416015625
-23.8037109375
-20.1416015625
-33.87451171875
-28.38134765625
-13.73291015625
-19.22607421875
-8.23974609375
-12.8173828125
-15.56396484375
-8.23974609375
-4.57763671875
-18.310546875
-19.22607421875
-10.986328125
-3.662109375
-24.71923828125
-9.1552734375
-6.40869140625
-13.73291015625
-15.56396484375
-14.6484375
-20.1416015625
-18.310546875
-14.6484375
-2.74658203125
-6.40869140625
-6.40869140625
8.23974609375
-1.8310546875
-2.74658203125
5.4931640625
3.662109375
10.07080078125
11.90185546875
12.8173828125
4.57763671875
18.310546875
5.4931640625
16.4794921875
18.310546875
16.4794921875
16.4794921875
18.310546875
24.71923828125
38.4521484375
32.958984375
23.8037109375
20.1416015625
43.02978515625
45.7763671875
48.52294921875
60.4248046875
60.4248046875
56.7626953125
61.34033203125
73.2421875
73.2421875
80.56640625
78.7353515625
79.65087890625
79.65087890625
89.7216796875
97.0458984375
92.46826171875
97.96142578125
95.21484375
101.62353515625
109.86328125
108.94775390625
107.11669921875
116.27197265625
120.849609375
113.525390625
119.93408203125
126.3427734375
127.25830078125
126.3427734375
116.27197265625
133.6669921875
125.42724609375
126.3427734375
120.849609375
130.0048828125
128.173828125
109.86328125
127.25830078125
125.42724609375
118.10302734375
116.27197265625
97.96142578125
101.62353515625
102.5390625
101.62353515625
95.21484375
80.56640625
75.0732421875
68.66455078125
55.84716796875
51.26953125
42.1142578125
31.1279296875
24.71923828125
17.39501953125
21.05712890625
13.73291015625
-0.91552734375
2.74658203125
0
-18.310546875
-19.22607421875
-9.1552734375
-14.6484375
-21.97265625
-33.87451171875
-44.86083984375
-53.1005859375
-47.607421875
-35.70556640625
-32.958984375
-63.17138671875
-52.18505859375
-57.67822265625
-35.70556640625
-57.67822265625
-63.17138671875
-45.7763671875
-56.7626953125
-59.50927734375
-59.50927734375
-68.66455078125
-53.1005859375
-60.4248046875
-67.7490234375
-72.32666015625
-68.66455078125
-68.66455078125
-75.98876953125
-69.580078125
-62.255859375
-60.4248046875
-62.255859375
-60.4248046875
-65.91796875
-67.7490234375
-64.0869140625
-65.00244140625
-65.91796875
-66.83349609375
-74.15771484375
-57.67822265625
-63.17138671875
-65.91796875
-63.17138671875
-54.01611328125
-69.580078125
-60.4248046875
-51.26953125
-70.49560546875
-72.32666015625
-59.50927734375
-59.50927734375
-53.1005859375
-53.1005859375
-57.67822265625
-51.26953125
-61.34033203125
-50.35400390625
-51.26953125
-57.67822265625
-54.01611328125
-43.9453125
-49.4384765625
-56.7626953125
-51.26953125
-49.4384765625
-38.4521484375
-48.52294921875
-45.7763671875
-62.255859375
-60.4248046875
-39.36767578125
-51.26953125
-57.67822265625
-39.36767578125
-36.62109375
-40.283203125
-41.19873046875
-43.9453125
-44.86083984375
-47.607421875
-48.52294921875
-46.69189453125
-54.01611328125
-49.4384765625
-41.19873046875
-41.19873046875
-36.62109375
-44.86083984375
-46.69189453125
-50.35400390625
-44.86083984375
-43.9453125
-47.607421875
-39.36767578125
-45.7763671875
-52.18505859375
-49.4384765625
-47.607421875
-44.86083984375
-38.4521484375
-43.02978515625
-48.52294921875
-56.7626953125
-52.18505859375
-58.59375
-52.18505859375
-48.52294921875
-56.7626953125
-53.1005859375
-63.17138671875
-50.35400390625
-56.7626953125
-51.26953125
-54.931640625
-44.86083984375
-59.50927734375
-62.255859375
-48.52294921875
-42.1142578125
-56.7626953125
-64.0869140625
-64.0869140625
-63.17138671875
-66.83349609375
-50.35400390625
-58.59375
-54.931640625
-54.01611328125
-58.59375
-61.34033203125
-62.255859375
-44.86083984375
-60.4248046875
-65.91796875
-60.4248046875
-52.18505859375
-40.283203125
-55.84716796875
-62.255859375
-59.50927734375
-62.255859375
-43.9453125
-69.580078125
-66.83349609375
-53.1005859375
-43.9453125
-57.67822265625
-72.32666015625
-63.17138671875
-54.931640625
-49.4384765625
-61.34033203125
-52.18505859375
-58.59375
-66.83349609375
-65.91796875
-60.4248046875
-61.34033203125
-69.580078125
-65.00244140625
-75.0732421875
-65.00244140625
-53.1005859375
-54.01611328125
-61.34033203125
-63.17138671875
-51.26953125
-63.17138671875
-66.83349609375
-48.52294921875
-54.931640625
-42.1142578125
-47.607421875
-66.83349609375
-69.580078125
-58.59375
-54.931640625
-55.84716796875
-42.1142578125
-49.4384765625
-60.4248046875
-49.4384765625
-22.88818359375
-32.04345703125
-41.19873046875
-54.01611328125
-35.70556640625
-28.38134765625
-29.296875
-13.73291015625
-6.40869140625
8.23974609375
0.91552734375
10.986328125
5.4931640625
16.4794921875
1.8310546875
-4.57763671875
-14.6484375
-26.55029296875
-32.04345703125
-36.62109375
-29.296875
-38.4521484375
-46.69189453125
-55.84716796875
-33.87451171875
-36.62109375
-43.9453125
-49.4384765625
-61.34033203125
-36.62109375
-42.1142578125
-49.4384765625
-49.4384765625
-60.4248046875
-71.4111328125
-65.91796875
-75.98876953125
-81.48193359375
-74.15771484375
-87.890625
-83.31298828125
-76.904296875
-73.2421875
-75.0732421875
-73.2421875
-75.0732421875
-80.56640625
-83.31298828125
-81.48193359375
-73.2421875
-71.4111328125
-84.228515625
-79.65087890625
-72.32666015625
-73.2421875
-70.49560546875
-82.3974609375
-69.580078125
-61.34033203125
-66.83349609375
-67.7490234375
-75.0732421875
-80.56640625
-92.46826171875
-101.62353515625
-84.228515625
-34.7900390625
28.38134765625
104.3701171875
159.3017578125
179.443359375
205.078125
266.41845703125
334.16748046875
435.791015625
509.94873046875
569.4580078125
654.60205078125
823.974609375
988.76953125
1075.74462890625
990.6005859375
802.001953125
555.72509765625
383.60595703125
320.4345703125
212.40234375
122.6806640625
91.552734375
101.62353515625
86.97509765625
41.19873046875
-28.38134765625
-115.3564453125
-181.2744140625
-227.96630859375
-226.13525390625
-214.2333984375
-195.00732421875
-192.2607421875
-181.2744140625
-165.71044921875
-141.90673828125
-112.60986328125
-92.46826171875
-67.7490234375
-46.69189453125
-54.01611328125
-54.01611328125
-48.52294921875
-53.1005859375
-51.26953125
-52.18505859375
-50.35400390625
-47.607421875
-28.38134765625
-49.4384765625
-40.283203125
-43.02978515625
-52.18505859375
-37.53662109375
-36.62109375
-42.1142578125
-47.607421875
-29.296875
-44.86083984375
-39.36767578125
-43.9453125
-54.01611328125
-33.87451171875
-38.4521484375
-43.02978515625
-42.1142578125
-22.88818359375
-16.4794921875
-36.62109375
-41.19873046875
-15.56396484375
-19.22607421875
-28.38134765625
-33.87451171875
-16.4794921875
-18.310546875
-11.90185546875
-16.4794921875
-27.4658203125
-19.22607421875
-21.05712890625
-17.39501953125
-17.39501953125
-30.21240234375
-24.71923828125
-17.39501953125
-18.310546875
-10.986328125
-11.90185546875
-11.90185546875
-2.74658203125
2.74658203125
-1.8310546875
-2.74658203125
-3.662109375
-4.57763671875
0.91552734375
15.56396484375
1.8310546875
7.32421875
4.57763671875
10.986328125
24.71923828125
26.55029296875
18.310546875
20.1416015625
24.71923828125
23.8037109375
35.70556640625
34.7900390625
29.296875
42.1142578125
65.91796875
54.931640625
54.931640625
54.01611328125
58.59375
59.50927734375
71.4111328125
75.98876953125
73.2421875
83.31298828125
83.31298828125
82.3974609375
86.0595703125
87.890625
99.79248046875
86.0595703125
80.56640625
93.3837890625
102.5390625
101.62353515625
100.7080078125
93.3837890625
89.7216796875
108.0322265625
112.60986328125
99.79248046875
102.5390625
104.3701171875
117.1875
108.94775390625
115.3564453125
108.94775390625
85.14404296875
83.31298828125
97.0458984375
90.63720703125
90.63720703125
81.48193359375
69.580078125
76.904296875
60.4248046875
61.34033203125
57.67822265625
42.1142578125
50.35400390625
43.02978515625
20.1416015625
12.8173828125
8.23974609375
5.4931640625
-0.91552734375
-0.91552734375
-10.986328125
-21.05712890625
-13.73291015625
-24.71923828125
-39.36767578125
-35.70556640625
-43.02978515625
-34.7900390625
-44.86083984375
-39.36767578125
-51.26953125
-48.52294921875
-52.18505859375
-54.01611328125
-58.59375
-55.84716796875
-60.4248046875
-66.83349609375
-71.4111328125
-67.7490234375
-70.49560546875
-64.0869140625
-65.00244140625
-62.255859375
-53.1005859375
-71.4111328125
-70.49560546875
-72.32666015625
-82.3974609375
-70.49560546875
-60.4248046875
-69.580078125
-66.83349609375
-60.4248046875
-63.17138671875
-54.01611328125
-75.98876953125
-66.83349609375
-70.49560546875
-71.4111328125
-75.0732421875
-58.59375
-55.84716796875
-64.0869140625
-74.15771484375
-60.4248046875
-59.50927734375
-65.91796875
-63.17138671875
-59.50927734375
-70.49560546875
-68.66455078125
-61.34033203125
-68.66455078125
-55.84716796875
-54.931640625
-71.4111328125
-46.69189453125
-60.4248046875
-64.0869140625
-63.17138671875
-59.50927734375
-60.4248046875
-44.86083984375
-60.4248046875
-54.931640625
-56.7626953125
-54.01611328125
-56.7626953125
-51.26953125
-54.931640625
-63.17138671875
-46.69189453125
-44.86083984375
-50.35400390625
-50.35400390625
-47.607421875
-50.35400390625
-46.69189453125
-45.7763671875
-41.19873046875
-49.4384765625
-48.52294921875
-47.607421875
-50.35400390625
-47.607421875
-44.86083984375
-46.69189453125
-45.7763671875
-45.7763671875
-54.01611328125
-61.34033203125
-53.1005859375
-37.53662109375
-43.9453125
-43.9453125
-68.66455078125
-51.26953125
-40.283203125
-52.18505859375
-44.86083984375
-46.69189453125
-48.52294921875
-54.01611328125
-49.4384765625
-49.4384765625
-67.7490234375
-56.7626953125
-52.18505859375
-65.00244140625
-54.931640625
-48.52294921875
-53.1005859375
-54.01611328125
-69.580078125
-60.4248046875
-60.4248046875
-59.50927734375
-56.7626953125
-52.18505859375
-65.00244140625
-63.17138671875
-62.255859375
-49.4384765625
-74.15771484375
-60.4248046875
-49.4384765625
-62.255859375
-69.580078125
-57.67822265625
-50.35400390625
-58.59375
-59.50927734375
-54.01611328125
-54.931640625
-63.17138671875
-64.0869140625
-61.34033203125
-57.67822265625
-59.50927734375
-68.66455078125
-48.52294921875
-49.4384765625
-56.7626953125
-58.59375
-66.83349609375
-60.4248046875
-64.0869140625
-58.59375
-42.1142578125
-46.69189453125
-56.7626953125
-53.1005859375
-52.18505859375
-54.931640625
-52.18505859375
-28.38134765625
-13.73291015625
-40.283203125
-37.53662109375
-43.9453125
-39.36767578125
-32.958984375
-21.05712890625
-10.07080078125
-4.57763671875
-0.91552734375
15.56396484375
21.05712890625
17.39501953125
0
-6.40869140625
-3.662109375
-20.1416015625
-19.22607421875
-21.97265625
-33.87451171875
-44.86083984375
-43.9453125
-45.7763671875
-51.26953125
-50.35400390625
-51.26953125
-50.35400390625
-31.1279296875
-47.607421875
-48.52294921875
-58.59375
-51.26953125
-56.7626953125
-62.255859375
-70.49560546875
-80.56640625
-77.81982421875
-82.3974609375
-86.97509765625
-77.81982421875
-75.98876953125
-77.81982421875
-98.876953125
-83.31298828125
-65.00244140625
-68.66455078125
-78.7353515625
-73.2421875
-79.65087890625
-77.81982421875
-75.0732421875
-73.2421875
-69.580078125
-74.15771484375
-66.83349609375
-63.17138671875
-72.32666015625
-77.81982421875
-69.580078125
-76.904296875
-75.0732421875
-86.0595703125
-100.7080078125
-97.0458984375
-86.0595703125
-27.4658203125
35.70556640625
105.28564453125
167.54150390625
188.5986328125
215.14892578125
294.7998046875
364.3798828125
470.5810546875
569.4580078125
652.77099609375
746.15478515625
885.31494140625
1055.60302734375
1172.79052734375
1107.7880859375
898.13232421875
638.12255859375
437.6220703125
327.7587890625
211.48681640625
115.3564453125
65.00244140625
58.59375
28.38134765625
-47.607421875
-106.201171875
-170.2880859375
-216.064453125
-232.5439453125
-218.81103515625
-206.9091796875
-186.767578125
-186.767578125
-172.119140625
-140.9912109375
-111.6943359375
-74.15771484375
-60.4248046875
-58.59375
-44.86083984375
-52.18505859375
-43.9453125
-45.7763671875
-47.607421875
-51.26953125
-37.53662109375
-43.9453125
-43.9453125
-46.69189453125
-44.86083984375
-44.86083984375
-32.04345703125
-34.7900390625
-38.4521484375
-22.88818359375
-38.4521484375
-32.04345703125
-26.55029296875
-34.7900390625
-21.97265625
-24.71923828125
-21.97265625
-31.1279296875
-30.21240234375
-26.55029296875
-21.05712890625
-28.38134765625
-24.71923828125
-25.634765625
-10.986328125
-14.6484375
-16.4794921875
-20.1416015625
-27.4658203125
-21.97265625
-19.22607421875
-25.634765625
-23.8037109375
-20.1416015625
-5.4931640625
-10.986328125
-4.57763671875
-19.22607421875
-8.23974609375
-4.57763671875
-7.32421875
-5.4931640625
-9.1552734375
2.74658203125
9.1552734375
5.4931640625
1.8310546875
9.1552734375
19.22607421875
16.4794921875
10.986328125
15.56396484375
21.05712890625
23.8037109375
32.04345703125
27.4658203125
38.4521484375
31.1279296875
32.04345703125
36.62109375
39.36767578125
48.52294921875
53.1005859375
56.7626953125
59.50927734375
56.7626953125
65.91796875
59.50927734375
74.15771484375
79.65087890625
80.56640625
82.3974609375
94.29931640625
95.21484375
96.13037109375
95.21484375
90.63720703125
95.21484375
104.3701171875
108.94775390625
112.60986328125
105.28564453125
120.849609375
133.6669921875
131.8359375
131.8359375
122.6806640625
124.51171875
132.75146484375
140.9912109375
133.6669921875
124.51171875
124.51171875
136.41357421875
130.92041015625
127.25830078125
138.24462890625
133.6669921875
119.0185546875
118.10302734375
115.3564453125
114.44091796875
96.13037109375
96.13037109375
103.45458984375
95.21484375
87.890625
77.81982421875
57.67822265625
50.35400390625
56.7626953125
46.69189453125
25.634765625
33.87451171875
27.4658203125
28.38134765625
21.97265625
-12.8173828125
-8.23974609375
-21.97265625
-9.1552734375
-16.4794921875
-29.296875
-40.283203125
-41.19873046875
-34.7900390625
-36.62109375
-54.931640625
-48.52294921875
-50.35400390625
-50.35400390625
-56.7626953125
-61.34033203125
-65.00244140625
-50.35400390625
-43.9453125
-52.18505859375
-58.59375
-69.580078125
-59.50927734375
-57.67822265625
-63.17138671875
-72.32666015625
-59.50927734375
-65.91796875
-57.67822265625
-65.00244140625
-67.7490234375
-75.0732421875
-65.91796875
-63.17138671875
-70.49560546875
-73.2421875
-69.580078125
-63.17138671875
-61.34033203125
-61.34033203125
-68.66455078125
-65.00244140625
-83.31298828125
-58.59375
-62.255859375
-64.0869140625
-74.15771484375
-70.49560546875
-66.83349609375
-66.83349609375
-72.32666015625
-73.2421875
-63.17138671875
-54.01611328125
-65.91796875
-57.67822265625
-58.59375
-62.255859375
-56.7626953125
-57.67822265625
-61.34033203125
-53.1005859375
-56.7626953125
-70.49560546875
-65.00244140625
-47.607421875
-46.69189453125
-61.34033203125
-54.01611328125
-44.86083984375
-51.26953125
-49.4384765625
-50.35400390625
-51.26953125
-57.67822265625
-53.1005859375
-60.4248046875
-50.35400390625
-42.1142578125
-46.69189453125
-43.9453125
-50.35400390625
-43.02978515625
-36.62109375
-43.02978515625
-44.86083984375
-31.1279296875
-32.958984375
-54.01611328125
-52.18505859375
-41.19873046875
-45.7763671875
-36.62109375
-35.70556640625
-45.7763671875
-50.35400390625
-33.87451171875
-40.283203125
-44.86083984375
-54.931640625
-45.7763671875
-55.84716796875
-46.69189453125
-49.4384765625
-44.86083984375
-43.02978515625
-40.283203125
-45.7763671875
-47.607421875
-52.18505859375
-55.84716796875
-42.1142578125
-43.9453125
-58.59375
-58.59375
-55.84716796875
-57.67822265625
-48.52294921875
-47.607421875
-58.59375
-54.01611328125
-43.02978515625
-41.19873046875
-46.69189453125
-59.50927734375
-59.50927734375
-42.1142578125
-43.9453125
-54.01611328125
-62.255859375
-54.931640625
-46.69189453125
-53.1005859375
-49.4384765625
-56.7626953125
-54.931640625
-55.84716796875
-55.84716796875
-48.52294921875
-54.01611328125
-52.18505859375
-57.67822265625
-55.84716796875
-51.26953125
-52.18505859375
-54.01611328125
-54.01611328125
-58.59375
-60.4248046875
-53.1005859375
-58.59375
-66.83349609375
-57.67822265625
-52.18505859375
-59.50927734375
-62.255859375
-60.4248046875
-58.59375
-47.607421875
-46.69189453125
-63.17138671875
-73.2421875
-58.59375
-55.84716796875
-67.7490234375
-69.580078125
-40.283203125
-46.69189453125
-36.62109375
-33.87451171875
-43.9453125
-46.69189453125
-41.19873046875
-43.02978515625
-45.7763671875
-54.931640625
-45.7763671875
-28.38134765625
-31.1279296875
-24.71923828125
-20.1416015625
-28.38134765625
-36.62109375
-43.02978515625
-28.38134765625
-16.4794921875
-5.4931640625
10.07080078125
11.90185546875
10.986328125
16.4794921875
17.39501953125
9.1552734375
-1.8310546875
-7.32421875
-18.310546875
-27.4658203125
-33.87451171875
-28.38134765625
-18.310546875
-42.1142578125
-48.52294921875
-39.36767578125
-29.296875
-41.19873046875
-38.4521484375
-38.4521484375
-36.62109375
-37.53662109375
-39.36767578125
-55.84716796875
-44.86083984375
-61.34033203125
-57.67822265625
-53.1005859375
-76.904296875
-72.32666015625
-76.904296875
-89.7216796875
-69.580078125
-69.580078125
-76.904296875
-70.49560546875
-69.580078125
-68.66455078125
-75.98876953125
-75.0732421875
-69.580078125
-75.0732421875
-60.4248046875
-65.91796875
-82.3974609375
-65.91796875
-52.18505859375
-69.580078125
-74.15771484375
-63.17138671875
-55.84716796875
-59.50927734375
-78.7353515625
-68.66455078125
-83.31298828125
-89.7216796875
-72.32666015625
-27.4658203125
44.86083984375
131.8359375
166.6259765625
211.48681640625
255.43212890625
298.4619140625
379.94384765625
501.708984375
597.83935546875
683.89892578125
790.10009765625
917.3583984375
1081.23779296875
1184.6923828125
1119.68994140625
928.3447265625
659.1796875
433.04443359375
324.0966796875
224.30419921875
117.1875
63.17138671875
29.296875
-31.1279296875
-101.62353515625
-161.1328125
-201.416015625
-221.5576171875
-217.8955078125
-207.82470703125
-190.4296875
-180.35888671875
-169.37255859375
-149.23095703125
-103.45458984375
-60.4248046875
-43.02978515625
-39.36767578125
-27.4658203125
-41.19873046875
-37.53662109375
-27.4658203125
-36.62109375
-32.958984375
-43.9453125
-36.62109375
-42.1142578125
-22.88818359375
-35.70556640625
-29.296875
-22.88818359375
-30.21240234375
-26.55029296875
-28.38134765625
-20.1416015625
-21.97265625
-28.38134765625
-28.38134765625
-23.8037109375
-22.88818359375
-25.634765625
-22.88818359375
-25.634765625
-20.1416015625
-13.73291015625
-18.310546875
-29.296875
-23.8037109375
-7.32421875
-7.32421875
-10.986328125
-14.6484375
-21.05712890625
-3.662109375
1.8310546875
-10.986328125
-15.56396484375
0
0
-10.986328125
-4.57763671875
-2.74658203125
-0.91552734375
3.662109375
5.4931640625
5.4931640625
-8.23974609375
0
8.23974609375
10.986328125
4.57763671875
10.986328125
20.1416015625
18.310546875
23.8037109375
20.1416015625
26.55029296875
23.8037109375
24.71923828125
32.04345703125
42.1142578125
36.62109375
37.53662109375
48.52294921875
59.50927734375
56.7626953125
53.1005859375
56.7626953125
58.59375
55.84716796875
67.7490234375
79.65087890625
77.81982421875
75.0732421875
84.228515625
88.80615234375
92.46826171875
95.21484375
94.29931640625
96.13037109375
108.0322265625
111.6943359375
113.525390625
122.6806640625
127.25830078125
119.0185546875
121.76513671875
125.42724609375
132.75146484375
128.173828125
130.0048828125
140.07568359375
145.56884765625
140.9912109375
143.73779296875
140.9912109375
163.87939453125
152.89306640625
157.470703125
158.38623046875
148.3154296875
144.6533203125
150.146484375
137.3291015625
144.6533203125
136.41357421875
133.6669921875
119.0185546875
118.10302734375
114.44091796875
97.0458984375
97.96142578125
99.79248046875
92.46826171875
81.48193359375
57.67822265625
56.7626953125
63.17138671875
58.59375
34.7900390625
21.97265625
26.55029296875
13.73291015625
19.22607421875
15.56396484375
5.4931640625
-10.07080078125
-11.90185546875
-7.32421875
-15.56396484375
-29.296875
-22.88818359375
-28.38134765625
-32.958984375
-34.7900390625
-37.53662109375
-48.52294921875
-40.283203125
-40.283203125
-44.86083984375
-49.4384765625
-61.34033203125
-48.52294921875
-43.9453125
-41.19873046875
-51.26953125
-60.4248046875
-59.50927734375
-51.26953125
-56.7626953125
-54.01611328125
-51.26953125
-51.26953125
-50.35400390625
-46.69189453125
-62.255859375
-66.83349609375
-54.01611328125
-55.84716796875
-67.7490234375
-60.4248046875
-47.607421875
-54.01611328125
-55.84716796875
-53.1005859375
-54.931640625
-58.59375
-59.50927734375
-58.59375
-56.7626953125
-56.7626953125
-61.34033203125
-52.18505859375
-48.52294921875
-46.69189453125
-58.59375
-58.59375
-52.18505859375
-50.35400390625
-53.1005859375
-53.1005859375
-56.7626953125
-62.255859375
-46.69189453125
-47.607421875
-34.7900390625
-39.36767578125
-32.958984375
-44.86083984375
-53.1005859375
-50.35400390625
-48.52294921875
-43.9453125
-46.69189453125
-31.1279296875
-35.70556640625
-54.931640625
-56.7626953125
-45.7763671875
-43.9453125
-51.26953125
-21.97265625
-39.36767578125
-48.52294921875
-37.53662109375
-32.04345703125
-43.9453125
-52.18505859375
-39.36767578125
-31.1279296875
-41.19873046875
-48.52294921875
-32.958984375
-37.53662109375
-43.02978515625
-48.52294921875
-47.607421875
-37.53662109375
-35.70556640625
-54.01611328125
-43.02978515625
-45.7763671875
-43.02978515625
-46.69189453125
-51.26953125
-40.283203125
-39.36767578125
-40.283203125
-40.283203125
-50.35400390625
-43.9453125
-43.02978515625
-54.01611328125
-43.9453125
-42.1142578125
-37.53662109375
-45.7763671875
-43.02978515625
-40.283203125
-44.86083984375
-44.86083984375
-37.53662109375
-49.4384765625
-54.931640625
-35.70556640625
-43.02978515625
-47.607421875
-45.7763671875
-42.1142578125
-44.86083984375
-43.9453125
-43.9453125
-52.18505859375
-50.35400390625
-51.26953125
-49.4384765625
-45.7763671875
-53.1005859375
-47.607421875
-58.59375
-45.7763671875
-43.9453125
-54.01611328125
-61.34033203125
-54.931640625
-49.4384765625
-48.52294921875
-43.9453125
-57.67822265625
-45.7763671875
-44.86083984375
-52.18505859375
-51.26953125
-54.931640625
-45.7763671875
-52.18505859375
-55.84716796875
-46.69189453125
-49.4384765625
-50.35400390625
-50.35400390625
-55.84716796875
-49.4384765625
-41.19873046875
-42.1142578125
-40.283203125
-54.01611328125
-50.35400390625
-69.580078125
-45.7763671875
-54.01611328125
-55.84716796875
-47.607421875
-42.1142578125
-55.84716796875
-48.52294921875
-39.36767578125
-50.35400390625
-47.607421875
-35.70556640625
-39.36767578125
-45.7763671875
-36.62109375
-35.70556640625
-38.4521484375
-34.7900390625
-26.55029296875
1.8310546875
-14.6484375
-24.71923828125
-30.21240234375
-35.70556640625
-37.53662109375
-21.05712890625
-16.4794921875
-9.1552734375
19.22607421875
18.310546875
23.8037109375
27.4658203125
14.6484375
10.986328125
3.662109375
1.8310546875
-10.07080078125
-19.22607421875
-22.88818359375
-31.1279296875
-34.7900390625
-23.8037109375
-34.7900390625
-39.36767578125
-40.283203125
-21.97265625
-30.21240234375
-33.87451171875
-47.607421875
-23.8037109375
-41.19873046875
-40.283203125
-54.01611328125
-53.1005859375
-63.17138671875
-65.91796875
-60.4248046875
-83.31298828125
-79.65087890625
-60.4248046875
-63.17138671875
-67.7490234375
-75.0732421875
-70.49560546875
-72.32666015625
-65.91796875
-64.0869140625
-65.91796875
-66.83349609375
-60.4248046875
-62.255859375
-68.66455078125
-59.50927734375
-60.4248046875
-58.59375
-58.59375
-54.01611328125
-46.69189453125
-56.7626953125
-59.50927734375
-64.0869140625
-67.7490234375
-69.580078125
-86.0595703125
-72.32666015625
-18.310546875
51.26953125
131.8359375
185.85205078125
230.712890625
250.8544921875
310.36376953125
395.5078125
488.8916015625
590.51513671875
699.462890625
809.326171875
939.3310546875
1093.1396484375
1182.861328125
1107.7880859375
892.63916015625
611.572265625
415.6494140625
309.4482421875
216.97998046875
119.0185546875
60.4248046875
32.958984375
-21.97265625
-83.31298828125
-144.6533203125
-192.2607421875
-220.64208984375
-225.2197265625
-206.9091796875
-199.5849609375
-191.34521484375
-164.794921875
-139.16015625
-88.80615234375
-43.9453125
-38.4521484375
-19.22607421875
-28.38134765625
-26.55029296875
-29.296875
-30.21240234375
-31.1279296875
-33.87451171875
-45.7763671875
-22.88818359375
-35.70556640625
-31.1279296875
-36.62109375
-20.1416015625
-18.310546875
-30.21240234375
-29.296875
-18.310546875
-20.1416015625
-29.296875
-29.296875
-16.4794921875
-27.4658203125
-19.22607421875
-16.4794921875
-20.1416015625
-18.310546875
-20.1416015625
-21.05712890625
-1.8310546875
-18.310546875
-18.310546875
-15.56396484375
-23.8037109375
-14.6484375
-10.986328125
-8.23974609375
-6.40869140625
9.1552734375
10.07080078125
-5.4931640625
-10.07080078125
-2.74658203125
2.74658203125
8.23974609375
1.8310546875
6.40869140625
-0.91552734375
-5.4931640625
10.986328125
7.32421875
11.90185546875
22.88818359375
9.1552734375
16.4794921875
26.55029296875
17.39501953125
17.39501953125
29.296875
27.4658203125
24.71923828125
27.4658203125
39.36767578125
30.21240234375
32.04345703125
29.296875
49.4384765625
59.50927734375
54.01611328125
51.26953125
60.4248046875
42.1142578125
53.1005859375
65.00244140625
62.255859375
54.931640625
70.49560546875
83.31298828125
81.48193359375
76.904296875
82.3974609375
98.876953125
101.62353515625
94.29931640625
102.5390625
109.86328125
107.11669921875
109.86328125
115.3564453125
119.93408203125
120.849609375
130.92041015625
140.9912109375
122.6806640625
123.59619140625
130.0048828125
125.42724609375
130.92041015625
139.16015625
146.484375
140.07568359375
142.822265625
138.24462890625
142.822265625
138.24462890625
138.24462890625
145.56884765625
133.6669921875
127.25830078125
130.0048828125
129.08935546875
121.76513671875
114.44091796875
108.0322265625
109.86328125
98.876953125
83.31298828125
82.3974609375
74.15771484375
68.66455078125
56.7626953125
38.4521484375
40.283203125
45.7763671875
34.7900390625
22.88818359375
21.05712890625
17.39501953125
9.1552734375
2.74658203125
-10.986328125
-9.1552734375
-21.05712890625
-30.21240234375
-21.97265625
-22.88818359375
-21.05712890625
-34.7900390625
-35.70556640625
-43.9453125
-41.19873046875
-47.607421875
-40.283203125
-39.36767578125
-32.04345703125
-40.283203125
-51.26953125
-49.4384765625
-54.01611328125
-55.84716796875
-49.4384765625
-58.59375
-52.18505859375
-51.26953125
-57.67822265625
-67.7490234375
-53.1005859375
-56.7626953125
-43.02978515625
-54.931640625
-61.34033203125
-60.4248046875
-60.4248046875
-47.607421875
-46.69189453125
-65.00244140625
-64.0869140625
-55.84716796875
-51.26953125
-54.01611328125
-53.1005859375
-47.607421875
-51.26953125
-44.86083984375
-60.4248046875
-55.84716796875
-65.00244140625
-54.01611328125
-55.84716796875
-55.84716796875
-56.7626953125
-57.67822265625
-39.36767578125
-44.86083984375
-46.69189453125
-54.01611328125
-47.607421875
-44.86083984375
-34.7900390625
-31.1279296875
-42.1142578125
-54.01611328125
-50.35400390625
-49.4384765625
-49.4384765625
-43.9453125
-43.9453125
-53.1005859375
-39.36767578125
-37.53662109375
-48.52294921875
-34.7900390625
-41.19873046875
-38.4521484375
-34.7900390625
-31.1279296875
-38.4521484375
-39.36767578125
-38.4521484375
-38.4521484375
-42.1142578125
-40.283203125
-35.70556640625
-28.38134765625
-29.296875
-33.87451171875
-40.283203125
-32.958984375
-32.04345703125
-40.283203125
-39.36767578125
-43.9453125
-42.1142578125
-32.958984375
-36.62109375
-36.62109375
-36.62109375
-42.1142578125
-41.19873046875
-41.19873046875
-34.7900390625
-44.86083984375
-53.1005859375
-45.7763671875
-47.607421875
-44.86083984375
-38.4521484375
-33.87451171875
-33.87451171875
-41.19873046875
-39.36767578125
-43.02978515625
-41.19873046875
-43.02978515625
-33.87451171875
-46.69189453125
-54.931640625
-46.69189453125
-43.02978515625
-52.18505859375
-47.607421875
-47.607421875
-42.1142578125
-38.4521484375
-46.69189453125
-48.52294921875
-44.86083984375
-40.283203125
-59.50927734375
-55.84716796875
-44.86083984375
-58.59375
-54.01611328125
-39.36767578125
-47.607421875
-53.1005859375
-49.4384765625
-72.32666015625
-45.7763671875
-46.69189453125
-61.34033203125
-51.26953125
-50.35400390625
-46.69189453125
-43.02978515625
-55.84716796875
-52.18505859375
-49.4384765625
-50.35400390625
-40.283203125
-54.01611328125
-54.01611328125
-57.67822265625
-53.1005859375
-49.4384765625
-57.67822265625
-51.26953125
-50.35400390625
-48.52294921875
-64.0869140625
-74.15771484375
-67.7490234375
-45.7763671875
-42.1142578125
-54.931640625
-49.4384765625
-44.86083984375
-45.7763671875
-44.86083984375
-35.70556640625
-42.1142578125
-42.1142578125
-41.19873046875
-46.69189453125
-49.4384765625
-51.26953125
-37.53662109375
-42.1142578125
-42.1142578125
-24.71923828125
-15.56396484375
-31.1279296875
-31.1279296875
-38.4521484375
-26.55029296875
-11.90185546875
-19.22607421875
-10.07080078125
5.4931640625
12.8173828125
24.71923828125
18.310546875
19.22607421875
13.73291015625
10.986328125
4.57763671875
-27.4658203125
-30.21240234375
-32.958984375
-21.97265625
-32.958984375
-39.36767578125
-44.86083984375
-42.1142578125
-40.283203125
-43.02978515625
-37.53662109375
-40.283203125
-43.9453125
-53.1005859375
-49.4384765625
-50.35400390625
-53.1005859375
-60.4248046875
-72.32666015625
-87.890625
-76.904296875
-60.4248046875
-73.2421875
-81.48193359375
-84.228515625
-81.48193359375
-86.0595703125
-71.4111328125
-64.0869140625
-84.228515625
-82.3974609375
-86.0595703125
-69.580078125
-58.59375
-71.4111328125
-80.56640625
-70.49560546875
-63.17138671875
-58.59375
-67.7490234375
-62.255859375
-65.00244140625
-61.34033203125
-68.66455078125
-77.81982421875
-80.56640625
-106.201171875
-89.7216796875
-60.4248046875
-28.38134765625
48.52294921875
131.8359375
172.119140625
185.85205078125
222.47314453125
288.39111328125
359.80224609375
475.15869140625
569.4580078125
637.20703125
744.32373046875
865.17333984375
1051.94091796875
1123.35205078125
1013.48876953125
816.650390625
563.96484375
408.3251953125
291.1376953125
196.83837890625
112.60986328125
75.98876953125
59.50927734375
16.4794921875
-68.66455078125
-119.0185546875
-183.10546875
-217.8955078125
-224.30419921875
-223.388671875
-199.5849609375
-185.85205078125
-195.9228515625
-181.2744140625
-141.90673828125
-97.0458984375
-77.81982421875
-38.4521484375
-43.9453125
-48.52294921875
-47.607421875
-39.36767578125
-43.02978515625
-35.70556640625
-46.69189453125
-53.1005859375
-57.67822265625
-36.62109375
-37.53662109375
-49.4384765625
-50.35400390625
-45.7763671875
-43.02978515625
-47.607421875
-38.4521484375
-31.1279296875
-30.21240234375
-42.1142578125
-39.36767578125
-28.38134765625
-39.36767578125
-34.7900390625
-40.283203125
-32.04345703125
-39.36767578125
-26.55029296875
-23.8037109375
-19.22607421875
-22.88818359375
-32.958984375
-40.283203125
-15.56396484375
-20.1416015625
-33.87451171875
-28.38134765625
-28.38134765625
-13.73291015625
-11.90185546875
-13.73291015625
-15.56396484375
-19.22607421875
-19.22607421875
-13.73291015625
-14.6484375
-14.6484375
-17.39501953125
-8.23974609375
-13.73291015625
-3.662109375
-1.8310546875
0
0.91552734375
-0.91552734375
-0.91552734375
8.23974609375
9.1552734375
8.23974609375
17.39501953125
6.40869140625
20.1416015625
30.21240234375
20.1416015625
13.73291015625
1.8310546875
36.62109375
36.62109375
35.70556640625
34.7900390625
41.19873046875
46.69189453125
47.607421875
55.84716796875
49.4384765625
44.86083984375
60.4248046875
65.91796875
65.00244140625
71.4111328125
77.81982421875
65.91796875
83.31298828125
82.3974609375
91.552734375
105.28564453125
94.29931640625
97.96142578125
93.3837890625
106.201171875
90.63720703125
101.62353515625
108.0322265625
108.94775390625
105.28564453125
116.27197265625
106.201171875
102.5390625
104.3701171875
104.3701171875
115.3564453125
108.94775390625
116.27197265625
119.0185546875
121.76513671875
118.10302734375
95.21484375
109.86328125
114.44091796875
95.21484375
85.14404296875
78.7353515625
78.7353515625
83.31298828125
83.31298828125
56.7626953125
43.02978515625
40.283203125
46.69189453125
37.53662109375
32.958984375
27.4658203125
13.73291015625
13.73291015625
5.4931640625
2.74658203125
-3.662109375
-16.4794921875
-15.56396484375
-24.71923828125
-21.05712890625
-28.38134765625
-43.02978515625
-49.4384765625
-33.87451171875
-43.9453125
-62.255859375
-54.01611328125
-58.59375
-63.17138671875
-63.17138671875
-63.17138671875
-66.83349609375
-61.34033203125
-60.4248046875
-54.01611328125
-71.4111328125
-70.49560546875
-65.91796875
-80.56640625
-78.7353515625
-76.904296875
-76.904296875
-72.32666015625
-63.17138671875
-84.228515625
-80.56640625
-71.4111328125
-75.0732421875
-67.7490234375
-69.580078125
-75.98876953125
-76.904296875
-79.65087890625
-83.31298828125
-86.97509765625
-82.3974609375
-83.31298828125
