ECG
1103.21044921875
833.1298828125
552.06298828125
402.83203125
299.37744140625
184.02099609375
108.0322265625
83.31298828125
22.88818359375
-56.7626953125
-108.94775390625
-155.6396484375
-193.17626953125
-182.18994140625
-178.52783203125
-165.71044921875
-152.89306640625
-120.849609375
-110.77880859375
-68.66455078125
-20.1416015625
14.6484375
21.97265625
24.71923828125
20.1416015625
12.8173828125
19.22607421875
11.90185546875
14.6484375
11.90185546875
9.1552734375
13.73291015625
18.310546875
31.1279296875
23.8037109375
15.56396484375
18.310546875
23.8037109375
20.1416015625
12.8173828125
28.38134765625
29.296875
34.7900390625
28.38134765625
35.70556640625
29.296875
21.97265625
32.04345703125
26.55029296875
21.97265625
42.1142578125
40.283203125
25.634765625
29.296875
39.36767578125
38.4521484375
39.36767578125
41.19873046875
43.02978515625
43.02978515625
43.9453125
43.02978515625
47.607421875
46.69189453125
56.7626953125
48.52294921875
54.931640625
49.4384765625
54.931640625
50.35400390625
53.1005859375
61.34033203125
59.50927734375
64.0869140625
70.49560546875
73.2421875
68.66455078125
75.98876953125
67.7490234375
69.580078125
70.49560546875
71.4111328125
85.14404296875
80.56640625
88.80615234375
84.228515625
86.97509765625
89.7216796875
96.13037109375
99.79248046875
95.21484375
103.45458984375
108.94775390625
108.94775390625
113.525390625
117.1875
115.3564453125
119.0185546875
125.42724609375
129.08935546875
135.498046875
130.92041015625
142.822265625
149.23095703125
149.23095703125
151.06201171875
158.38623046875
162.9638671875
158.38623046875
165.71044921875
172.119140625
177.6123046875
170.2880859375
177.6123046875
179.443359375
194.091796875
194.091796875
180.35888671875
184.02099609375
182.18994140625
192.2607421875
192.2607421875
197.75390625
188.5986328125
189.51416015625
195.9228515625
194.091796875
184.9365234375
180.35888671875
177.6123046875
175.78125
171.20361328125
173.03466796875
162.9638671875
171.20361328125
168.45703125
153.80859375
146.484375
141.90673828125
135.498046875
133.6669921875
120.849609375
113.525390625
103.45458984375
97.0458984375
101.62353515625
85.14404296875
76.904296875
76.904296875
65.91796875
61.34033203125
59.50927734375
45.7763671875
43.9453125
33.87451171875
33.87451171875
30.21240234375
29.296875
21.97265625
15.56396484375
17.39501953125
19.22607421875
9.1552734375
9.1552734375
10.07080078125
5.4931640625
6.40869140625
-1.8310546875
-5.4931640625
-4.57763671875
-1.8310546875
10.986328125
-0.91552734375
-1.8310546875
3.662109375
-1.8310546875
1.8310546875
-11.90185546875
-13.73291015625
-9.1552734375
-6.40869140625
-4.57763671875
-7.32421875
0
0
-5.4931640625
-5.4931640625
-2.74658203125
-0.91552734375
-5.4931640625
-5.4931640625
-13.73291015625
-3.662109375
-3.662109375
-14.6484375
-11.90185546875
5.4931640625
-1.8310546875
-8.23974609375
-8.23974609375
-5.4931640625
-2.74658203125
2.74658203125
3.662109375
1.8310546875
-5.4931640625
2.74658203125
2.74658203125
-7.32421875
-3.662109375
3.662109375
2.74658203125
3.662109375
5.4931640625
8.23974609375
5.4931640625
3.662109375
6.40869140625
10.07080078125
1.8310546875
0
2.74658203125
3.662109375
1.8310546875
2.74658203125
-0.91552734375
5.4931640625
2.74658203125
-7.32421875
9.1552734375
10.07080078125
17.39501953125
6.40869140625
8.23974609375
10.986328125
12.8173828125
-2.74658203125
0
0.91552734375
3.662109375
5.4931640625
6.40869140625
-0.91552734375
3.662109375
-2.74658203125
-2.74658203125
-1.8310546875
0
-9.1552734375
-5.4931640625
2.74658203125
5.4931640625
5.4931640625
-3.662109375
-10.986328125
-8.23974609375
-4.57763671875
-5.4931640625
-9.1552734375
-13.73291015625
-9.1552734375
-4.57763671875
0
-11.90185546875
-21.05712890625
-18.310546875
-23.8037109375
-19.22607421875
-13.73291015625
-8.23974609375
-10.986328125
-11.90185546875
-8.23974609375
-9.1552734375
-13.73291015625
-9.1552734375
-24.71923828125
-16.4794921875
-12.8173828125
-12.8173828125
-13.73291015625
-20.1416015625
-15.56396484375
-10.07080078125
-17.39501953125
-16.4794921875
-23.8037109375
-14.6484375
-16.4794921875
-21.97265625
-23.8037109375
-21.05712890625
-19.22607421875
-10.07080078125
-22.88818359375
-18.310546875
-23.8037109375
-24.71923828125
-16.4794921875
-10.986328125
-10.986328125
-16.4794921875
-21.05712890625
-15.56396484375
-16.4794921875
-22.88818359375
-28.38134765625
-20.1416015625
-24.71923828125
-32.04345703125
-29.296875
-19.22607421875
-22.88818359375
-18.310546875
-21.05712890625
-21.05712890625
-24.71923828125
-26.55029296875
-17.39501953125
-16.4794921875
-22.88818359375
-22.88818359375
-10.07080078125
-19.22607421875
-14.6484375
-19.22607421875
-26.55029296875
-23.8037109375
-36.62109375
-32.958984375
-15.56396484375
-25.634765625
-28.38134765625
-27.4658203125
-20.1416015625
-13.73291015625
-19.22607421875
-27.4658203125
-26.55029296875
-23.8037109375
-28.38134765625
-30.21240234375
-20.1416015625
-19.22607421875
-8.23974609375
-24.71923828125
-20.1416015625
-23.8037109375
-19.22607421875
-13.73291015625
-23.8037109375
-16.4794921875
-14.6484375
-21.05712890625
-21.05712890625
-21.97265625
-17.39501953125
0.91552734375
4.57763671875
0.91552734375
-1.8310546875
-8.23974609375
-10.07080078125
6.40869140625
12.8173828125
20.1416015625
25.634765625
37.53662109375
49.4384765625
51.26953125
42.1142578125
45.7763671875
37.53662109375
50.35400390625
18.310546875
3.662109375
-2.74658203125
2.74658203125
-6.40869140625
-20.1416015625
-17.39501953125
-14.6484375
-14.6484375
-13.73291015625
-6.40869140625
-17.39501953125
-22.88818359375
-21.05712890625
-18.310546875
-8.23974609375
-21.05712890625
-42.1142578125
-49.4384765625
-43.02978515625
-43.02978515625
-52.18505859375
-43.02978515625
-51.26953125
-58.59375
-54.931640625
-52.18505859375
-50.35400390625
-54.931640625
-51.26953125
-45.7763671875
-52.18505859375
-54.931640625
-54.931640625
-43.9453125
-45.7763671875
-50.35400390625
-40.283203125
-40.283203125
-41.19873046875
-30.21240234375
-30.21240234375
-37.53662109375
-42.1142578125
-54.931640625
-69.580078125
-76.904296875
-69.580078125
-21.05712890625
46.69189453125
122.6806640625
181.2744140625
220.64208984375
253.60107421875
305.7861328125
380.859375
481.5673828125
572.20458984375
665.58837890625
758.056640625
901.79443359375
1072.08251953125
1181.0302734375
1138.00048828125
974.12109375
718.68896484375
475.15869140625
342.4072265625
249.93896484375
157.470703125
111.6943359375
103.45458984375
83.31298828125
17.39501953125
-54.931640625
-130.0048828125
-189.51416015625
-217.8955078125
-215.14892578125
-188.5986328125
-192.2607421875
-184.02099609375
-170.2880859375
-140.9912109375
-103.45458984375
-66.83349609375
-51.26953125
-22.88818359375
-19.22607421875
-31.1279296875
-34.7900390625
-25.634765625
-32.04345703125
-24.71923828125
-21.05712890625
-22.88818359375
-21.05712890625
-24.71923828125
-21.97265625
-17.39501953125
-18.310546875
-15.56396484375
-21.05712890625
-21.05712890625
-7.32421875
-11.90185546875
-21.97265625
-14.6484375
-7.32421875
-6.40869140625
-19.22607421875
-24.71923828125
-2.74658203125
-9.1552734375
-18.310546875
-21.97265625
-9.1552734375
-14.6484375
-6.40869140625
-9.1552734375
-2.74658203125
1.8310546875
1.8310546875
-0.91552734375
-11.90185546875
-3.662109375
4.57763671875
5.4931640625
12.8173828125
9.1552734375
0.91552734375
10.07080078125
4.57763671875
5.4931640625
6.40869140625
7.32421875
4.57763671875
10.986328125
19.22607421875
15.56396484375
20.1416015625
21.97265625
23.8037109375
23.8037109375
29.296875
27.4658203125
26.55029296875
36.62109375
34.7900390625
32.958984375
45.7763671875
37.53662109375
40.283203125
44.86083984375
48.52294921875
55.84716796875
52.18505859375
51.26953125
54.931640625
54.931640625
51.26953125
65.91796875
65.91796875
75.0732421875
75.98876953125
79.65087890625
86.97509765625
90.63720703125
97.0458984375
104.3701171875
104.3701171875
101.62353515625
102.5390625
99.79248046875
103.45458984375
103.45458984375
103.45458984375
120.849609375
127.25830078125
124.51171875
126.3427734375
132.75146484375
130.0048828125
126.3427734375
125.42724609375
125.42724609375
122.6806640625
123.59619140625
128.173828125
135.498046875
139.16015625
123.59619140625
124.51171875
119.0185546875
116.27197265625
114.44091796875
117.1875
109.86328125
106.201171875
101.62353515625
96.13037109375
97.96142578125
94.29931640625
83.31298828125
69.580078125
58.59375
48.52294921875
58.59375
59.50927734375
44.86083984375
30.21240234375
25.634765625
18.310546875
7.32421875
6.40869140625
-3.662109375
-3.662109375
-2.74658203125
-3.662109375
-9.1552734375
-21.05712890625
-13.73291015625
-20.1416015625
-30.21240234375
-29.296875
-33.87451171875
-33.87451171875
-34.7900390625
-33.87451171875
-43.02978515625
-43.02978515625
-43.9453125
-43.9453125
-45.7763671875
-51.26953125
-54.01611328125
-48.52294921875
-56.7626953125
-43.9453125
-43.02978515625
-40.283203125
-59.50927734375
-67.7490234375
-65.91796875
-54.01611328125
-55.84716796875
-59.50927734375
-46.69189453125
-58.59375
-59.50927734375
-52.18505859375
-54.01611328125
-51.26953125
-56.7626953125
-58.59375
-54.931640625
-51.26953125
-49.4384765625
-46.69189453125
-53.1005859375
-55.84716796875
-52.18505859375
-54.931640625
-53.1005859375
-57.67822265625
-65.00244140625
-56.7626953125
-50.35400390625
-51.26953125
-49.4384765625
-54.01611328125
-53.1005859375
-48.52294921875
-50.35400390625
-44.86083984375
-50.35400390625
-43.9453125
-41.19873046875
-53.1005859375
-52.18505859375
-48.52294921875
-47.607421875
-47.607421875
-42.1142578125
-43.02978515625
-52.18505859375
-51.26953125
-49.4384765625
-44.86083984375
-43.02978515625
-31.1279296875
-34.7900390625
-44.86083984375
-52.18505859375
-49.4384765625
-43.02978515625
-41.19873046875
-47.607421875
-46.69189453125
-53.1005859375
-39.36767578125
-44.86083984375
-48.52294921875
-45.7763671875
-51.26953125
-48.52294921875
-50.35400390625
-54.01611328125
-51.26953125
-62.255859375
-61.34033203125
-58.59375
-48.52294921875
-49.4384765625
-66.83349609375
-70.49560546875
-63.17138671875
-50.35400390625
-46.69189453125
-53.1005859375
-54.01611328125
-51.26953125
-65.00244140625
-64.0869140625
-66.83349609375
-70.49560546875
-61.34033203125
-59.50927734375
-58.59375
-49.4384765625
-59.50927734375
-67.7490234375
-54.01611328125
-56.7626953125
-61.34033203125
-69.580078125
-62.255859375
-59.50927734375
-54.931640625
-61.34033203125
-69.580078125
-66.83349609375
-68.66455078125
-59.50927734375
-62.255859375
-68.66455078125
-69.580078125
-65.91796875
-75.98876953125
-72.32666015625
-64.0869140625
-73.2421875
-68.66455078125
-73.2421875
-75.0732421875
-75.0732421875
-74.15771484375
-67.7490234375
-65.00244140625
-63.17138671875
-70.49560546875
-72.32666015625
-68.66455078125
-76.904296875
-66.83349609375
-72.32666015625
-80.56640625
-75.98876953125
-69.580078125
-74.15771484375
-75.98876953125
-67.7490234375
-75.0732421875
-72.32666015625
-75.98876953125
-66.83349609375
-71.4111328125
-64.0869140625
-71.4111328125
-69.580078125
-64.0869140625
-70.49560546875
-76.904296875
-73.2421875
-73.2421875
-84.228515625
-84.228515625
-70.49560546875
-55.84716796875
-43.9453125
-58.59375
-57.67822265625
-55.84716796875
-60.4248046875
-59.50927734375
-50.35400390625
-36.62109375
-23.8037109375
-13.73291015625
-0.91552734375
8.23974609375
0
-9.1552734375
-21.97265625
-22.88818359375
-40.283203125
-46.69189453125
-42.1142578125
-42.1142578125
-43.9453125
-57.67822265625
-61.34033203125
-56.7626953125
-52.18505859375
-62.255859375
-69.580078125
-61.34033203125
-67.7490234375
-72.32666015625
-68.66455078125
-59.50927734375
-77.81982421875
-96.13037109375
-106.201171875
-94.29931640625
-97.0458984375
-108.0322265625
-95.21484375
-98.876953125
-109.86328125
-98.876953125
-89.7216796875
-99.79248046875
-105.28564453125
-106.201171875
-101.62353515625
-98.876953125
-103.45458984375
-106.201171875
-100.7080078125
-96.13037109375
-97.96142578125
-97.96142578125
-95.21484375
-96.13037109375
-93.3837890625
-95.21484375
-92.46826171875
-94.29931640625
-98.876953125
-113.525390625
-128.173828125
-130.92041015625
-96.13037109375
-23.8037109375
44.86083984375
113.525390625
155.6396484375
173.03466796875
213.31787109375
293.88427734375
371.7041015625
478.82080078125
557.55615234375
648.193359375
773.62060546875
965.88134765625
1118.7744140625
1133.4228515625
1002.50244140625
775.45166015625
500.79345703125
346.98486328125
231.62841796875
142.822265625
74.15771484375
73.2421875
70.49560546875
29.296875
-39.36767578125
-113.525390625
-187.68310546875
-235.29052734375
-267.333984375
-258.1787109375
-240.78369140625
-238.037109375
-227.05078125
-204.16259765625
-185.85205078125
-161.1328125
-119.0185546875
-90.63720703125
-84.228515625
-72.32666015625
-75.98876953125
-80.56640625
-75.98876953125
-74.15771484375
-75.0732421875
-80.56640625
-86.0595703125
-75.98876953125
-74.15771484375
-75.98876953125
-68.66455078125
-75.98876953125
-70.49560546875
-63.17138671875
-61.34033203125
-57.67822265625
-62.255859375
-74.15771484375
-67.7490234375
-64.0869140625
-71.4111328125
-65.91796875
-57.67822265625
-67.7490234375
-75.0732421875
-63.17138671875
-57.67822265625
-60.4248046875
-65.91796875
-61.34033203125
-58.59375
-57.67822265625
-60.4248046875
-54.01611328125
-47.607421875
-50.35400390625
-44.86083984375
-49.4384765625
-45.7763671875
-51.26953125
-55.84716796875
-53.1005859375
-50.35400390625
-35.70556640625
-36.62109375
-43.02978515625
-40.283203125
-41.19873046875
-35.70556640625
-43.02978515625
-38.4521484375
-42.1142578125
-29.296875
-24.71923828125
-23.8037109375
-21.05712890625
-27.4658203125
-22.88818359375
-15.56396484375
-19.22607421875
-25.634765625
-8.23974609375
-13.73291015625
-14.6484375
-7.32421875
1.8310546875
1.8310546875
9.1552734375
8.23974609375
9.1552734375
10.986328125
20.1416015625
18.310546875
28.38134765625
28.38134765625
28.38134765625
29.296875
36.62109375
37.53662109375
43.9453125
49.4384765625
51.26953125
52.18505859375
51.26953125
56.7626953125
64.0869140625
65.00244140625
74.15771484375
73.2421875
67.7490234375
75.0732421875
75.0732421875
77.81982421875
77.81982421875
79.65087890625
75.0732421875
73.2421875
77.81982421875
87.890625
78.7353515625
67.7490234375
75.0732421875
77.81982421875
82.3974609375
74.15771484375
66.83349609375
56.7626953125
65.00244140625
63.17138671875
50.35400390625
43.9453125
33.87451171875
35.70556640625
28.38134765625
32.958984375
18.310546875
5.4931640625
7.32421875
-2.74658203125
-3.662109375
-12.8173828125
-22.88818359375
-25.634765625
-33.87451171875
-33.87451171875
-41.19873046875
-52.18505859375
-52.18505859375
-43.9453125
-59.50927734375
-65.00244140625
-65.91796875
-63.17138671875
-66.83349609375
-70.49560546875
-64.0869140625
-73.2421875
-75.98876953125
-94.29931640625
-92.46826171875
-78.7353515625
-84.228515625
-85.14404296875
-96.13037109375
-95.21484375
-83.31298828125
-79.65087890625
-87.890625
-86.97509765625
-90.63720703125
-91.552734375
-93.3837890625
-90.63720703125
-85.14404296875
-95.21484375
-91.552734375
-90.63720703125
-87.890625
-87.890625
-94.29931640625
-95.21484375
-91.552734375
-95.21484375
-86.0595703125
-89.7216796875
-95.21484375
-86.97509765625
-90.63720703125
-93.3837890625
-80.56640625
-84.228515625
-89.7216796875
-85.14404296875
-80.56640625
-79.65087890625
-81.48193359375
-77.81982421875
-82.3974609375
-84.228515625
-76.904296875
-85.14404296875
-86.97509765625
-82.3974609375
-73.2421875
-73.2421875
-75.98876953125
-80.56640625
-76.904296875
-78.7353515625
-81.48193359375
-80.56640625
-78.7353515625
-75.0732421875
-81.48193359375
-73.2421875
-67.7490234375
-70.49560546875
-78.7353515625
-81.48193359375
-77.81982421875
-75.98876953125
-78.7353515625
-78.7353515625
-81.48193359375
-78.7353515625
-74.15771484375
-75.0732421875
-81.48193359375
-74.15771484375
-73.2421875
-79.65087890625
-78.7353515625
-79.65087890625
-70.49560546875
-76.904296875
-78.7353515625
-75.0732421875
-78.7353515625
-75.0732421875
-85.14404296875
-82.3974609375
-69.580078125
-73.2421875
-82.3974609375
-75.0732421875
-71.4111328125
-81.48193359375
-86.97509765625
-85.14404296875
-84.228515625
-92.46826171875
-86.97509765625
-86.0595703125
-89.7216796875
-89.7216796875
-75.98876953125
-75.0732421875
-79.65087890625
-96.13037109375
-95.21484375
-94.29931640625
-87.890625
-85.14404296875
-78.7353515625
-75.98876953125
-93.3837890625
-94.29931640625
-86.97509765625
-86.97509765625
-85.14404296875
-93.3837890625
-97.0458984375
-86.97509765625
-81.48193359375
-83.31298828125
-89.7216796875
-86.97509765625
-86.97509765625
-86.97509765625
-86.97509765625
-86.97509765625
-83.31298828125
-87.890625
-89.7216796875
-87.890625
-86.97509765625
-79.65087890625
-79.65087890625
-86.97509765625
-87.890625
-91.552734375
-89.7216796875
-89.7216796875
-78.7353515625
-79.65087890625
-80.56640625
-84.228515625
-79.65087890625
-77.81982421875
-79.65087890625
-80.56640625
-67.7490234375
-73.2421875
-76.904296875
-85.14404296875
-84.228515625
-68.66455078125
-57.67822265625
-55.84716796875
-69.580078125
-74.15771484375
-75.98876953125
-70.49560546875
-56.7626953125
-49.4384765625
-34.7900390625
-21.97265625
-18.310546875
-10.07080078125
-10.07080078125
-14.6484375
-18.310546875
-21.97265625
-30.21240234375
-37.53662109375
-43.9453125
-49.4384765625
-47.607421875
-50.35400390625
-70.49560546875
-79.65087890625
-62.255859375
-60.4248046875
-64.0869140625
-65.91796875
-61.34033203125
-70.49560546875
-75.0732421875
-75.0732421875
-65.91796875
-79.65087890625
-97.0458984375
-100.7080078125
-100.7080078125
-94.29931640625
-100.7080078125
-110.77880859375
-109.86328125
-107.11669921875
-105.28564453125
-111.6943359375
-108.94775390625
-98.876953125
-99.79248046875
-103.45458984375
-89.7216796875
-96.13037109375
-95.21484375
-89.7216796875
-84.228515625
-84.228515625
-98.876953125
-92.46826171875
-84.228515625
-75.0732421875
-84.228515625
-87.890625
-90.63720703125
-93.3837890625
-111.6943359375
-119.93408203125
-104.3701171875
-61.34033203125
10.07080078125
96.13037109375
148.3154296875
190.4296875
215.14892578125
283.8134765625
369.873046875
476.98974609375
575.86669921875
676.57470703125
779.11376953125
935.6689453125
1105.04150390625
1211.24267578125
1156.31103515625
972.2900390625
686.6455078125
439.453125
313.1103515625
204.16259765625
108.94775390625
64.0869140625
65.00244140625
26.55029296875
-55.84716796875
-126.3427734375
-183.10546875
-231.62841796875
-261.8408203125
-253.60107421875
-237.12158203125
-227.05078125
-219.7265625
-192.2607421875
-162.9638671875
-126.3427734375
-96.13037109375
-68.66455078125
-55.84716796875
-64.0869140625
-59.50927734375
-59.50927734375
-56.7626953125
-56.7626953125
-57.67822265625
-57.67822265625
-51.26953125
-50.35400390625
-60.4248046875
-48.52294921875
-50.35400390625
-43.9453125
-31.1279296875
-44.86083984375
-43.02978515625
-43.9453125
-47.607421875
-50.35400390625
-38.4521484375
-32.04345703125
-37.53662109375
-27.4658203125
-33.87451171875
-31.1279296875
-34.7900390625
-35.70556640625
-26.55029296875
-26.55029296875
-25.634765625
-25.634765625
-31.1279296875
-30.21240234375
-23.8037109375
-20.1416015625
-22.88818359375
-14.6484375
-13.73291015625
-21.05712890625
-20.1416015625
-18.310546875
-10.07080078125
-6.40869140625
-3.662109375
-16.4794921875
-3.662109375
-4.57763671875
-7.32421875
6.40869140625
6.40869140625
1.8310546875
10.07080078125
14.6484375
17.39501953125
15.56396484375
10.07080078125
15.56396484375
16.4794921875
13.73291015625
25.634765625
32.04345703125
29.296875
32.04345703125
40.283203125
40.283203125
41.19873046875
38.4521484375
43.9453125
52.18505859375
45.7763671875
54.01611328125
63.17138671875
65.91796875
72.32666015625
80.56640625
78.7353515625
78.7353515625
71.4111328125
86.0595703125
97.96142578125
95.21484375
86.0595703125
94.29931640625
106.201171875
113.525390625
118.10302734375
119.0185546875
110.77880859375
111.6943359375
121.76513671875
128.173828125
131.8359375
135.498046875
139.16015625
138.24462890625
136.41357421875
137.3291015625
134.58251953125
130.92041015625
136.41357421875
132.75146484375
138.24462890625
135.498046875
125.42724609375
126.3427734375
126.3427734375
126.3427734375
114.44091796875
109.86328125
110.77880859375
116.27197265625
123.59619140625
102.5390625
86.97509765625
79.65087890625
76.904296875
63.17138671875
51.26953125
43.9453125
45.7763671875
37.53662109375
34.7900390625
27.4658203125
28.38134765625
12.8173828125
2.74658203125
0
-13.73291015625
-16.4794921875
-16.4794921875
-7.32421875
-15.56396484375
-21.05712890625
-25.634765625
-32.958984375
-25.634765625
-37.53662109375
-39.36767578125
-41.19873046875
-48.52294921875
-36.62109375
-44.86083984375
-37.53662109375
-44.86083984375
-49.4384765625
-50.35400390625
-50.35400390625
-54.931640625
-48.52294921875
-52.18505859375
-44.86083984375
-40.283203125
-44.86083984375
-46.69189453125
-53.1005859375
-58.59375
-54.931640625
-56.7626953125
-48.52294921875
-50.35400390625
-51.26953125
-51.26953125
-43.02978515625
-45.7763671875
-43.02978515625
-48.52294921875
-51.26953125
-55.84716796875
-49.4384765625
-54.931640625
-52.18505859375
-52.18505859375
-45.7763671875
-48.52294921875
-45.7763671875
-34.7900390625
-46.69189453125
-44.86083984375
-43.9453125
-38.4521484375
-39.36767578125
-50.35400390625
-35.70556640625
-21.97265625
-36.62109375
-44.86083984375
-43.9453125
-30.21240234375
-33.87451171875
-36.62109375
-32.04345703125
-34.7900390625
-38.4521484375
-37.53662109375
-28.38134765625
-27.4658203125
-37.53662109375
-36.62109375
-29.296875
-27.4658203125
-30.21240234375
-33.87451171875
-24.71923828125
-32.958984375
-43.9453125
-35.70556640625
-22.88818359375
-22.88818359375
-22.88818359375
-24.71923828125
-24.71923828125
-29.296875
-20.1416015625
-15.56396484375
-26.55029296875
-29.296875
-33.87451171875
-32.04345703125
-31.1279296875
-27.4658203125
-21.05712890625
-23.8037109375
-22.88818359375
-22.88818359375
-27.4658203125
-37.53662109375
-28.38134765625
-28.38134765625
-28.38134765625
-36.62109375
-30.21240234375
-22.88818359375
-30.21240234375
-31.1279296875
-31.1279296875
-34.7900390625
-28.38134765625
-26.55029296875
-26.55029296875
-28.38134765625
-34.7900390625
-30.21240234375
-32.04345703125
-36.62109375
-32.958984375
-26.55029296875
-33.87451171875
-29.296875
-26.55029296875
-32.958984375
-32.958984375
-34.7900390625
-25.634765625
-31.1279296875
-31.1279296875
-35.70556640625
-30.21240234375
-37.53662109375
-39.36767578125
-36.62109375
-33.87451171875
-35.70556640625
-29.296875
-23.8037109375
-28.38134765625
-33.87451171875
-35.70556640625
-31.1279296875
-22.88818359375
-27.4658203125
-37.53662109375
-36.62109375
-32.958984375
-32.958984375
-34.7900390625
-32.04345703125
-25.634765625
-32.958984375
-35.70556640625
-31.1279296875
-29.296875
-33.87451171875
-25.634765625
-31.1279296875
-23.8037109375
-23.8037109375
-23.8037109375
-27.4658203125
-32.958984375
-32.958984375
-20.1416015625
-16.4794921875
-18.310546875
-10.986328125
-4.57763671875
-20.1416015625
-20.1416015625
-21.97265625
-12.8173828125
-1.8310546875
12.8173828125
1.8310546875
-9.1552734375
-21.97265625
-14.6484375
5.4931640625
8.23974609375
10.07080078125
21.05712890625
36.62109375
54.01611328125
54.01611328125
52.18505859375
46.69189453125
35.70556640625
32.958984375
21.05712890625
-1.8310546875
-4.57763671875
0
3.662109375
-10.07080078125
-8.23974609375
-11.90185546875
-10.07080078125
0.91552734375
1.8310546875
-5.4931640625
-8.23974609375
-8.23974609375
-16.4794921875
-15.56396484375
-13.73291015625
-23.8037109375
-37.53662109375
-35.70556640625
-46.69189453125
-51.26953125
-51.26953125
-50.35400390625
-39.36767578125
-39.36767578125
-37.53662109375
-31.1279296875
-34.7900390625
-46.69189453125
-44.86083984375
-44.86083984375
-45.7763671875
-41.19873046875
-42.1142578125
-30.21240234375
-23.8037109375
-27.4658203125
-30.21240234375
-29.296875
-27.4658203125
-26.55029296875
-28.38134765625
-30.21240234375
-39.36767578125
-43.02978515625
-54.01611328125
-46.69189453125
-17.39501953125
35.70556640625
116.27197265625
184.9365234375
233.45947265625
275.57373046875
315.85693359375
393.6767578125
496.2158203125
610.65673828125
702.20947265625
804.74853515625
935.6689453125
1099.54833984375
1247.86376953125
1284.48486328125
1165.46630859375
930.17578125
619.81201171875
422.9736328125
312.19482421875
209.65576171875
119.93408203125
81.48193359375
47.607421875
-21.05712890625
-91.552734375
-150.146484375
-186.767578125
-188.5986328125
-181.2744140625
-180.35888671875
-173.9501953125
-150.146484375
-130.92041015625
-94.29931640625
-48.52294921875
-17.39501953125
2.74658203125
-0.91552734375
7.32421875
3.662109375
-7.32421875
1.8310546875
2.74658203125
7.32421875
11.90185546875
9.1552734375
4.57763671875
0.91552734375
3.662109375
12.8173828125
11.90185546875
8.23974609375
3.662109375
15.56396484375
32.04345703125
17.39501953125
18.310546875
23.8037109375
28.38134765625
27.4658203125
17.39501953125
17.39501953125
19.22607421875
25.634765625
22.88818359375
24.71923828125
26.55029296875
29.296875
26.55029296875
27.4658203125
23.8037109375
32.04345703125
51.26953125
42.1142578125
37.53662109375
38.4521484375
43.9453125
48.52294921875
46.69189453125
45.7763671875
47.607421875
47.607421875
50.35400390625
51.26953125
57.67822265625
57.67822265625
55.84716796875
65.91796875
64.0869140625
67.7490234375
70.49560546875
69.580078125
69.580078125
59.50927734375
66.83349609375
75.0732421875
86.0595703125
86.0595703125
89.7216796875
91.552734375
85.14404296875
88.80615234375
91.552734375
95.21484375
102.5390625
111.6943359375
112.60986328125
119.0185546875
112.60986328125
127.25830078125
127.25830078125
128.173828125
128.173828125
137.3291015625
138.24462890625
135.498046875
150.146484375
155.6396484375
157.470703125
162.04833984375
163.87939453125
169.37255859375
174.86572265625
181.2744140625
176.69677734375
182.18994140625
182.18994140625
202.33154296875
202.33154296875
192.2607421875
191.34521484375
199.5849609375
201.416015625
197.75390625
202.33154296875
208.740234375
207.82470703125
206.9091796875
205.99365234375
205.078125
206.9091796875
205.99365234375
197.75390625
194.091796875
195.9228515625
188.5986328125
184.9365234375
190.4296875
177.6123046875
174.86572265625
172.119140625
151.06201171875
142.822265625
140.9912109375
139.16015625
131.8359375
119.0185546875
121.76513671875
111.6943359375
110.77880859375
93.3837890625
89.7216796875
81.48193359375
70.49560546875
67.7490234375
63.17138671875
62.255859375
55.84716796875
44.86083984375
41.19873046875
39.36767578125
34.7900390625
21.97265625
22.88818359375
25.634765625
25.634765625
23.8037109375
36.62109375
23.8037109375
0
12.8173828125
11.90185546875
12.8173828125
15.56396484375
14.6484375
10.986328125
11.90185546875
13.73291015625
10.986328125
7.32421875
10.07080078125
12.8173828125
-0.91552734375
6.40869140625
7.32421875
0
6.40869140625
5.4931640625
0.91552734375
0.91552734375
2.74658203125
9.1552734375
6.40869140625
4.57763671875
4.57763671875
4.57763671875
15.56396484375
10.986328125
5.4931640625
7.32421875
13.73291015625
17.39501953125
9.1552734375
10.986328125
10.07080078125
10.07080078125
10.986328125
15.56396484375
23.8037109375
14.6484375
6.40869140625
10.986328125
8.23974609375
7.32421875
21.05712890625
21.97265625
16.4794921875
21.97265625
22.88818359375
23.8037109375
23.8037109375
21.97265625
19.22607421875
19.22607421875
21.97265625
28.38134765625
28.38134765625
25.634765625
32.04345703125
29.296875
30.21240234375
23.8037109375
26.55029296875
26.55029296875
20.1416015625
28.38134765625
16.4794921875
28.38134765625
32.958984375
30.21240234375
27.4658203125
33.87451171875
33.87451171875
15.56396484375
26.55029296875
30.21240234375
26.55029296875
31.1279296875
30.21240234375
26.55029296875
24.71923828125
22.88818359375
22.88818359375
19.22607421875
21.05712890625
31.1279296875
31.1279296875
26.55029296875
21.05712890625
29.296875
22.88818359375
21.05712890625
18.310546875
13.73291015625
12.8173828125
12.8173828125
30.21240234375
24.71923828125
24.71923828125
22.88818359375
23.8037109375
26.55029296875
19.22607421875
13.73291015625
24.71923828125
27.4658203125
25.634765625
19.22607421875
10.986328125
23.8037109375
18.310546875
11.90185546875
14.6484375
21.97265625
19.22607421875
18.310546875
17.39501953125
21.05712890625
23.8037109375
8.23974609375
10.986328125
15.56396484375
10.986328125
10.07080078125
17.39501953125
13.73291015625
11.90185546875
25.634765625
11.90185546875
11.90185546875
14.6484375
8.23974609375
10.986328125
16.4794921875
14.6484375
7.32421875
14.6484375
13.73291015625
25.634765625
21.97265625
16.4794921875
12.8173828125
9.1552734375
13.73291015625
21.05712890625
23.8037109375
20.1416015625
10.986328125
12.8173828125
22.88818359375
21.05712890625
15.56396484375
13.73291015625
10.07080078125
9.1552734375
23.8037109375
41.19873046875
32.04345703125
31.1279296875
31.1279296875
27.4658203125
24.71923828125
20.1416015625
20.1416015625
32.958984375
52.18505859375
59.50927734375
52.18505859375
40.283203125
39.36767578125
34.7900390625
38.4521484375
41.19873046875
61.34033203125
68.66455078125
65.00244140625
87.890625
94.29931640625
96.13037109375
97.0458984375
86.0595703125
76.904296875
65.91796875
50.35400390625
46.69189453125
41.19873046875
41.19873046875
32.958984375
33.87451171875
35.70556640625
43.02978515625
51.26953125
39.36767578125
38.4521484375
29.296875
31.1279296875
28.38134765625
30.21240234375
25.634765625
17.39501953125
2.74658203125
3.662109375
0
-2.74658203125
-2.74658203125
-5.4931640625
-3.662109375
-0.91552734375
-5.4931640625
-3.662109375
0.91552734375
-0.91552734375
-5.4931640625
-3.662109375
1.8310546875
4.57763671875
8.23974609375
2.74658203125
17.39501953125
11.90185546875
6.40869140625
4.57763671875
23.8037109375
21.05712890625
17.39501953125
13.73291015625
16.4794921875
7.32421875
-9.1552734375
-19.22607421875
-8.23974609375
34.7900390625
91.552734375
166.6259765625
237.12158203125
285.64453125
310.36376953125
373.53515625
465.087890625
570.37353515625
677.490234375
773.62060546875
887.14599609375
1035.46142578125
1189.27001953125
1313.78173828125
1300.96435546875
1133.4228515625
869.7509765625
601.50146484375
422.05810546875
308.53271484375
209.65576171875
143.73779296875
114.44091796875
54.931640625
-16.4794921875
-88.80615234375
-138.24462890625
-164.794921875
-161.1328125
-151.06201171875
-136.41357421875
-131.8359375
-108.94775390625
-76.904296875
-25.634765625
11.90185546875
36.62109375
38.4521484375
36.62109375
33.87451171875
26.55029296875
29.296875
38.4521484375
46.69189453125
43.02978515625
52.18505859375
43.02978515625
36.62109375
41.19873046875
46.69189453125
41.19873046875
40.283203125
43.9453125
44.86083984375
51.26953125
53.1005859375
45.7763671875
54.01611328125
59.50927734375
53.1005859375
58.59375
45.7763671875
52.18505859375
61.34033203125
64.0869140625
67.7490234375
65.00244140625
61.34033203125
72.32666015625
62.255859375
54.931640625
56.7626953125
65.00244140625
75.0732421875
75.98876953125
75.0732421875
75.98876953125
75.0732421875
75.0732421875
84.228515625
81.48193359375
67.7490234375
73.2421875
74.15771484375
78.7353515625
86.97509765625
97.0458984375
93.3837890625
87.890625
80.56640625
86.0595703125
87.890625
94.29931640625
103.45458984375
98.876953125
114.44091796875
113.525390625
110.77880859375
120.849609375
113.525390625
113.525390625
121.76513671875
120.849609375
122.6806640625
129.08935546875
134.58251953125
144.6533203125
145.56884765625
145.56884765625
144.6533203125
145.56884765625
144.6533203125
158.38623046875
170.2880859375
164.794921875
169.37255859375
173.9501953125
176.69677734375
183.10546875
183.10546875
194.091796875
195.00732421875
205.078125
206.9091796875
203.2470703125
213.31787109375
207.82470703125
218.81103515625
224.30419921875
217.8955078125
216.97998046875
230.712890625
230.712890625
224.30419921875
231.62841796875
235.29052734375
237.12158203125
240.78369140625
239.8681640625
234.375
229.79736328125
228.8818359375
224.30419921875
224.30419921875
227.05078125
224.30419921875
216.97998046875
209.65576171875
219.7265625
210.5712890625
189.51416015625
184.02099609375
181.2744140625
168.45703125
170.2880859375
165.71044921875
153.80859375
151.9775390625
139.16015625
130.0048828125
119.0185546875
118.10302734375
108.0322265625
114.44091796875
108.94775390625
97.0458984375
96.13037109375
88.80615234375
78.7353515625
77.81982421875
65.00244140625
58.59375
52.18505859375
61.34033203125
56.7626953125
57.67822265625
54.01611328125
50.35400390625
47.607421875
43.9453125
35.70556640625
46.69189453125
44.86083984375
42.1142578125
44.86083984375
40.283203125
34.7900390625
30.21240234375
24.71923828125
33.87451171875
41.19873046875
39.36767578125
32.04345703125
25.634765625
27.4658203125
32.04345703125
35.70556640625
33.87451171875
32.04345703125
21.97265625
26.55029296875
30.21240234375
28.38134765625
33.87451171875
34.7900390625
38.4521484375
29.296875
31.1279296875
29.296875
29.296875
31.1279296875
32.04345703125
29.296875
31.1279296875
30.21240234375
27.4658203125
32.958984375
39.36767578125
37.53662109375
34.7900390625
42.1142578125
34.7900390625
32.958984375
41.19873046875
45.7763671875
32.958984375
38.4521484375
42.1142578125
37.53662109375
44.86083984375
29.296875
44.86083984375
43.9453125
45.7763671875
44.86083984375
38.4521484375
46.69189453125
50.35400390625
43.02978515625
37.53662109375
43.9453125
41.19873046875
34.7900390625
38.4521484375
42.1142578125
49.4384765625
43.9453125
40.283203125
49.4384765625
46.69189453125
43.02978515625
39.36767578125
45.7763671875
42.1142578125
48.52294921875
39.36767578125
41.19873046875
44.86083984375
42.1142578125
42.1142578125
39.36767578125
36.62109375
36.62109375
41.19873046875
43.9453125
46.69189453125
40.283203125
23.8037109375
29.296875
36.62109375
33.87451171875
35.70556640625
38.4521484375
32.958984375
38.4521484375
33.87451171875
35.70556640625
34.7900390625
28.38134765625
36.62109375
24.71923828125
30.21240234375
32.958984375
26.55029296875
30.21240234375
30.21240234375
29.296875
21.97265625
21.05712890625
28.38134765625
26.55029296875
17.39501953125
19.22607421875
25.634765625
27.4658203125
37.53662109375
35.70556640625
23.8037109375
24.71923828125
26.55029296875
23.8037109375
21.97265625
22.88818359375
36.62109375
37.53662109375
23.8037109375
15.56396484375
29.296875
28.38134765625
23.8037109375
22.88818359375
23.8037109375
27.4658203125
21.97265625
14.6484375
13.73291015625
19.22607421875
21.05712890625
19.22607421875
19.22607421875
17.39501953125
14.6484375
15.56396484375
21.97265625
32.04345703125
28.38134765625
15.56396484375
15.56396484375
22.88818359375
13.73291015625
11.90185546875
17.39501953125
10.986328125
10.986328125
15.56396484375
16.4794921875
11.90185546875
16.4794921875
21.05712890625
17.39501953125
19.22607421875
18.310546875
22.88818359375
15.56396484375
15.56396484375
21.97265625
26.55029296875
15.56396484375
14.6484375
10.986328125
15.56396484375
27.4658203125
22.88818359375
33.87451171875
23.8037109375
24.71923828125
35.70556640625
18.310546875
12.8173828125
21.05712890625
21.05712890625
33.87451171875
44.86083984375
44.86083984375
45.7763671875
32.04345703125
36.62109375
39.36767578125
40.283203125
48.52294921875
55.84716796875
69.580078125
80.56640625
85.14404296875
88.80615234375
88.80615234375
77.81982421875
69.580078125
65.00244140625
41.19873046875
37.53662109375
34.7900390625
32.958984375
36.62109375
29.296875
37.53662109375
36.62109375
34.7900390625
35.70556640625
40.283203125
26.55029296875
28.38134765625
22.88818359375
20.1416015625
17.39501953125
3.662109375
3.662109375
6.40869140625
-10.986328125
-19.22607421875
-11.90185546875
-9.1552734375
-9.1552734375
-6.40869140625
-16.4794921875
-9.1552734375
-4.57763671875
-12.8173828125
-8.23974609375
-5.4931640625
-10.986328125
-4.57763671875
-1.8310546875
-5.4931640625
-10.07080078125
0.91552734375
11.90185546875
-0.91552734375
2.74658203125
6.40869140625
3.662109375
0
3.662109375
2.74658203125
-8.23974609375
-14.6484375
-22.88818359375
-25.634765625
11.90185546875
75.98876953125
150.146484375
218.81103515625
259.09423828125
294.7998046875
339.66064453125
428.466796875
524.59716796875
634.46044921875
728.759765625
828.55224609375
968.6279296875
1133.4228515625
1267.08984375
1255.18798828125
1098.6328125
849.609375
578.61328125
422.05810546875
317.68798828125
224.30419921875
145.56884765625
123.59619140625
94.29931640625
14.6484375
-57.67822265625
-119.93408203125
-166.6259765625
-177.6123046875
-171.20361328125
-166.6259765625
-149.23095703125
-141.90673828125
-120.849609375
-68.66455078125
-31.1279296875
0.91552734375
11.90185546875
14.6484375
24.71923828125
17.39501953125
12.8173828125
10.986328125
19.22607421875
17.39501953125
20.1416015625
23.8037109375
19.22607421875
20.1416015625
19.22607421875
18.310546875
32.04345703125
27.4658203125
18.310546875
28.38134765625
28.38134765625
22.88818359375
20.1416015625
28.38134765625
27.4658203125
29.296875
26.55029296875
23.8037109375
21.97265625
30.21240234375
38.4521484375
29.296875
34.7900390625
41.19873046875
42.1142578125
39.36767578125
41.19873046875
41.19873046875
36.62109375
35.70556640625
39.36767578125
36.62109375
43.9453125
48.52294921875
33.87451171875
38.4521484375
44.86083984375
53.1005859375
50.35400390625
57.67822265625
58.59375
38.4521484375
52.18505859375
50.35400390625
59.50927734375
65.00244140625
60.4248046875
55.84716796875
58.59375
65.00244140625
68.66455078125
75.0732421875
75.0732421875
72.32666015625
74.15771484375
78.7353515625
75.0732421875
88.80615234375
78.7353515625
72.32666015625
86.0595703125
96.13037109375
98.876953125
97.96142578125
112.60986328125
112.60986328125
99.79248046875
102.5390625
118.10302734375
130.0048828125
123.59619140625
122.6806640625
128.173828125
129.08935546875
145.56884765625
150.146484375
146.484375
147.39990234375
154.72412109375
162.04833984375
156.55517578125
159.3017578125
157.470703125
170.2880859375
168.45703125
164.794921875
175.78125
173.9501953125
181.2744140625
178.52783203125
172.119140625
183.10546875
176.69677734375
177.6123046875
184.02099609375
181.2744140625
184.02099609375
173.9501953125
173.9501953125
176.69677734375
175.78125
166.6259765625
164.794921875
163.87939453125
155.6396484375
145.56884765625
146.484375
138.24462890625
122.6806640625
119.93408203125
121.76513671875
115.3564453125
104.3701171875
92.46826171875
78.7353515625
77.81982421875
82.3974609375
72.32666015625
54.931640625
50.35400390625
49.4384765625
43.02978515625
38.4521484375
32.04345703125
32.04345703125
31.1279296875
20.1416015625
16.4794921875
18.310546875
4.57763671875
10.986328125
10.07080078125
6.40869140625
8.23974609375
-3.662109375
-4.57763671875
-4.57763671875
-6.40869140625
-9.1552734375
-8.23974609375
-15.56396484375
-16.4794921875
-20.1416015625
-12.8173828125
-12.8173828125
-15.56396484375
-18.310546875
-14.6484375
-16.4794921875
-19.22607421875
-14.6484375
-9.1552734375
-12.8173828125
-16.4794921875
-21.05712890625
-24.71923828125
-23.8037109375
-19.22607421875
-16.4794921875
-18.310546875
-16.4794921875
-16.4794921875
-14.6484375
-15.56396484375
-10.07080078125
-13.73291015625
-12.8173828125
-23.8037109375
-15.56396484375
-13.73291015625
-10.07080078125
-7.32421875
-11.90185546875
-14.6484375
-23.8037109375
-16.4794921875
-13.73291015625
-2.74658203125
-11.90185546875
-12.8173828125
-13.73291015625
-2.74658203125
-7.32421875
0.91552734375
-3.662109375
-6.40869140625
-10.07080078125
-4.57763671875
-10.07080078125
-7.32421875
-1.8310546875
0.91552734375
-10.07080078125
-0.91552734375
0
-8.23974609375
-8.23974609375
-7.32421875
-15.56396484375
0.91552734375
2.74658203125
0.91552734375
8.23974609375
0
-3.662109375
-1.8310546875
-9.1552734375
0
1.8310546875
-6.40869140625
-6.40869140625
0.91552734375
6.40869140625
-5.4931640625
-8.23974609375
-4.57763671875
-13.73291015625
-12.8173828125
-10.986328125
-16.4794921875
-19.22607421875
-8.23974609375
-10.986328125
-13.73291015625
-14.6484375
-7.32421875
-15.56396484375
-16.4794921875
-21.97265625
-28.38134765625
-25.634765625
-17.39501953125
-5.4931640625
-15.56396484375
-17.39501953125
-31.1279296875
-24.71923828125
-14.6484375
-21.05712890625
-19.22607421875
-18.310546875
-10.07080078125
-21.97265625
-25.634765625
-26.55029296875
-27.4658203125
-22.88818359375
-23.8037109375
-23.8037109375
-26.55029296875
-23.8037109375
-18.310546875
-26.55029296875
-21.05712890625
-19.22607421875
-31.1279296875
-31.1279296875
-19.22607421875
-24.71923828125
-22.88818359375
-34.7900390625
-33.87451171875
-31.1279296875
-33.87451171875
-36.62109375
-36.62109375
-39.36767578125
-34.7900390625
-28.38134765625
-22.88818359375
-23.8037109375
-29.296875
-29.296875
-32.04345703125
-34.7900390625
-25.634765625
-31.1279296875
-44.86083984375
-38.4521484375
-34.7900390625
-21.97265625
-30.21240234375
-43.9453125
-36.62109375
-45.7763671875
-35.70556640625
-32.958984375
-28.38134765625
-23.8037109375
-30.21240234375
-35.70556640625
-32.958984375
-26.55029296875
-43.02978515625
-32.04345703125
-33.87451171875
-37.53662109375
-26.55029296875
-10.986328125
-5.4931640625
-22.88818359375
-15.56396484375
-18.310546875
-22.88818359375
-17.39501953125
-10.07080078125
2.74658203125
18.310546875
21.97265625
32.958984375
36.62109375
48.52294921875
40.283203125
20.1416015625
17.39501953125
4.57763671875
-3.662109375
-8.23974609375
-8.23974609375
-14.6484375
-24.71923828125
-32.04345703125
-25.634765625
-15.56396484375
-25.634765625
-29.296875
-26.55029296875
-34.7900390625
-26.55029296875
-33.87451171875
-29.296875
-37.53662109375
-45.7763671875
-57.67822265625
-61.34033203125
-63.17138671875
-73.2421875
-68.66455078125
-65.00244140625
-63.17138671875
-53.1005859375
-62.255859375
-67.7490234375
-67.7490234375
-65.91796875
-62.255859375
-67.7490234375
-63.17138671875
-62.255859375
-54.01611328125
-56.7626953125
-56.7626953125
-61.34033203125
-55.84716796875
-58.59375
-54.01611328125
-53.1005859375
-54.01611328125
-51.26953125
-48.52294921875
-58.59375
-57.67822265625
-78.7353515625
-96.13037109375
-84.228515625
-41.19873046875
20.1416015625
103.45458984375
157.470703125
203.2470703125
228.8818359375
271.91162109375
345.15380859375
446.77734375
538.330078125
625.30517578125
716.85791015625
859.68017578125
1041.8701171875
1151.7333984375
1118.7744140625
949.40185546875
696.71630859375
464.17236328125
346.0693359375
233.45947265625
145.56884765625
98.876953125
103.45458984375
92.46826171875
42.1142578125
-32.04345703125
-106.201171875
-183.10546875
-225.2197265625
-235.29052734375
-217.8955078125
-195.9228515625
-193.17626953125
-184.9365234375
-175.78125
-145.56884765625
-109.86328125
-73.2421875
-56.7626953125
-49.4384765625
-43.02978515625
-50.35400390625
-54.01611328125
-44.86083984375
-38.4521484375
-40.283203125
-37.53662109375
-35.70556640625
-38.4521484375
-44.86083984375
-52.18505859375
-51.26953125
-33.87451171875
-32.958984375
-29.296875
-40.283203125
-40.283203125
-39.36767578125
-44.86083984375
-32.958984375
-27.4658203125
-33.87451171875
-42.1142578125
-24.71923828125
-28.38134765625
-35.70556640625
-26.55029296875
-31.1279296875
-41.19873046875
-28.38134765625
-25.634765625
-30.21240234375
-31.1279296875
-26.55029296875
-21.97265625
-20.1416015625
-21.97265625
-15.56396484375
-13.73291015625
-22.88818359375
-21.05712890625
-19.22607421875
-18.310546875
-21.97265625
-23.8037109375
-11.90185546875
-5.4931640625
-10.07080078125
-11.90185546875
-7.32421875
-9.1552734375
-11.90185546875
-7.32421875
-10.07080078125
-11.90185546875
-2.74658203125
10.07080078125
3.662109375
16.4794921875
15.56396484375
9.1552734375
14.6484375
19.22607421875
18.310546875
19.22607421875
18.310546875
21.97265625
32.958984375
41.19873046875
29.296875
21.97265625
24.71923828125
37.53662109375
42.1142578125
51.26953125
65.91796875
56.7626953125
52.18505859375
58.59375
69.580078125
68.66455078125
77.81982421875
82.3974609375
82.3974609375
80.56640625
84.228515625
94.29931640625
94.29931640625
95.21484375
99.79248046875
98.876953125
94.29931640625
103.45458984375
113.525390625
106.201171875
106.201171875
107.11669921875
102.5390625
101.62353515625
110.77880859375
108.94775390625
103.45458984375
99.79248046875
93.3837890625
106.201171875
98.876953125
93.3837890625
82.3974609375
73.2421875
71.4111328125
73.2421875
70.49560546875
58.59375
51.26953125
43.9453125
43.9453125
36.62109375
39.36767578125
22.88818359375
21.05712890625
14.6484375
0.91552734375
-9.1552734375
-15.56396484375
-10.07080078125
-15.56396484375
-20.1416015625
-26.55029296875
-27.4658203125
-37.53662109375
-42.1142578125
-41.19873046875
-48.52294921875
-49.4384765625
-47.607421875
-53.1005859375
-58.59375
-61.34033203125
-66.83349609375
-66.83349609375
-70.49560546875
-73.2421875
-80.56640625
-69.580078125
-70.49560546875
-66.83349609375
-68.66455078125
-69.580078125
-76.904296875
-71.4111328125
-74.15771484375
-86.97509765625
-96.13037109375
-72.32666015625
-65.00244140625
-73.2421875
-76.904296875
-74.15771484375
-79.65087890625
-82.3974609375
-81.48193359375
-79.65087890625
-86.97509765625
-87.890625
-84.228515625
-88.80615234375
-76.904296875
-71.4111328125
-80.56640625
-84.228515625
-75.98876953125
-71.4111328125
-72.32666015625
-77.81982421875
-77.81982421875
-79.65087890625
-77.81982421875
-75.0732421875
-79.65087890625
-71.4111328125
-80.56640625
-75.0732421875
-74.15771484375
-68.66455078125
-76.904296875
-75.98876953125
-62.255859375
-70.49560546875
-77.81982421875
-75.0732421875
-80.56640625
-61.34033203125
-67.7490234375
-67.7490234375
-79.65087890625
-65.91796875
-64.0869140625
-65.00244140625
-65.91796875
-65.91796875
-65.91796875
-70.49560546875
-70.49560546875
-63.17138671875
-62.255859375
-74.15771484375
-74.15771484375
-69.580078125
-72.32666015625
-65.00244140625
-75.0732421875
-71.4111328125
-68.66455078125
-70.49560546875
-66.83349609375
-78.7353515625
-79.65087890625
-73.2421875
-60.4248046875
-75.0732421875
-70.49560546875
-69.580078125
-76.904296875
-71.4111328125
-71.4111328125
-67.7490234375
-75.98876953125
-86.0595703125
-75.0732421875
-73.2421875
-77.81982421875
-75.0732421875
-78.7353515625
-82.3974609375
-86.0595703125
-80.56640625
-73.2421875
-78.7353515625
-81.48193359375
-79.65087890625
-76.904296875
-76.904296875
-80.56640625
-77.81982421875
-88.80615234375
-85.14404296875
-80.56640625
-81.48193359375
-87.890625
-91.552734375
-93.3837890625
-97.96142578125
-97.96142578125
-87.890625
-81.48193359375
-87.890625
-78.7353515625
-76.904296875
-83.31298828125
-86.0595703125
-88.80615234375
-97.96142578125
-87.890625
-86.0595703125
-92.46826171875
-82.3974609375
-82.3974609375
-91.552734375
-87.890625
-70.49560546875
-75.98876953125
-75.98876953125
-87.890625
-83.31298828125
-83.31298828125
-96.13037109375
-91.552734375
-88.80615234375
-84.228515625
-65.00244140625
-54.931640625
-63.17138671875
-65.00244140625
-71.4111328125
-67.7490234375
-75.98876953125
-67.7490234375
-58.59375
-42.1142578125
-24.71923828125
-21.05712890625
-21.05712890625
-20.1416015625
-11.90185546875
-14.6484375
-21.05712890625
-30.21240234375
-55.84716796875
-57.67822265625
-53.1005859375
-55.84716796875
-68.66455078125
-70.49560546875
-78.7353515625
-79.65087890625
-73.2421875
-72.32666015625
-69.580078125
-79.65087890625
-79.65087890625
-78.7353515625
-84.228515625
-82.3974609375
-80.56640625
-96.13037109375
-111.6943359375
-110.77880859375
-108.0322265625
-108.0322265625
-108.94775390625
-114.44091796875
-118.10302734375
-113.525390625
-118.10302734375
-111.6943359375
-108.94775390625
-102.5390625
-107.11669921875
-107.11669921875
-106.201171875
-108.0322265625
-107.11669921875
-106.201171875
-107.11669921875
-101.62353515625
-97.96142578125
-94.29931640625
-94.29931640625
-97.0458984375
-89.7216796875
-113.525390625
-109.86328125
-119.0185546875
-144.6533203125
-132.75146484375
-92.46826171875
-40.283203125
33.87451171875
104.3701171875
146.484375
166.6259765625
200.50048828125
275.57373046875
358.88671875
476.07421875
564.88037109375
654.60205078125
774.5361328125
955.810546875
1117.85888671875
1148.0712890625
1024.47509765625
791.015625
511.77978515625
351.5625
245.361328125
139.16015625
75.98876953125
73.2421875
69.580078125
32.04345703125
-31.1279296875
-117.1875
-188.5986328125
-244.44580078125
-272.8271484375
-262.75634765625
-241.69921875
-237.12158203125
-231.62841796875
-205.99365234375
-187.68310546875
-170.2880859375
-133.6669921875
-102.5390625
-86.97509765625
-78.7353515625
-75.0732421875
-76.904296875
-76.904296875
-83.31298828125
-80.56640625
-75.98876953125
-79.65087890625
-78.7353515625
-75.0732421875
-75.98876953125
-67.7490234375
-65.91796875
-75.0732421875
-76.904296875
-73.2421875
-72.32666015625
-66.83349609375
-70.49560546875
-58.59375
-58.59375
-67.7490234375
-64.0869140625
-63.17138671875
-64.0869140625
-54.01611328125
-59.50927734375
-57.67822265625
-58.59375
-57.67822265625
-54.931640625
-54.931640625
-54.931640625
-63.17138671875
-52.18505859375
-50.35400390625
-49.4384765625
-52.18505859375
-52.18505859375
-45.7763671875
-34.7900390625
-41.19873046875
-38.4521484375
-46.69189453125
-47.607421875
-44.86083984375
-33.87451171875
-35.70556640625
-35.70556640625
-38.4521484375
-32.958984375
-27.4658203125
-27.4658203125
-26.55029296875
-26.55029296875
-27.4658203125
-20.1416015625
-10.07080078125
-13.73291015625
-14.6484375
-4.57763671875
-10.07080078125
-0.91552734375
-9.1552734375
-6.40869140625
-10.986328125
0
18.310546875
14.6484375
11.90185546875
14.6484375
18.310546875
27.4658203125
21.97265625
26.55029296875
27.4658203125
31.1279296875
37.53662109375
44.86083984375
50.35400390625
54.01611328125
62.255859375
68.66455078125
63.17138671875
62.255859375
57.67822265625
59.50927734375
68.66455078125
73.2421875
75.98876953125
76.904296875
74.15771484375
80.56640625
81.48193359375
87.890625
88.80615234375
84.228515625
80.56640625
89.7216796875
87.890625
77.81982421875
85.14404296875
90.63720703125
88.80615234375
76.904296875
74.15771484375
71.4111328125
61.34033203125
61.34033203125
66.83349609375
56.7626953125
52.18505859375
41.19873046875
31.1279296875
26.55029296875
10.986328125
4.57763671875
9.1552734375
-1.8310546875
4.57763671875
-1.8310546875
-19.22607421875
-19.22607421875
-32.958984375
-36.62109375
-47.607421875
-48.52294921875
-49.4384765625
-53.1005859375
-52.18505859375
-52.18505859375
-64.0869140625
-67.7490234375
-62.255859375
-75.98876953125
-78.7353515625
-74.15771484375
-79.65087890625
-83.31298828125
-86.97509765625
-86.97509765625
-86.97509765625
-89.7216796875
-92.46826171875
-89.7216796875
-92.46826171875
-96.13037109375
-94.29931640625
-93.3837890625
-90.63720703125
-91.552734375
-97.96142578125
-105.28564453125
-91.552734375
-93.3837890625
-102.5390625
-97.96142578125
-90.63720703125
-93.3837890625
-92.46826171875
-93.3837890625
-88.80615234375
-88.80615234375
-92.46826171875
-97.96142578125
-90.63720703125
-91.552734375
-89.7216796875
-86.0595703125
-88.80615234375
-81.48193359375
-82.3974609375
-93.3837890625
-85.14404296875
-91.552734375
-95.21484375
-86.97509765625
-86.0595703125
-86.0595703125
-78.7353515625
-77.81982421875
-81.48193359375
-82.3974609375
-77.81982421875
-80.56640625
-91.552734375
-93.3837890625
-82.3974609375
-73.2421875
-79.65087890625
-90.63720703125
-79.65087890625
-68.66455078125
-71.4111328125
-75.98876953125
-79.65087890625
-81.48193359375
-73.2421875
-74.15771484375
-78.7353515625
-75.0732421875
-70.49560546875
-67.7490234375
-64.0869140625
-71.4111328125
-82.3974609375
-75.98876953125
-70.49560546875
-75.0732421875
-78.7353515625
-75.0732421875
-73.2421875
-65.91796875
-67.7490234375
-83.31298828125
-74.15771484375
-73.2421875
-78.7353515625
-71.4111328125
-71.4111328125
-71.4111328125
-76.904296875
-80.56640625
-75.0732421875
-75.98876953125
-75.0732421875
-71.4111328125
-77.81982421875
-79.65087890625
-81.48193359375
-80.56640625
-83.31298828125
-80.56640625
-80.56640625
-78.7353515625
-86.97509765625
-85.14404296875
-87.890625
-78.7353515625
-70.49560546875
-76.904296875
-80.56640625
-85.14404296875
-78.7353515625
-78.7353515625
-87.890625
-93.3837890625
-84.228515625
-73.2421875
-84.228515625
-67.7490234375
-81.48193359375
-86.0595703125
-81.48193359375
-75.98876953125
-83.31298828125
-75.98876953125
-75.98876953125
-77.81982421875
-75.0732421875
-80.56640625
-79.65087890625
-83.31298828125
-91.552734375
-87.890625
-83.31298828125
-80.56640625
-76.904296875
-87.890625
-79.65087890625
-75.98876953125
-85.14404296875
-86.97509765625
-81.48193359375
-80.56640625
-86.0595703125
-88.80615234375
-85.14404296875
-75.98876953125
-80.56640625
-84.228515625
-75.0732421875
-78.7353515625
-83.31298828125
-74.15771484375
-71.4111328125
-67.7490234375
-73.2421875
-67.7490234375
-69.580078125
-72.32666015625
-78.7353515625
-74.15771484375
-56.7626953125
-42.1142578125
-46.69189453125
-52.18505859375
-55.84716796875
-55.84716796875
-59.50927734375
-46.69189453125
-44.86083984375
-33.87451171875
-13.73291015625
-26.55029296875
-16.4794921875
-8.23974609375
2.74658203125
-13.73291015625
-18.310546875
-16.4794921875
-34.7900390625
-43.9453125
-50.35400390625
-39.36767578125
-51.26953125
-65.91796875
-60.4248046875
-61.34033203125
-62.255859375
-54.931640625
-49.4384765625
-60.4248046875
-66.83349609375
-57.67822265625
-65.00244140625
-66.83349609375
-78.7353515625
-80.56640625
-88.80615234375
-83.31298828125
-93.3837890625
-93.3837890625
-91.552734375
-97.0458984375
-92.46826171875
-101.62353515625
-91.552734375
-92.46826171875
-89.7216796875
-89.7216796875
-97.0458984375
-97.96142578125
-93.3837890625
-88.80615234375
-87.890625
-86.0595703125
-81.48193359375
-81.48193359375
-88.80615234375
-80.56640625
-70.49560546875
-73.2421875
-77.81982421875
-81.48193359375
-87.890625
-95.21484375
-108.94775390625
-102.5390625
-70.49560546875
-19.22607421875
50.35400390625
132.75146484375
178.52783203125
207.82470703125
251.77001953125
337.82958984375
437.6220703125
556.640625
653.6865234375
754.39453125
881.65283203125
1040.0390625
1198.42529296875
1227.72216796875
1102.294921875
877.0751953125
592.34619140625
386.3525390625
266.41845703125
163.87939453125
83.31298828125
47.607421875
33.87451171875
-39.36767578125
-118.10302734375
-179.443359375
-228.8818359375
-249.93896484375
-240.78369140625
-230.712890625
-216.97998046875
-212.40234375
-184.9365234375
-153.80859375
-121.76513671875
-83.31298828125
-57.67822265625
-51.26953125
-50.35400390625
-51.26953125
-47.607421875
-43.9453125
-54.01611328125
-55.84716796875
-55.84716796875
-54.01611328125
-43.9453125
-38.4521484375
-40.283203125
-44.86083984375
-41.19873046875
-37.53662109375
-42.1142578125
-42.1142578125
-41.19873046875
-32.04345703125
-27.4658203125
-25.634765625
-23.8037109375
-21.97265625
-18.310546875
-23.8037109375
-30.21240234375
-30.21240234375
-22.88818359375
-20.1416015625
-12.8173828125
-13.73291015625
-17.39501953125
-13.73291015625
-20.1416015625
-21.05712890625
-7.32421875
-11.90185546875
-8.23974609375
-14.6484375
-13.73291015625
-10.07080078125
-8.23974609375
1.8310546875
-5.4931640625
-10.07080078125
0
4.57763671875
0.91552734375
8.23974609375
16.4794921875
6.40869140625
13.73291015625
11.90185546875
13.73291015625
20.1416015625
18.310546875
23.8037109375
21.05712890625
12.8173828125
31.1279296875
37.53662109375
41.19873046875
32.958984375
44.86083984375
44.86083984375
46.69189453125
52.18505859375
49.4384765625
46.69189453125
43.9453125
55.84716796875
69.580078125
72.32666015625
81.48193359375
82.3974609375
82.3974609375
86.0595703125
89.7216796875
97.0458984375
97.96142578125
112.60986328125
113.525390625
104.3701171875
107.11669921875
114.44091796875
119.0185546875
130.0048828125
126.3427734375
135.498046875
136.41357421875
142.822265625
148.3154296875
144.6533203125
146.484375
148.3154296875
157.470703125
156.55517578125
154.72412109375
151.06201171875
154.72412109375
155.6396484375
160.21728515625
154.72412109375
161.1328125
151.9775390625
151.06201171875
149.23095703125
141.90673828125
134.58251953125
126.3427734375
130.92041015625
127.25830078125
125.42724609375
119.93408203125
112.60986328125
102.5390625
87.890625
81.48193359375
71.4111328125
64.0869140625
62.255859375
51.26953125
53.1005859375
54.931640625
30.21240234375
23.8037109375
18.310546875
18.310546875
8.23974609375
-5.4931640625
-0.91552734375
-3.662109375
1.8310546875
-1.8310546875
-21.97265625
-27.4658203125
-32.958984375
-32.958984375
-26.55029296875
-29.296875
-25.634765625
-29.296875
-32.958984375
-40.283203125
-39.36767578125
-41.19873046875
-40.283203125
-32.04345703125
-34.7900390625
-44.86083984375
-43.9453125
-43.02978515625
-38.4521484375
-46.69189453125
-53.1005859375
-43.9453125
-44.86083984375
-52.18505859375
-52.18505859375
-48.52294921875
-49.4384765625
-48.52294921875
-39.36767578125
-49.4384765625
-62.255859375
-55.84716796875
-52.18505859375
-46.69189453125
-48.52294921875
-45.7763671875
-46.69189453125
-45.7763671875
-46.69189453125
-38.4521484375
-43.9453125
-46.69189453125
-51.26953125
-49.4384765625
-55.84716796875
-49.4384765625
-41.19873046875
-46.69189453125
-42.1142578125
-46.69189453125
-48.52294921875
-40.283203125
-37.53662109375
-42.1142578125
-35.70556640625
-36.62109375
-33.87451171875
-31.1279296875
-33.87451171875
-38.4521484375
-40.283203125
-34.7900390625
-42.1142578125
-43.9453125
-31.1279296875
-27.4658203125
-39.36767578125
-39.36767578125
-29.296875
-21.05712890625
-31.1279296875
-35.70556640625
-37.53662109375
-35.70556640625
-32.04345703125
-29.296875
-36.62109375
-32.958984375
-30.21240234375
-31.1279296875
-28.38134765625
-29.296875
-36.62109375
-36.62109375
-42.1142578125
-44.86083984375
-30.21240234375
-28.38134765625
-32.04345703125
-37.53662109375
-36.62109375
-34.7900390625
-28.38134765625
-35.70556640625
-33.87451171875
-35.70556640625
-30.21240234375
-32.958984375
-43.9453125
-34.7900390625
-32.04345703125
-42.1142578125
-36.62109375
-38.4521484375
-42.1142578125
-33.87451171875
-27.4658203125
-41.19873046875
-44.86083984375
-43.02978515625
-37.53662109375
-45.7763671875
-44.86083984375
-49.4384765625
-46.69189453125
-40.283203125
-40.283203125
-37.53662109375
-39.36767578125
-43.9453125
-36.62109375
-40.283203125
-51.26953125
-54.931640625
-52.18505859375
-46.69189453125
-39.36767578125
-43.02978515625
-32.958984375
-37.53662109375
-47.607421875
-43.02978515625
-44.86083984375
-51.26953125
-47.607421875
-43.9453125
-51.26953125
-47.607421875
-45.7763671875
-51.26953125
-52.18505859375
-42.1142578125
-48.52294921875
-54.931640625
-52.18505859375
-44.86083984375
-38.4521484375
-42.1142578125
-48.52294921875
-47.607421875
-47.607421875
-49.4384765625
-52.18505859375
-48.52294921875
-48.52294921875
-48.52294921875
-49.4384765625
-45.7763671875
-47.607421875
-48.52294921875
-52.18505859375
-43.9453125
-45.7763671875
-52.18505859375
-43.02978515625
-35.70556640625
-39.36767578125
-30.21240234375
-23.8037109375
-34.7900390625
-42.1142578125
-46.69189453125
-49.4384765625
-26.55029296875
-14.6484375
-21.05712890625
-24.71923828125
-23.8037109375
-20.1416015625
-14.6484375
-16.4794921875
-4.57763671875
2.74658203125
8.23974609375
16.4794921875
23.8037109375
29.296875
22.88818359375
22.88818359375
16.4794921875
10.07080078125
-14.6484375
-21.05712890625
-16.4794921875
-21.97265625
-30.21240234375
-32.04345703125
-26.55029296875
-24.71923828125
-26.55029296875
-23.8037109375
-23.8037109375
-25.634765625
-32.958984375
-27.4658203125
-32.958984375
-30.21240234375
-43.02978515625
-47.607421875
-59.50927734375
-64.0869140625
-68.66455078125
-75.0732421875
-66.83349609375
-64.0869140625
-70.49560546875
-67.7490234375
-59.50927734375
-60.4248046875
-56.7626953125
-62.255859375
-65.91796875
-58.59375
-59.50927734375
-55.84716796875
-58.59375
-63.17138671875
-52.18505859375
-47.607421875
-52.18505859375
-58.59375
-54.931640625
-51.26953125
-63.17138671875
-57.67822265625
-52.18505859375
-59.50927734375
-74.15771484375
-74.15771484375
-52.18505859375
-8.23974609375
60.4248046875
143.73779296875
203.2470703125
233.45947265625
273.74267578125
352.47802734375
446.77734375
568.54248046875
663.75732421875
764.46533203125
900.87890625
1046.44775390625
1197.509765625
1268.00537109375
1174.62158203125
965.88134765625
671.08154296875
439.453125
319.51904296875
201.416015625
103.45458984375
51.26953125
30.21240234375
-51.26953125
-108.94775390625
-164.794921875
-208.740234375
-228.8818359375
-218.81103515625
-210.5712890625
-202.33154296875
-182.18994140625
-162.9638671875
-122.6806640625
-87.890625
-57.67822265625
-36.62109375
-25.634765625
-25.634765625
-28.38134765625
-32.958984375
-37.53662109375
-37.53662109375
-27.4658203125
-23.8037109375
-27.4658203125
-30.21240234375
-28.38134765625
-21.97265625
-18.310546875
-22.88818359375
-21.05712890625
-27.4658203125
-16.4794921875
-18.310546875
-18.310546875
-22.88818359375
-20.1416015625
-8.23974609375
-10.986328125
-10.07080078125
-16.4794921875
-10.07080078125
-7.32421875
-7.32421875
-5.4931640625
-11.90185546875
-2.74658203125
-0.91552734375
-6.40869140625
-10.986328125
-6.40869140625
-0.91552734375
-2.74658203125
1.8310546875
8.23974609375
9.1552734375
6.40869140625
8.23974609375
10.986328125
5.4931640625
6.40869140625
5.4931640625
9.1552734375
13.73291015625
13.73291015625
21.05712890625
25.634765625
23.8037109375
15.56396484375
20.1416015625
26.55029296875
24.71923828125
19.22607421875
29.296875
33.87451171875
36.62109375
37.53662109375
52.18505859375
51.26953125
42.1142578125
42.1142578125
56.7626953125
57.67822265625
55.84716796875
57.67822265625
59.50927734375
66.83349609375
74.15771484375
80.56640625
77.81982421875
74.15771484375
85.14404296875
90.63720703125
96.13037109375
99.79248046875
105.28564453125
108.0322265625
114.44091796875
109.86328125
112.60986328125
121.76513671875
123.59619140625
134.58251953125
136.41357421875
139.16015625
144.6533203125
148.3154296875
149.23095703125
145.56884765625
151.9775390625
152.89306640625
151.06201171875
153.80859375
162.04833984375
159.3017578125
162.04833984375
157.470703125
163.87939453125
162.9638671875
162.04833984375
155.6396484375
152.89306640625
145.56884765625
156.55517578125
163.87939453125
146.484375
130.92041015625
129.08935546875
128.173828125
126.3427734375
118.10302734375
107.11669921875
96.13037109375
91.552734375
93.3837890625
77.81982421875
62.255859375
56.7626953125
48.52294921875
43.9453125
36.62109375
26.55029296875
27.4658203125
28.38134765625
14.6484375
7.32421875
11.90185546875
10.07080078125
-2.74658203125
-12.8173828125
-9.1552734375
-9.1552734375
-17.39501953125
-21.97265625
-21.05712890625
-23.8037109375
-31.1279296875
-30.21240234375
-36.62109375
-38.4521484375
-42.1142578125
-35.70556640625
-35.70556640625
-47.607421875
-43.9453125
-43.02978515625
-41.19873046875
-35.70556640625
-51.26953125
-44.86083984375
-43.9453125
-49.4384765625
-44.86083984375
-43.02978515625
-38.4521484375
-36.62109375
-42.1142578125
-46.69189453125
-47.607421875
-51.26953125
-51.26953125
-46.69189453125
-38.4521484375
-39.36767578125
-37.53662109375
-43.9453125
-41.19873046875
-41.19873046875
-39.36767578125
-36.62109375
-43.9453125
-47.607421875
-59.50927734375
-45.7763671875
-36.62109375
-35.70556640625
-40.283203125
-43.02978515625
-35.70556640625
-32.958984375
-38.4521484375
-44.86083984375
-46.69189453125
-46.69189453125
-41.19873046875
-35.70556640625
-31.1279296875
-34.7900390625
-34.7900390625
-39.36767578125
-37.53662109375
-33.87451171875
-33.87451171875
-35.70556640625
-34.7900390625
-32.04345703125
-29.296875
-34.7900390625
-42.1142578125
-28.38134765625
-28.38134765625
-32.04345703125
-37.53662109375
-34.7900390625
-25.634765625
-25.634765625
-25.634765625
-23.8037109375
-28.38134765625
-36.62109375
-28.38134765625
-27.4658203125
-30.21240234375
-26.55029296875
-32.04345703125
-26.55029296875
-34.7900390625
-32.04345703125
-25.634765625
-21.97265625
-24.71923828125
-24.71923828125
-38.4521484375
-42.1142578125
-33.87451171875
-23.8037109375
-26.55029296875
-28.38134765625
-32.958984375
-41.19873046875
-40.283203125
-36.62109375
-34.7900390625
-40.283203125
-33.87451171875
-33.87451171875
-31.1279296875
-33.87451171875
-42.1142578125
-42.1142578125
-31.1279296875
-32.04345703125
-34.7900390625
-36.62109375
-32.958984375
-25.634765625
-33.87451171875
-43.02978515625
-46.69189453125
-41.19873046875
-36.62109375
-45.7763671875
-43.02978515625
-39.36767578125
-42.1142578125
-42.1142578125
-37.53662109375
-39.36767578125
-46.69189453125
-42.1142578125
-38.4521484375
-39.36767578125
-38.4521484375
-39.36767578125
-30.21240234375
-39.36767578125
-38.4521484375
-41.19873046875
-41.19873046875
-39.36767578125
-41.19873046875
-40.283203125
-38.4521484375
-39.36767578125
-36.62109375
-41.19873046875
-51.26953125
-40.283203125
-49.4384765625
-50.35400390625
-42.1142578125
-35.70556640625
-41.19873046875
-45.7763671875
-36.62109375
-41.19873046875
-35.70556640625
-36.62109375
-49.4384765625
-38.4521484375
-35.70556640625
-42.1142578125
-46.69189453125
-43.9453125
-42.1142578125
-45.7763671875
-40.283203125
-49.4384765625
-43.9453125
-42.1142578125
-46.69189453125
-45.7763671875
-43.9453125
-37.53662109375
-32.04345703125
-37.53662109375
-30.21240234375
-30.21240234375
-43.9453125
-42.1142578125
-43.9453125
-37.53662109375
-32.958984375
-22.88818359375
-21.97265625
-20.1416015625
-24.71923828125
-25.634765625
-30.21240234375
-38.4521484375
-48.52294921875
-33.87451171875
-1.8310546875
-1.8310546875
-6.40869140625
-12.8173828125
-21.05712890625
-16.4794921875
-6.40869140625
-9.1552734375
-7.32421875
19.22607421875
28.38134765625
30.21240234375
43.9453125
43.9453125
40.283203125
32.958984375
17.39501953125
16.4794921875
4.57763671875
-14.6484375
-21.05712890625
-19.22607421875
-19.22607421875
-26.55029296875
-20.1416015625
-13.73291015625
-15.56396484375
-18.310546875
-16.4794921875
-30.21240234375
-27.4658203125
-22.88818359375
-21.05712890625
-29.296875
-31.1279296875
-37.53662109375
-53.1005859375
-62.255859375
-54.931640625
-63.17138671875
-67.7490234375
-61.34033203125
-61.34033203125
-57.67822265625
-56.7626953125
-54.931640625
-58.59375
-57.67822265625
-51.26953125
-54.931640625
-58.59375
-59.50927734375
-47.607421875
-45.7763671875
-45.7763671875
-40.283203125
-41.19873046875
-38.4521484375
-46.69189453125
-43.9453125
-45.7763671875
-47.607421875
-48.52294921875
-59.50927734375
-62.255859375
-75.0732421875
-54.931640625
-1.8310546875
62.255859375
141.90673828125
197.75390625
224.30419921875
276.4892578125
350.64697265625
430.2978515625
552.06298828125
654.60205078125
753.47900390625
880.7373046875
1029.052734375
1184.6923828125
1277.16064453125
1207.58056640625
995.17822265625
704.9560546875
455.01708984375
334.16748046875
219.7265625
114.44091796875
66.83349609375
40.283203125
-30.21240234375
-106.201171875
-157.470703125
-199.5849609375
-225.2197265625
-220.64208984375
-201.416015625
-198.66943359375
-184.02099609375
-160.21728515625
-120.849609375
-75.0732421875
-39.36767578125
-31.1279296875
-22.88818359375
-19.22607421875
-27.4658203125
-21.97265625
-27.4658203125
-30.21240234375
-27.4658203125
-21.05712890625
-17.39501953125
-14.6484375
-23.8037109375
-21.05712890625
-22.88818359375
-17.39501953125
-21.05712890625
-18.310546875
-9.1552734375
-10.986328125
-11.90185546875
-16.4794921875
-13.73291015625
-15.56396484375
-8.23974609375
-5.4931640625
-3.662109375
-3.662109375
-8.23974609375
-2.74658203125
0
-0.91552734375
-1.8310546875
-8.23974609375
-3.662109375
2.74658203125
-0.91552734375
0
3.662109375
1.8310546875
7.32421875
0.91552734375
11.90185546875
10.07080078125
10.07080078125
10.986328125
2.74658203125
10.986328125
10.986328125
18.310546875
24.71923828125
17.39501953125
15.56396484375
19.22607421875
22.88818359375
24.71923828125
26.55029296875
27.4658203125
32.958984375
42.1142578125
51.26953125
39.36767578125
38.4521484375
41.19873046875
44.86083984375
35.70556640625
47.607421875
43.9453125
58.59375
53.1005859375
67.7490234375
71.4111328125
66.83349609375
73.2421875
68.66455078125
74.15771484375
82.3974609375
84.228515625
92.46826171875
91.552734375
91.552734375
95.21484375
103.45458984375
110.77880859375
112.60986328125
107.11669921875
118.10302734375
119.0185546875
116.27197265625
126.3427734375
131.8359375
132.75146484375
133.6669921875
134.58251953125
140.07568359375
140.07568359375
138.24462890625
139.16015625
145.56884765625
155.6396484375
156.55517578125
157.470703125
146.484375
151.06201171875
161.1328125
156.55517578125
151.9775390625
151.06201171875
151.06201171875
150.146484375
136.41357421875
132.75146484375
138.24462890625
120.849609375
124.51171875
116.27197265625
105.28564453125
100.7080078125
97.0458984375
91.552734375
90.63720703125
81.48193359375
76.904296875
63.17138671875
54.931640625
53.1005859375
47.607421875
32.958984375
28.38134765625
20.1416015625
20.1416015625
10.986328125
12.8173828125
-1.8310546875
-5.4931640625
-0.91552734375
-16.4794921875
-24.71923828125
-22.88818359375
-23.8037109375
-29.296875
-25.634765625
-28.38134765625
-35.70556640625
-32.04345703125
-30.21240234375
-31.1279296875
-43.9453125
-42.1142578125
-42.1142578125
-46.69189453125
-44.86083984375
-51.26953125
-32.958984375
-31.1279296875
-44.86083984375
-58.59375
-50.35400390625
-49.4384765625
-56.7626953125
-48.52294921875
-40.283203125
-44.86083984375
-46.69189453125
-56.7626953125
-50.35400390625
-39.36767578125
-45.7763671875
-48.52294921875
-43.9453125
-42.1142578125
-46.69189453125
-47.607421875
-44.86083984375
-48.52294921875
-41.19873046875
-48.52294921875
-50.35400390625
-54.931640625
-48.52294921875
-48.52294921875
-41.19873046875
-43.02978515625
-52.18505859375
-44.86083984375
-50.35400390625
-48.52294921875
-45.7763671875
-40.283203125
-37.53662109375
-32.958984375
-43.02978515625
-50.35400390625
-38.4521484375
-40.283203125
-43.9453125
-46.69189453125
-35.70556640625
-44.86083984375
-41.19873046875
-31.1279296875
-31.1279296875
-34.7900390625
-30.21240234375
-34.7900390625
-39.36767578125
-38.4521484375
-43.02978515625
-45.7763671875
-45.7763671875
-38.4521484375
-37.53662109375
-32.958984375
-36.62109375
-31.1279296875
-31.1279296875
-38.4521484375
-48.52294921875
-42.1142578125
-33.87451171875
-37.53662109375
-34.7900390625
-44.86083984375
-48.52294921875
-37.53662109375
-33.87451171875
-37.53662109375
-38.4521484375
-43.02978515625
-43.9453125
-40.283203125
-43.02978515625
-43.02978515625
-44.86083984375
-54.931640625
-57.67822265625
-48.52294921875
-41.19873046875
-54.931640625
-56.7626953125
-45.7763671875
-47.607421875
-48.52294921875
-47.607421875
-55.84716796875
-59.50927734375
-54.931640625
-55.84716796875
-55.84716796875
-37.53662109375
-46.69189453125
-60.4248046875
-57.67822265625
-47.607421875
-53.1005859375
-54.931640625
-59.50927734375
-65.91796875
-60.4248046875
-53.1005859375
-53.1005859375
-59.50927734375
-61.34033203125
-61.34033203125
-59.50927734375
-63.17138671875
-71.4111328125
-65.91796875
-67.7490234375
-60.4248046875
-53.1005859375
-65.00244140625
-60.4248046875
-54.931640625
-54.931640625
-64.0869140625
-76.904296875
-77.81982421875
-68.66455078125
-58.59375
-59.50927734375
-77.81982421875
-74.15771484375
-61.34033203125
-59.50927734375
-57.67822265625
-56.7626953125
-61.34033203125
-65.00244140625
-64.0869140625
-64.0869140625
-64.0869140625
-64.0869140625
-59.50927734375
-55.84716796875
-65.91796875
-71.4111328125
-64.0869140625
-67.7490234375
-63.17138671875
-67.7490234375
-58.59375
-65.91796875
-67.7490234375
-63.17138671875
-64.0869140625
-74.15771484375
-71.4111328125
-71.4111328125
-73.2421875
-68.66455078125
-66.83349609375
-58.59375
-63.17138671875
-63.17138671875
-56.7626953125
-62.255859375
-64.0869140625
-66.83349609375
-62.255859375
-63.17138671875
-49.4384765625
-58.59375
-67.7490234375
-68.66455078125
-49.4384765625
-44.86083984375
-43.9453125
-39.36767578125
-47.607421875
-47.607421875
-52.18505859375
-59.50927734375
-38.4521484375
-27.4658203125
-14.6484375
0
6.40869140625
1.8310546875
1.8310546875
4.57763671875
-2.74658203125
-4.57763671875
-14.6484375
-32.958984375
-36.62109375
-43.9453125
-39.36767578125
-39.36767578125
-53.1005859375
-57.67822265625
-50.35400390625
-38.4521484375
-49.4384765625
-55.84716796875
-66.83349609375
-62.255859375
-69.580078125
-60.4248046875
-58.59375
-62.255859375
-77.81982421875
-86.97509765625
-97.0458984375
-91.552734375
-98.876953125
-100.7080078125
-93.3837890625
-93.3837890625
-95.21484375
-91.552734375
-93.3837890625
-85.14404296875
-84.228515625
-86.0595703125
-91.552734375
-84.228515625
-82.3974609375
-92.46826171875
-87.890625
-90.63720703125
-75.0732421875
-74.15771484375
-86.0595703125
-82.3974609375
-77.81982421875
-68.66455078125
-72.32666015625
-88.80615234375
-98.876953125
-97.96142578125
-112.60986328125
-101.62353515625
-44.86083984375
14.6484375
90.63720703125
151.06201171875
176.69677734375
205.078125
275.57373046875
359.80224609375
474.2431640625
559.38720703125
649.10888671875
758.056640625
914.61181640625
1082.1533203125
1156.31103515625
1072.08251953125
872.49755859375
599.67041015625
403.74755859375
283.8134765625
188.5986328125
96.13037109375
60.4248046875
60.4248046875
33.87451171875
-43.9453125
-118.10302734375
-190.4296875
-231.62841796875
-254.5166015625
-248.10791015625
-225.2197265625
-221.5576171875
-215.14892578125
-197.75390625
-179.443359375
-145.56884765625
-104.3701171875
-79.65087890625
-69.580078125
-61.34033203125
-61.34033203125
-63.17138671875
-65.00244140625
-76.904296875
-74.15771484375
-59.50927734375
-68.66455078125
-75.0732421875
-65.91796875
-61.34033203125
-65.00244140625
-61.34033203125
-56.7626953125
-58.59375
-54.01611328125
-49.4384765625
-43.9453125
-56.7626953125
-60.4248046875
-54.01611328125
-62.255859375
-55.84716796875
-43.9453125
-46.69189453125
-47.607421875
-52.18505859375
-47.607421875
-53.1005859375
-54.931640625
-65.00244140625
-56.7626953125
-44.86083984375
-41.19873046875
-45.7763671875
-52.18505859375
-45.7763671875
-36.62109375
-39.36767578125
-35.70556640625
-27.4658203125
-34.7900390625
-28.38134765625
-35.70556640625
-33.87451171875
-36.62109375
-39.36767578125
-25.634765625
-22.88818359375
-34.7900390625
-33.87451171875
-33.87451171875
-30.21240234375
-32.04345703125
-26.55029296875
-24.71923828125
-11.90185546875
-11.90185546875
-5.4931640625
-7.32421875
-10.07080078125
-6.40869140625
-6.40869140625
-1.8310546875
-4.57763671875
0.91552734375
3.662109375
5.4931640625
12.8173828125
15.56396484375
18.310546875
22.88818359375
21.97265625
29.296875
18.310546875
30.21240234375
31.1279296875
34.7900390625
36.62109375
43.9453125
39.36767578125
52.18505859375
52.18505859375
54.01611328125
61.34033203125
65.91796875
65.91796875
65.00244140625
73.2421875
75.98876953125
70.49560546875
64.0869140625
75.0732421875
85.14404296875
80.56640625
77.81982421875
85.14404296875
86.97509765625
84.228515625
87.890625
87.890625
77.81982421875
79.65087890625
74.15771484375
66.83349609375
77.81982421875
84.228515625
79.65087890625
72.32666015625
67.7490234375
57.67822265625
60.4248046875
47.607421875
44.86083984375
26.55029296875
30.21240234375
22.88818359375
22.88818359375
16.4794921875
8.23974609375
2.74658203125
-7.32421875
-12.8173828125
-13.73291015625
-25.634765625
-33.87451171875
-40.283203125
-36.62109375
-39.36767578125
-51.26953125
-65.00244140625
-63.17138671875
-62.255859375
-69.580078125
-80.56640625
-81.48193359375
-76.904296875
-84.228515625
-85.14404296875
-87.890625
-90.63720703125
-94.29931640625
-91.552734375
-92.46826171875
-94.29931640625
-88.80615234375
-84.228515625
-90.63720703125
-99.79248046875
-95.21484375
-93.3837890625
-100.7080078125
-100.7080078125
-100.7080078125
-102.5390625
-101.62353515625
-99.79248046875
-94.29931640625
-104.3701171875
-102.5390625
-97.96142578125
-99.79248046875
-98.876953125
-102.5390625
-99.79248046875
-108.0322265625
-97.96142578125
-93.3837890625
-99.79248046875
-108.94775390625
-100.7080078125
-102.5390625
-102.5390625
-86.97509765625
-108.0322265625
-101.62353515625
-93.3837890625
-99.79248046875
-93.3837890625
-96.13037109375
-96.13037109375
-97.96142578125
-93.3837890625
-95.21484375
-99.79248046875
-90.63720703125
-93.3837890625
-90.63720703125
-92.46826171875
-83.31298828125
-84.228515625
-86.97509765625
-85.14404296875
-90.63720703125
-82.3974609375
-85.14404296875
-86.97509765625
-84.228515625
-85.14404296875
-86.97509765625
-90.63720703125
-91.552734375
-92.46826171875
-89.7216796875
-83.31298828125
-87.890625
-81.48193359375
-91.552734375
-84.228515625
-83.31298828125
-89.7216796875
-88.80615234375
-86.97509765625
-82.3974609375
-87.890625
-85.14404296875
-84.228515625
-84.228515625
-86.0595703125
-86.97509765625
-92.46826171875
-94.29931640625
-76.904296875
-83.31298828125
-97.0458984375
-88.80615234375
-92.46826171875
-97.0458984375
-84.228515625
-84.228515625
-96.13037109375
-103.45458984375
-90.63720703125
-86.0595703125
-86.97509765625
-97.0458984375
-97.0458984375
-97.96142578125
-99.79248046875
-93.3837890625
-100.7080078125
-94.29931640625
-102.5390625
-101.62353515625
-98.876953125
-105.28564453125
-103.45458984375
-92.46826171875
-94.29931640625
-94.29931640625
-102.5390625
-107.11669921875
-100.7080078125
-108.0322265625
-104.3701171875
-104.3701171875
-102.5390625
-107.11669921875
-108.0322265625
-108.94775390625
-106.201171875
-100.7080078125
-101.62353515625
-108.0322265625
-101.62353515625
-102.5390625
-101.62353515625
-99.79248046875
-102.5390625
-108.0322265625
-102.5390625
-101.62353515625
-97.96142578125
-110.77880859375
-119.0185546875
-109.86328125
-108.0322265625
-109.86328125
-114.44091796875
-106.201171875
-104.3701171875
-111.6943359375
-108.94775390625
-104.3701171875
-114.44091796875
-115.3564453125
-112.60986328125
-105.28564453125
-106.201171875
-106.201171875
-112.60986328125
-107.11669921875
-97.0458984375
-103.45458984375
-109.86328125
-103.45458984375
-107.11669921875
-103.45458984375
-100.7080078125
-105.28564453125
-107.11669921875
-109.86328125
-110.77880859375
-110.77880859375
-106.201171875
-86.0595703125
-87.890625
-85.14404296875
-80.56640625
-91.552734375
-92.46826171875
-89.7216796875
-80.56640625
-62.255859375
-57.67822265625
-40.283203125
-41.19873046875
-42.1142578125
-34.7900390625
-42.1142578125
-49.4384765625
-49.4384765625
-66.83349609375
-85.14404296875
-84.228515625
-83.31298828125
-86.0595703125
-86.0595703125
-100.7080078125
-97.0458984375
-90.63720703125
-88.80615234375
-97.0458984375
-99.79248046875
-102.5390625
-96.13037109375
-95.21484375
-101.62353515625
-108.94775390625
-119.0185546875
-122.6806640625
-130.92041015625
-138.24462890625
-136.41357421875
-139.16015625
-139.16015625
-128.173828125
-120.849609375
-132.75146484375
-130.0048828125
-125.42724609375
-132.75146484375
-131.8359375
-128.173828125
-131.8359375
-127.25830078125
-126.3427734375
-133.6669921875
-126.3427734375
-122.6806640625
-121.76513671875
-117.1875
-122.6806640625
-124.51171875
-117.1875
-124.51171875
-128.173828125
-131.8359375
-144.6533203125
-156.55517578125
-152.89306640625
-106.201171875
-40.283203125
39.36767578125
84.228515625
116.27197265625
145.56884765625
198.66943359375
280.1513671875
390.93017578125
486.14501953125
571.2890625
664.6728515625
813.90380859375
1000.67138671875
1123.35205078125
1097.71728515625
916.44287109375
664.6728515625
423.88916015625
295.71533203125
183.10546875
98.876953125
61.34033203125
40.283203125
14.6484375
-20.1416015625
-97.0458984375
-177.6123046875
-237.12158203125
-281.06689453125
-285.64453125
-265.5029296875
-260.92529296875
-260.92529296875
-239.8681640625
-222.47314453125
-206.9091796875
-168.45703125
-141.90673828125
-117.1875
-103.45458984375
-106.201171875
-105.28564453125
-112.60986328125
-116.27197265625
-111.6943359375
-94.29931640625
-95.21484375
-109.86328125
-113.525390625
-86.0595703125
-93.3837890625
-95.21484375
-97.0458984375
-93.3837890625
-88.80615234375
-90.63720703125
-91.552734375
-88.80615234375
-85.14404296875
-86.97509765625
-86.97509765625
-87.890625
-91.552734375
-102.5390625
-86.97509765625
-83.31298828125
-85.14404296875
-84.228515625
-79.65087890625
-78.7353515625
-75.0732421875
-77.81982421875
-73.2421875
-77.81982421875
-73.2421875
-71.4111328125
-74.15771484375
-77.81982421875
-76.904296875
-68.66455078125
-72.32666015625
-65.91796875
-67.7490234375
-67.7490234375
-67.7490234375
-55.84716796875
-64.0869140625
-67.7490234375
-61.34033203125
-58.59375
-58.59375
-60.4248046875
-51.26953125
-52.18505859375
-59.50927734375
-46.69189453125
-33.87451171875
-41.19873046875
-52.18505859375
-46.69189453125
-48.52294921875
-34.7900390625
-32.04345703125
-20.1416015625
-17.39501953125
-29.296875
-24.71923828125
-17.39501953125
-20.1416015625
-21.97265625
-11.90185546875
-11.90185546875
-5.4931640625
-2.74658203125
-1.8310546875
3.662109375
3.662109375
14.6484375
16.4794921875
24.71923828125
25.634765625
29.296875
30.21240234375
33.87451171875
30.21240234375
32.04345703125
37.53662109375
45.7763671875
47.607421875
44.86083984375
44.86083984375
39.36767578125
44.86083984375
53.1005859375
54.01611328125
57.67822265625
65.00244140625
63.17138671875
56.7626953125
57.67822265625
60.4248046875
57.67822265625
53.1005859375
47.607421875
50.35400390625
42.1142578125
43.02978515625
39.36767578125
40.283203125
35.70556640625
33.87451171875
32.04345703125
21.97265625
15.56396484375
5.4931640625
0.91552734375
-5.4931640625
-20.1416015625
-20.1416015625
-25.634765625
-38.4521484375
-39.36767578125
-47.607421875
-54.01611328125
-58.59375
-62.255859375
-61.34033203125
-64.0869140625
-72.32666015625
-76.904296875
-76.904296875
-81.48193359375
-94.29931640625
-95.21484375
-93.3837890625
-95.21484375
-96.13037109375
-101.62353515625
-94.29931640625
-103.45458984375
-108.94775390625
-110.77880859375
-106.201171875
-106.201171875
-108.94775390625
-105.28564453125
-110.77880859375
-108.0322265625
-106.201171875
-111.6943359375
-109.86328125
-104.3701171875
-108.94775390625
-114.44091796875
-114.44091796875
-114.44091796875
-116.27197265625
-113.525390625
-110.77880859375
-113.525390625
-108.94775390625
-112.60986328125
-109.86328125
-110.77880859375
-111.6943359375
-100.7080078125
-103.45458984375
-116.27197265625
-110.77880859375
-108.0322265625
-104.3701171875
-111.6943359375
-112.60986328125
-105.28564453125
-101.62353515625
-111.6943359375
-106.201171875
-108.94775390625
-99.79248046875
-102.5390625
-104.3701171875
-106.201171875
-114.44091796875
-93.3837890625
-89.7216796875
-97.0458984375
-94.29931640625
-101.62353515625
-95.21484375
-102.5390625
-106.201171875
-99.79248046875
-99.79248046875
-89.7216796875
-93.3837890625
-101.62353515625
-97.0458984375
-88.80615234375
-88.80615234375
-95.21484375
-99.79248046875
-91.552734375
-89.7216796875
-91.552734375
-91.552734375
-91.552734375
-97.96142578125
-100.7080078125
-92.46826171875
-79.65087890625
-82.3974609375
-87.890625
-95.21484375
-95.21484375
-94.29931640625
-103.45458984375
-90.63720703125
-93.3837890625
-98.876953125
-96.13037109375
-99.79248046875
-92.46826171875
-94.29931640625
-98.876953125
-93.3837890625
-97.96142578125
-96.13037109375
-93.3837890625
-89.7216796875
-91.552734375
-92.46826171875
-91.552734375
-100.7080078125
-101.62353515625
-101.62353515625
-92.46826171875
-104.3701171875
-97.0458984375
-97.96142578125
-108.0322265625
-99.79248046875
-100.7080078125
-103.45458984375
-97.96142578125
-102.5390625
-105.28564453125
-100.7080078125
-97.96142578125
-95.21484375
-104.3701171875
-103.45458984375
-103.45458984375
-108.0322265625
-98.876953125
-91.552734375
-95.21484375
-104.3701171875
-107.11669921875
-102.5390625
-108.0322265625
-105.28564453125
-104.3701171875
-104.3701171875
-106.201171875
-105.28564453125
-98.876953125
-98.876953125
-96.13037109375
-97.0458984375
-97.96142578125
-94.29931640625
-105.28564453125
-102.5390625
-96.13037109375
-94.29931640625
-102.5390625
-106.201171875
-100.7080078125
-91.552734375
-101.62353515625
-101.62353515625
-97.0458984375
-101.62353515625
-93.3837890625
-103.45458984375
-104.3701171875
-101.62353515625
-108.0322265625
-109.86328125
-106.201171875
-101.62353515625
-101.62353515625
-102.5390625
-109.86328125
-108.94775390625
-105.28564453125
-105.28564453125
-95.21484375
-95.21484375
-88.80615234375
-85.14404296875
-90.63720703125
-91.552734375
-93.3837890625
-84.228515625
-92.46826171875
-98.876953125
-97.96142578125
-98.876953125
-90.63720703125
-65.91796875
-66.83349609375
-73.2421875
-72.32666015625
-73.2421875
-76.904296875
-80.56640625
-65.91796875
-50.35400390625
-43.02978515625
-37.53662109375
-28.38134765625
-24.71923828125
-28.38134765625
-27.4658203125
-30.21240234375
-32.958984375
-27.4658203125
-54.01611328125
-66.83349609375
-70.49560546875
-72.32666015625
-81.48193359375
-84.228515625
-86.97509765625
-79.65087890625
-77.81982421875
-75.98876953125
-64.0869140625
-65.91796875
-81.48193359375
-87.890625
-85.14404296875
-81.48193359375
-94.29931640625
-97.96142578125
-108.0322265625
-111.6943359375
-117.1875
-119.93408203125
-113.525390625
-114.44091796875
-111.6943359375
-108.94775390625
-111.6943359375
-106.201171875
-109.86328125
-115.3564453125
-110.77880859375
-97.96142578125
-106.201171875
-106.201171875
-107.11669921875
-97.0458984375
-108.94775390625
-108.0322265625
-98.876953125
-91.552734375
-97.96142578125
-95.21484375
-95.21484375
-99.79248046875
-109.86328125
-117.1875
-126.3427734375
-129.08935546875
-86.97509765625
-34.7900390625
48.52294921875
114.44091796875
153.80859375
194.091796875
237.12158203125
324.0966796875
418.39599609375
534.66796875
629.8828125
734.2529296875
865.17333984375
1029.052734375
1178.28369140625
1198.42529296875
1063.8427734375
831.298828125
551.1474609375
358.88671875
238.95263671875
119.93408203125
59.50927734375
33.87451171875
1.8310546875
-58.59375
-126.3427734375
-191.34521484375
-244.44580078125
-265.5029296875
-260.92529296875
-246.27685546875
-227.05078125
-226.13525390625
-215.14892578125
-190.4296875
-148.3154296875
-111.6943359375
-84.228515625
-71.4111328125
-66.83349609375
-68.66455078125
-68.66455078125
-73.2421875
-79.65087890625
-74.15771484375
-77.81982421875
-73.2421875
-67.7490234375
-62.255859375
-59.50927734375
-58.59375
-53.1005859375
-59.50927734375
-60.4248046875
-54.01611328125
-61.34033203125
-55.84716796875
-60.4248046875
-54.931640625
-54.01611328125
-59.50927734375
-54.01611328125
-49.4384765625
-47.607421875
-47.607421875
-43.9453125
-46.69189453125
-49.4384765625
-43.9453125
-37.53662109375
-37.53662109375
-37.53662109375
-36.62109375
-38.4521484375
-39.36767578125
-40.283203125
-46.69189453125
-32.04345703125
-25.634765625
-36.62109375
-32.04345703125
-32.958984375
-34.7900390625
-30.21240234375
-22.88818359375
-18.310546875
-18.310546875
-18.310546875
-13.73291015625
-10.986328125
-9.1552734375
-10.986328125
-12.8173828125
-14.6484375
-13.73291015625
-10.986328125
-4.57763671875
5.4931640625
0
7.32421875
8.23974609375
2.74658203125
7.32421875
11.90185546875
21.05712890625
21.97265625
18.310546875
18.310546875
29.296875
38.4521484375
43.02978515625
40.283203125
44.86083984375
50.35400390625
51.26953125
55.84716796875
57.67822265625
61.34033203125
65.91796875
75.98876953125
76.904296875
83.31298828125
84.228515625
88.80615234375
87.890625
89.7216796875
97.96142578125
101.62353515625
104.3701171875
108.94775390625
118.10302734375
106.201171875
100.7080078125
118.10302734375
117.1875
112.60986328125
114.44091796875
127.25830078125
123.59619140625
122.6806640625
127.25830078125
120.849609375
109.86328125
105.28564453125
108.94775390625
111.6943359375
102.5390625
99.79248046875
104.3701171875
100.7080078125
79.65087890625
82.3974609375
83.31298828125
78.7353515625
64.0869140625
58.59375
54.931640625
49.4384765625
32.958984375
27.4658203125
26.55029296875
17.39501953125
9.1552734375
11.90185546875
3.662109375
-12.8173828125
-20.1416015625
-25.634765625
-29.296875
-26.55029296875
-43.02978515625
-43.02978515625
-41.19873046875
-40.283203125
-43.9453125
-45.7763671875
-54.931640625
-55.84716796875
-54.01611328125
-59.50927734375
-60.4248046875
-61.34033203125
-65.00244140625
-55.84716796875
-65.00244140625
-72.32666015625
-78.7353515625
-70.49560546875
-69.580078125
-73.2421875
-65.91796875
-72.32666015625
-75.98876953125
-74.15771484375
-74.15771484375
-75.0732421875
-69.580078125
-64.0869140625
-66.83349609375
-70.49560546875
-75.98876953125
-76.904296875
-67.7490234375
-76.904296875
-64.0869140625
-69.580078125
-68.66455078125
-67.7490234375
-72.32666015625
-68.66455078125
-60.4248046875
-60.4248046875
-66.83349609375
-72.32666015625
-57.67822265625
-64.0869140625
-68.66455078125
-65.00244140625
-71.4111328125
-68.66455078125
-60.4248046875
-63.17138671875
-62.255859375
-59.50927734375
-58.59375
-59.50927734375
-60.4248046875
-65.00244140625
-60.4248046875
-58.59375
-57.67822265625
-54.01611328125
-55.84716796875
-54.931640625
-56.7626953125
-62.255859375
-63.17138671875
-57.67822265625
-49.4384765625
-52.18505859375
-50.35400390625
-50.35400390625
-52.18505859375
-52.18505859375
-53.1005859375
-65.00244140625
-53.1005859375
-55.84716796875
-54.01611328125
-48.52294921875
-54.01611328125
-53.1005859375
-57.67822265625
-52.18505859375
-51.26953125
-54.931640625
-53.1005859375
-54.01611328125
-54.01611328125
-48.52294921875
-48.52294921875
-50.35400390625
-52.18505859375
-47.607421875
-49.4384765625
-54.01611328125
-57.67822265625
-57.67822265625
-61.34033203125
-60.4248046875
-55.84716796875
-54.931640625
-58.59375
-57.67822265625
-61.34033203125
-62.255859375
-57.67822265625
-59.50927734375
-54.931640625
-61.34033203125
-54.931640625
-53.1005859375
-57.67822265625
-54.01611328125
-54.931640625
-62.255859375
-60.4248046875
-49.4384765625
-51.26953125
-61.34033203125
-67.7490234375
-72.32666015625
-75.0732421875
-65.00244140625
-57.67822265625
-56.7626953125
-61.34033203125
-58.59375
-55.84716796875
-56.7626953125
-62.255859375
-60.4248046875
-61.34033203125
-64.0869140625
-61.34033203125
-62.255859375
-68.66455078125
-64.0869140625
-65.91796875
-63.17138671875
-57.67822265625
-54.931640625
-61.34033203125
-66.83349609375
-64.0869140625
-54.931640625
-56.7626953125
-54.931640625
-58.59375
-66.83349609375
-62.255859375
-59.50927734375
-70.49560546875
-64.0869140625
-63.17138671875
-60.4248046875
-58.59375
-61.34033203125
-57.67822265625
-57.67822265625
-61.34033203125
-54.931640625
-56.7626953125
-65.91796875
-65.91796875
-74.15771484375
-56.7626953125
-54.931640625
-58.59375
-61.34033203125
-66.83349609375
-53.1005859375
-57.67822265625
-65.00244140625
-67.7490234375
-65.91796875
-65.91796875
-64.0869140625
-57.67822265625
-65.00244140625
-60.4248046875
-60.4248046875
-57.67822265625
-51.26953125
-57.67822265625
-51.26953125
-54.931640625
-54.01611328125
-44.86083984375
-41.19873046875
-41.19873046875
-44.86083984375
-54.01611328125
-46.69189453125
-49.4384765625
-46.69189453125
-55.84716796875
-46.69189453125
-28.38134765625
-21.97265625
-22.88818359375
-26.55029296875
-33.87451171875
-31.1279296875
-28.38134765625
-27.4658203125
-14.6484375
-8.23974609375
0.91552734375
15.56396484375
17.39501953125
15.56396484375
19.22607421875
11.90185546875
2.74658203125
0
-9.1552734375
-23.8037109375
-24.71923828125
-30.21240234375
-30.21240234375
-33.87451171875
-36.62109375
-34.7900390625
-36.62109375
-39.36767578125
-35.70556640625
-34.7900390625
-39.36767578125
-32.04345703125
-41.19873046875
-36.62109375
-44.86083984375
-51.26953125
-68.66455078125
-77.81982421875
-71.4111328125
-75.98876953125
-72.32666015625
-72.32666015625
-65.00244140625
-76.904296875
-79.65087890625
-77.81982421875
-69.580078125
-64.0869140625
-61.34033203125
-69.580078125
-68.66455078125
-67.7490234375
-68.66455078125
-65.91796875
-61.34033203125
-55.84716796875
-57.67822265625
-59.50927734375
-66.83349609375
-65.00244140625
-61.34033203125
-63.17138671875
-64.0869140625
-74.15771484375
-96.13037109375
-92.46826171875
-50.35400390625
13.73291015625
85.14404296875
156.55517578125
205.99365234375
243.5302734375
290.22216796875
365.29541015625
474.2431640625
597.83935546875
688.4765625
804.74853515625
942.9931640625
1094.05517578125
1237.79296875
1257.01904296875
1115.1123046875
883.48388671875
588.68408203125
385.43701171875
275.57373046875
162.04833984375
73.2421875
33.87451171875
-8.23974609375
-80.56640625
-144.6533203125
-196.83837890625
-216.97998046875
-237.12158203125
-220.64208984375
-208.740234375
-198.66943359375
-182.18994140625
-159.3017578125
-120.849609375
-75.98876953125
-43.02978515625
-28.38134765625
-30.21240234375
-35.70556640625
-39.36767578125
-34.7900390625
-32.04345703125
-30.21240234375
-31.1279296875
-34.7900390625
-33.87451171875
-30.21240234375
-32.04345703125
-29.296875
-28.38134765625
-21.05712890625
-25.634765625
-18.310546875
-19.22607421875
-28.38134765625
-20.1416015625
-17.39501953125
-18.310546875
-12.8173828125
-20.1416015625
-28.38134765625
-21.05712890625
-21.97265625
-14.6484375
-6.40869140625
-5.4931640625
-3.662109375
-11.90185546875
-11.90185546875
-14.6484375
-13.73291015625
-8.23974609375
-7.32421875
-7.32421875
-3.662109375
3.662109375
3.662109375
7.32421875
10.07080078125
-0.91552734375
-1.8310546875
7.32421875
12.8173828125
7.32421875
17.39501953125
11.90185546875
6.40869140625
16.4794921875
15.56396484375
16.4794921875
21.05712890625
20.1416015625
21.05712890625
21.97265625
23.8037109375
29.296875
32.958984375
31.1279296875
29.296875
32.04345703125
46.69189453125
56.7626953125
49.4384765625
43.9453125
51.26953125
59.50927734375
61.34033203125
66.83349609375
64.0869140625
58.59375
69.580078125
77.81982421875
74.15771484375
86.97509765625
100.7080078125
97.0458984375
89.7216796875
98.876953125
100.7080078125
110.77880859375
108.94775390625
115.3564453125
126.3427734375
124.51171875
124.51171875
124.51171875
125.42724609375
138.24462890625
138.24462890625
146.484375
151.06201171875
145.56884765625
140.9912109375
149.23095703125
151.9775390625
151.06201171875
155.6396484375
153.80859375
151.06201171875
144.6533203125
148.3154296875
150.146484375
152.89306640625
162.04833984375
160.21728515625
141.90673828125
135.498046875
135.498046875
123.59619140625
125.42724609375
119.93408203125
111.6943359375
108.94775390625
95.21484375
90.63720703125
90.63720703125
75.0732421875
72.32666015625
65.91796875
56.7626953125
49.4384765625
37.53662109375
29.296875
23.8037109375
29.296875
14.6484375
7.32421875
5.4931640625
3.662109375
0
-4.57763671875
-21.97265625
-20.1416015625
-21.97265625
-22.88818359375
-32.04345703125
-26.55029296875
-24.71923828125
-30.21240234375
-44.86083984375
-34.7900390625
-34.7900390625
-32.958984375
-32.04345703125
-43.9453125
-48.52294921875
-38.4521484375
-40.283203125
-49.4384765625
-43.02978515625
-42.1142578125
-45.7763671875
-37.53662109375
-42.1142578125
-47.607421875
-46.69189453125
-44.86083984375
-48.52294921875
-46.69189453125
-43.02978515625
-47.607421875
-42.1142578125
-41.19873046875
-49.4384765625
-49.4384765625
-45.7763671875
-49.4384765625
-45.7763671875
-50.35400390625
-57.67822265625
-42.1142578125
-28.38134765625
-44.86083984375
-51.26953125
-45.7763671875
-37.53662109375
-39.36767578125
-38.4521484375
-34.7900390625
-42.1142578125
-38.4521484375
-37.53662109375
-43.02978515625
-45.7763671875
-35.70556640625
-33.87451171875
-37.53662109375
-39.36767578125
-33.87451171875
-43.02978515625
-45.7763671875
-39.36767578125
-36.62109375
-30.21240234375
-38.4521484375
-38.4521484375
-33.87451171875
-31.1279296875
-29.296875
-38.4521484375
-39.36767578125
-35.70556640625
-28.38134765625
-31.1279296875
-37.53662109375
-32.958984375
-31.1279296875
-33.87451171875
-34.7900390625
-28.38134765625
-36.62109375
-35.70556640625
-42.1142578125
-28.38134765625
-32.958984375
-34.7900390625
-32.958984375
-35.70556640625
-42.1142578125
-43.02978515625
-37.53662109375
-36.62109375
-35.70556640625
-39.36767578125
-37.53662109375
-35.70556640625
-33.87451171875
-37.53662109375
-39.36767578125
-49.4384765625
-48.52294921875
-36.62109375
-43.02978515625
-48.52294921875
-43.9453125
-42.1142578125
-40.283203125
-41.19873046875
-49.4384765625
-42.1142578125
-39.36767578125
-42.1142578125
-38.4521484375
-32.958984375
-41.19873046875
-48.52294921875
-49.4384765625
-41.19873046875
-40.283203125
-39.36767578125
-49.4384765625
-51.26953125
-44.86083984375
-54.01611328125
-47.607421875
-41.19873046875
-53.1005859375
-51.26953125
-50.35400390625
-52.18505859375
-40.283203125
-41.19873046875
-45.7763671875
-49.4384765625
-49.4384765625
-48.52294921875
-50.35400390625
-48.52294921875
-56.7626953125
-58.59375
-46.69189453125
-40.283203125
-41.19873046875
-43.02978515625
-47.607421875
-40.283203125
-50.35400390625
-46.69189453125
-58.59375
-46.69189453125
-54.931640625
-48.52294921875
-53.1005859375
-48.52294921875
-47.607421875
-50.35400390625
-42.1142578125
-50.35400390625
-51.26953125
-51.26953125
-45.7763671875
-47.607421875
-48.52294921875
-48.52294921875
-43.9453125
-46.69189453125
-48.52294921875
-51.26953125
-57.67822265625
-59.50927734375
-50.35400390625
-45.7763671875
-58.59375
-49.4384765625
-38.4521484375
-45.7763671875
-45.7763671875
-50.35400390625
-51.26953125
-43.02978515625
-48.52294921875
-51.26953125
-49.4384765625
-49.4384765625
-53.1005859375
-50.35400390625
-49.4384765625
-57.67822265625
-50.35400390625
-44.86083984375
-42.1142578125
-39.36767578125
-34.7900390625
-35.70556640625
-32.04345703125
-28.38134765625
-26.55029296875
-39.36767578125
-43.9453125
-49.4384765625
-44.86083984375
-31.1279296875
-16.4794921875
-20.1416015625
-18.310546875
-23.8037109375
-20.1416015625
-17.39501953125
-10.986328125
-8.23974609375
1.8310546875
17.39501953125
25.634765625
28.38134765625
26.55029296875
32.04345703125
26.55029296875
24.71923828125
16.4794921875
-8.23974609375
-21.05712890625
-24.71923828125
-16.4794921875
-21.97265625
-27.4658203125
-23.8037109375
-25.634765625
-15.56396484375
-27.4658203125
-29.296875
-32.04345703125
-43.02978515625
-35.70556640625
-21.05712890625
-28.38134765625
-38.4521484375
-49.4384765625
-63.17138671875
-70.49560546875
-66.83349609375
-64.0869140625
-61.34033203125
-63.17138671875
-63.17138671875
-63.17138671875
-62.255859375
-67.7490234375
-66.83349609375
-60.4248046875
-65.00244140625
-70.49560546875
-50.35400390625
-52.18505859375
-57.67822265625
-59.50927734375
-51.26953125
-47.607421875
-54.01611328125
-48.52294921875
-50.35400390625
-43.9453125
-45.7763671875
-50.35400390625
-56.7626953125
-73.2421875
-86.97509765625
-79.65087890625
-42.1142578125
16.4794921875
98.876953125
167.54150390625
221.5576171875
242.61474609375
299.37744140625
387.26806640625
490.72265625
598.7548828125
693.05419921875
807.4951171875
948.486328125
1107.7880859375
1243.2861328125
1235.9619140625
1087.646484375
845.03173828125
547.4853515625
368.95751953125
262.75634765625
151.9775390625
69.580078125
46.69189453125
1.8310546875
-87.890625
-150.146484375
-197.75390625
-229.79736328125
-233.45947265625
-216.97998046875
-206.9091796875
-187.68310546875
-174.86572265625
-153.80859375
-107.11669921875
-66.83349609375
-41.19873046875
-22.88818359375
-32.958984375
-33.87451171875
-24.71923828125
-26.55029296875
-28.38134765625
-29.296875
-30.21240234375
-21.97265625
-18.310546875
-29.296875
-29.296875
-34.7900390625
-32.04345703125
-16.4794921875
-26.55029296875
-11.90185546875
-16.4794921875
-18.310546875
-12.8173828125
-15.56396484375
-6.40869140625
-14.6484375
-19.22607421875
-16.4794921875
-10.986328125
-10.986328125
-7.32421875
-5.4931640625
-5.4931640625
-2.74658203125
-7.32421875
-11.90185546875
0.91552734375
-6.40869140625
-6.40869140625
-5.4931640625
-3.662109375
-4.57763671875
0
-0.91552734375
2.74658203125
6.40869140625
3.662109375
10.07080078125
6.40869140625
11.90185546875
6.40869140625
14.6484375
22.88818359375
20.1416015625
20.1416015625
25.634765625
20.1416015625
21.97265625
18.310546875
18.310546875
26.55029296875
26.55029296875
26.55029296875
39.36767578125
47.607421875
50.35400390625
50.35400390625
37.53662109375
37.53662109375
50.35400390625
51.26953125
49.4384765625
58.59375
60.4248046875
61.34033203125
66.83349609375
75.0732421875
70.49560546875
70.49560546875
86.0595703125
81.48193359375
86.97509765625
93.3837890625
102.5390625
98.876953125
94.29931640625
101.62353515625
112.60986328125
116.27197265625
109.86328125
111.6943359375
120.849609375
121.76513671875
126.3427734375
134.58251953125
141.90673828125
140.07568359375
134.58251953125
133.6669921875
140.9912109375
148.3154296875
151.06201171875
142.822265625
151.06201171875
141.90673828125
133.6669921875
137.3291015625
140.07568359375
145.56884765625
144.6533203125
138.24462890625
138.24462890625
131.8359375
134.58251953125
132.75146484375
130.92041015625
112.60986328125
100.7080078125
105.28564453125
99.79248046875
85.14404296875
93.3837890625
80.56640625
68.66455078125
74.15771484375
72.32666015625
57.67822265625
43.02978515625
38.4521484375
42.1142578125
27.4658203125
6.40869140625
2.74658203125
3.662109375
-1.8310546875
-7.32421875
-10.07080078125
-12.8173828125
-18.310546875
-17.39501953125
-19.22607421875
-25.634765625
-31.1279296875
-32.958984375
-38.4521484375
-43.02978515625
-38.4521484375
-40.283203125
-44.86083984375
-37.53662109375
-48.52294921875
-48.52294921875
-45.7763671875
-44.86083984375
-43.02978515625
-49.4384765625
-42.1142578125
-51.26953125
-52.18505859375
-58.59375
-54.01611328125
-48.52294921875
-60.4248046875
-63.17138671875
-57.67822265625
-53.1005859375
-60.4248046875
-63.17138671875
-61.34033203125
-52.18505859375
-54.931640625
-54.931640625
-55.84716796875
-47.607421875
-47.607421875
-45.7763671875
-50.35400390625
-47.607421875
-46.69189453125
-48.52294921875
-54.01611328125
-50.35400390625
-46.69189453125
-43.02978515625
-43.02978515625
-43.9453125
-55.84716796875
-56.7626953125
-55.84716796875
-51.26953125
-41.19873046875
-46.69189453125
-41.19873046875
-41.19873046875
-42.1142578125
-46.69189453125
-49.4384765625
-42.1142578125
-44.86083984375
-41.19873046875
-44.86083984375
-41.19873046875
-49.4384765625
-34.7900390625
-32.958984375
-33.87451171875
-43.9453125
-50.35400390625
-44.86083984375
-38.4521484375
-43.02978515625
-43.02978515625
-39.36767578125
-43.02978515625
-50.35400390625
-44.86083984375
-46.69189453125
-48.52294921875
-44.86083984375
-45.7763671875
-38.4521484375
-32.958984375
-39.36767578125
-46.69189453125
-50.35400390625
-48.52294921875
-46.69189453125
-53.1005859375
-48.52294921875
-41.19873046875
-46.69189453125
-51.26953125
-52.18505859375
-54.01611328125
-50.35400390625
-50.35400390625
-54.931640625
-46.69189453125
-56.7626953125
-49.4384765625
-56.7626953125
-55.84716796875
-55.84716796875
-54.931640625
-57.67822265625
-52.18505859375
-56.7626953125
-57.67822265625
-62.255859375
-65.00244140625
-58.59375
-64.0869140625
-57.67822265625
-60.4248046875
-58.59375
-55.84716796875
-64.0869140625
-68.66455078125
-65.91796875
-65.91796875
-66.83349609375
-62.255859375
-64.0869140625
-63.17138671875
-70.49560546875
-63.17138671875
-66.83349609375
-72.32666015625
-61.34033203125
-68.66455078125
-63.17138671875
-62.255859375
-60.4248046875
-63.17138671875
-66.83349609375
-68.66455078125
-63.17138671875
-69.580078125
-75.98876953125
-72.32666015625
-73.2421875
-65.91796875
-62.255859375
-65.91796875
-83.31298828125
-75.0732421875
-75.98876953125
-71.4111328125
-59.50927734375
-70.49560546875
-70.49560546875
-68.66455078125
-69.580078125
-69.580078125
-69.580078125
-65.00244140625
-63.17138671875
-65.91796875
-63.17138671875
-57.67822265625
-65.91796875
-75.0732421875
-75.0732421875
-71.4111328125
-73.2421875
-70.49560546875
-75.0732421875
-71.4111328125
-67.7490234375
-71.4111328125
-71.4111328125
-69.580078125
-76.904296875
-76.904296875
-75.0732421875
-68.66455078125
-70.49560546875
-78.7353515625
-75.0732421875
-70.49560546875
-69.580078125
-77.81982421875
-74.15771484375
-62.255859375
-68.66455078125
-65.00244140625
-65.00244140625
-76.904296875
-66.83349609375
-68.66455078125
-60.4248046875
-69.580078125
-67.7490234375
-37.53662109375
-37.53662109375
-51.26953125
-49.4384765625
-43.9453125
-59.50927734375
-43.02978515625
-41.19873046875
-28.38134765625
-10.986328125
-1.8310546875
0
6.40869140625
7.32421875
-0.91552734375
-5.4931640625
-10.07080078125
-27.4658203125
-39.36767578125
-50.35400390625
-47.607421875
-52.18505859375
-61.34033203125
-66.83349609375
-65.91796875
-56.7626953125
-51.26953125
-54.01611328125
-56.7626953125
-59.50927734375
-59.50927734375
-59.50927734375
-65.91796875
-75.98876953125
-82.3974609375
-89.7216796875
-94.29931640625
-96.13037109375
-93.3837890625
-99.79248046875
-98.876953125
-97.96142578125
-94.29931640625
-83.31298828125
-88.80615234375
-88.80615234375
-84.228515625
-101.62353515625
-101.62353515625
-79.65087890625
-91.552734375
-95.21484375
-79.65087890625
-86.97509765625
-81.48193359375
-83.31298828125
-88.80615234375
-72.32666015625
-73.2421875
-77.81982421875
-86.0595703125
-89.7216796875
-103.45458984375
-117.1875
-118.10302734375
-70.49560546875
-2.74658203125
79.65087890625
141.90673828125
181.2744140625
210.5712890625
249.0234375
315.85693359375
415.6494140625
517.27294921875
597.83935546875
699.462890625
837.70751953125
1020.81298828125
1149.90234375
1121.52099609375
956.72607421875
707.70263671875
458.67919921875
326.84326171875
226.13525390625
140.9912109375
79.65087890625
74.15771484375
47.607421875
-10.986328125
-88.80615234375
-154.72412109375
-224.30419921875
-248.10791015625
-255.43212890625
-242.61474609375
-234.375
-221.5576171875
-210.5712890625
-195.9228515625
-156.55517578125
-114.44091796875
-90.63720703125
-77.81982421875
-68.66455078125
-63.17138671875
-66.83349609375
-75.98876953125
-67.7490234375
-69.580078125
-69.580078125
-63.17138671875
-59.50927734375
-62.255859375
-58.59375
-65.00244140625
-66.83349609375
-54.01611328125
-52.18505859375
-52.18505859375
-56.7626953125
-53.1005859375
-46.69189453125
-59.50927734375
-52.18505859375
-54.931640625
-52.18505859375
-46.69189453125
-49.4384765625
-54.931640625
-57.67822265625
-50.35400390625
-41.19873046875
-49.4384765625
-44.86083984375
-49.4384765625
-56.7626953125
-49.4384765625
-47.607421875
-43.9453125
-36.62109375
-43.9453125
-41.19873046875
-39.36767578125
-44.86083984375
-47.607421875
-37.53662109375
-36.62109375
-32.958984375
-43.9453125
-31.1279296875
-26.55029296875
-34.7900390625
-32.04345703125
-32.958984375
-21.97265625
-26.55029296875
-21.97265625
-23.8037109375
-21.97265625
-19.22607421875
-20.1416015625
-14.6484375
-12.8173828125
-10.07080078125
-5.4931640625
0
-5.4931640625
-3.662109375
10.07080078125
-0.91552734375
1.8310546875
9.1552734375
9.1552734375
23.8037109375
19.22607421875
16.4794921875
22.88818359375
21.05712890625
13.73291015625
27.4658203125
29.296875
32.04345703125
43.9453125
35.70556640625
37.53662109375
50.35400390625
54.931640625
70.49560546875
61.34033203125
64.0869140625
68.66455078125
75.0732421875
75.98876953125
72.32666015625
70.49560546875
76.904296875
76.904296875
81.48193359375
86.0595703125
75.98876953125
74.15771484375
75.98876953125
74.15771484375
76.904296875
77.81982421875
81.48193359375
81.48193359375
84.228515625
85.14404296875
80.56640625
75.98876953125
75.0732421875
74.15771484375
64.0869140625
67.7490234375
59.50927734375
54.01611328125
46.69189453125
43.02978515625
40.283203125
28.38134765625
17.39501953125
12.8173828125
5.4931640625
9.1552734375
-4.57763671875
-11.90185546875
-18.310546875
-27.4658203125
-33.87451171875
-30.21240234375
-32.04345703125
-34.7900390625
-34.7900390625
-41.19873046875
-56.7626953125
-62.255859375
-67.7490234375
-63.17138671875
-64.0869140625
-80.56640625
-86.97509765625
-78.7353515625
-81.48193359375
-77.81982421875
-83.31298828125
-90.63720703125
-89.7216796875
-86.0595703125
-76.904296875
-85.14404296875
-84.228515625
-93.3837890625
-95.21484375
-94.29931640625
-92.46826171875
-94.29931640625
-93.3837890625
-84.228515625
-90.63720703125
-96.13037109375
-88.80615234375
-81.48193359375
-82.3974609375
-95.21484375
-88.80615234375
-96.13037109375
-95.21484375
-90.63720703125
-92.46826171875
-88.80615234375
-94.29931640625
-100.7080078125
-88.80615234375
-83.31298828125
-83.31298828125
-93.3837890625
-103.45458984375
-97.96142578125
-108.0322265625
-91.552734375
-76.904296875
-83.31298828125
-80.56640625
-89.7216796875
-81.48193359375
-83.31298828125
-92.46826171875
-83.31298828125
-78.7353515625
-84.228515625
-82.3974609375
-86.0595703125
-91.552734375
-89.7216796875
-70.49560546875
-75.0732421875
-77.81982421875
-75.98876953125
-81.48193359375
-82.3974609375
-86.0595703125
-83.31298828125
-70.49560546875
-79.65087890625
-86.0595703125
-80.56640625
-75.98876953125
-80.56640625
-81.48193359375
-75.98876953125
-76.904296875
-77.81982421875
-84.228515625
-70.49560546875
-77.81982421875
-85.14404296875
-81.48193359375
-77.81982421875
-82.3974609375
-71.4111328125
-78.7353515625
-81.48193359375
-86.0595703125
-76.904296875
-78.7353515625
-76.904296875
-90.63720703125
-90.63720703125
-85.14404296875
-88.80615234375
-90.63720703125
-93.3837890625
-90.63720703125
-85.14404296875
-94.29931640625
-95.21484375
-90.63720703125
-97.96142578125
-97.96142578125
-89.7216796875
-92.46826171875
-79.65087890625
-87.890625
-87.890625
-86.0595703125
-97.0458984375
-102.5390625
-86.97509765625
-97.96142578125
-102.5390625
-101.62353515625
-95.21484375
-99.79248046875
-104.3701171875
-100.7080078125
-97.96142578125
-91.552734375
-97.96142578125
-93.3837890625
-90.63720703125
-97.0458984375
-107.11669921875
-105.28564453125
-98.876953125
-93.3837890625
-96.13037109375
-108.94775390625
-107.11669921875
-103.45458984375
-88.80615234375
-91.552734375
-86.0595703125
-97.96142578125
-109.86328125
-103.45458984375
-100.7080078125
-110.77880859375
-111.6943359375
-101.62353515625
-108.0322265625
-107.11669921875
-105.28564453125
-104.3701171875
-108.94775390625
-116.27197265625
-117.1875
-101.62353515625
-93.3837890625
-106.201171875
-111.6943359375
-105.28564453125
-106.201171875
-106.201171875
-100.7080078125
-86.97509765625
-87.890625
-91.552734375
-99.79248046875
-108.94775390625
-97.96142578125
-102.5390625
-107.11669921875
-106.201171875
-99.79248046875
-84.228515625
-68.66455078125
-81.48193359375
-97.0458984375
-84.228515625
-85.14404296875
-79.65087890625
-75.0732421875
-65.00244140625
-54.01611328125
-39.36767578125
-25.634765625
-28.38134765625
-33.87451171875
-34.7900390625
-41.19873046875
-49.4384765625
-62.255859375
-75.0732421875
-75.0732421875
-85.14404296875
-86.0595703125
-70.49560546875
-80.56640625
-89.7216796875
-85.14404296875
-89.7216796875
-90.63720703125
-96.13037109375
-102.5390625
-89.7216796875
-108.94775390625
-100.7080078125
-104.3701171875
-100.7080078125
-106.201171875
-117.1875
-124.51171875
-135.498046875
-124.51171875
-119.0185546875
-121.76513671875
-127.25830078125
-123.59619140625
-131.8359375
-130.92041015625
-126.3427734375
-122.6806640625
-125.42724609375
-124.51171875
-122.6806640625
-110.77880859375
-117.1875
-114.44091796875
-116.27197265625
-108.0322265625
-108.0322265625
-114.44091796875
-115.3564453125
-119.93408203125
-119.93408203125
-123.59619140625
-145.56884765625
-156.55517578125
-150.146484375
-110.77880859375
-58.59375
26.55029296875
80.56640625
118.10302734375
140.9912109375
185.85205078125
257.26318359375
355.224609375
460.51025390625
531.92138671875
628.0517578125
758.97216796875
942.07763671875
1090.39306640625
1103.21044921875
953.06396484375
726.01318359375
470.5810546875
321.35009765625
213.31787109375
114.44091796875
51.26953125
43.02978515625
35.70556640625
4.57763671875
-64.0869140625
-143.73779296875
-223.388671875
-268.24951171875
-292.05322265625
-278.3203125
-262.75634765625
-265.5029296875
-249.93896484375
-239.8681640625
-221.5576171875
-192.2607421875
-153.80859375
-126.3427734375
-105.28564453125
-103.45458984375
-114.44091796875
-115.3564453125
-108.0322265625
-108.94775390625
-106.201171875
-104.3701171875
-101.62353515625
-97.96142578125
-91.552734375
-94.29931640625
-98.876953125
-101.62353515625
-105.28564453125
-99.79248046875
-89.7216796875
-93.3837890625
-86.0595703125
-94.29931640625
-86.0595703125
-86.97509765625
-91.552734375
-90.63720703125
-92.46826171875
-89.7216796875
-87.890625
-80.56640625
-76.904296875
-71.4111328125
-80.56640625
-83.31298828125
-85.14404296875
-82.3974609375
-70.49560546875
-76.904296875
-66.83349609375
-68.66455078125
-73.2421875
-79.65087890625
-65.91796875
-69.580078125
-78.7353515625
-78.7353515625
-68.66455078125
-58.59375
-57.67822265625
-61.34033203125
-55.84716796875
-54.01611328125
-54.931640625
-54.931640625
-59.50927734375
-58.59375
-55.84716796875
-41.19873046875
-46.69189453125
-50.35400390625
-49.4384765625
-42.1142578125
-41.19873046875
-35.70556640625
-33.87451171875
-32.958984375
-29.296875
-29.296875
-24.71923828125
-18.310546875
-20.1416015625
-9.1552734375
-12.8173828125
-0.91552734375
-4.57763671875
-7.32421875
3.662109375
-0.91552734375
3.662109375
11.90185546875
10.986328125
16.4794921875
10.986328125
20.1416015625
27.4658203125
26.55029296875
31.1279296875
35.70556640625
39.36767578125
39.36767578125
42.1142578125
48.52294921875
50.35400390625
41.19873046875
53.1005859375
50.35400390625
57.67822265625
45.7763671875
52.18505859375
48.52294921875
54.931640625
58.59375
52.18505859375
54.931640625
50.35400390625
52.18505859375
54.01611328125
54.01611328125
52.18505859375
45.7763671875
47.607421875
40.283203125
32.04345703125
38.4521484375
37.53662109375
25.634765625
15.56396484375
11.90185546875
-2.74658203125
-4.57763671875
-6.40869140625
-13.73291015625
-24.71923828125
-31.1279296875
-32.958984375
-34.7900390625
-45.7763671875
-50.35400390625
-54.931640625
-54.01611328125
-57.67822265625
-58.59375
-65.91796875
-73.2421875
-75.0732421875
-80.56640625
-87.890625
-90.63720703125
-97.0458984375
-97.0458984375
-103.45458984375
-97.0458984375
-99.79248046875
-98.876953125
-110.77880859375
-113.525390625
-108.94775390625
-97.96142578125
-99.79248046875
-106.201171875
-109.86328125
-108.0322265625
-106.201171875
-108.0322265625
-110.77880859375
-107.11669921875
-110.77880859375
-106.201171875
-107.11669921875
-103.45458984375
-103.45458984375
-105.28564453125
-109.86328125
-111.6943359375
-105.28564453125
-114.44091796875
-110.77880859375
-104.3701171875
-107.11669921875
-105.28564453125
-109.86328125
-100.7080078125
-107.11669921875
-106.201171875
-112.60986328125
-103.45458984375
-103.45458984375
-110.77880859375
-108.94775390625
-105.28564453125
-96.13037109375
-86.0595703125
-90.63720703125
-94.29931640625
-96.13037109375
-97.0458984375
-91.552734375
-94.29931640625
-98.876953125
-92.46826171875
-97.0458984375
-96.13037109375
-97.0458984375
-97.96142578125
-89.7216796875
-87.890625
-90.63720703125
-92.46826171875
-89.7216796875
-87.890625
-95.21484375
-96.13037109375
-92.46826171875
-94.29931640625
-86.0595703125
-90.63720703125
-92.46826171875
-100.7080078125
-101.62353515625
-90.63720703125
-90.63720703125
-88.80615234375
-94.29931640625
-87.890625
-84.228515625
-85.14404296875
-93.3837890625
-101.62353515625
-96.13037109375
-91.552734375
-90.63720703125
-87.890625
-99.79248046875
-94.29931640625
-84.228515625
-92.46826171875
-100.7080078125
-95.21484375
-89.7216796875
-95.21484375
-98.876953125
-97.0458984375
-102.5390625
-92.46826171875
-98.876953125
-105.28564453125
-97.0458984375
-104.3701171875
-97.96142578125
-99.79248046875
-97.96142578125
-95.21484375
-101.62353515625
-102.5390625
-96.13037109375
-108.94775390625
-103.45458984375
-97.96142578125
-103.45458984375
-97.96142578125
-100.7080078125
-101.62353515625
-100.7080078125
-97.96142578125
-93.3837890625
-101.62353515625
-112.60986328125
-108.94775390625
-99.79248046875
-107.11669921875
-104.3701171875
-105.28564453125
-101.62353515625
-101.62353515625
-97.0458984375
-105.28564453125
-108.0322265625
-103.45458984375
-100.7080078125
-93.3837890625
-97.96142578125
-100.7080078125
-94.29931640625
-96.13037109375
-97.0458984375
-82.3974609375
-84.228515625
-97.0458984375
-103.45458984375
-97.96142578125
-95.21484375
-93.3837890625
-86.97509765625
-69.580078125
-72.32666015625
-77.81982421875
-75.98876953125
-79.65087890625
-78.7353515625
-86.97509765625
-65.00244140625
-54.931640625
-40.283203125
-29.296875
-19.22607421875
-27.4658203125
-35.70556640625
-34.7900390625
-33.87451171875
-39.36767578125
-57.67822265625
-62.255859375
-65.91796875
-70.49560546875
-78.7353515625
-81.48193359375
-91.552734375
-86.97509765625
-70.49560546875
-74.15771484375
-73.2421875
-76.904296875
-77.81982421875
-86.97509765625
-82.3974609375
-78.7353515625
-86.97509765625
-107.11669921875
-118.10302734375
-116.27197265625
-123.59619140625
-125.42724609375
-117.1875
-116.27197265625
-111.6943359375
-115.3564453125
-120.849609375
-118.10302734375
-122.6806640625
-117.1875
-112.60986328125
-111.6943359375
-105.28564453125
-109.86328125
-108.94775390625
-105.28564453125
-106.201171875
-115.3564453125
-113.525390625
-100.7080078125
-108.94775390625
-103.45458984375
-97.0458984375
-111.6943359375
-128.173828125
-138.24462890625
-137.3291015625
-111.6943359375
-67.7490234375
12.8173828125
93.3837890625
146.484375
172.119140625
204.16259765625
269.1650390625
367.12646484375
481.5673828125
575.86669921875
671.9970703125
790.10009765625
954.89501953125
1123.35205078125
1193.84765625
1119.68994140625
902.7099609375
617.0654296875
392.76123046875
267.333984375
161.1328125
75.0732421875
36.62109375
31.1279296875
-11.90185546875
-78.7353515625
-141.90673828125
-213.31787109375
-250.8544921875
-268.24951171875
-269.1650390625
-242.61474609375
-248.10791015625
-238.95263671875
-212.40234375
-176.69677734375
-147.39990234375
-111.6943359375
-89.7216796875
-86.97509765625
-90.63720703125
-90.63720703125
-76.904296875
-76.904296875
-81.48193359375
-83.31298828125
-81.48193359375
-66.83349609375
-71.4111328125
-69.580078125
-73.2421875
-69.580078125
-72.32666015625
-66.83349609375
-63.17138671875
-60.4248046875
-62.255859375
-67.7490234375
-69.580078125
-71.4111328125
-67.7490234375
-55.84716796875
-62.255859375
-58.59375
-52.18505859375
-56.7626953125
-63.17138671875
-54.931640625
-54.931640625
-46.69189453125
-46.69189453125
-50.35400390625
-45.7763671875
-47.607421875
-50.35400390625
-44.86083984375
-43.02978515625
-43.9453125
-44.86083984375
-43.02978515625
-41.19873046875
-34.7900390625
-45.7763671875
-45.7763671875
-34.7900390625
-26.55029296875
-30.21240234375
-27.4658203125
-24.71923828125
-18.310546875
-15.56396484375
-16.4794921875
-23.8037109375
-14.6484375
-21.05712890625
-15.56396484375
-8.23974609375
-3.662109375
-5.4931640625
-6.40869140625
5.4931640625
6.40869140625
8.23974609375
7.32421875
2.74658203125
10.07080078125
13.73291015625
13.73291015625
20.1416015625
24.71923828125
18.310546875
23.8037109375
42.1142578125
38.4521484375
47.607421875
48.52294921875
58.59375
64.0869140625
60.4248046875
60.4248046875
60.4248046875
70.49560546875
75.0732421875
83.31298828125
89.7216796875
91.552734375
78.7353515625
86.0595703125
96.13037109375
99.79248046875
86.0595703125
99.79248046875
112.60986328125
96.13037109375
96.13037109375
98.876953125
108.0322265625
107.11669921875
99.79248046875
105.28564453125
102.5390625
115.3564453125
116.27197265625
104.3701171875
103.45458984375
103.45458984375
98.876953125
94.29931640625
90.63720703125
89.7216796875
73.2421875
58.59375
57.67822265625
55.84716796875
52.18505859375
50.35400390625
41.19873046875
26.55029296875
16.4794921875
15.56396484375
0.91552734375
0.91552734375
1.8310546875
-2.74658203125
-13.73291015625
-19.22607421875
-20.1416015625
-27.4658203125
-32.04345703125
-34.7900390625
-41.19873046875
-43.9453125
-53.1005859375
-54.01611328125
-53.1005859375
-60.4248046875
-61.34033203125
-66.83349609375
-73.2421875
-68.66455078125
-64.0869140625
-68.66455078125
-72.32666015625
-71.4111328125
-72.32666015625
-73.2421875
-80.56640625
-82.3974609375
-81.48193359375
-80.56640625
-77.81982421875
-75.98876953125
-86.97509765625
-83.31298828125
-75.0732421875
-82.3974609375
-83.31298828125
-81.48193359375
-90.63720703125
-85.14404296875
-77.81982421875
-78.7353515625
-84.228515625
-86.97509765625
-88.80615234375
-81.48193359375
-85.14404296875
-76.904296875
-71.4111328125
-78.7353515625
-82.3974609375
-79.65087890625
-75.98876953125
-79.65087890625
-80.56640625
-74.15771484375
-72.32666015625
-65.00244140625
-64.0869140625
-75.98876953125
-70.49560546875
-66.83349609375
-74.15771484375
-72.32666015625
-73.2421875
-67.7490234375
-75.98876953125
-67.7490234375
-73.2421875
-65.00244140625
-73.2421875
-75.98876953125
-66.83349609375
-65.91796875
-69.580078125
-54.01611328125
-62.255859375
-66.83349609375
-68.66455078125
-66.83349609375
-65.91796875
-65.91796875
-65.91796875
-62.255859375
-56.7626953125
-61.34033203125
-59.50927734375
-58.59375
-66.83349609375
