ECG
18.310546875
18.310546875
-6.40869140625
21.97265625
29.296875
17.39501953125
22.88818359375
18.310546875
11.90185546875
16.4794921875
30.21240234375
22.88818359375
17.39501953125
10.07080078125
18.310546875
22.88818359375
25.634765625
36.62109375
44.86083984375
43.02978515625
37.53662109375
48.52294921875
38.4521484375
43.02978515625
42.1142578125
43.9453125
42.1142578125
33.87451171875
40.283203125
49.4384765625
63.17138671875
65.91796875
52.18505859375
51.26953125
65.91796875
63.17138671875
70.49560546875
76.904296875
87.890625
75.98876953125
71.4111328125
97.0458984375
96.13037109375
89.7216796875
89.7216796875
90.63720703125
96.13037109375
95.21484375
117.1875
118.10302734375
112.60986328125
127.25830078125
119.93408203125
129.08935546875
143.73779296875
146.484375
140.9912109375
142.822265625
146.484375
140.07568359375
159.3017578125
155.6396484375
159.3017578125
156.55517578125
158.38623046875
162.04833984375
158.38623046875
162.04833984375
161.1328125
158.38623046875
169.37255859375
168.45703125
174.86572265625
157.470703125
161.1328125
157.470703125
160.21728515625
149.23095703125
147.39990234375
149.23095703125
141.90673828125
148.3154296875
130.0048828125
130.92041015625
129.08935546875
114.44091796875
104.3701171875
93.3837890625
108.0322265625
103.45458984375
81.48193359375
68.66455078125
59.50927734375
51.26953125
47.607421875
54.931640625
48.52294921875
39.36767578125
34.7900390625
17.39501953125
20.1416015625
13.73291015625
1.8310546875
10.07080078125
0.91552734375
10.07080078125
9.1552734375
-9.1552734375
-7.32421875
-16.4794921875
-13.73291015625
-9.1552734375
-13.73291015625
-14.6484375
-0.91552734375
-9.1552734375
-16.4794921875
-10.986328125
-10.07080078125
-21.05712890625
-21.05712890625
-11.90185546875
-21.97265625
-28.38134765625
-23.8037109375
-21.97265625
-30.21240234375
-18.310546875
-21.97265625
-22.88818359375
-4.57763671875
-21.97265625
-27.4658203125
-27.4658203125
-18.310546875
-13.73291015625
-14.6484375
-16.4794921875
-30.21240234375
-22.88818359375
-17.39501953125
-16.4794921875
-13.73291015625
-13.73291015625
-15.56396484375
-8.23974609375
-21.97265625
-21.97265625
-21.05712890625
-17.39501953125
-21.97265625
-25.634765625
-22.88818359375
-14.6484375
-8.23974609375
-5.4931640625
-6.40869140625
-17.39501953125
-10.986328125
4.57763671875
-5.4931640625
-5.4931640625
-6.40869140625
-10.986328125
-10.07080078125
0.91552734375
4.57763671875
-3.662109375
-13.73291015625
-4.57763671875
-3.662109375
7.32421875
-10.986328125
0.91552734375
0.91552734375
0
1.8310546875
-3.662109375
15.56396484375
9.1552734375
3.662109375
-10.986328125
-10.986328125
7.32421875
8.23974609375
24.71923828125
11.90185546875
6.40869140625
2.74658203125
8.23974609375
6.40869140625
4.57763671875
9.1552734375
-7.32421875
10.986328125
6.40869140625
3.662109375
2.74658203125
2.74658203125
10.07080078125
5.4931640625
-0.91552734375
-10.07080078125
-12.8173828125
-5.4931640625
0.91552734375
3.662109375
-2.74658203125
-16.4794921875
-6.40869140625
-13.73291015625
0.91552734375
-4.57763671875
-19.22607421875
-5.4931640625
1.8310546875
-1.8310546875
-1.8310546875
-2.74658203125
-2.74658203125
-2.74658203125
1.8310546875
-8.23974609375
-6.40869140625
-7.32421875
-8.23974609375
-15.56396484375
-11.90185546875
-32.04345703125
-13.73291015625
-0.91552734375
-3.662109375
-11.90185546875
-3.662109375
2.74658203125
-7.32421875
-0.91552734375
-4.57763671875
-22.88818359375
-8.23974609375
-20.1416015625
-17.39501953125
-6.40869140625
-10.07080078125
-6.40869140625
-12.8173828125
-5.4931640625
-10.986328125
-11.90185546875
-18.310546875
-13.73291015625
-10.986328125
-15.56396484375
-19.22607421875
-1.8310546875
2.74658203125
-1.8310546875
-15.56396484375
-20.1416015625
-22.88818359375
-13.73291015625
-11.90185546875
-12.8173828125
-10.07080078125
-10.986328125
1.8310546875
-11.90185546875
-3.662109375
0
14.6484375
14.6484375
-5.4931640625
-5.4931640625
6.40869140625
0.91552734375
-7.32421875
-10.986328125
-17.39501953125
-12.8173828125
-5.4931640625
7.32421875
19.22607421875
21.05712890625
19.22607421875
11.90185546875
5.4931640625
30.21240234375
44.86083984375
49.4384765625
59.50927734375
65.91796875
73.2421875
64.0869140625
48.52294921875
40.283203125
36.62109375
42.1142578125
6.40869140625
12.8173828125
15.56396484375
10.07080078125
5.4931640625
8.23974609375
14.6484375
15.56396484375
-0.91552734375
0.91552734375
13.73291015625
-10.986328125
-5.4931640625
-2.74658203125
8.23974609375
-13.73291015625
-32.04345703125
-32.04345703125
-34.7900390625
-24.71923828125
-27.4658203125
-25.634765625
-25.634765625
-32.04345703125
-37.53662109375
-28.38134765625
-32.04345703125
-30.21240234375
-17.39501953125
-29.296875
-27.4658203125
-21.05712890625
-13.73291015625
-23.8037109375
-20.1416015625
-24.71923828125
-20.1416015625
-38.4521484375
-21.97265625
-6.40869140625
-9.1552734375
-20.1416015625
-18.310546875
-21.05712890625
-16.4794921875
-32.04345703125
-54.931640625
-44.86083984375
-11.90185546875
47.607421875
140.07568359375
206.9091796875
242.61474609375
272.8271484375
309.4482421875
395.5078125
503.5400390625
611.572265625
704.04052734375
798.33984375
931.09130859375
1082.1533203125
1198.42529296875
1177.3681640625
1015.31982421875
763.5498046875
538.330078125
395.5078125
289.306640625
190.4296875
121.76513671875
104.3701171875
59.50927734375
-6.40869140625
-58.59375
-125.42724609375
-189.51416015625
-195.00732421875
-173.9501953125
-152.89306640625
-145.56884765625
-138.24462890625
-120.849609375
-73.2421875
-25.634765625
-11.90185546875
9.1552734375
7.32421875
-2.74658203125
10.986328125
5.4931640625
-0.91552734375
10.07080078125
18.310546875
6.40869140625
-2.74658203125
-0.91552734375
5.4931640625
10.07080078125
12.8173828125
0
7.32421875
7.32421875
5.4931640625
6.40869140625
22.88818359375
5.4931640625
21.05712890625
21.97265625
19.22607421875
8.23974609375
12.8173828125
15.56396484375
14.6484375
10.986328125
10.07080078125
29.296875
13.73291015625
20.1416015625
25.634765625
22.88818359375
39.36767578125
34.7900390625
29.296875
29.296875
23.8037109375
11.90185546875
25.634765625
33.87451171875
32.04345703125
32.04345703125
29.296875
36.62109375
34.7900390625
40.283203125
53.1005859375
31.1279296875
39.36767578125
46.69189453125
41.19873046875
45.7763671875
42.1142578125
54.931640625
44.86083984375
53.1005859375
55.84716796875
57.67822265625
60.4248046875
56.7626953125
62.255859375
70.49560546875
59.50927734375
82.3974609375
88.80615234375
69.580078125
75.98876953125
75.0732421875
77.81982421875
102.5390625
105.28564453125
99.79248046875
89.7216796875
97.96142578125
109.86328125
112.60986328125
119.93408203125
112.60986328125
123.59619140625
133.6669921875
130.0048828125
136.41357421875
130.0048828125
122.6806640625
133.6669921875
138.24462890625
136.41357421875
134.58251953125
156.55517578125
152.89306640625
148.3154296875
158.38623046875
156.55517578125
153.80859375
152.89306640625
160.21728515625
160.21728515625
152.89306640625
161.1328125
163.87939453125
160.21728515625
148.3154296875
162.9638671875
162.04833984375
159.3017578125
145.56884765625
151.9775390625
140.07568359375
137.3291015625
141.90673828125
124.51171875
111.6943359375
110.77880859375
124.51171875
109.86328125
82.3974609375
90.63720703125
65.00244140625
63.17138671875
59.50927734375
64.0869140625
60.4248046875
44.86083984375
41.19873046875
32.958984375
17.39501953125
15.56396484375
18.310546875
13.73291015625
8.23974609375
-7.32421875
-4.57763671875
10.07080078125
10.07080078125
-0.91552734375
-10.07080078125
0
-10.07080078125
-10.986328125
-16.4794921875
-4.57763671875
-9.1552734375
-20.1416015625
-17.39501953125
-14.6484375
-10.986328125
-27.4658203125
-38.4521484375
-25.634765625
-32.04345703125
-15.56396484375
-22.88818359375
-43.02978515625
-30.21240234375
-16.4794921875
-25.634765625
-31.1279296875
-26.55029296875
-28.38134765625
-26.55029296875
-34.7900390625
-31.1279296875
-35.70556640625
-34.7900390625
-37.53662109375
-11.90185546875
-35.70556640625
-42.1142578125
-29.296875
-31.1279296875
-24.71923828125
-22.88818359375
-34.7900390625
-28.38134765625
-15.56396484375
-22.88818359375
-22.88818359375
-24.71923828125
-24.71923828125
-7.32421875
-14.6484375
-13.73291015625
-21.97265625
-18.310546875
-23.8037109375
-28.38134765625
-35.70556640625
-32.04345703125
-21.05712890625
-20.1416015625
-28.38134765625
-17.39501953125
-22.88818359375
-25.634765625
-19.22607421875
-18.310546875
-20.1416015625
-22.88818359375
-25.634765625
-14.6484375
-10.986328125
-20.1416015625
-10.986328125
-9.1552734375
0
-11.90185546875
-17.39501953125
-14.6484375
-8.23974609375
-24.71923828125
-13.73291015625
-13.73291015625
-19.22607421875
-0.91552734375
-10.986328125
-2.74658203125
-16.4794921875
-4.57763671875
-24.71923828125
-7.32421875
-5.4931640625
-21.05712890625
-11.90185546875
-15.56396484375
-11.90185546875
-11.90185546875
-5.4931640625
-24.71923828125
-22.88818359375
-18.310546875
-17.39501953125
-11.90185546875
-20.1416015625
-28.38134765625
-19.22607421875
-21.05712890625
-12.8173828125
-21.97265625
-21.05712890625
-23.8037109375
-22.88818359375
-25.634765625
-29.296875
-33.87451171875
-32.04345703125
-22.88818359375
-26.55029296875
-21.97265625
-30.21240234375
-29.296875
-29.296875
-35.70556640625
-21.05712890625
-22.88818359375
-27.4658203125
-22.88818359375
-37.53662109375
-38.4521484375
-35.70556640625
-32.04345703125
-25.634765625
-29.296875
-24.71923828125
-26.55029296875
-34.7900390625
-33.87451171875
-33.87451171875
-39.36767578125
-43.9453125
-26.55029296875
-32.958984375
-21.97265625
-29.296875
-34.7900390625
-24.71923828125
-28.38134765625
-31.1279296875
-27.4658203125
-34.7900390625
-38.4521484375
-23.8037109375
-28.38134765625
-27.4658203125
-36.62109375
-29.296875
-17.39501953125
-28.38134765625
-28.38134765625
-34.7900390625
-17.39501953125
-15.56396484375
-22.88818359375
-32.04345703125
-31.1279296875
-43.02978515625
-51.26953125
-42.1142578125
-21.97265625
-10.986328125
-1.8310546875
-13.73291015625
-17.39501953125
-18.310546875
-8.23974609375
18.310546875
19.22607421875
25.634765625
36.62109375
46.69189453125
47.607421875
41.19873046875
32.958984375
25.634765625
12.8173828125
7.32421875
0.91552734375
6.40869140625
-10.07080078125
-11.90185546875
-19.22607421875
-14.6484375
3.662109375
-19.22607421875
-14.6484375
-20.1416015625
-23.8037109375
-20.1416015625
-31.1279296875
-11.90185546875
-16.4794921875
-47.607421875
-28.38134765625
-59.50927734375
-48.52294921875
-57.67822265625
-46.69189453125
-51.26953125
-57.67822265625
-67.7490234375
-52.18505859375
-64.0869140625
-44.86083984375
-48.52294921875
-61.34033203125
-63.17138671875
-43.02978515625
-56.7626953125
-47.607421875
-47.607421875
-44.86083984375
-43.02978515625
-36.62109375
-36.62109375
-51.26953125
-54.931640625
-48.52294921875
-48.52294921875
-33.87451171875
-32.958984375
-47.607421875
-49.4384765625
-75.0732421875
-61.34033203125
-30.21240234375
22.88818359375
84.228515625
166.6259765625
210.5712890625
232.5439453125
249.93896484375
325.01220703125
420.22705078125
502.62451171875
584.1064453125
673.828125
803.8330078125
966.796875
1098.6328125
1105.04150390625
936.58447265625
704.04052734375
487.060546875
364.3798828125
258.1787109375
179.443359375
124.51171875
115.3564453125
87.890625
58.59375
-14.6484375
-75.98876953125
-148.3154296875
-195.00732421875
-203.2470703125
-191.34521484375
-169.37255859375
-155.6396484375
-157.470703125
-146.484375
-122.6806640625
-83.31298828125
-50.35400390625
-37.53662109375
-24.71923828125
-34.7900390625
-22.88818359375
-13.73291015625
-26.55029296875
-30.21240234375
-11.90185546875
-26.55029296875
-15.56396484375
-21.97265625
-16.4794921875
-19.22607421875
-14.6484375
-27.4658203125
-35.70556640625
-28.38134765625
-20.1416015625
-11.90185546875
-2.74658203125
-8.23974609375
-17.39501953125
-21.05712890625
-20.1416015625
-25.634765625
-6.40869140625
-0.91552734375
-13.73291015625
-18.310546875
-14.6484375
-0.91552734375
1.8310546875
-18.310546875
-3.662109375
10.07080078125
-2.74658203125
0.91552734375
-4.57763671875
3.662109375
14.6484375
9.1552734375
-7.32421875
-0.91552734375
4.57763671875
7.32421875
11.90185546875
8.23974609375
5.4931640625
4.57763671875
7.32421875
10.07080078125
29.296875
18.310546875
16.4794921875
17.39501953125
26.55029296875
24.71923828125
21.05712890625
25.634765625
33.87451171875
30.21240234375
24.71923828125
25.634765625
31.1279296875
32.958984375
35.70556640625
42.1142578125
54.931640625
63.17138671875
53.1005859375
63.17138671875
66.83349609375
61.34033203125
59.50927734375
75.0732421875
67.7490234375
80.56640625
86.97509765625
88.80615234375
79.65087890625
96.13037109375
95.21484375
116.27197265625
108.0322265625
96.13037109375
108.94775390625
110.77880859375
120.849609375
119.93408203125
118.10302734375
119.93408203125
117.1875
130.92041015625
119.93408203125
125.42724609375
113.525390625
135.498046875
149.23095703125
146.484375
137.3291015625
119.93408203125
117.1875
124.51171875
120.849609375
124.51171875
140.9912109375
138.24462890625
118.10302734375
108.0322265625
107.11669921875
101.62353515625
97.0458984375
90.63720703125
93.3837890625
87.890625
79.65087890625
81.48193359375
64.0869140625
53.1005859375
48.52294921875
45.7763671875
39.36767578125
45.7763671875
34.7900390625
18.310546875
13.73291015625
14.6484375
7.32421875
1.8310546875
7.32421875
-3.662109375
-1.8310546875
-13.73291015625
-20.1416015625
-21.97265625
-23.8037109375
-20.1416015625
-40.283203125
-34.7900390625
-34.7900390625
-31.1279296875
-41.19873046875
-54.931640625
-38.4521484375
-38.4521484375
-44.86083984375
-36.62109375
-43.9453125
-46.69189453125
-37.53662109375
-47.607421875
-33.87451171875
-36.62109375
-40.283203125
-48.52294921875
-56.7626953125
-49.4384765625
-47.607421875
-47.607421875
-47.607421875
-50.35400390625
-45.7763671875
-50.35400390625
-53.1005859375
-53.1005859375
-45.7763671875
-51.26953125
-68.66455078125
-19.22607421875
-37.53662109375
-45.7763671875
-46.69189453125
-43.9453125
-53.1005859375
-33.87451171875
-43.02978515625
-32.958984375
-29.296875
-26.55029296875
-48.52294921875
-45.7763671875
-44.86083984375
-27.4658203125
-23.8037109375
-33.87451171875
-33.87451171875
-39.36767578125
-36.62109375
-24.71923828125
-32.04345703125
-41.19873046875
-32.958984375
-18.310546875
-21.05712890625
-21.97265625
-23.8037109375
-23.8037109375
-32.04345703125
-19.22607421875
-23.8037109375
-32.04345703125
-21.97265625
-15.56396484375
-10.986328125
-26.55029296875
-27.4658203125
-26.55029296875
-21.97265625
-16.4794921875
-18.310546875
-34.7900390625
-30.21240234375
-21.05712890625
-7.32421875
-12.8173828125
-32.04345703125
-30.21240234375
-12.8173828125
-19.22607421875
-24.71923828125
-22.88818359375
-13.73291015625
-21.97265625
-14.6484375
-19.22607421875
-22.88818359375
-22.88818359375
-14.6484375
-29.296875
-31.1279296875
-32.958984375
-27.4658203125
-31.1279296875
-28.38134765625
-29.296875
-30.21240234375
-39.36767578125
-31.1279296875
-31.1279296875
-32.04345703125
-24.71923828125
-32.958984375
-39.36767578125
-36.62109375
-34.7900390625
-27.4658203125
-34.7900390625
-33.87451171875
-30.21240234375
-32.958984375
-39.36767578125
-36.62109375
-25.634765625
-21.97265625
-16.4794921875
-36.62109375
-43.02978515625
-25.634765625
-44.86083984375
-35.70556640625
-27.4658203125
-46.69189453125
-42.1142578125
-39.36767578125
-36.62109375
-36.62109375
-28.38134765625
-27.4658203125
-32.04345703125
-32.958984375
-36.62109375
-37.53662109375
-41.19873046875
-31.1279296875
-35.70556640625
-25.634765625
-32.958984375
-37.53662109375
-29.296875
-27.4658203125
-18.310546875
-26.55029296875
-30.21240234375
-35.70556640625
-45.7763671875
-13.73291015625
0
-12.8173828125
-17.39501953125
-22.88818359375
-27.4658203125
-5.4931640625
2.74658203125
6.40869140625
18.310546875
22.88818359375
42.1142578125
53.1005859375
40.283203125
31.1279296875
28.38134765625
18.310546875
13.73291015625
-15.56396484375
-16.4794921875
-15.56396484375
-21.97265625
-8.23974609375
-13.73291015625
-8.23974609375
-20.1416015625
-28.38134765625
-21.97265625
-24.71923828125
-21.05712890625
-21.97265625
-13.73291015625
-22.88818359375
-17.39501953125
-18.310546875
-43.9453125
-38.4521484375
-34.7900390625
-44.86083984375
-46.69189453125
-45.7763671875
-60.4248046875
-58.59375
-55.84716796875
-56.7626953125
-58.59375
-58.59375
-56.7626953125
-59.50927734375
-54.01611328125
-53.1005859375
-51.26953125
-42.1142578125
-50.35400390625
-54.01611328125
-33.87451171875
-25.634765625
-43.9453125
-47.607421875
-36.62109375
-30.21240234375
-38.4521484375
-35.70556640625
-43.9453125
-59.50927734375
-59.50927734375
-53.1005859375
-2.74658203125
60.4248046875
136.41357421875
189.51416015625
236.2060546875
255.43212890625
308.53271484375
397.3388671875
501.708984375
581.35986328125
676.57470703125
773.62060546875
917.3583984375
1081.23779296875
1194.76318359375
1108.70361328125
915.52734375
658.26416015625
457.763671875
328.67431640625
238.037109375
160.21728515625
119.93408203125
93.3837890625
73.2421875
19.22607421875
-33.87451171875
-98.876953125
-172.119140625
-199.5849609375
-197.75390625
-174.86572265625
-164.794921875
-153.80859375
-144.6533203125
-120.849609375
-86.0595703125
-65.91796875
-50.35400390625
-14.6484375
-8.23974609375
-12.8173828125
-12.8173828125
-27.4658203125
-16.4794921875
-13.73291015625
-18.310546875
-18.310546875
-15.56396484375
-10.986328125
-10.07080078125
-16.4794921875
-16.4794921875
-21.05712890625
2.74658203125
-5.4931640625
-7.32421875
-2.74658203125
0.91552734375
-8.23974609375
-2.74658203125
1.8310546875
0
-12.8173828125
-17.39501953125
-1.8310546875
5.4931640625
-3.662109375
-1.8310546875
2.74658203125
-5.4931640625
13.73291015625
15.56396484375
8.23974609375
3.662109375
1.8310546875
2.74658203125
10.07080078125
6.40869140625
12.8173828125
14.6484375
13.73291015625
20.1416015625
15.56396484375
16.4794921875
23.8037109375
35.70556640625
25.634765625
20.1416015625
21.05712890625
34.7900390625
33.87451171875
32.958984375
38.4521484375
34.7900390625
50.35400390625
39.36767578125
38.4521484375
34.7900390625
54.931640625
40.283203125
68.66455078125
57.67822265625
35.70556640625
56.7626953125
82.3974609375
62.255859375
59.50927734375
63.17138671875
69.580078125
75.98876953125
86.0595703125
91.552734375
90.63720703125
92.46826171875
95.21484375
101.62353515625
97.96142578125
102.5390625
110.77880859375
126.3427734375
120.849609375
127.25830078125
126.3427734375
130.0048828125
136.41357421875
138.24462890625
135.498046875
140.07568359375
126.3427734375
135.498046875
142.822265625
152.89306640625
146.484375
150.146484375
158.38623046875
155.6396484375
158.38623046875
157.470703125
155.6396484375
142.822265625
142.822265625
147.39990234375
137.3291015625
141.90673828125
142.822265625
150.146484375
138.24462890625
125.42724609375
122.6806640625
116.27197265625
125.42724609375
104.3701171875
104.3701171875
97.96142578125
97.0458984375
91.552734375
86.0595703125
55.84716796875
64.0869140625
54.931640625
54.931640625
43.9453125
30.21240234375
36.62109375
23.8037109375
41.19873046875
24.71923828125
-7.32421875
0
-4.57763671875
-1.8310546875
1.8310546875
-9.1552734375
-8.23974609375
-1.8310546875
-12.8173828125
-8.23974609375
-20.1416015625
-12.8173828125
-20.1416015625
-32.04345703125
-17.39501953125
-27.4658203125
-30.21240234375
-33.87451171875
-41.19873046875
-15.56396484375
-16.4794921875
-31.1279296875
-27.4658203125
-32.958984375
-29.296875
-22.88818359375
-31.1279296875
-27.4658203125
-21.97265625
-30.21240234375
-40.283203125
-32.04345703125
-24.71923828125
-20.1416015625
-32.04345703125
-26.55029296875
-32.958984375
-22.88818359375
-28.38134765625
-32.04345703125
-24.71923828125
-28.38134765625
-23.8037109375
-25.634765625
-25.634765625
-29.296875
-30.21240234375
-31.1279296875
-25.634765625
-35.70556640625
-12.8173828125
-25.634765625
-20.1416015625
-24.71923828125
-30.21240234375
-25.634765625
-14.6484375
-1.8310546875
-15.56396484375
-14.6484375
-14.6484375
-4.57763671875
-21.97265625
-27.4658203125
-21.05712890625
-16.4794921875
-12.8173828125
-21.97265625
-14.6484375
-7.32421875
-19.22607421875
-7.32421875
-12.8173828125
1.8310546875
-2.74658203125
-12.8173828125
-2.74658203125
0
2.74658203125
-8.23974609375
-10.07080078125
-5.4931640625
-9.1552734375
-21.97265625
3.662109375
10.07080078125
-2.74658203125
-7.32421875
-12.8173828125
-2.74658203125
-7.32421875
-12.8173828125
-9.1552734375
3.662109375
-0.91552734375
-17.39501953125
-26.55029296875
-5.4931640625
-17.39501953125
-28.38134765625
-16.4794921875
-13.73291015625
-7.32421875
-0.91552734375
-20.1416015625
-13.73291015625
-11.90185546875
-7.32421875
-23.8037109375
-17.39501953125
-21.05712890625
-18.310546875
-16.4794921875
-10.986328125
-8.23974609375
-10.986328125
-11.90185546875
-13.73291015625
-20.1416015625
-21.97265625
-15.56396484375
-10.07080078125
-26.55029296875
-21.05712890625
-22.88818359375
-22.88818359375
-10.986328125
-6.40869140625
-18.310546875
-26.55029296875
-22.88818359375
-14.6484375
-14.6484375
-8.23974609375
-11.90185546875
-21.05712890625
-8.23974609375
-20.1416015625
-17.39501953125
-15.56396484375
-19.22607421875
-27.4658203125
-32.04345703125
-26.55029296875
-10.986328125
-18.310546875
-11.90185546875
-9.1552734375
-12.8173828125
-13.73291015625
-27.4658203125
-16.4794921875
-22.88818359375
-24.71923828125
-15.56396484375
-9.1552734375
-17.39501953125
-15.56396484375
-23.8037109375
3.662109375
-6.40869140625
-34.7900390625
-20.1416015625
-5.4931640625
-18.310546875
-20.1416015625
-15.56396484375
-24.71923828125
-17.39501953125
-3.662109375
-14.6484375
-5.4931640625
-9.1552734375
-1.8310546875
-16.4794921875
-23.8037109375
-19.22607421875
-3.662109375
-14.6484375
-6.40869140625
19.22607421875
15.56396484375
9.1552734375
3.662109375
4.57763671875
10.07080078125
5.4931640625
23.8037109375
31.1279296875
48.52294921875
44.86083984375
57.67822265625
61.34033203125
61.34033203125
50.35400390625
37.53662109375
27.4658203125
28.38134765625
12.8173828125
-1.8310546875
-5.4931640625
0.91552734375
-3.662109375
6.40869140625
-1.8310546875
-9.1552734375
2.74658203125
-7.32421875
1.8310546875
-5.4931640625
-1.8310546875
0
-3.662109375
-10.07080078125
-20.1416015625
-38.4521484375
-36.62109375
-50.35400390625
-35.70556640625
-28.38134765625
-39.36767578125
-40.283203125
-23.8037109375
-17.39501953125
-32.04345703125
-39.36767578125
-34.7900390625
-21.97265625
-31.1279296875
-44.86083984375
-36.62109375
-20.1416015625
-30.21240234375
-32.04345703125
-18.310546875
-16.4794921875
-22.88818359375
-22.88818359375
-17.39501953125
-27.4658203125
-20.1416015625
-28.38134765625
-27.4658203125
-39.36767578125
-45.7763671875
-35.70556640625
7.32421875
52.18505859375
140.07568359375
201.416015625
238.95263671875
267.333984375
322.265625
404.6630859375
500.79345703125
598.7548828125
692.138671875
792.8466796875
911.865234375
1080.322265625
1218.56689453125
1213.9892578125
1054.6875
799.25537109375
536.4990234375
388.18359375
285.64453125
177.6123046875
109.86328125
82.3974609375
31.1279296875
-30.21240234375
-86.97509765625
-139.16015625
-172.119140625
-188.5986328125
-171.20361328125
-157.470703125
-152.89306640625
-150.146484375
-115.3564453125
-78.7353515625
-36.62109375
-16.4794921875
-8.23974609375
0
-2.74658203125
5.4931640625
2.74658203125
3.662109375
3.662109375
-14.6484375
-9.1552734375
-5.4931640625
8.23974609375
8.23974609375
12.8173828125
-0.91552734375
13.73291015625
19.22607421875
-6.40869140625
-4.57763671875
21.97265625
19.22607421875
18.310546875
5.4931640625
8.23974609375
12.8173828125
8.23974609375
2.74658203125
3.662109375
4.57763671875
-1.8310546875
11.90185546875
20.1416015625
20.1416015625
23.8037109375
44.86083984375
23.8037109375
19.22607421875
26.55029296875
20.1416015625
20.1416015625
33.87451171875
23.8037109375
17.39501953125
34.7900390625
41.19873046875
44.86083984375
42.1142578125
46.69189453125
33.87451171875
29.296875
40.283203125
51.26953125
22.88818359375
27.4658203125
50.35400390625
49.4384765625
48.52294921875
54.931640625
53.1005859375
56.7626953125
59.50927734375
54.01611328125
62.255859375
65.91796875
60.4248046875
66.83349609375
73.2421875
60.4248046875
74.15771484375
86.97509765625
91.552734375
86.0595703125
78.7353515625
88.80615234375
97.0458984375
86.0595703125
94.29931640625
104.3701171875
114.44091796875
110.77880859375
129.08935546875
134.58251953125
137.3291015625
144.6533203125
142.822265625
143.73779296875
153.80859375
142.822265625
152.89306640625
155.6396484375
153.80859375
158.38623046875
164.794921875
161.1328125
157.470703125
166.6259765625
178.52783203125
180.35888671875
171.20361328125
178.52783203125
167.54150390625
172.119140625
186.767578125
167.54150390625
172.119140625
180.35888671875
160.21728515625
180.35888671875
184.02099609375
160.21728515625
157.470703125
158.38623046875
157.470703125
146.484375
143.73779296875
140.9912109375
121.76513671875
115.3564453125
128.173828125
121.76513671875
110.77880859375
102.5390625
94.29931640625
63.17138671875
67.7490234375
66.83349609375
57.67822265625
55.84716796875
37.53662109375
40.283203125
27.4658203125
20.1416015625
32.04345703125
34.7900390625
2.74658203125
13.73291015625
9.1552734375
8.23974609375
2.74658203125
3.662109375
-0.91552734375
1.8310546875
-2.74658203125
-21.05712890625
-4.57763671875
-11.90185546875
-7.32421875
-10.986328125
-27.4658203125
-13.73291015625
-10.986328125
-20.1416015625
-21.97265625
-19.22607421875
-38.4521484375
-12.8173828125
-12.8173828125
-11.90185546875
-22.88818359375
-22.88818359375
-19.22607421875
-21.05712890625
-13.73291015625
-18.310546875
-28.38134765625
-21.97265625
-17.39501953125
-17.39501953125
-7.32421875
-10.986328125
-21.97265625
-32.04345703125
-28.38134765625
-28.38134765625
-15.56396484375
-13.73291015625
-14.6484375
-14.6484375
-13.73291015625
-22.88818359375
-20.1416015625
-16.4794921875
-16.4794921875
-17.39501953125
-17.39501953125
-21.97265625
-8.23974609375
-18.310546875
-32.04345703125
-26.55029296875
-13.73291015625
-9.1552734375
-26.55029296875
-13.73291015625
-10.07080078125
-8.23974609375
-0.91552734375
-10.07080078125
-1.8310546875
-0.91552734375
2.74658203125
-0.91552734375
-22.88818359375
-8.23974609375
0
2.74658203125
-11.90185546875
-10.986328125
-4.57763671875
-4.57763671875
-13.73291015625
-8.23974609375
1.8310546875
-10.07080078125
-3.662109375
0
6.40869140625
3.662109375
3.662109375
-0.91552734375
4.57763671875
-0.91552734375
-2.74658203125
-13.73291015625
-8.23974609375
3.662109375
15.56396484375
-18.310546875
-16.4794921875
-1.8310546875
-4.57763671875
0.91552734375
-9.1552734375
-21.05712890625
-5.4931640625
0
0
-6.40869140625
-33.87451171875
-17.39501953125
-2.74658203125
7.32421875
-6.40869140625
-19.22607421875
-21.97265625
-10.07080078125
-13.73291015625
-17.39501953125
-8.23974609375
-23.8037109375
-19.22607421875
-5.4931640625
-7.32421875
-17.39501953125
-26.55029296875
-17.39501953125
-10.07080078125
-5.4931640625
-10.986328125
-8.23974609375
-7.32421875
-21.05712890625
-21.05712890625
-20.1416015625
-12.8173828125
-12.8173828125
-9.1552734375
-23.8037109375
-22.88818359375
-18.310546875
-21.05712890625
-15.56396484375
-24.71923828125
-18.310546875
-15.56396484375
-11.90185546875
-7.32421875
-19.22607421875
-26.55029296875
-21.97265625
-13.73291015625
-34.7900390625
-28.38134765625
-29.296875
-22.88818359375
-6.40869140625
-19.22607421875
-7.32421875
-20.1416015625
-30.21240234375
-21.05712890625
-8.23974609375
-16.4794921875
-15.56396484375
-19.22607421875
-27.4658203125
-35.70556640625
-27.4658203125
-10.986328125
-19.22607421875
-10.07080078125
-20.1416015625
-11.90185546875
-21.05712890625
-24.71923828125
-26.55029296875
-20.1416015625
-27.4658203125
-21.97265625
-21.05712890625
-21.05712890625
-17.39501953125
-19.22607421875
-17.39501953125
-20.1416015625
-24.71923828125
-20.1416015625
-20.1416015625
-26.55029296875
-23.8037109375
-22.88818359375
-13.73291015625
-15.56396484375
-19.22607421875
-6.40869140625
-1.8310546875
-15.56396484375
-9.1552734375
7.32421875
3.662109375
-2.74658203125
-12.8173828125
-21.05712890625
-17.39501953125
-21.05712890625
-21.05712890625
3.662109375
13.73291015625
4.57763671875
2.74658203125
-13.73291015625
8.23974609375
4.57763671875
7.32421875
17.39501953125
31.1279296875
38.4521484375
42.1142578125
49.4384765625
51.26953125
38.4521484375
38.4521484375
37.53662109375
23.8037109375
22.88818359375
3.662109375
-1.8310546875
0.91552734375
5.4931640625
-6.40869140625
-1.8310546875
6.40869140625
2.74658203125
10.07080078125
7.32421875
-2.74658203125
-15.56396484375
-7.32421875
-8.23974609375
-9.1552734375
-14.6484375
-36.62109375
-51.26953125
-32.958984375
-43.9453125
-24.71923828125
-46.69189453125
-50.35400390625
-38.4521484375
-34.7900390625
-34.7900390625
-29.296875
-28.38134765625
-46.69189453125
-32.958984375
-31.1279296875
-40.283203125
-35.70556640625
-33.87451171875
-33.87451171875
-29.296875
-38.4521484375
-25.634765625
-32.04345703125
-28.38134765625
-24.71923828125
-20.1416015625
-13.73291015625
-21.05712890625
-26.55029296875
-39.36767578125
-51.26953125
-43.9453125
-30.21240234375
14.6484375
97.0458984375
168.45703125
214.2333984375
254.5166015625
293.88427734375
359.80224609375
437.6220703125
550.23193359375
634.46044921875
733.33740234375
860.595703125
1004.33349609375
1155.3955078125
1229.55322265625
1135.25390625
938.41552734375
664.6728515625
451.35498046875
340.576171875
248.10791015625
145.56884765625
82.3974609375
55.84716796875
-19.22607421875
-66.83349609375
-119.0185546875
-154.72412109375
-169.37255859375
-170.2880859375
-173.9501953125
-162.04833984375
-155.6396484375
-136.41357421875
-108.94775390625
-61.34033203125
-19.22607421875
-3.662109375
-1.8310546875
0
5.4931640625
-3.662109375
-8.23974609375
-16.4794921875
-7.32421875
3.662109375
1.8310546875
1.8310546875
3.662109375
-11.90185546875
-10.986328125
12.8173828125
8.23974609375
-5.4931640625
3.662109375
10.986328125
23.8037109375
21.97265625
7.32421875
0.91552734375
10.07080078125
9.1552734375
21.05712890625
28.38134765625
12.8173828125
7.32421875
10.07080078125
21.05712890625
16.4794921875
18.310546875
21.05712890625
22.88818359375
23.8037109375
19.22607421875
29.296875
14.6484375
25.634765625
37.53662109375
30.21240234375
29.296875
24.71923828125
35.70556640625
36.62109375
37.53662109375
24.71923828125
17.39501953125
35.70556640625
42.1142578125
45.7763671875
50.35400390625
52.18505859375
54.931640625
54.01611328125
51.26953125
54.01611328125
47.607421875
54.931640625
51.26953125
61.34033203125
64.0869140625
71.4111328125
80.56640625
72.32666015625
65.91796875
79.65087890625
85.14404296875
87.890625
79.65087890625
83.31298828125
88.80615234375
96.13037109375
97.96142578125
104.3701171875
95.21484375
113.525390625
118.10302734375
119.0185546875
125.42724609375
113.525390625
121.76513671875
133.6669921875
139.16015625
134.58251953125
141.90673828125
151.06201171875
156.55517578125
151.9775390625
141.90673828125
149.23095703125
159.3017578125
167.54150390625
183.10546875
172.119140625
174.86572265625
170.2880859375
172.119140625
174.86572265625
183.10546875
191.34521484375
178.52783203125
173.9501953125
166.6259765625
182.18994140625
180.35888671875
184.02099609375
173.9501953125
162.9638671875
164.794921875
163.87939453125
148.3154296875
142.822265625
149.23095703125
146.484375
148.3154296875
122.6806640625
114.44091796875
105.28564453125
111.6943359375
115.3564453125
102.5390625
79.65087890625
75.0732421875
75.0732421875
59.50927734375
57.67822265625
44.86083984375
40.283203125
39.36767578125
37.53662109375
34.7900390625
20.1416015625
28.38134765625
20.1416015625
6.40869140625
25.634765625
21.97265625
21.97265625
14.6484375
6.40869140625
3.662109375
-9.1552734375
6.40869140625
-4.57763671875
0
-6.40869140625
0.91552734375
0.91552734375
2.74658203125
-0.91552734375
-8.23974609375
-21.05712890625
-20.1416015625
-11.90185546875
-17.39501953125
-1.8310546875
-2.74658203125
-18.310546875
16.4794921875
6.40869140625
-10.07080078125
-2.74658203125
-2.74658203125
-7.32421875
-14.6484375
-4.57763671875
-6.40869140625
-17.39501953125
-10.986328125
-11.90185546875
-11.90185546875
-10.07080078125
-8.23974609375
-0.91552734375
-10.986328125
-6.40869140625
-0.91552734375
-2.74658203125
-5.4931640625
-5.4931640625
2.74658203125
-11.90185546875
-15.56396484375
6.40869140625
-7.32421875
-7.32421875
-1.8310546875
0
-3.662109375
0.91552734375
-1.8310546875
6.40869140625
10.986328125
10.07080078125
9.1552734375
10.07080078125
3.662109375
12.8173828125
8.23974609375
10.07080078125
3.662109375
6.40869140625
-0.91552734375
4.57763671875
-2.74658203125
-1.8310546875
6.40869140625
16.4794921875
10.986328125
12.8173828125
3.662109375
1.8310546875
9.1552734375
10.986328125
4.57763671875
-2.74658203125
8.23974609375
10.07080078125
9.1552734375
1.8310546875
-4.57763671875
16.4794921875
11.90185546875
-1.8310546875
-6.40869140625
9.1552734375
-0.91552734375
-3.662109375
9.1552734375
13.73291015625
3.662109375
-4.57763671875
-3.662109375
3.662109375
5.4931640625
2.74658203125
6.40869140625
-5.4931640625
3.662109375
1.8310546875
-9.1552734375
-9.1552734375
2.74658203125
4.57763671875
-10.986328125
-12.8173828125
0
-5.4931640625
-10.986328125
-5.4931640625
-10.986328125
0
-1.8310546875
-0.91552734375
3.662109375
-9.1552734375
-20.1416015625
-8.23974609375
-12.8173828125
6.40869140625
-0.91552734375
-17.39501953125
5.4931640625
-4.57763671875
-2.74658203125
-10.986328125
-18.310546875
-2.74658203125
-3.662109375
-19.22607421875
-16.4794921875
-13.73291015625
-5.4931640625
-1.8310546875
-7.32421875
-16.4794921875
-16.4794921875
-11.90185546875
-2.74658203125
-13.73291015625
-19.22607421875
-4.57763671875
-11.90185546875
0.91552734375
-14.6484375
-24.71923828125
-6.40869140625
-5.4931640625
-5.4931640625
-21.05712890625
-20.1416015625
-3.662109375
0.91552734375
-7.32421875
-16.4794921875
-10.986328125
-1.8310546875
-18.310546875
-12.8173828125
-17.39501953125
-22.88818359375
-10.07080078125
-2.74658203125
-21.97265625
-20.1416015625
-10.07080078125
-1.8310546875
-8.23974609375
-24.71923828125
-22.88818359375
-21.97265625
-24.71923828125
-21.05712890625
-8.23974609375
-7.32421875
-21.97265625
-15.56396484375
-21.05712890625
-21.05712890625
-10.986328125
-10.07080078125
-21.05712890625
-7.32421875
-10.986328125
-9.1552734375
-18.310546875
-13.73291015625
-11.90185546875
-11.90185546875
-15.56396484375
-13.73291015625
-13.73291015625
-20.1416015625
-16.4794921875
-31.1279296875
-19.22607421875
-13.73291015625
-14.6484375
-1.8310546875
-10.986328125
-17.39501953125
-15.56396484375
-17.39501953125
-4.57763671875
-5.4931640625
-8.23974609375
-5.4931640625
13.73291015625
4.57763671875
-5.4931640625
-9.1552734375
-21.05712890625
-2.74658203125
37.53662109375
26.55029296875
10.07080078125
9.1552734375
8.23974609375
8.23974609375
21.97265625
24.71923828125
39.36767578125
52.18505859375
58.59375
59.50927734375
54.01611328125
55.84716796875
46.69189453125
42.1142578125
41.19873046875
15.56396484375
20.1416015625
12.8173828125
10.986328125
6.40869140625
4.57763671875
-2.74658203125
-2.74658203125
-3.662109375
-6.40869140625
-7.32421875
5.4931640625
-6.40869140625
-10.986328125
0
-3.662109375
-14.6484375
-12.8173828125
-26.55029296875
-42.1142578125
-38.4521484375
-32.04345703125
-26.55029296875
-30.21240234375
-46.69189453125
-38.4521484375
-34.7900390625
-39.36767578125
-25.634765625
-27.4658203125
-41.19873046875
-40.283203125
-23.8037109375
-15.56396484375
-8.23974609375
-25.634765625
-23.8037109375
-16.4794921875
-15.56396484375
-19.22607421875
-17.39501953125
-24.71923828125
-11.90185546875
-12.8173828125
-10.986328125
-32.958984375
-41.19873046875
-54.931640625
-47.607421875
-21.05712890625
32.04345703125
87.890625
170.2880859375
226.13525390625
254.5166015625
291.1376953125
363.46435546875
454.1015625
560.302734375
651.85546875
742.49267578125
864.2578125
1016.2353515625
1164.55078125
1209.41162109375
1106.87255859375
899.96337890625
617.98095703125
436.70654296875
329.58984375
234.375
137.3291015625
93.3837890625
65.91796875
10.986328125
-59.50927734375
-120.849609375
-162.9638671875
-176.69677734375
-180.35888671875
-176.69677734375
-150.146484375
-147.39990234375
-124.51171875
-107.11669921875
-51.26953125
-14.6484375
0.91552734375
-1.8310546875
-7.32421875
-11.90185546875
-3.662109375
2.74658203125
0
-10.986328125
-1.8310546875
-2.74658203125
0.91552734375
2.74658203125
-12.8173828125
10.07080078125
4.57763671875
2.74658203125
18.310546875
13.73291015625
4.57763671875
0
-1.8310546875
6.40869140625
10.986328125
-0.91552734375
10.986328125
20.1416015625
8.23974609375
17.39501953125
19.22607421875
22.88818359375
21.97265625
21.97265625
22.88818359375
22.88818359375
23.8037109375
23.8037109375
17.39501953125
14.6484375
15.56396484375
19.22607421875
31.1279296875
25.634765625
21.97265625
27.4658203125
25.634765625
26.55029296875
23.8037109375
39.36767578125
34.7900390625
26.55029296875
35.70556640625
45.7763671875
43.9453125
43.02978515625
46.69189453125
58.59375
51.26953125
55.84716796875
60.4248046875
57.67822265625
54.01611328125
55.84716796875
60.4248046875
62.255859375
68.66455078125
76.904296875
68.66455078125
73.2421875
74.15771484375
86.0595703125
98.876953125
84.228515625
81.48193359375
96.13037109375
91.552734375
99.79248046875
101.62353515625
108.94775390625
121.76513671875
116.27197265625
120.849609375
122.6806640625
123.59619140625
123.59619140625
136.41357421875
139.16015625
151.9775390625
138.24462890625
146.484375
146.484375
142.822265625
144.6533203125
153.80859375
153.80859375
154.72412109375
166.6259765625
181.2744140625
176.69677734375
167.54150390625
176.69677734375
181.2744140625
173.9501953125
169.37255859375
173.9501953125
170.2880859375
168.45703125
169.37255859375
175.78125
175.78125
177.6123046875
162.04833984375
153.80859375
158.38623046875
152.89306640625
143.73779296875
146.484375
131.8359375
129.08935546875
119.93408203125
105.28564453125
101.62353515625
108.94775390625
122.6806640625
90.63720703125
75.98876953125
86.0595703125
81.48193359375
56.7626953125
48.52294921875
53.1005859375
40.283203125
41.19873046875
38.4521484375
36.62109375
32.04345703125
23.8037109375
26.55029296875
30.21240234375
17.39501953125
12.8173828125
18.310546875
14.6484375
16.4794921875
11.90185546875
0
7.32421875
0
-10.986328125
-0.91552734375
8.23974609375
0
-6.40869140625
2.74658203125
4.57763671875
0.91552734375
-2.74658203125
0
-7.32421875
-3.662109375
-8.23974609375
-8.23974609375
-19.22607421875
-12.8173828125
-5.4931640625
-4.57763671875
-10.986328125
-10.07080078125
-2.74658203125
-2.74658203125
8.23974609375
0
1.8310546875
3.662109375
-3.662109375
-5.4931640625
-1.8310546875
3.662109375
2.74658203125
-8.23974609375
1.8310546875
3.662109375
-0.91552734375
-5.4931640625
-6.40869140625
-2.74658203125
12.8173828125
4.57763671875
5.4931640625
-3.662109375
3.662109375
2.74658203125
0.91552734375
10.986328125
1.8310546875
16.4794921875
9.1552734375
5.4931640625
1.8310546875
3.662109375
12.8173828125
14.6484375
6.40869140625
16.4794921875
35.70556640625
29.296875
8.23974609375
8.23974609375
5.4931640625
11.90185546875
1.8310546875
13.73291015625
29.296875
10.986328125
11.90185546875
21.05712890625
20.1416015625
21.97265625
27.4658203125
16.4794921875
7.32421875
10.07080078125
5.4931640625
21.05712890625
3.662109375
16.4794921875
9.1552734375
19.22607421875
23.8037109375
10.986328125
15.56396484375
13.73291015625
21.97265625
13.73291015625
2.74658203125
6.40869140625
6.40869140625
9.1552734375
-8.23974609375
6.40869140625
9.1552734375
5.4931640625
16.4794921875
-4.57763671875
14.6484375
8.23974609375
3.662109375
5.4931640625
4.57763671875
-3.662109375
-17.39501953125
4.57763671875
-9.1552734375
7.32421875
4.57763671875
-9.1552734375
0
-1.8310546875
0
-0.91552734375
-3.662109375
-4.57763671875
-5.4931640625
-19.22607421875
-11.90185546875
4.57763671875
6.40869140625
-0.91552734375
-11.90185546875
-6.40869140625
-8.23974609375
-1.8310546875
-10.07080078125
-9.1552734375
-10.07080078125
-3.662109375
-1.8310546875
-14.6484375
-17.39501953125
-13.73291015625
-18.310546875
-4.57763671875
0
8.23974609375
-7.32421875
-19.22607421875
-13.73291015625
-15.56396484375
2.74658203125
-8.23974609375
-12.8173828125
-7.32421875
-8.23974609375
-13.73291015625
-16.4794921875
-19.22607421875
-24.71923828125
-9.1552734375
-0.91552734375
-5.4931640625
-15.56396484375
-6.40869140625
-7.32421875
-4.57763671875
-10.986328125
-13.73291015625
-4.57763671875
0
-24.71923828125
-12.8173828125
4.57763671875
6.40869140625
-3.662109375
-5.4931640625
-10.07080078125
-18.310546875
-3.662109375
-23.8037109375
-9.1552734375
-4.57763671875
0.91552734375
-13.73291015625
-15.56396484375
-4.57763671875
-14.6484375
-14.6484375
-5.4931640625
0.91552734375
-6.40869140625
-20.1416015625
-18.310546875
-7.32421875
-5.4931640625
-20.1416015625
-18.310546875
-13.73291015625
-2.74658203125
-2.74658203125
-12.8173828125
-7.32421875
-12.8173828125
-17.39501953125
-7.32421875
4.57763671875
4.57763671875
0
13.73291015625
17.39501953125
16.4794921875
1.8310546875
0.91552734375
10.986328125
9.1552734375
-1.8310546875
5.4931640625
8.23974609375
13.73291015625
37.53662109375
34.7900390625
13.73291015625
13.73291015625
20.1416015625
28.38134765625
13.73291015625
28.38134765625
54.931640625
67.7490234375
64.0869140625
69.580078125
59.50927734375
55.84716796875
53.1005859375
46.69189453125
48.52294921875
10.986328125
-1.8310546875
10.986328125
19.22607421875
21.97265625
15.56396484375
10.07080078125
15.56396484375
12.8173828125
24.71923828125
5.4931640625
-2.74658203125
11.90185546875
14.6484375
15.56396484375
1.8310546875
-3.662109375
-10.07080078125
-21.97265625
-8.23974609375
-22.88818359375
-29.296875
-17.39501953125
-24.71923828125
-35.70556640625
-21.97265625
-12.8173828125
-18.310546875
-32.04345703125
-21.97265625
-24.71923828125
-16.4794921875
-20.1416015625
-26.55029296875
-19.22607421875
-22.88818359375
-15.56396484375
-10.07080078125
-1.8310546875
-17.39501953125
-10.07080078125
-19.22607421875
-20.1416015625
-10.07080078125
-18.310546875
-23.8037109375
-42.1142578125
-43.9453125
-25.634765625
9.1552734375
75.98876953125
167.54150390625
214.2333984375
242.61474609375
281.06689453125
317.68798828125
413.818359375
518.1884765625
618.896484375
711.36474609375
812.07275390625
944.82421875
1115.1123046875
1232.2998046875
1193.84765625
1018.06640625
748.9013671875
526.42822265625
385.43701171875
281.06689453125
180.35888671875
125.42724609375
102.5390625
63.17138671875
-4.57763671875
-69.580078125
-119.0185546875
-166.6259765625
-176.69677734375
-169.37255859375
-158.38623046875
-133.6669921875
-133.6669921875
-124.51171875
-84.228515625
-36.62109375
2.74658203125
-5.4931640625
12.8173828125
24.71923828125
24.71923828125
11.90185546875
13.73291015625
14.6484375
11.90185546875
6.40869140625
26.55029296875
21.05712890625
10.986328125
9.1552734375
21.05712890625
22.88818359375
27.4658203125
22.88818359375
26.55029296875
26.55029296875
22.88818359375
16.4794921875
28.38134765625
23.8037109375
16.4794921875
22.88818359375
27.4658203125
34.7900390625
29.296875
24.71923828125
38.4521484375
52.18505859375
36.62109375
29.296875
35.70556640625
44.86083984375
37.53662109375
37.53662109375
44.86083984375
33.87451171875
38.4521484375
32.958984375
41.19873046875
37.53662109375
19.22607421875
43.02978515625
42.1142578125
45.7763671875
47.607421875
51.26953125
57.67822265625
57.67822265625
55.84716796875
63.17138671875
66.83349609375
65.00244140625
60.4248046875
61.34033203125
77.81982421875
50.35400390625
70.49560546875
75.0732421875
78.7353515625
69.580078125
82.3974609375
82.3974609375
98.876953125
100.7080078125
86.97509765625
89.7216796875
87.890625
100.7080078125
105.28564453125
102.5390625
95.21484375
110.77880859375
127.25830078125
122.6806640625
121.76513671875
120.849609375
130.0048828125
140.9912109375
140.07568359375
140.9912109375
144.6533203125
143.73779296875
148.3154296875
149.23095703125
158.38623046875
166.6259765625
163.87939453125
170.2880859375
169.37255859375
174.86572265625
164.794921875
166.6259765625
161.1328125
178.52783203125
178.52783203125
178.52783203125
180.35888671875
182.18994140625
175.78125
184.02099609375
174.86572265625
191.34521484375
188.5986328125
194.091796875
184.9365234375
175.78125
189.51416015625
175.78125
177.6123046875
154.72412109375
161.1328125
162.04833984375
155.6396484375
147.39990234375
137.3291015625
125.42724609375
109.86328125
106.201171875
97.96142578125
106.201171875
100.7080078125
92.46826171875
83.31298828125
75.98876953125
78.7353515625
72.32666015625
58.59375
56.7626953125
50.35400390625
49.4384765625
35.70556640625
36.62109375
38.4521484375
37.53662109375
27.4658203125
12.8173828125
23.8037109375
21.05712890625
16.4794921875
9.1552734375
7.32421875
10.07080078125
4.57763671875
0.91552734375
1.8310546875
3.662109375
5.4931640625
11.90185546875
0.91552734375
9.1552734375
0.91552734375
4.57763671875
10.07080078125
1.8310546875
8.23974609375
1.8310546875
0
-3.662109375
2.74658203125
0
1.8310546875
4.57763671875
2.74658203125
-3.662109375
1.8310546875
3.662109375
-3.662109375
6.40869140625
15.56396484375
3.662109375
-0.91552734375
-10.986328125
-1.8310546875
4.57763671875
3.662109375
4.57763671875
0.91552734375
-2.74658203125
0
10.986328125
18.310546875
-2.74658203125
-15.56396484375
6.40869140625
6.40869140625
4.57763671875
17.39501953125
10.07080078125
4.57763671875
3.662109375
5.4931640625
17.39501953125
1.8310546875
3.662109375
16.4794921875
-1.8310546875
8.23974609375
22.88818359375
19.22607421875
15.56396484375
16.4794921875
16.4794921875
8.23974609375
6.40869140625
7.32421875
18.310546875
8.23974609375
17.39501953125
17.39501953125
21.05712890625
16.4794921875
19.22607421875
4.57763671875
9.1552734375
11.90185546875
6.40869140625
8.23974609375
7.32421875
19.22607421875
15.56396484375
12.8173828125
3.662109375
9.1552734375
11.90185546875
0.91552734375
-0.91552734375
17.39501953125
20.1416015625
14.6484375
7.32421875
-2.74658203125
1.8310546875
4.57763671875
9.1552734375
9.1552734375
-8.23974609375
-7.32421875
0
-9.1552734375
5.4931640625
9.1552734375
3.662109375
7.32421875
2.74658203125
8.23974609375
6.40869140625
-10.07080078125
-11.90185546875
-1.8310546875
6.40869140625
4.57763671875
2.74658203125
-7.32421875
-10.07080078125
-18.310546875
-7.32421875
-20.1416015625
-10.07080078125
13.73291015625
2.74658203125
-5.4931640625
-2.74658203125
-10.07080078125
0
2.74658203125
-11.90185546875
-23.8037109375
0.91552734375
-29.296875
-1.8310546875
-7.32421875
-16.4794921875
-11.90185546875
-13.73291015625
-7.32421875
-4.57763671875
-10.986328125
-21.05712890625
-11.90185546875
-5.4931640625
-7.32421875
-14.6484375
-14.6484375
-12.8173828125
-25.634765625
-14.6484375
-11.90185546875
-5.4931640625
-12.8173828125
-13.73291015625
-9.1552734375
-15.56396484375
-21.97265625
-13.73291015625
-21.97265625
-29.296875
0.91552734375
-19.22607421875
-33.87451171875
-13.73291015625
-17.39501953125
-24.71923828125
-3.662109375
-3.662109375
-22.88818359375
-15.56396484375
-21.97265625
-31.1279296875
-26.55029296875
-22.88818359375
-26.55029296875
-38.4521484375
-28.38134765625
-26.55029296875
-17.39501953125
-21.05712890625
-33.87451171875
-38.4521484375
-26.55029296875
-32.958984375
-19.22607421875
-32.958984375
-38.4521484375
-20.1416015625
-15.56396484375
-24.71923828125
-30.21240234375
-27.4658203125
-21.05712890625
-18.310546875
-26.55029296875
-28.38134765625
-29.296875
-22.88818359375
-10.07080078125
0.91552734375
-10.986328125
-4.57763671875
-11.90185546875
-8.23974609375
-22.88818359375
-22.88818359375
-29.296875
-38.4521484375
-6.40869140625
8.23974609375
4.57763671875
-3.662109375
-10.986328125
-10.986328125
-4.57763671875
3.662109375
25.634765625
40.283203125
41.19873046875
54.01611328125
59.50927734375
45.7763671875
48.52294921875
39.36767578125
20.1416015625
-0.91552734375
-5.4931640625
-9.1552734375
-9.1552734375
-13.73291015625
-11.90185546875
-16.4794921875
-24.71923828125
-26.55029296875
-21.97265625
-17.39501953125
-25.634765625
-19.22607421875
-16.4794921875
-14.6484375
-19.22607421875
-38.4521484375
-34.7900390625
-39.36767578125
-57.67822265625
-52.18505859375
-47.607421875
-45.7763671875
-45.7763671875
-53.1005859375
-52.18505859375
-47.607421875
-53.1005859375
-47.607421875
-57.67822265625
-53.1005859375
-49.4384765625
-46.69189453125
-43.02978515625
-56.7626953125
-44.86083984375
-55.84716796875
-54.931640625
-34.7900390625
-53.1005859375
-36.62109375
-28.38134765625
-54.01611328125
-43.9453125
-36.62109375
-54.931640625
-75.0732421875
-55.84716796875
-37.53662109375
20.1416015625
86.0595703125
170.2880859375
211.48681640625
243.5302734375
266.41845703125
344.23828125
420.22705078125
535.58349609375
627.13623046875
708.6181640625
820.3125
986.9384765625
1142.578125
1155.3955078125
1011.65771484375
786.43798828125
540.1611328125
390.93017578125
291.1376953125
191.34521484375
108.0322265625
99.79248046875
82.3974609375
21.05712890625
-57.67822265625
-134.58251953125
-180.35888671875
-205.99365234375
-205.99365234375
-203.2470703125
-180.35888671875
-184.9365234375
-175.78125
-134.58251953125
-104.3701171875
-58.59375
-32.958984375
-30.21240234375
-29.296875
-28.38134765625
-22.88818359375
-29.296875
-27.4658203125
-42.1142578125
-29.296875
-23.8037109375
-23.8037109375
-19.22607421875
-15.56396484375
-28.38134765625
-28.38134765625
-21.97265625
-16.4794921875
-9.1552734375
-37.53662109375
-15.56396484375
-9.1552734375
-10.07080078125
-7.32421875
-13.73291015625
-18.310546875
-10.07080078125
-7.32421875
-10.07080078125
-6.40869140625
-8.23974609375
-6.40869140625
8.23974609375
16.4794921875
6.40869140625
-12.8173828125
-19.22607421875
-12.8173828125
-11.90185546875
-14.6484375
-5.4931640625
-5.4931640625
-9.1552734375
1.8310546875
0.91552734375
1.8310546875
0
4.57763671875
7.32421875
8.23974609375
2.74658203125
-2.74658203125
-3.662109375
0
18.310546875
11.90185546875
18.310546875
21.97265625
22.88818359375
21.05712890625
18.310546875
35.70556640625
21.05712890625
30.21240234375
30.21240234375
27.4658203125
27.4658203125
34.7900390625
47.607421875
37.53662109375
43.02978515625
46.69189453125
65.00244140625
62.255859375
60.4248046875
53.1005859375
67.7490234375
67.7490234375
73.2421875
61.34033203125
78.7353515625
88.80615234375
86.0595703125
76.904296875
92.46826171875
88.80615234375
101.62353515625
91.552734375
104.3701171875
103.45458984375
105.28564453125
91.552734375
110.77880859375
110.77880859375
117.1875
115.3564453125
110.77880859375
130.0048828125
130.92041015625
122.6806640625
127.25830078125
126.3427734375
136.41357421875
128.173828125
136.41357421875
138.24462890625
127.25830078125
129.08935546875
122.6806640625
129.08935546875
115.3564453125
114.44091796875
126.3427734375
107.11669921875
91.552734375
103.45458984375
106.201171875
89.7216796875
75.98876953125
69.580078125
66.83349609375
71.4111328125
62.255859375
54.01611328125
49.4384765625
43.9453125
24.71923828125
25.634765625
18.310546875
11.90185546875
2.74658203125
-11.90185546875
-19.22607421875
-17.39501953125
-6.40869140625
-4.57763671875
-12.8173828125
-34.7900390625
-28.38134765625
-46.69189453125
-41.19873046875
-49.4384765625
-18.310546875
-39.36767578125
-51.26953125
-39.36767578125
-46.69189453125
-46.69189453125
-42.1142578125
-59.50927734375
-59.50927734375
-50.35400390625
-50.35400390625
-60.4248046875
-58.59375
-55.84716796875
-57.67822265625
-75.0732421875
-46.69189453125
-57.67822265625
-51.26953125
-54.01611328125
-61.34033203125
-54.931640625
-51.26953125
-60.4248046875
-61.34033203125
-54.931640625
-59.50927734375
-58.59375
-68.66455078125
-60.4248046875
-62.255859375
-58.59375
-60.4248046875
-64.0869140625
-55.84716796875
-61.34033203125
-63.17138671875
-56.7626953125
-48.52294921875
-53.1005859375
-46.69189453125
-55.84716796875
-50.35400390625
-53.1005859375
-72.32666015625
-64.0869140625
-53.1005859375
-43.9453125
-45.7763671875
-54.01611328125
-51.26953125
-48.52294921875
-54.01611328125
-58.59375
-57.67822265625
-49.4384765625
-39.36767578125
-45.7763671875
-33.87451171875
-38.4521484375
-25.634765625
-31.1279296875
-43.9453125
-39.36767578125
-39.36767578125
-39.36767578125
-44.86083984375
-53.1005859375
-50.35400390625
-47.607421875
-44.86083984375
-43.02978515625
-39.36767578125
-42.1142578125
-27.4658203125
-51.26953125
-34.7900390625
-37.53662109375
-57.67822265625
-40.283203125
-30.21240234375
-56.7626953125
-50.35400390625
-40.283203125
-46.69189453125
-61.34033203125
-37.53662109375
-43.9453125
-43.9453125
-29.296875
-43.9453125
-48.52294921875
-47.607421875
-35.70556640625
-41.19873046875
-49.4384765625
-43.9453125
-62.255859375
-52.18505859375
-54.01611328125
-54.931640625
-51.26953125
-50.35400390625
-54.01611328125
-46.69189453125
-58.59375
-47.607421875
-52.18505859375
-63.17138671875
-44.86083984375
-45.7763671875
-52.18505859375
-60.4248046875
-50.35400390625
-54.931640625
-56.7626953125
-57.67822265625
-58.59375
-65.91796875
-77.81982421875
-67.7490234375
-54.01611328125
-64.0869140625
-73.2421875
-69.580078125
-65.91796875
-46.69189453125
-61.34033203125
-67.7490234375
-43.9453125
-52.18505859375
-57.67822265625
-59.50927734375
-61.34033203125
-65.00244140625
-60.4248046875
-72.32666015625
-62.255859375
-48.52294921875
-59.50927734375
-77.81982421875
-70.49560546875
-65.00244140625
-55.84716796875
-61.34033203125
-79.65087890625
-61.34033203125
-69.580078125
-74.15771484375
-63.17138671875
-75.0732421875
-66.83349609375
-63.17138671875
-73.2421875
-72.32666015625
-73.2421875
-65.00244140625
-72.32666015625
-70.49560546875
-60.4248046875
-67.7490234375
-66.83349609375
-72.32666015625
-59.50927734375
-66.83349609375
-63.17138671875
-55.84716796875
-68.66455078125
-66.83349609375
-55.84716796875
-58.59375
-73.2421875
-78.7353515625
-70.49560546875
-75.98876953125
-32.958984375
-36.62109375
-41.19873046875
-52.18505859375
-51.26953125
-50.35400390625
-32.958984375
-32.04345703125
-11.90185546875
-6.40869140625
-0.91552734375
9.1552734375
4.57763671875
-3.662109375
-12.8173828125
0.91552734375
-10.986328125
-36.62109375
-54.01611328125
-61.34033203125
-32.958984375
-45.7763671875
-54.931640625
-53.1005859375
-36.62109375
-46.69189453125
-52.18505859375
-65.91796875
-62.255859375
-47.607421875
-57.67822265625
-54.01611328125
-44.86083984375
-69.580078125
-96.13037109375
-86.0595703125
-82.3974609375
-92.46826171875
-101.62353515625
-97.96142578125
-98.876953125
-92.46826171875
-87.890625
-84.228515625
-96.13037109375
-80.56640625
-71.4111328125
-82.3974609375
-85.14404296875
-87.890625
-92.46826171875
-78.7353515625
-89.7216796875
-73.2421875
-68.66455078125
-87.890625
-88.80615234375
-71.4111328125
-64.0869140625
-58.59375
-74.15771484375
-91.552734375
-97.96142578125
-125.42724609375
-108.0322265625
-54.01611328125
3.662109375
75.98876953125
134.58251953125
160.21728515625
191.34521484375
228.8818359375
291.1376953125
379.94384765625
472.412109375
548.40087890625
650.0244140625
770.8740234375
937.5
1077.57568359375
1047.36328125
865.17333984375
619.81201171875
401.0009765625
310.36376953125
214.2333984375
150.146484375
94.29931640625
75.98876953125
72.32666015625
52.18505859375
-21.97265625
-103.45458984375
-177.6123046875
-224.30419921875
-227.96630859375
-224.30419921875
-230.712890625
-217.8955078125
-185.85205078125
-187.68310546875
-184.9365234375
-145.56884765625
-104.3701171875
-87.890625
-70.49560546875
-61.34033203125
-63.17138671875
-61.34033203125
-55.84716796875
-56.7626953125
-64.0869140625
-73.2421875
-65.91796875
-53.1005859375
-61.34033203125
-59.50927734375
-53.1005859375
-57.67822265625
-61.34033203125
-48.52294921875
-35.70556640625
-53.1005859375
-61.34033203125
-57.67822265625
-48.52294921875
-55.84716796875
-55.84716796875
-57.67822265625
-34.7900390625
-44.86083984375
-46.69189453125
-49.4384765625
-36.62109375
-45.7763671875
-48.52294921875
-46.69189453125
-41.19873046875
-39.36767578125
-46.69189453125
-50.35400390625
-36.62109375
-29.296875
-45.7763671875
-28.38134765625
-21.05712890625
-33.87451171875
-39.36767578125
-27.4658203125
-20.1416015625
-22.88818359375
-31.1279296875
-34.7900390625
-24.71923828125
-25.634765625
-34.7900390625
-31.1279296875
-24.71923828125
-21.97265625
-24.71923828125
-29.296875
-13.73291015625
-3.662109375
1.8310546875
-0.91552734375
-0.91552734375
-9.1552734375
-10.986328125
5.4931640625
9.1552734375
10.986328125
13.73291015625
4.57763671875
9.1552734375
21.05712890625
12.8173828125
20.1416015625
14.6484375
35.70556640625
43.9453125
47.607421875
35.70556640625
41.19873046875
46.69189453125
46.69189453125
65.91796875
61.34033203125
54.931640625
53.1005859375
67.7490234375
78.7353515625
71.4111328125
73.2421875
77.81982421875
80.56640625
89.7216796875
86.97509765625
82.3974609375
100.7080078125
93.3837890625
97.0458984375
84.228515625
85.14404296875
97.96142578125
96.13037109375
94.29931640625
100.7080078125
101.62353515625
90.63720703125
103.45458984375
109.86328125
100.7080078125
92.46826171875
86.0595703125
89.7216796875
79.65087890625
77.81982421875
60.4248046875
49.4384765625
64.0869140625
63.17138671875
41.19873046875
42.1142578125
32.958984375
29.296875
28.38134765625
16.4794921875
10.07080078125
1.8310546875
6.40869140625
0.91552734375
-19.22607421875
-17.39501953125
-12.8173828125
-23.8037109375
-21.97265625
-21.05712890625
-30.21240234375
-47.607421875
-43.9453125
-25.634765625
-43.02978515625
-40.283203125
-48.52294921875
-45.7763671875
-52.18505859375
-55.84716796875
-60.4248046875
-55.84716796875
-45.7763671875
-48.52294921875
-56.7626953125
-71.4111328125
-68.66455078125
-56.7626953125
-52.18505859375
-57.67822265625
-76.904296875
-64.0869140625
-57.67822265625
-43.9453125
-44.86083984375
-47.607421875
-54.01611328125
-68.66455078125
-65.91796875
-55.84716796875
-49.4384765625
-60.4248046875
-54.931640625
-52.18505859375
-51.26953125
-57.67822265625
-56.7626953125
-61.34033203125
-31.1279296875
-23.8037109375
-44.86083984375
-51.26953125
-50.35400390625
-46.69189453125
-52.18505859375
-46.69189453125
-40.283203125
-40.283203125
-54.01611328125
-53.1005859375
-36.62109375
-46.69189453125
-57.67822265625
-43.02978515625
-29.296875
-43.02978515625
-46.69189453125
-49.4384765625
-64.0869140625
-36.62109375
-18.310546875
-23.8037109375
-52.18505859375
-39.36767578125
-13.73291015625
-43.02978515625
-43.9453125
-19.22607421875
-42.1142578125
-38.4521484375
-41.19873046875
-32.04345703125
-37.53662109375
-31.1279296875
-20.1416015625
-28.38134765625
-37.53662109375
-34.7900390625
-29.296875
-37.53662109375
-43.9453125
-37.53662109375
-36.62109375
-29.296875
-27.4658203125
-33.87451171875
-44.86083984375
-45.7763671875
-50.35400390625
-46.69189453125
-37.53662109375
-50.35400390625
-19.22607421875
-27.4658203125
-24.71923828125
-20.1416015625
-34.7900390625
-35.70556640625
-37.53662109375
-32.958984375
-44.86083984375
-32.04345703125
-38.4521484375
-41.19873046875
-19.22607421875
-25.634765625
-48.52294921875
-49.4384765625
-40.283203125
-37.53662109375
-48.52294921875
-42.1142578125
-48.52294921875
-46.69189453125
-37.53662109375
-39.36767578125
-53.1005859375
-28.38134765625
-35.70556640625
-43.9453125
-41.19873046875
-45.7763671875
-47.607421875
-38.4521484375
-29.296875
-39.36767578125
-39.36767578125
-32.958984375
-37.53662109375
-43.9453125
-33.87451171875
-35.70556640625
-39.36767578125
-34.7900390625
-26.55029296875
-32.958984375
-36.62109375
-40.283203125
-37.53662109375
-43.02978515625
-43.9453125
-33.87451171875
-35.70556640625
-22.88818359375
-33.87451171875
-33.87451171875
-24.71923828125
-22.88818359375
-28.38134765625
-27.4658203125
-21.97265625
-29.296875
-37.53662109375
-37.53662109375
-25.634765625
-32.958984375
-24.71923828125
-12.8173828125
-13.73291015625
-4.57763671875
-7.32421875
-15.56396484375
1.8310546875
18.310546875
19.22607421875
36.62109375
46.69189453125
51.26953125
38.4521484375
21.97265625
29.296875
21.97265625
7.32421875
1.8310546875
0.91552734375
2.74658203125
-11.90185546875
-23.8037109375
-32.958984375
-11.90185546875
-18.310546875
-14.6484375
-11.90185546875
-27.4658203125
-23.8037109375
-13.73291015625
-10.07080078125
-16.4794921875
-37.53662109375
-32.958984375
-47.607421875
-43.02978515625
-47.607421875
-62.255859375
-57.67822265625
-44.86083984375
-57.67822265625
-55.84716796875
-35.70556640625
-45.7763671875
-54.01611328125
-45.7763671875
-36.62109375
-37.53662109375
-46.69189453125
-47.607421875
-48.52294921875
-39.36767578125
-40.283203125
-38.4521484375
-47.607421875
-42.1142578125
-42.1142578125
-46.69189453125
-30.21240234375
-32.04345703125
-46.69189453125
-57.67822265625
-65.00244140625
-43.02978515625
-6.40869140625
59.50927734375
131.8359375
194.091796875
233.45947265625
260.009765625
313.1103515625
391.845703125
509.033203125
596.923828125
687.56103515625
789.1845703125
933.837890625
1095.88623046875
1227.72216796875
1188.3544921875
1026.30615234375
772.705078125
516.357421875
369.873046875
273.74267578125
149.23095703125
95.21484375
88.80615234375
62.255859375
-3.662109375
-67.7490234375
-129.08935546875
-175.78125
-190.4296875
-176.69677734375
-158.38623046875
-160.21728515625
-148.3154296875
-124.51171875
-103.45458984375
-67.7490234375
-29.296875
-5.4931640625
7.32421875
-8.23974609375
-6.40869140625
2.74658203125
-16.4794921875
-7.32421875
16.4794921875
9.1552734375
9.1552734375
-10.986328125
-4.57763671875
-10.07080078125
-2.74658203125
7.32421875
17.39501953125
16.4794921875
3.662109375
10.07080078125
10.07080078125
13.73291015625
10.07080078125
4.57763671875
10.986328125
14.6484375
13.73291015625
14.6484375
17.39501953125
9.1552734375
18.310546875
25.634765625
27.4658203125
9.1552734375
18.310546875
25.634765625
18.310546875
25.634765625
38.4521484375
35.70556640625
32.958984375
24.71923828125
31.1279296875
48.52294921875
42.1142578125
41.19873046875
32.958984375
32.04345703125
34.7900390625
48.52294921875
43.02978515625
44.86083984375
66.83349609375
54.931640625
47.607421875
59.50927734375
50.35400390625
50.35400390625
61.34033203125
61.34033203125
69.580078125
69.580078125
64.0869140625
68.66455078125
77.81982421875
79.65087890625
83.31298828125
88.80615234375
96.13037109375
95.21484375
89.7216796875
86.0595703125
110.77880859375
110.77880859375
108.94775390625
108.0322265625
108.94775390625
113.525390625
115.3564453125
124.51171875
140.07568359375
150.146484375
144.6533203125
138.24462890625
162.04833984375
160.21728515625
164.794921875
170.2880859375
172.119140625
160.21728515625
164.794921875
176.69677734375
179.443359375
178.52783203125
178.52783203125
182.18994140625
187.68310546875
198.66943359375
204.16259765625
187.68310546875
191.34521484375
190.4296875
189.51416015625
194.091796875
188.5986328125
189.51416015625
184.9365234375
179.443359375
189.51416015625
183.10546875
172.119140625
180.35888671875
177.6123046875
153.80859375
151.9775390625
154.72412109375
149.23095703125
142.822265625
130.92041015625
128.173828125
105.28564453125
106.201171875
93.3837890625
78.7353515625
77.81982421875
85.14404296875
77.81982421875
63.17138671875
64.0869140625
61.34033203125
36.62109375
41.19873046875
47.607421875
32.958984375
23.8037109375
26.55029296875
17.39501953125
28.38134765625
11.90185546875
5.4931640625
8.23974609375
17.39501953125
13.73291015625
5.4931640625
3.662109375
4.57763671875
-3.662109375
5.4931640625
-0.91552734375
-7.32421875
-17.39501953125
-0.91552734375
-4.57763671875
-2.74658203125
-6.40869140625
-7.32421875
-9.1552734375
-3.662109375
-0.91552734375
-5.4931640625
3.662109375
7.32421875
-5.4931640625
-1.8310546875
-6.40869140625
-1.8310546875
0.91552734375
0
-4.57763671875
-18.310546875
-2.74658203125
-4.57763671875
-11.90185546875
-7.32421875
-5.4931640625
-11.90185546875
-3.662109375
6.40869140625
3.662109375
-11.90185546875
0.91552734375
-5.4931640625
0.91552734375
-1.8310546875
1.8310546875
-1.8310546875
4.57763671875
-0.91552734375
0.91552734375
-0.91552734375
9.1552734375
6.40869140625
11.90185546875
4.57763671875
10.986328125
2.74658203125
-0.91552734375
-5.4931640625
4.57763671875
7.32421875
5.4931640625
0.91552734375
12.8173828125
16.4794921875
13.73291015625
15.56396484375
1.8310546875
14.6484375
19.22607421875
17.39501953125
10.986328125
14.6484375
12.8173828125
10.986328125
21.97265625
24.71923828125
21.05712890625
19.22607421875
11.90185546875
10.986328125
21.05712890625
18.310546875
22.88818359375
18.310546875
10.07080078125
17.39501953125
20.1416015625
21.05712890625
21.05712890625
6.40869140625
6.40869140625
12.8173828125
7.32421875
21.05712890625
16.4794921875
2.74658203125
9.1552734375
19.22607421875
17.39501953125
9.1552734375
17.39501953125
9.1552734375
12.8173828125
5.4931640625
7.32421875
10.986328125
11.90185546875
20.1416015625
15.56396484375
7.32421875
12.8173828125
12.8173828125
12.8173828125
-1.8310546875
-0.91552734375
2.74658203125
5.4931640625
15.56396484375
7.32421875
7.32421875
21.97265625
10.986328125
5.4931640625
8.23974609375
11.90185546875
0
-1.8310546875
12.8173828125
10.07080078125
0.91552734375
-5.4931640625
2.74658203125
15.56396484375
9.1552734375
0
0.91552734375
-4.57763671875
7.32421875
18.310546875
10.07080078125
3.662109375
-1.8310546875
1.8310546875
-0.91552734375
2.74658203125
2.74658203125
4.57763671875
3.662109375
9.1552734375
4.57763671875
2.74658203125
8.23974609375
10.07080078125
6.40869140625
-7.32421875
0.91552734375
8.23974609375
0
5.4931640625
2.74658203125
5.4931640625
6.40869140625
12.8173828125
7.32421875
13.73291015625
21.05712890625
21.97265625
19.22607421875
24.71923828125
21.05712890625
0.91552734375
8.23974609375
0.91552734375
17.39501953125
11.90185546875
29.296875
26.55029296875
21.97265625
24.71923828125
14.6484375
36.62109375
48.52294921875
68.66455078125
62.255859375
76.904296875
90.63720703125
68.66455078125
65.91796875
57.67822265625
60.4248046875
52.18505859375
30.21240234375
24.71923828125
33.87451171875
26.55029296875
14.6484375
22.88818359375
28.38134765625
37.53662109375
20.1416015625
21.05712890625
16.4794921875
9.1552734375
8.23974609375
7.32421875
19.22607421875
15.56396484375
3.662109375
-5.4931640625
-4.57763671875
-20.1416015625
-26.55029296875
-22.88818359375
-15.56396484375
-9.1552734375
4.57763671875
-13.73291015625
-20.1416015625
-1.8310546875
-17.39501953125
-30.21240234375
-21.05712890625
-5.4931640625
-12.8173828125
-6.40869140625
-7.32421875
-3.662109375
-5.4931640625
0
0
3.662109375
-0.91552734375
0
-6.40869140625
2.74658203125
-11.90185546875
-21.05712890625
-23.8037109375
-4.57763671875
39.36767578125
93.3837890625
184.9365234375
239.8681640625
271.91162109375
306.70166015625
374.45068359375
466.00341796875
573.1201171875
661.92626953125
762.63427734375
880.7373046875
1015.31982421875
1163.63525390625
1260.68115234375
1190.185546875
986.9384765625
720.52001953125
504.45556640625
370.78857421875
268.24951171875
173.03466796875
118.10302734375
70.49560546875
14.6484375
-54.01611328125
-110.77880859375
-145.56884765625
-169.37255859375
-162.04833984375
-144.6533203125
-134.58251953125
-136.41357421875
-107.11669921875
-89.7216796875
-43.02978515625
-8.23974609375
19.22607421875
21.97265625
23.8037109375
22.88818359375
25.634765625
21.05712890625
16.4794921875
17.39501953125
22.88818359375
15.56396484375
11.90185546875
22.88818359375
26.55029296875
28.38134765625
32.958984375
28.38134765625
22.88818359375
30.21240234375
33.87451171875
26.55029296875
42.1142578125
34.7900390625
38.4521484375
27.4658203125
31.1279296875
37.53662109375
44.86083984375
39.36767578125
37.53662109375
30.21240234375
32.958984375
41.19873046875
43.9453125
42.1142578125
39.36767578125
37.53662109375
51.26953125
49.4384765625
47.607421875
49.4384765625
49.4384765625
38.4521484375
45.7763671875
58.59375
42.1142578125
54.01611328125
52.18505859375
65.00244140625
69.580078125
60.4248046875
61.34033203125
69.580078125
65.91796875
78.7353515625
77.81982421875
69.580078125
80.56640625
80.56640625
77.81982421875
81.48193359375
75.0732421875
82.3974609375
86.97509765625
92.46826171875
98.876953125
111.6943359375
112.60986328125
99.79248046875
94.29931640625
106.201171875
115.3564453125
107.11669921875
115.3564453125
114.44091796875
120.849609375
119.0185546875
129.08935546875
132.75146484375
136.41357421875
140.9912109375
149.23095703125
157.470703125
149.23095703125
156.55517578125
172.119140625
175.78125
173.03466796875
173.9501953125
190.4296875
193.17626953125
184.9365234375
180.35888671875
208.740234375
209.65576171875
202.33154296875
199.5849609375
203.2470703125
196.83837890625
206.9091796875
213.31787109375
215.14892578125
212.40234375
209.65576171875
203.2470703125
207.82470703125
201.416015625
212.40234375
211.48681640625
215.14892578125
204.16259765625
202.33154296875
190.4296875
186.767578125
193.17626953125
195.9228515625
179.443359375
170.2880859375
149.23095703125
145.56884765625
140.9912109375
131.8359375
118.10302734375
123.59619140625
111.6943359375
95.21484375
93.3837890625
81.48193359375
75.98876953125
70.49560546875
65.91796875
72.32666015625
64.0869140625
55.84716796875
47.607421875
39.36767578125
55.84716796875
41.19873046875
34.7900390625
31.1279296875
18.310546875
21.97265625
24.71923828125
18.310546875
21.97265625
21.97265625
23.8037109375
18.310546875
15.56396484375
15.56396484375
12.8173828125
11.90185546875
9.1552734375
30.21240234375
21.97265625
23.8037109375
1.8310546875
14.6484375
21.97265625
10.986328125
-0.91552734375
7.32421875
9.1552734375
11.90185546875
12.8173828125
7.32421875
9.1552734375
15.56396484375
12.8173828125
-2.74658203125
-0.91552734375
8.23974609375
6.40869140625
13.73291015625
16.4794921875
0.91552734375
14.6484375
12.8173828125
2.74658203125
4.57763671875
-1.8310546875
6.40869140625
21.05712890625
21.05712890625
14.6484375
1.8310546875
3.662109375
17.39501953125
5.4931640625
13.73291015625
18.310546875
11.90185546875
16.4794921875
14.6484375
19.22607421875
13.73291015625
1.8310546875
21.05712890625
28.38134765625
25.634765625
25.634765625
21.05712890625
35.70556640625
34.7900390625
2.74658203125
13.73291015625
29.296875
28.38134765625
24.71923828125
24.71923828125
23.8037109375
29.296875
21.05712890625
24.71923828125
31.1279296875
19.22607421875
15.56396484375
21.97265625
27.4658203125
31.1279296875
30.21240234375
33.87451171875
23.8037109375
21.97265625
33.87451171875
17.39501953125
25.634765625
24.71923828125
22.88818359375
29.296875
24.71923828125
19.22607421875
31.1279296875
27.4658203125
21.97265625
26.55029296875
28.38134765625
21.97265625
16.4794921875
20.1416015625
29.296875
19.22607421875
25.634765625
28.38134765625
19.22607421875
8.23974609375
16.4794921875
17.39501953125
4.57763671875
14.6484375
13.73291015625
6.40869140625
17.39501953125
21.97265625
14.6484375
6.40869140625
4.57763671875
12.8173828125
6.40869140625
7.32421875
18.310546875
18.310546875
10.07080078125
14.6484375
12.8173828125
0
-1.8310546875
10.07080078125
6.40869140625
6.40869140625
10.986328125
4.57763671875
1.8310546875
-4.57763671875
0.91552734375
9.1552734375
-6.40869140625
-0.91552734375
-0.91552734375
15.56396484375
10.07080078125
10.07080078125
-5.4931640625
3.662109375
9.1552734375
12.8173828125
8.23974609375
11.90185546875
2.74658203125
4.57763671875
10.07080078125
8.23974609375
10.986328125
13.73291015625
0.91552734375
0
8.23974609375
-3.662109375
-0.91552734375
2.74658203125
-1.8310546875
-0.91552734375
2.74658203125
0.91552734375
4.57763671875
-2.74658203125
-5.4931640625
3.662109375
-0.91552734375
11.90185546875
9.1552734375
11.90185546875
-0.91552734375
14.6484375
10.986328125
14.6484375
21.05712890625
12.8173828125
8.23974609375
2.74658203125
-4.57763671875
1.8310546875
2.74658203125
26.55029296875
34.7900390625
17.39501953125
34.7900390625
35.70556640625
38.4521484375
43.02978515625
49.4384765625
65.00244140625
71.4111328125
73.2421875
88.80615234375
78.7353515625
81.48193359375
71.4111328125
63.17138671875
43.02978515625
39.36767578125
31.1279296875
34.7900390625
22.88818359375
12.8173828125
19.22607421875
43.02978515625
24.71923828125
16.4794921875
26.55029296875
32.04345703125
26.55029296875
29.296875
19.22607421875
18.310546875
14.6484375
-0.91552734375
-12.8173828125
-16.4794921875
-20.1416015625
-27.4658203125
-21.05712890625
-20.1416015625
-18.310546875
-4.57763671875
-17.39501953125
-16.4794921875
-4.57763671875
-11.90185546875
-28.38134765625
-29.296875
-0.91552734375
-5.4931640625
-3.662109375
-9.1552734375
-4.57763671875
-11.90185546875
-6.40869140625
5.4931640625
1.8310546875
4.57763671875
-0.91552734375
0.91552734375
-1.8310546875
-5.4931640625
-7.32421875
-24.71923828125
-32.958984375
-6.40869140625
37.53662109375
104.3701171875
180.35888671875
245.361328125
279.23583984375
305.7861328125
381.77490234375
449.52392578125
571.2890625
661.0107421875
757.14111328125
870.66650390625
1010.7421875
1174.62158203125
1261.5966796875
1172.79052734375
967.71240234375
685.72998046875
482.48291015625
359.80224609375
267.333984375
172.119140625
115.3564453125
89.7216796875
21.97265625
-44.86083984375
-106.201171875
-144.6533203125
-172.119140625
-168.45703125
-155.6396484375
-140.9912109375
-134.58251953125
-111.6943359375
-84.228515625
-33.87451171875
4.57763671875
22.88818359375
20.1416015625
13.73291015625
22.88818359375
18.310546875
8.23974609375
17.39501953125
12.8173828125
10.07080078125
21.05712890625
12.8173828125
17.39501953125
23.8037109375
21.05712890625
22.88818359375
27.4658203125
16.4794921875
11.90185546875
30.21240234375
21.97265625
24.71923828125
22.88818359375
32.958984375
26.55029296875
29.296875
26.55029296875
28.38134765625
35.70556640625
38.4521484375
34.7900390625
43.02978515625
43.9453125
33.87451171875
34.7900390625
34.7900390625
34.7900390625
43.9453125
45.7763671875
38.4521484375
36.62109375
38.4521484375
48.52294921875
54.01611328125
43.9453125
47.607421875
40.283203125
47.607421875
50.35400390625
50.35400390625
54.01611328125
48.52294921875
64.0869140625
59.50927734375
52.18505859375
50.35400390625
72.32666015625
79.65087890625
70.49560546875
73.2421875
66.83349609375
67.7490234375
83.31298828125
75.0732421875
74.15771484375
88.80615234375
77.81982421875
76.904296875
79.65087890625
91.552734375
96.13037109375
93.3837890625
91.552734375
117.1875
127.25830078125
117.1875
117.1875
125.42724609375
141.90673828125
144.6533203125
137.3291015625
126.3427734375
139.16015625
143.73779296875
149.23095703125
152.89306640625
151.9775390625
165.71044921875
165.71044921875
171.20361328125
174.86572265625
166.6259765625
184.9365234375
192.2607421875
187.68310546875
185.85205078125
187.68310546875
179.443359375
189.51416015625
208.740234375
193.17626953125
188.5986328125
196.83837890625
199.5849609375
197.75390625
197.75390625
187.68310546875
181.2744140625
185.85205078125
191.34521484375
191.34521484375
182.18994140625
176.69677734375
168.45703125
172.119140625
159.3017578125
156.55517578125
146.484375
129.08935546875
130.92041015625
116.27197265625
118.10302734375
112.60986328125
91.552734375
97.0458984375
95.21484375
80.56640625
79.65087890625
75.0732421875
57.67822265625
42.1142578125
44.86083984375
43.9453125
34.7900390625
38.4521484375
33.87451171875
32.958984375
25.634765625
18.310546875
20.1416015625
9.1552734375
26.55029296875
13.73291015625
-1.8310546875
7.32421875
11.90185546875
11.90185546875
-8.23974609375
0
3.662109375
-10.07080078125
-21.97265625
-3.662109375
-8.23974609375
-6.40869140625
-10.07080078125
-1.8310546875
-0.91552734375
-13.73291015625
-18.310546875
-1.8310546875
-0.91552734375
-2.74658203125
-16.4794921875
-14.6484375
-16.4794921875
-4.57763671875
-10.07080078125
-2.74658203125
-11.90185546875
-6.40869140625
-9.1552734375
-16.4794921875
-15.56396484375
-16.4794921875
-16.4794921875
-11.90185546875
-8.23974609375
-13.73291015625
-10.07080078125
-5.4931640625
-1.8310546875
-14.6484375
-0.91552734375
-14.6484375
8.23974609375
-2.74658203125
-3.662109375
-8.23974609375
-7.32421875
-0.91552734375
-2.74658203125
3.662109375
2.74658203125
0
-9.1552734375
-14.6484375
0
3.662109375
-9.1552734375
-5.4931640625
10.07080078125
4.57763671875
-5.4931640625
-6.40869140625
10.07080078125
2.74658203125
-5.4931640625
7.32421875
1.8310546875
2.74658203125
9.1552734375
0
-0.91552734375
0
1.8310546875
-7.32421875
0.91552734375
17.39501953125
12.8173828125
0.91552734375
15.56396484375
8.23974609375
10.986328125
22.88818359375
6.40869140625
10.986328125
14.6484375
11.90185546875
10.07080078125
15.56396484375
5.4931640625
-8.23974609375
-12.8173828125
-1.8310546875
-0.91552734375
-10.986328125
6.40869140625
11.90185546875
-4.57763671875
-9.1552734375
-10.07080078125
0
-5.4931640625
4.57763671875
-1.8310546875
4.57763671875
10.07080078125
-1.8310546875
-10.986328125
-10.986328125
-9.1552734375
-7.32421875
-19.22607421875
-7.32421875
-7.32421875
-9.1552734375
-10.986328125
-11.90185546875
-16.4794921875
-29.296875
-21.97265625
-19.22607421875
-10.07080078125
-12.8173828125
-2.74658203125
-5.4931640625
-0.91552734375
-10.07080078125
-16.4794921875
-1.8310546875
-17.39501953125
-7.32421875
-11.90185546875
-20.1416015625
-10.986328125
-16.4794921875
-19.22607421875
-21.97265625
-1.8310546875
-12.8173828125
-16.4794921875
-23.8037109375
-18.310546875
-21.05712890625
-28.38134765625
-22.88818359375
-19.22607421875
-21.05712890625
-27.4658203125
-23.8037109375
-14.6484375
-14.6484375
-19.22607421875
-17.39501953125
-17.39501953125
-17.39501953125
-4.57763671875
-11.90185546875
-20.1416015625
-12.8173828125
-11.90185546875
-26.55029296875
-23.8037109375
-15.56396484375
-34.7900390625
-32.958984375
-24.71923828125
-17.39501953125
-31.1279296875
-25.634765625
-18.310546875
-12.8173828125
-22.88818359375
-25.634765625
-29.296875
-22.88818359375
-31.1279296875
-25.634765625
-19.22607421875
-25.634765625
-31.1279296875
-22.88818359375
-19.22607421875
-16.4794921875
-7.32421875
-20.1416015625
-15.56396484375
-8.23974609375
-4.57763671875
-10.986328125
-21.05712890625
-11.90185546875
-17.39501953125
-22.88818359375
-20.1416015625
0.91552734375
-1.8310546875
-5.4931640625
3.662109375
-4.57763671875
-1.8310546875
8.23974609375
21.97265625
36.62109375
33.87451171875
41.19873046875
47.607421875
45.7763671875
49.4384765625
43.02978515625
32.04345703125
21.97265625
25.634765625
8.23974609375
-19.22607421875
-12.8173828125
-1.8310546875
0.91552734375
-10.07080078125
-17.39501953125
-19.22607421875
-12.8173828125
-10.986328125
-14.6484375
-19.22607421875
-22.88818359375
-10.07080078125
-0.91552734375
-15.56396484375
-40.283203125
-51.26953125
-48.52294921875
-52.18505859375
-43.02978515625
-35.70556640625
-54.931640625
-50.35400390625
-47.607421875
-44.86083984375
-45.7763671875
-54.01611328125
-56.7626953125
-47.607421875
-46.69189453125
-51.26953125
-34.7900390625
-51.26953125
-54.01611328125
-34.7900390625
-35.70556640625
-46.69189453125
-35.70556640625
-32.04345703125
-35.70556640625
-32.04345703125
-29.296875
-34.7900390625
-38.4521484375
-45.7763671875
-45.7763671875
-62.255859375
-56.7626953125
-33.87451171875
32.04345703125
99.79248046875
165.71044921875
219.7265625
235.29052734375
274.658203125
339.66064453125
440.36865234375
547.4853515625
618.896484375
700.37841796875
829.4677734375
971.37451171875
1126.0986328125
1148.0712890625
1007.99560546875
787.353515625
531.005859375
373.53515625
282.89794921875
193.17626953125
110.77880859375
95.21484375
94.29931640625
33.87451171875
-47.607421875
-98.876953125
-164.794921875
-188.5986328125
-197.75390625
-179.443359375
-183.10546875
-170.2880859375
-144.6533203125
-123.59619140625
-107.11669921875
-57.67822265625
-43.02978515625
-37.53662109375
-20.1416015625
-13.73291015625
-25.634765625
-18.310546875
-18.310546875
-23.8037109375
-25.634765625
-12.8173828125
-10.986328125
-7.32421875
-14.6484375
-21.05712890625
-13.73291015625
-24.71923828125
-27.4658203125
-17.39501953125
-10.07080078125
-6.40869140625
-10.986328125
-19.22607421875
-19.22607421875
-11.90185546875
-22.88818359375
-3.662109375
0
-1.8310546875
-10.07080078125
-7.32421875
-7.32421875
-0.91552734375
-6.40869140625
-9.1552734375
0.91552734375
-7.32421875
-6.40869140625
1.8310546875
6.40869140625
-0.91552734375
8.23974609375
0
5.4931640625
-8.23974609375
1.8310546875
2.74658203125
6.40869140625
8.23974609375
1.8310546875
21.05712890625
11.90185546875
6.40869140625
21.05712890625
25.634765625
26.55029296875
27.4658203125
30.21240234375
28.38134765625
17.39501953125
31.1279296875
31.1279296875
39.36767578125
34.7900390625
31.1279296875
40.283203125
43.02978515625
48.52294921875
45.7763671875
56.7626953125
59.50927734375
53.1005859375
63.17138671875
56.7626953125
54.931640625
59.50927734375
73.2421875
74.15771484375
83.31298828125
76.904296875
86.0595703125
96.13037109375
86.97509765625
88.80615234375
86.97509765625
103.45458984375
115.3564453125
119.0185546875
112.60986328125
126.3427734375
114.44091796875
119.93408203125
125.42724609375
137.3291015625
139.16015625
125.42724609375
140.9912109375
126.3427734375
130.0048828125
143.73779296875
139.16015625
132.75146484375
149.23095703125
143.73779296875
136.41357421875
130.92041015625
140.07568359375
141.90673828125
137.3291015625
138.24462890625
124.51171875
130.92041015625
117.1875
110.77880859375
115.3564453125
117.1875
100.7080078125
96.13037109375
82.3974609375
91.552734375
75.98876953125
61.34033203125
61.34033203125
54.931640625
47.607421875
39.36767578125
37.53662109375
27.4658203125
24.71923828125
32.958984375
16.4794921875
10.986328125
0
-9.1552734375
-15.56396484375
-14.6484375
-13.73291015625
-28.38134765625
-18.310546875
-19.22607421875
-26.55029296875
-37.53662109375
-32.958984375
-33.87451171875
-35.70556640625
-37.53662109375
-48.52294921875
-33.87451171875
-34.7900390625
-51.26953125
-51.26953125
-43.02978515625
-43.02978515625
-52.18505859375
-35.70556640625
-47.607421875
-54.01611328125
-58.59375
-45.7763671875
-41.19873046875
-62.255859375
-64.0869140625
-50.35400390625
-47.607421875
-43.02978515625
-43.02978515625
-47.607421875
-53.1005859375
-56.7626953125
-54.931640625
-54.01611328125
-48.52294921875
-54.931640625
-43.02978515625
-46.69189453125
-54.931640625
-65.00244140625
-55.84716796875
-61.34033203125
-61.34033203125
-50.35400390625
-61.34033203125
-60.4248046875
-47.607421875
-51.26953125
-36.62109375
-41.19873046875
-42.1142578125
-59.50927734375
-58.59375
-48.52294921875
-50.35400390625
-48.52294921875
-35.70556640625
-37.53662109375
-46.69189453125
-51.26953125
-49.4384765625
-37.53662109375
-51.26953125
-44.86083984375
-39.36767578125
-49.4384765625
-32.958984375
-47.607421875
-38.4521484375
-41.19873046875
-52.18505859375
-46.69189453125
-28.38134765625
-33.87451171875
-49.4384765625
-36.62109375
-31.1279296875
-30.21240234375
-39.36767578125
-40.283203125
-32.958984375
-34.7900390625
-39.36767578125
-31.1279296875
-45.7763671875
-34.7900390625
-50.35400390625
-46.69189453125
-37.53662109375
-31.1279296875
-21.05712890625
-22.88818359375
-33.87451171875
-48.52294921875
-46.69189453125
-37.53662109375
-51.26953125
-59.50927734375
-43.02978515625
-51.26953125
-35.70556640625
-43.02978515625
-46.69189453125
-59.50927734375
-43.02978515625
-45.7763671875
-48.52294921875
-47.607421875
-45.7763671875
-50.35400390625
-65.00244140625
-47.607421875
-38.4521484375
-55.84716796875
-68.66455078125
-44.86083984375
-54.01611328125
-69.580078125
-59.50927734375
-61.34033203125
-61.34033203125
-47.607421875
-54.01611328125
-59.50927734375
-57.67822265625
-54.931640625
-43.02978515625
-47.607421875
-64.0869140625
-64.0869140625
-61.34033203125
-59.50927734375
-49.4384765625
-59.50927734375
-58.59375
-71.4111328125
-59.50927734375
-65.00244140625
-58.59375
-46.69189453125
-60.4248046875
-59.50927734375
-54.931640625
-73.2421875
-77.81982421875
-64.0869140625
-59.50927734375
-66.83349609375
-65.91796875
-62.255859375
-59.50927734375
-61.34033203125
-58.59375
-65.91796875
-69.580078125
-62.255859375
-64.0869140625
-64.0869140625
-68.66455078125
-65.91796875
-54.01611328125
-61.34033203125
-62.255859375
-66.83349609375
-62.255859375
-58.59375
-69.580078125
-60.4248046875
-55.84716796875
-68.66455078125
-54.931640625
-46.69189453125
-26.55029296875
-40.283203125
-46.69189453125
-48.52294921875
-45.7763671875
-41.19873046875
-25.634765625
-16.4794921875
-4.57763671875
1.8310546875
7.32421875
6.40869140625
-5.4931640625
-7.32421875
-14.6484375
-13.73291015625
-24.71923828125
-44.86083984375
-38.4521484375
-35.70556640625
-33.87451171875
-44.86083984375
-51.26953125
-54.01611328125
-43.02978515625
-42.1142578125
-58.59375
-43.9453125
-41.19873046875
-54.931640625
-54.931640625
-64.0869140625
-70.49560546875
-61.34033203125
-76.904296875
-83.31298828125
-88.80615234375
-93.3837890625
-94.29931640625
-97.0458984375
-100.7080078125
-85.14404296875
-97.96142578125
-81.48193359375
-82.3974609375
-81.48193359375
-83.31298828125
-88.80615234375
-83.31298828125
-73.2421875
-68.66455078125
-76.904296875
-84.228515625
-87.890625
-83.31298828125
-75.0732421875
-80.56640625
-84.228515625
-65.00244140625
-72.32666015625
-66.83349609375
-83.31298828125
-85.14404296875
-88.80615234375
-108.0322265625
-102.5390625
-70.49560546875
-5.4931640625
75.0732421875
133.6669921875
162.9638671875
170.2880859375
232.5439453125
287.4755859375
359.80224609375
472.412109375
555.72509765625
634.46044921875
738.83056640625
928.3447265625
1094.05517578125
1112.36572265625
979.6142578125
753.47900390625
495.30029296875
358.88671875
262.75634765625
162.04833984375
92.46826171875
88.80615234375
71.4111328125
56.7626953125
-8.23974609375
-91.552734375
-151.9775390625
-205.078125
-235.29052734375
-227.96630859375
-210.5712890625
-198.66943359375
-199.5849609375
-190.4296875
-167.54150390625
-136.41357421875
-98.876953125
-72.32666015625
-69.580078125
-51.26953125
-61.34033203125
-62.255859375
-54.01611328125
-54.931640625
-54.931640625
-61.34033203125
-60.4248046875
-54.931640625
-52.18505859375
-63.17138671875
-50.35400390625
-40.283203125
-43.9453125
-51.26953125
-47.607421875
-53.1005859375
-58.59375
-56.7626953125
-48.52294921875
-46.69189453125
-59.50927734375
-58.59375
-39.36767578125
-43.9453125
-32.958984375
-41.19873046875
-47.607421875
-41.19873046875
-35.70556640625
-39.36767578125
-47.607421875
-32.958984375
-21.05712890625
-41.19873046875
-39.36767578125
-21.97265625
-25.634765625
-27.4658203125
-26.55029296875
-33.87451171875
-30.21240234375
-10.986328125
-14.6484375
-21.97265625
-20.1416015625
-20.1416015625
-26.55029296875
-11.90185546875
-10.07080078125
-12.8173828125
4.57763671875
1.8310546875
-0.91552734375
-10.986328125
-11.90185546875
-5.4931640625
1.8310546875
8.23974609375
15.56396484375
0
-1.8310546875
22.88818359375
32.958984375
23.8037109375
31.1279296875
21.05712890625
35.70556640625
39.36767578125
36.62109375
34.7900390625
38.4521484375
40.283203125
51.26953125
46.69189453125
57.67822265625
50.35400390625
74.15771484375
74.15771484375
76.904296875
79.65087890625
83.31298828125
97.96142578125
91.552734375
92.46826171875
94.29931640625
97.96142578125
97.0458984375
104.3701171875
102.5390625
110.77880859375
120.849609375
113.525390625
115.3564453125
110.77880859375
119.0185546875
113.525390625
122.6806640625
126.3427734375
120.849609375
124.51171875
117.1875
114.44091796875
118.10302734375
113.525390625
110.77880859375
99.79248046875
98.876953125
102.5390625
85.14404296875
85.14404296875
91.552734375
86.0595703125
70.49560546875
60.4248046875
63.17138671875
52.18505859375
52.18505859375
45.7763671875
30.21240234375
30.21240234375
20.1416015625
18.310546875
13.73291015625
17.39501953125
13.73291015625
-0.91552734375
-7.32421875
-10.986328125
-15.56396484375
-23.8037109375
-31.1279296875
-22.88818359375
-27.4658203125
-26.55029296875
-30.21240234375
-26.55029296875
-43.02978515625
-42.1142578125
-52.18505859375
-50.35400390625
-46.69189453125
-45.7763671875
-43.02978515625
-46.69189453125
-39.36767578125
-45.7763671875
-45.7763671875
-62.255859375
-50.35400390625
-49.4384765625
-49.4384765625
-56.7626953125
-52.18505859375
-46.69189453125
-59.50927734375
-67.7490234375
-53.1005859375
-43.02978515625
-46.69189453125
-49.4384765625
-51.26953125
-54.01611328125
-48.52294921875
-43.9453125
-48.52294921875
-54.931640625
-43.02978515625
-42.1142578125
-39.36767578125
-49.4384765625
-59.50927734375
-56.7626953125
-44.86083984375
-45.7763671875
-45.7763671875
-39.36767578125
-40.283203125
-55.84716796875
-42.1142578125
-43.02978515625
-39.36767578125
-32.958984375
-34.7900390625
-43.02978515625
-32.04345703125
-52.18505859375
-54.01611328125
-27.4658203125
-21.97265625
-25.634765625
-32.04345703125
-34.7900390625
-34.7900390625
-38.4521484375
-23.8037109375
-46.69189453125
-34.7900390625
-32.04345703125
-37.53662109375
-34.7900390625
-36.62109375
-32.04345703125
-14.6484375
-16.4794921875
-27.4658203125
-31.1279296875
-28.38134765625
-27.4658203125
-20.1416015625
-19.22607421875
-38.4521484375
-32.04345703125
-18.310546875
-21.97265625
-28.38134765625
-35.70556640625
-31.1279296875
-31.1279296875
-24.71923828125
-32.04345703125
-16.4794921875
-27.4658203125
-28.38134765625
-30.21240234375
-36.62109375
-32.958984375
-31.1279296875
-7.32421875
-19.22607421875
-34.7900390625
-30.21240234375
-24.71923828125
-25.634765625
-25.634765625
-32.958984375
-37.53662109375
-29.296875
-20.1416015625
-32.04345703125
-25.634765625
-42.1142578125
-31.1279296875
-32.958984375
-33.87451171875
-26.55029296875
-19.22607421875
-24.71923828125
-31.1279296875
-37.53662109375
-37.53662109375
-32.04345703125
-21.97265625
-28.38134765625
-47.607421875
-35.70556640625
-38.4521484375
-37.53662109375
-30.21240234375
-32.958984375
-32.958984375
-40.283203125
-38.4521484375
-19.22607421875
-45.7763671875
-38.4521484375
-33.87451171875
-34.7900390625
-32.958984375
-33.87451171875
-25.634765625
-23.8037109375
-20.1416015625
-26.55029296875
-50.35400390625
-38.4521484375
-44.86083984375
-25.634765625
-20.1416015625
-37.53662109375
-36.62109375
-38.4521484375
-32.04345703125
-24.71923828125
-27.4658203125
-29.296875
-34.7900390625
-45.7763671875
-35.70556640625
-39.36767578125
-40.283203125
-36.62109375
-33.87451171875
-31.1279296875
-31.1279296875
-34.7900390625
-33.87451171875
-37.53662109375
-43.9453125
-33.87451171875
-39.36767578125
-36.62109375
-35.70556640625
-25.634765625
-22.88818359375
-20.1416015625
-21.97265625
-14.6484375
-12.8173828125
-15.56396484375
-18.310546875
-27.4658203125
-24.71923828125
-18.310546875
-20.1416015625
-31.1279296875
-17.39501953125
0.91552734375
0
-7.32421875
-20.1416015625
-10.986328125
-1.8310546875
0.91552734375
7.32421875
13.73291015625
34.7900390625
30.21240234375
42.1142578125
47.607421875
33.87451171875
34.7900390625
29.296875
19.22607421875
13.73291015625
0
-23.8037109375
-8.23974609375
12.8173828125
-10.986328125
-29.296875
-15.56396484375
-13.73291015625
-18.310546875
4.57763671875
-20.1416015625
-29.296875
-5.4931640625
-12.8173828125
-6.40869140625
-9.1552734375
-22.88818359375
-40.283203125
-53.1005859375
-47.607421875
-49.4384765625
-52.18505859375
-57.67822265625
-47.607421875
-46.69189453125
-55.84716796875
-44.86083984375
-52.18505859375
-43.9453125
-41.19873046875
-42.1142578125
-47.607421875
-47.607421875
-35.70556640625
-44.86083984375
-43.02978515625
-53.1005859375
-43.02978515625
-26.55029296875
-21.97265625
-29.296875
-32.04345703125
-32.958984375
-19.22607421875
-42.1142578125
-52.18505859375
-56.7626953125
-58.59375
-37.53662109375
-0.91552734375
71.4111328125
157.470703125
216.97998046875
239.8681640625
263.671875
333.251953125
427.55126953125
522.76611328125
628.0517578125
735.16845703125
848.69384765625
987.85400390625
1146.240234375
1253.35693359375
1184.6923828125
985.107421875
711.36474609375
484.31396484375
346.0693359375
235.29052734375
130.92041015625
71.4111328125
44.86083984375
-32.04345703125
-100.7080078125
-162.04833984375
-185.85205078125
-178.52783203125
-207.82470703125
-180.35888671875
-173.9501953125
-170.2880859375
-142.822265625
-99.79248046875
-55.84716796875
-30.21240234375
-10.07080078125
-13.73291015625
-21.05712890625
-17.39501953125
-13.73291015625
-10.986328125
-15.56396484375
-13.73291015625
-9.1552734375
-6.40869140625
-9.1552734375
-13.73291015625
-3.662109375
-6.40869140625
-10.986328125
-11.90185546875
-11.90185546875
-6.40869140625
-11.90185546875
-14.6484375
-3.662109375
-9.1552734375
-6.40869140625
-6.40869140625
5.4931640625
-7.32421875
-1.8310546875
14.6484375
-2.74658203125
10.07080078125
3.662109375
10.07080078125
22.88818359375
24.71923828125
25.634765625
10.986328125
0.91552734375
13.73291015625
14.6484375
1.8310546875
6.40869140625
21.97265625
23.8037109375
3.662109375
10.07080078125
21.97265625
21.05712890625
4.57763671875
22.88818359375
28.38134765625
24.71923828125
28.38134765625
30.21240234375
26.55029296875
29.296875
31.1279296875
39.36767578125
71.4111328125
69.580078125
54.931640625
49.4384765625
46.69189453125
52.18505859375
65.00244140625
50.35400390625
54.931640625
64.0869140625
65.00244140625
57.67822265625
63.17138671875
80.56640625
77.81982421875
97.0458984375
89.7216796875
86.97509765625
92.46826171875
100.7080078125
108.94775390625
103.45458984375
105.28564453125
97.0458984375
118.10302734375
124.51171875
127.25830078125
131.8359375
140.07568359375
141.90673828125
155.6396484375
147.39990234375
149.23095703125
156.55517578125
157.470703125
165.71044921875
165.71044921875
155.6396484375
175.78125
176.69677734375
175.78125
187.68310546875
185.85205078125
178.52783203125
174.86572265625
184.9365234375
184.9365234375
183.10546875
160.21728515625
180.35888671875
182.18994140625
166.6259765625
171.20361328125
169.37255859375
167.54150390625
153.80859375
146.484375
135.498046875
132.75146484375
130.92041015625
132.75146484375
117.1875
94.29931640625
86.97509765625
90.63720703125
88.80615234375
77.81982421875
62.255859375
54.01611328125
56.7626953125
56.7626953125
40.283203125
13.73291015625
17.39501953125
43.9453125
21.97265625
2.74658203125
-3.662109375
-0.91552734375
-0.91552734375
-12.8173828125
-10.986328125
-12.8173828125
-11.90185546875
-11.90185546875
-16.4794921875
-19.22607421875
-17.39501953125
-21.05712890625
-20.1416015625
-26.55029296875
-25.634765625
-21.97265625
-28.38134765625
-29.296875
-27.4658203125
-26.55029296875
-28.38134765625
-38.4521484375
-36.62109375
-15.56396484375
-34.7900390625
-21.97265625
-32.04345703125
-28.38134765625
-22.88818359375
-26.55029296875
-31.1279296875
-31.1279296875
-29.296875
-24.71923828125
-28.38134765625
-37.53662109375
-32.958984375
-33.87451171875
-22.88818359375
-35.70556640625
-47.607421875
-25.634765625
-21.05712890625
-21.97265625
-33.87451171875
-32.958984375
-31.1279296875
-23.8037109375
-21.05712890625
-21.05712890625
-29.296875
-27.4658203125
-19.22607421875
-26.55029296875
-27.4658203125
-22.88818359375
-27.4658203125
-16.4794921875
-21.97265625
-21.97265625
-28.38134765625
-9.1552734375
-22.88818359375
-35.70556640625
-26.55029296875
-25.634765625
-19.22607421875
-24.71923828125
-17.39501953125
-14.6484375
-17.39501953125
-15.56396484375
-17.39501953125
-5.4931640625
-11.90185546875
-28.38134765625
-27.4658203125
-1.8310546875
-3.662109375
-11.90185546875
-16.4794921875
-7.32421875
-2.74658203125
-14.6484375
-21.05712890625
-21.97265625
-17.39501953125
-11.90185546875
-18.310546875
-14.6484375
-16.4794921875
-20.1416015625
-9.1552734375
-4.57763671875
0
-4.57763671875
-2.74658203125
-10.986328125
-21.05712890625
-20.1416015625
-27.4658203125
-20.1416015625
-7.32421875
-34.7900390625
-15.56396484375
-13.73291015625
-30.21240234375
-20.1416015625
-11.90185546875
-16.4794921875
-10.986328125
-15.56396484375
-26.55029296875
-12.8173828125
-24.71923828125
-29.296875
-26.55029296875
-25.634765625
-12.8173828125
-17.39501953125
-20.1416015625
-20.1416015625
-23.8037109375
-23.8037109375
-32.04345703125
-30.21240234375
-23.8037109375
-27.4658203125
-22.88818359375
-18.310546875
-21.05712890625
-28.38134765625
-15.56396484375
-19.22607421875
-26.55029296875
-41.19873046875
-43.02978515625
-35.70556640625
-14.6484375
-25.634765625
-30.21240234375
-32.958984375
-25.634765625
-25.634765625
-28.38134765625
-29.296875
-33.87451171875
-26.55029296875
-25.634765625
-28.38134765625
-32.958984375
-36.62109375
-25.634765625
-24.71923828125
-39.36767578125
-34.7900390625
-32.04345703125
-23.8037109375
-16.4794921875
-32.958984375
-39.36767578125
-27.4658203125
-29.296875
-32.958984375
-36.62109375
-33.87451171875
-38.4521484375
-35.70556640625
-25.634765625
-21.97265625
-18.310546875
-26.55029296875
-30.21240234375
-35.70556640625
-47.607421875
-34.7900390625
-28.38134765625
-29.296875
-11.90185546875
-33.87451171875
-43.9453125
-32.04345703125
-16.4794921875
-19.22607421875
-19.22607421875
-32.04345703125
-28.38134765625
-13.73291015625
1.8310546875
-10.986328125
-27.4658203125
-33.87451171875
-10.986328125
-2.74658203125
1.8310546875
-3.662109375
0
4.57763671875
-12.8173828125
2.74658203125
0
0.91552734375
13.73291015625
30.21240234375
32.958984375
26.55029296875
48.52294921875
35.70556640625
27.4658203125
32.04345703125
23.8037109375
5.4931640625
-6.40869140625
-14.6484375
4.57763671875
-12.8173828125
-16.4794921875
-24.71923828125
-22.88818359375
-23.8037109375
-20.1416015625
-13.73291015625
-17.39501953125
-19.22607421875
-11.90185546875
-23.8037109375
-17.39501953125
-8.23974609375
-27.4658203125
-45.7763671875
-62.255859375
-55.84716796875
-55.84716796875
-52.18505859375
-47.607421875
-54.931640625
-49.4384765625
-52.18505859375
-49.4384765625
-42.1142578125
-46.69189453125
-45.7763671875
-45.7763671875
-46.69189453125
-55.84716796875
-49.4384765625
-65.00244140625
-57.67822265625
-28.38134765625
-41.19873046875
-52.18505859375
-37.53662109375
-41.19873046875
-43.02978515625
-26.55029296875
-42.1142578125
-44.86083984375
-54.931640625
-53.1005859375
-62.255859375
-49.4384765625
-1.8310546875
65.00244140625
141.90673828125
203.2470703125
230.712890625
271.91162109375
336.9140625
421.142578125
544.73876953125
629.8828125
712.2802734375
836.7919921875
974.12109375
1131.591796875
1218.56689453125
1157.2265625
956.72607421875
681.15234375
461.42578125
333.251953125
217.8955078125
131.8359375
83.31298828125
54.01611328125
-30.21240234375
-104.3701171875
-152.89306640625
-191.34521484375
-205.078125
-200.50048828125
-188.5986328125
-182.18994140625
-164.794921875
-143.73779296875
-114.44091796875
-68.66455078125
-42.1142578125
-35.70556640625
-5.4931640625
-9.1552734375
-25.634765625
-23.8037109375
-20.1416015625
-13.73291015625
-24.71923828125
-30.21240234375
-24.71923828125
-21.05712890625
-7.32421875
-17.39501953125
-34.7900390625
0.91552734375
6.40869140625
-10.07080078125
-27.4658203125
-15.56396484375
-21.05712890625
-2.74658203125
0
-10.986328125
-4.57763671875
0.91552734375
-3.662109375
-12.8173828125
-10.07080078125
-7.32421875
2.74658203125
0
-7.32421875
-3.662109375
-1.8310546875
4.57763671875
4.57763671875
3.662109375
0
10.986328125
3.662109375
-0.91552734375
20.1416015625
8.23974609375
6.40869140625
4.57763671875
9.1552734375
16.4794921875
13.73291015625
27.4658203125
11.90185546875
0.91552734375
11.90185546875
29.296875
33.87451171875
26.55029296875
17.39501953125
23.8037109375
24.71923828125
27.4658203125
35.70556640625
43.9453125
41.19873046875
53.1005859375
48.52294921875
44.86083984375
32.04345703125
59.50927734375
54.01611328125
45.7763671875
57.67822265625
64.0869140625
72.32666015625
69.580078125
69.580078125
75.0732421875
77.81982421875
89.7216796875
88.80615234375
97.96142578125
104.3701171875
97.96142578125
99.79248046875
111.6943359375
119.93408203125
119.93408203125
117.1875
135.498046875
126.3427734375
130.92041015625
134.58251953125
145.56884765625
142.822265625
146.484375
141.90673828125
153.80859375
153.80859375
162.04833984375
145.56884765625
166.6259765625
170.2880859375
161.1328125
157.470703125
155.6396484375
158.38623046875
160.21728515625
168.45703125
171.20361328125
162.9638671875
162.9638671875
156.55517578125
157.470703125
147.39990234375
137.3291015625
132.75146484375
130.92041015625
130.0048828125
121.76513671875
110.77880859375
94.29931640625
83.31298828125
92.46826171875
80.56640625
72.32666015625
57.67822265625
60.4248046875
40.283203125
43.02978515625
34.7900390625
35.70556640625
15.56396484375
10.986328125
21.97265625
4.57763671875
3.662109375
21.05712890625
-2.74658203125
-9.1552734375
-18.310546875
-22.88818359375
-15.56396484375
-21.97265625
-25.634765625
-25.634765625
-27.4658203125
-27.4658203125
-34.7900390625
-36.62109375
-42.1142578125
-47.607421875
-33.87451171875
-15.56396484375
-37.53662109375
-35.70556640625
-33.87451171875
-35.70556640625
-34.7900390625
-35.70556640625
-34.7900390625
-49.4384765625
-44.86083984375
-37.53662109375
-25.634765625
-43.02978515625
-42.1142578125
-33.87451171875
-42.1142578125
-32.04345703125
-43.9453125
-50.35400390625
-31.1279296875
-34.7900390625
-41.19873046875
-47.607421875
-41.19873046875
-43.9453125
-48.52294921875
-43.02978515625
-41.19873046875
-50.35400390625
-53.1005859375
-43.9453125
-27.4658203125
-43.02978515625
-45.7763671875
-32.958984375
-27.4658203125
-34.7900390625
-33.87451171875
-37.53662109375
-38.4521484375
-38.4521484375
-37.53662109375
-40.283203125
-35.70556640625
-30.21240234375
-27.4658203125
-32.04345703125
-44.86083984375
-41.19873046875
-37.53662109375
-25.634765625
-32.958984375
-34.7900390625
-32.958984375
-32.04345703125
-17.39501953125
-28.38134765625
-21.97265625
-20.1416015625
-38.4521484375
-24.71923828125
-27.4658203125
-30.21240234375
-28.38134765625
-26.55029296875
-29.296875
-21.97265625
-28.38134765625
-31.1279296875
-26.55029296875
-22.88818359375
-17.39501953125
-16.4794921875
-9.1552734375
-21.05712890625
-18.310546875
-31.1279296875
-17.39501953125
-18.310546875
-22.88818359375
-27.4658203125
-38.4521484375
-32.04345703125
-35.70556640625
-33.87451171875
-34.7900390625
-23.8037109375
-27.4658203125
-32.04345703125
-30.21240234375
-42.1142578125
-22.88818359375
-35.70556640625
-32.958984375
-37.53662109375
-47.607421875
-56.7626953125
-31.1279296875
-32.958984375
-31.1279296875
-29.296875
-31.1279296875
-37.53662109375
-36.62109375
-35.70556640625
-39.36767578125
-34.7900390625
-23.8037109375
-42.1142578125
-43.02978515625
-36.62109375
-31.1279296875
-42.1142578125
-50.35400390625
-36.62109375
-28.38134765625
-39.36767578125
-43.02978515625
-33.87451171875
-38.4521484375
-48.52294921875
-35.70556640625
-53.1005859375
-49.4384765625
-39.36767578125
-42.1142578125
-43.9453125
-43.9453125
-49.4384765625
-42.1142578125
-38.4521484375
-48.52294921875
-42.1142578125
-47.607421875
-54.931640625
-41.19873046875
-53.1005859375
-40.283203125
-50.35400390625
-45.7763671875
-43.02978515625
-37.53662109375
-41.19873046875
-44.86083984375
-54.931640625
-51.26953125
-37.53662109375
-43.02978515625
-48.52294921875
-49.4384765625
-32.04345703125
-36.62109375
-41.19873046875
-52.18505859375
-46.69189453125
-46.69189453125
-39.36767578125
-42.1142578125
-45.7763671875
-50.35400390625
-46.69189453125
-34.7900390625
-52.18505859375
-39.36767578125
-47.607421875
-54.01611328125
-50.35400390625
-45.7763671875
-42.1142578125
-34.7900390625
-40.283203125
-38.4521484375
-44.86083984375
-47.607421875
-43.9453125
-25.634765625
-24.71923828125
-33.87451171875
-42.1142578125
-36.62109375
-43.02978515625
-18.310546875
-16.4794921875
-10.07080078125
-21.05712890625
-20.1416015625
-22.88818359375
-15.56396484375
-30.21240234375
-16.4794921875
-3.662109375
7.32421875
8.23974609375
16.4794921875
29.296875
34.7900390625
22.88818359375
22.88818359375
2.74658203125
13.73291015625
-11.90185546875
-39.36767578125
-24.71923828125
-20.1416015625
-30.21240234375
-36.62109375
-25.634765625
-25.634765625
-32.958984375
-24.71923828125
-28.38134765625
-36.62109375
-43.02978515625
-43.9453125
-32.958984375
-22.88818359375
-35.70556640625
-64.0869140625
-68.66455078125
-58.59375
-65.00244140625
-65.91796875
-80.56640625
-59.50927734375
-72.32666015625
-67.7490234375
-65.91796875
-62.255859375
-60.4248046875
-55.84716796875
-59.50927734375
-46.69189453125
-65.00244140625
-62.255859375
-54.931640625
-66.83349609375
-57.67822265625
-60.4248046875
-71.4111328125
-65.00244140625
-54.931640625
-49.4384765625
-63.17138671875
-56.7626953125
-60.4248046875
-52.18505859375
-65.00244140625
-81.48193359375
-86.97509765625
-54.01611328125
-10.986328125
60.4248046875
136.41357421875
193.17626953125
210.5712890625
248.10791015625
313.1103515625
401.0009765625
504.45556640625
607.91015625
700.37841796875
823.05908203125
964.05029296875
1116.02783203125
1194.76318359375
1120.60546875
919.189453125
617.0654296875
410.15625
306.70166015625
214.2333984375
112.60986328125
55.84716796875
32.958984375
-21.05712890625
-95.21484375
-140.07568359375
-203.2470703125
-228.8818359375
-224.30419921875
-208.740234375
-201.416015625
-192.2607421875
-166.6259765625
-133.6669921875
-91.552734375
-64.0869140625
-44.86083984375
-26.55029296875
-27.4658203125
-37.53662109375
-37.53662109375
-37.53662109375
-43.02978515625
-38.4521484375
-40.283203125
-57.67822265625
-43.02978515625
-37.53662109375
-36.62109375
-19.22607421875
-21.05712890625
-43.02978515625
-31.1279296875
-34.7900390625
-21.97265625
-31.1279296875
-40.283203125
-32.958984375
-31.1279296875
-28.38134765625
-21.97265625
-31.1279296875
-43.02978515625
-25.634765625
-19.22607421875
-25.634765625
-17.39501953125
-25.634765625
-31.1279296875
-6.40869140625
-0.91552734375
-18.310546875
-25.634765625
-23.8037109375
-30.21240234375
-10.07080078125
0
-10.07080078125
-19.22607421875
-4.57763671875
-12.8173828125
0
-8.23974609375
-7.32421875
-5.4931640625
-16.4794921875
-1.8310546875
-1.8310546875
-0.91552734375
-2.74658203125
-0.91552734375
-2.74658203125
-7.32421875
4.57763671875
2.74658203125
10.07080078125
3.662109375
21.05712890625
14.6484375
24.71923828125
23.8037109375
5.4931640625
16.4794921875
32.04345703125
32.04345703125
42.1142578125
46.69189453125
49.4384765625
41.19873046875
44.86083984375
36.62109375
46.69189453125
50.35400390625
60.4248046875
47.607421875
78.7353515625
66.83349609375
72.32666015625
75.0732421875
84.228515625
94.29931640625
89.7216796875
86.97509765625
94.29931640625
102.5390625
117.1875
103.45458984375
105.28564453125
116.27197265625
120.849609375
133.6669921875
130.92041015625
126.3427734375
124.51171875
123.59619140625
148.3154296875
128.173828125
129.08935546875
128.173828125
122.6806640625
128.173828125
138.24462890625
119.93408203125
106.201171875
125.42724609375
131.8359375
130.0048828125
118.10302734375
106.201171875
96.13037109375
106.201171875
97.0458984375
93.3837890625
87.890625
77.81982421875
56.7626953125
44.86083984375
48.52294921875
50.35400390625
28.38134765625
17.39501953125
22.88818359375
9.1552734375
7.32421875
19.22607421875
-10.07080078125
-29.296875
-20.1416015625
-17.39501953125
-26.55029296875
-25.634765625
-31.1279296875
-32.958984375
-53.1005859375
-43.9453125
-51.26953125
-68.66455078125
-57.67822265625
-61.34033203125
-60.4248046875
-54.01611328125
-66.83349609375
-80.56640625
-68.66455078125
-73.2421875
-74.15771484375
-72.32666015625
-57.67822265625
-75.0732421875
-75.0732421875
-71.4111328125
-76.904296875
-79.65087890625
-76.904296875
-70.49560546875
-78.7353515625
-82.3974609375
-81.48193359375
-79.65087890625
-72.32666015625
-75.98876953125
-78.7353515625
-77.81982421875
-75.98876953125
-77.81982421875
-74.15771484375
-78.7353515625
-83.31298828125
-82.3974609375
-86.0595703125
-86.0595703125
-74.15771484375
-80.56640625
-74.15771484375
-70.49560546875
-65.91796875
-77.81982421875
-79.65087890625
-86.97509765625
-70.49560546875
-66.83349609375
-66.83349609375
-64.0869140625
-79.65087890625
-61.34033203125
-85.14404296875
-78.7353515625
-65.91796875
-69.580078125
-77.81982421875
-65.91796875
-64.0869140625
-82.3974609375
-75.0732421875
-70.49560546875
-65.00244140625
-67.7490234375
-75.0732421875
-73.2421875
-75.98876953125
-60.4248046875
-48.52294921875
-54.01611328125
-67.7490234375
-59.50927734375
-58.59375
-60.4248046875
-56.7626953125
-59.50927734375
-53.1005859375
-58.59375
-64.0869140625
-59.50927734375
-57.67822265625
-62.255859375
-58.59375
-59.50927734375
-65.91796875
-54.01611328125
-50.35400390625
-43.9453125
-58.59375
-57.67822265625
-57.67822265625
-49.4384765625
-50.35400390625
-65.00244140625
-77.81982421875
-65.91796875
-47.607421875
-43.02978515625
-57.67822265625
-71.4111328125
-62.255859375
-71.4111328125
-69.580078125
-67.7490234375
-71.4111328125
-86.97509765625
-69.580078125
-63.17138671875
-73.2421875
-91.552734375
-79.65087890625
-73.2421875
-65.00244140625
-80.56640625
-83.31298828125
-68.66455078125
-65.00244140625
-66.83349609375
-62.255859375
-71.4111328125
-77.81982421875
-79.65087890625
-85.14404296875
-71.4111328125
-79.65087890625
-80.56640625
-76.904296875
-78.7353515625
-86.0595703125
-87.890625
-92.46826171875
-65.91796875
-86.0595703125
-79.65087890625
-75.98876953125
-89.7216796875
-81.48193359375
-69.580078125
-79.65087890625
-80.56640625
-103.45458984375
-88.80615234375
-77.81982421875
-79.65087890625
-89.7216796875
-90.63720703125
-90.63720703125
-89.7216796875
-82.3974609375
-103.45458984375
-95.21484375
-72.32666015625
-83.31298828125
-108.0322265625
-102.5390625
-78.7353515625
-81.48193359375
-73.2421875
-89.7216796875
-83.31298828125
-82.3974609375
-73.2421875
-88.80615234375
-80.56640625
-83.31298828125
-82.3974609375
-71.4111328125
-80.56640625
-75.98876953125
-86.97509765625
-90.63720703125
-94.29931640625
-98.876953125
-86.97509765625
-51.26953125
-49.4384765625
-75.0732421875
-76.904296875
-72.32666015625
-72.32666015625
-53.1005859375
-41.19873046875
-51.26953125
-44.86083984375
-20.1416015625
-9.1552734375
-6.40869140625
-7.32421875
-24.71923828125
-34.7900390625
-34.7900390625
-60.4248046875
-70.49560546875
-64.0869140625
-71.4111328125
-76.904296875
-75.0732421875
-69.580078125
-68.66455078125
-84.228515625
-68.66455078125
-76.904296875
-95.21484375
-93.3837890625
-75.98876953125
-74.15771484375
-82.3974609375
-82.3974609375
-100.7080078125
-108.0322265625
-129.08935546875
-121.76513671875
-111.6943359375
-123.59619140625
-136.41357421875
-119.93408203125
-107.11669921875
-115.3564453125
-119.0185546875
-125.42724609375
-115.3564453125
-110.77880859375
-118.10302734375
-107.11669921875
-119.93408203125
-124.51171875
-92.46826171875
-97.96142578125
-103.45458984375
-106.201171875
-116.27197265625
-94.29931640625
-95.21484375
-95.21484375
-115.3564453125
-113.525390625
-100.7080078125
-125.42724609375
-140.07568359375
-135.498046875
-119.0185546875
-72.32666015625
12.8173828125
82.3974609375
127.25830078125
161.1328125
189.51416015625
244.44580078125
312.19482421875
414.73388671875
504.45556640625
573.1201171875
667.41943359375
844.1162109375
986.9384765625
1065.673828125
974.12109375
758.97216796875
494.384765625
337.82958984375
255.43212890625
150.146484375
97.0458984375
75.0732421875
47.607421875
37.53662109375
-7.32421875
-96.13037109375
-173.9501953125
-227.96630859375
-272.8271484375
-262.75634765625
-243.5302734375
-221.5576171875
-230.712890625
-211.48681640625
-195.9228515625
-170.2880859375
-124.51171875
-100.7080078125
-93.3837890625
-81.48193359375
-86.97509765625
-65.91796875
-76.904296875
-67.7490234375
-78.7353515625
-77.81982421875
-74.15771484375
-75.98876953125
-70.49560546875
-62.255859375
-72.32666015625
-82.3974609375
-69.580078125
-70.49560546875
-75.0732421875
-76.904296875
-77.81982421875
-83.31298828125
-73.2421875
-68.66455078125
-65.91796875
-66.83349609375
-74.15771484375
-53.1005859375
-70.49560546875
-70.49560546875
-72.32666015625
-66.83349609375
-71.4111328125
-58.59375
-54.01611328125
-72.32666015625
-67.7490234375
-58.59375
-61.34033203125
-51.26953125
-45.7763671875
-54.931640625
-65.91796875
-47.607421875
-54.01611328125
-47.607421875
-52.18505859375
-42.1142578125
-45.7763671875
-45.7763671875
-42.1142578125
-49.4384765625
-46.69189453125
-40.283203125
-32.958984375
-25.634765625
-34.7900390625
-26.55029296875
-31.1279296875
-35.70556640625
-23.8037109375
-34.7900390625
-28.38134765625
-32.958984375
-22.88818359375
-16.4794921875
-23.8037109375
-5.4931640625
-3.662109375
6.40869140625
-6.40869140625
-4.57763671875
7.32421875
10.07080078125
12.8173828125
-1.8310546875
12.8173828125
28.38134765625
29.296875
36.62109375
32.958984375
29.296875
19.22607421875
33.87451171875
38.4521484375
55.84716796875
62.255859375
51.26953125
60.4248046875
68.66455078125
69.580078125
63.17138671875
66.83349609375
62.255859375
64.0869140625
75.0732421875
71.4111328125
81.48193359375
83.31298828125
97.0458984375
90.63720703125
85.14404296875
95.21484375
98.876953125
89.7216796875
92.46826171875
79.65087890625
70.49560546875
79.65087890625
75.0732421875
77.81982421875
70.49560546875
54.01611328125
76.904296875
69.580078125
51.26953125
37.53662109375
31.1279296875
32.958984375
28.38134765625
26.55029296875
12.8173828125
-0.91552734375
18.310546875
8.23974609375
-14.6484375
-23.8037109375
-10.07080078125
-15.56396484375
-34.7900390625
-38.4521484375
-41.19873046875
-52.18505859375
-51.26953125
-60.4248046875
-66.83349609375
-63.17138671875
-55.84716796875
-67.7490234375
-64.0869140625
-71.4111328125
-81.48193359375
-82.3974609375
-79.65087890625
-70.49560546875
-81.48193359375
-85.14404296875
-80.56640625
-81.48193359375
-86.97509765625
-96.13037109375
-102.5390625
-90.63720703125
-81.48193359375
-94.29931640625
-87.890625
-97.0458984375
-103.45458984375
-91.552734375
-76.904296875
-92.46826171875
-87.890625
-94.29931640625
-99.79248046875
-99.79248046875
-86.0595703125
-99.79248046875
-100.7080078125
-88.80615234375
-90.63720703125
-86.0595703125
-93.3837890625
-98.876953125
-89.7216796875
-86.0595703125
-86.97509765625
-90.63720703125
-93.3837890625
-96.13037109375
-88.80615234375
-83.31298828125
-118.10302734375
-116.27197265625
-92.46826171875
-72.32666015625
-89.7216796875
-86.97509765625
-87.890625
-84.228515625
-81.48193359375
-80.56640625
-69.580078125
-83.31298828125
-90.63720703125
-81.48193359375
-91.552734375
-86.0595703125
-80.56640625
-86.0595703125
-75.98876953125
-75.98876953125
-78.7353515625
-83.31298828125
-78.7353515625
-82.3974609375
-83.31298828125
-88.80615234375
-93.3837890625
-83.31298828125
-77.81982421875
-86.97509765625
-78.7353515625
-77.81982421875
-79.65087890625
-75.98876953125
-86.0595703125
-85.14404296875
-83.31298828125
-75.0732421875
-82.3974609375
-76.904296875
-83.31298828125
-80.56640625
-69.580078125
-56.7626953125
-75.98876953125
-84.228515625
-85.14404296875
-75.98876953125
-75.98876953125
-75.98876953125
-86.0595703125
-75.0732421875
-68.66455078125
-85.14404296875
-102.5390625
-90.63720703125
-85.14404296875
-87.890625
-74.15771484375
-85.14404296875
-81.48193359375
-76.904296875
-79.65087890625
-80.56640625
-73.2421875
-88.80615234375
-83.31298828125
-71.4111328125
-84.228515625
-85.14404296875
-81.48193359375
-87.890625
-97.0458984375
-95.21484375
-86.97509765625
-86.97509765625
-92.46826171875
-96.13037109375
-84.228515625
-77.81982421875
-93.3837890625
-97.0458984375
-97.0458984375
-89.7216796875
-88.80615234375
-87.890625
-83.31298828125
-85.14404296875
-87.890625
-88.80615234375
-66.83349609375
-82.3974609375
-84.228515625
-84.228515625
-86.0595703125
-71.4111328125
-81.48193359375
-95.21484375
-101.62353515625
-84.228515625
-78.7353515625
-46.69189453125
-54.931640625
-52.18505859375
-62.255859375
-73.2421875
-65.91796875
-62.255859375
-43.9453125
-32.958984375
-24.71923828125
-8.23974609375
-4.57763671875
-16.4794921875
-22.88818359375
-37.53662109375
-46.69189453125
-42.1142578125
-52.18505859375
-57.67822265625
-58.59375
-55.84716796875
-67.7490234375
-68.66455078125
-66.83349609375
-73.2421875
-90.63720703125
-83.31298828125
-65.00244140625
-80.56640625
-85.14404296875
-81.48193359375
-85.14404296875
-71.4111328125
-69.580078125
-97.0458984375
-116.27197265625
-117.1875
-120.849609375
-103.45458984375
-113.525390625
-110.77880859375
-111.6943359375
-101.62353515625
-110.77880859375
-116.27197265625
-115.3564453125
-116.27197265625
-107.11669921875
-107.11669921875
-102.5390625
-92.46826171875
-99.79248046875
-111.6943359375
-98.876953125
-97.96142578125
-104.3701171875
-90.63720703125
-85.14404296875
-91.552734375
-89.7216796875
-99.79248046875
-93.3837890625
-90.63720703125
-116.27197265625
-129.08935546875
-137.3291015625
-101.62353515625
-37.53662109375
36.62109375
103.45458984375
152.89306640625
165.71044921875
210.5712890625
273.74267578125
353.3935546875
479.736328125
570.37353515625
656.43310546875
765.380859375
925.59814453125
1086.73095703125
1136.16943359375
1004.33349609375
791.93115234375
520.93505859375
351.5625
262.75634765625
159.3017578125
75.0732421875
65.00244140625
46.69189453125
14.6484375
-69.580078125
-120.849609375
-176.69677734375
-236.2060546875
-252.685546875
-230.712890625
-213.31787109375
-217.8955078125
-221.5576171875
-196.83837890625
-168.45703125
-136.41357421875
-98.876953125
-73.2421875
-81.48193359375
-67.7490234375
-65.00244140625
-68.66455078125
-61.34033203125
-77.81982421875
-75.98876953125
-69.580078125
-68.66455078125
-70.49560546875
-62.255859375
-63.17138671875
-58.59375
-61.34033203125
-63.17138671875
-60.4248046875
-58.59375
-52.18505859375
-63.17138671875
-61.34033203125
-54.931640625
-33.87451171875
-41.19873046875
-51.26953125
-58.59375
-51.26953125
-43.9453125
-57.67822265625
-52.18505859375
-46.69189453125
-41.19873046875
-61.34033203125
-44.86083984375
-32.04345703125
-32.958984375
-34.7900390625
-43.02978515625
-40.283203125
-40.283203125
-44.86083984375
-45.7763671875
-30.21240234375
-31.1279296875
-29.296875
-26.55029296875
-21.97265625
-23.8037109375
-23.8037109375
-29.296875
-21.97265625
-32.04345703125
-21.05712890625
-11.90185546875
-6.40869140625
-20.1416015625
-4.57763671875
8.23974609375
14.6484375
-0.91552734375
-8.23974609375
3.662109375
3.662109375
10.986328125
8.23974609375
13.73291015625
21.97265625
32.04345703125
26.55029296875
16.4794921875
25.634765625
32.958984375
31.1279296875
34.7900390625
40.283203125
54.01611328125
50.35400390625
37.53662109375
70.49560546875
71.4111328125
64.0869140625
71.4111328125
71.4111328125
79.65087890625
72.32666015625
89.7216796875
99.79248046875
105.28564453125
99.79248046875
93.3837890625
102.5390625
99.79248046875
115.3564453125
117.1875
108.94775390625
105.28564453125
108.0322265625
119.0185546875
108.94775390625
108.0322265625
115.3564453125
121.76513671875
113.525390625
108.94775390625
113.525390625
115.3564453125
101.62353515625
124.51171875
114.44091796875
97.96142578125
98.876953125
104.3701171875
89.7216796875
90.63720703125
79.65087890625
54.931640625
50.35400390625
41.19873046875
54.931640625
45.7763671875
33.87451171875
47.607421875
36.62109375
8.23974609375
12.8173828125
-20.1416015625
-18.310546875
-13.73291015625
-2.74658203125
-21.05712890625
-44.86083984375
-39.36767578125
-40.283203125
-46.69189453125
-47.607421875
-49.4384765625
-32.04345703125
-44.86083984375
-53.1005859375
-60.4248046875
-61.34033203125
-57.67822265625
-70.49560546875
-56.7626953125
-55.84716796875
-58.59375
-74.15771484375
-55.84716796875
-49.4384765625
-73.2421875
-69.580078125
-61.34033203125
-55.84716796875
-65.91796875
-67.7490234375
-71.4111328125
-78.7353515625
-80.56640625
-70.49560546875
-81.48193359375
-77.81982421875
-67.7490234375
-65.00244140625
-64.0869140625
-71.4111328125
-73.2421875
-73.2421875
-75.98876953125
-73.2421875
-78.7353515625
-74.15771484375
-76.904296875
-74.15771484375
-60.4248046875
-72.32666015625
-77.81982421875
-72.32666015625
-54.01611328125
-53.1005859375
-84.228515625
-88.80615234375
-75.0732421875
-67.7490234375
-61.34033203125
-63.17138671875
-73.2421875
-65.91796875
-61.34033203125
-56.7626953125
-38.4521484375
-56.7626953125
-43.02978515625
-69.580078125
-67.7490234375
-52.18505859375
-51.26953125
-54.01611328125
-54.931640625
-58.59375
-36.62109375
-61.34033203125
-49.4384765625
-41.19873046875
-48.52294921875
-46.69189453125
-51.26953125
-40.283203125
-38.4521484375
-40.283203125
-42.1142578125
-48.52294921875
-44.86083984375
-52.18505859375
-44.86083984375
-53.1005859375
-40.283203125
-30.21240234375
-40.283203125
-50.35400390625
-45.7763671875
-41.19873046875
-55.84716796875
-55.84716796875
-33.87451171875
-38.4521484375
-54.01611328125
-39.36767578125
-44.86083984375
-56.7626953125
-50.35400390625
-57.67822265625
-64.0869140625
-55.84716796875
-32.958984375
-44.86083984375
-45.7763671875
-50.35400390625
-43.02978515625
-47.607421875
-45.7763671875
-54.931640625
-46.69189453125
-51.26953125
-49.4384765625
-47.607421875
-57.67822265625
-54.931640625
-47.607421875
-49.4384765625
-54.931640625
-52.18505859375
-56.7626953125
-56.7626953125
-50.35400390625
-60.4248046875
-56.7626953125
