ECG
-47.607421875
-45.7763671875
-41.19873046875
-41.19873046875
-44.86083984375
-29.296875
-54.01611328125
-55.84716796875
-48.52294921875
-29.296875
-44.86083984375
-51.26953125
-43.9453125
-54.931640625
-54.01611328125
-39.36767578125
-47.607421875
-43.9453125
-36.62109375
-35.70556640625
-31.1279296875
-35.70556640625
-40.283203125
-32.04345703125
-44.86083984375
-36.62109375
-32.958984375
-25.634765625
-41.19873046875
-30.21240234375
-31.1279296875
-33.87451171875
-28.38134765625
-33.87451171875
-33.87451171875
-30.21240234375
-40.283203125
-36.62109375
-32.958984375
-21.05712890625
-21.97265625
-33.87451171875
-30.21240234375
-48.52294921875
-21.97265625
-28.38134765625
-31.1279296875
-25.634765625
-43.02978515625
-27.4658203125
-28.38134765625
-34.7900390625
-25.634765625
-31.1279296875
-32.958984375
-27.4658203125
-37.53662109375
-33.87451171875
-12.8173828125
-14.6484375
-30.21240234375
-21.05712890625
-30.21240234375
-30.21240234375
-30.21240234375
-21.97265625
-37.53662109375
-32.958984375
-37.53662109375
-40.283203125
-26.55029296875
-48.52294921875
-37.53662109375
-49.4384765625
-41.19873046875
-31.1279296875
-38.4521484375
-43.9453125
-42.1142578125
-43.9453125
-44.86083984375
-24.71923828125
-28.38134765625
-39.36767578125
-28.38134765625
-36.62109375
-33.87451171875
-43.9453125
-39.36767578125
-34.7900390625
-33.87451171875
-38.4521484375
-37.53662109375
-49.4384765625
-45.7763671875
-39.36767578125
-37.53662109375
-32.958984375
-34.7900390625
-35.70556640625
-38.4521484375
-43.9453125
-37.53662109375
-36.62109375
-59.50927734375
-54.931640625
-34.7900390625
-34.7900390625
-43.9453125
-33.87451171875
-44.86083984375
-47.607421875
-47.607421875
-44.86083984375
-34.7900390625
-48.52294921875
-40.283203125
-35.70556640625
-32.04345703125
-32.958984375
-41.19873046875
-40.283203125
-50.35400390625
-41.19873046875
-31.1279296875
-33.87451171875
-34.7900390625
-34.7900390625
-25.634765625
-38.4521484375
-21.05712890625
-24.71923828125
-43.9453125
-41.19873046875
-35.70556640625
-36.62109375
-15.56396484375
-32.958984375
-22.88818359375
-16.4794921875
-6.40869140625
-14.6484375
-19.22607421875
1.8310546875
20.1416015625
32.04345703125
43.9453125
47.607421875
31.1279296875
29.296875
14.6484375
10.07080078125
10.07080078125
-6.40869140625
-25.634765625
-1.8310546875
-6.40869140625
-16.4794921875
-12.8173828125
-28.38134765625
-24.71923828125
-26.55029296875
-24.71923828125
-21.97265625
-13.73291015625
-15.56396484375
-30.21240234375
-22.88818359375
-34.7900390625
-47.607421875
-48.52294921875
-54.01611328125
-55.84716796875
-54.01611328125
-52.18505859375
-54.931640625
-43.02978515625
-57.67822265625
-56.7626953125
-50.35400390625
-50.35400390625
-67.7490234375
-67.7490234375
-69.580078125
-42.1142578125
-44.86083984375
-63.17138671875
-54.01611328125
-64.0869140625
-67.7490234375
-54.01611328125
-36.62109375
-54.01611328125
-28.38134765625
-31.1279296875
-40.283203125
-42.1142578125
-57.67822265625
-57.67822265625
-74.15771484375
-68.66455078125
-39.36767578125
16.4794921875
100.7080078125
168.45703125
202.33154296875
221.5576171875
283.8134765625
346.98486328125
422.05810546875
523.681640625
606.99462890625
708.6181640625
830.38330078125
995.17822265625
1145.32470703125
1136.16943359375
968.6279296875
742.49267578125
511.77978515625
375.3662109375
263.671875
177.6123046875
126.3427734375
111.6943359375
93.3837890625
20.1416015625
-42.1142578125
-105.28564453125
-158.38623046875
-194.091796875
-193.17626953125
-167.54150390625
-166.6259765625
-154.72412109375
-145.56884765625
-122.6806640625
-92.46826171875
-60.4248046875
-40.283203125
-15.56396484375
-18.310546875
-12.8173828125
0
-15.56396484375
-7.32421875
-14.6484375
-16.4794921875
-17.39501953125
-25.634765625
-33.87451171875
-3.662109375
-3.662109375
-21.05712890625
0
4.57763671875
-7.32421875
-6.40869140625
-19.22607421875
-10.986328125
-2.74658203125
3.662109375
5.4931640625
-0.91552734375
3.662109375
-3.662109375
-1.8310546875
15.56396484375
4.57763671875
-4.57763671875
7.32421875
3.662109375
11.90185546875
10.986328125
22.88818359375
21.97265625
3.662109375
16.4794921875
24.71923828125
21.05712890625
33.87451171875
21.05712890625
15.56396484375
19.22607421875
31.1279296875
28.38134765625
27.4658203125
35.70556640625
30.21240234375
32.04345703125
39.36767578125
34.7900390625
27.4658203125
41.19873046875
38.4521484375
52.18505859375
48.52294921875
51.26953125
59.50927734375
50.35400390625
46.69189453125
64.0869140625
64.0869140625
62.255859375
57.67822265625
61.34033203125
61.34033203125
71.4111328125
71.4111328125
72.32666015625
80.56640625
81.48193359375
95.21484375
102.5390625
104.3701171875
97.0458984375
82.3974609375
108.94775390625
137.3291015625
127.25830078125
129.08935546875
139.16015625
138.24462890625
142.822265625
153.80859375
140.9912109375
143.73779296875
161.1328125
164.794921875
160.21728515625
169.37255859375
179.443359375
181.2744140625
167.54150390625
172.119140625
186.767578125
193.17626953125
179.443359375
184.02099609375
176.69677734375
183.10546875
186.767578125
196.83837890625
192.2607421875
197.75390625
197.75390625
195.9228515625
182.18994140625
181.2744140625
181.2744140625
177.6123046875
162.9638671875
163.87939453125
156.55517578125
150.146484375
140.07568359375
130.0048828125
122.6806640625
109.86328125
105.28564453125
98.876953125
99.79248046875
89.7216796875
75.0732421875
77.81982421875
56.7626953125
40.283203125
37.53662109375
40.283203125
36.62109375
21.97265625
16.4794921875
12.8173828125
9.1552734375
2.74658203125
13.73291015625
9.1552734375
-5.4931640625
-0.91552734375
0
-5.4931640625
-8.23974609375
-12.8173828125
-15.56396484375
-18.310546875
-21.97265625
-30.21240234375
-19.22607421875
-21.97265625
-22.88818359375
-22.88818359375
-28.38134765625
-24.71923828125
-18.310546875
-34.7900390625
-35.70556640625
-38.4521484375
-36.62109375
-36.62109375
-33.87451171875
-32.04345703125
-21.97265625
-27.4658203125
-31.1279296875
-32.958984375
-24.71923828125
-32.04345703125
-30.21240234375
-29.296875
-26.55029296875
-21.97265625
-21.97265625
-14.6484375
-32.958984375
-40.283203125
-32.04345703125
-32.958984375
-29.296875
-39.36767578125
-29.296875
-12.8173828125
-16.4794921875
-17.39501953125
-17.39501953125
-11.90185546875
-26.55029296875
-24.71923828125
-21.05712890625
-16.4794921875
-10.986328125
-5.4931640625
-25.634765625
-20.1416015625
-13.73291015625
-10.07080078125
-36.62109375
-31.1279296875
-12.8173828125
-14.6484375
-2.74658203125
-21.05712890625
-17.39501953125
-14.6484375
-21.05712890625
-6.40869140625
-14.6484375
-23.8037109375
-7.32421875
-4.57763671875
0.91552734375
-8.23974609375
-12.8173828125
-11.90185546875
-9.1552734375
-13.73291015625
-12.8173828125
-17.39501953125
-21.05712890625
-10.986328125
-8.23974609375
-16.4794921875
0.91552734375
-14.6484375
-21.97265625
-12.8173828125
-7.32421875
-7.32421875
-1.8310546875
-23.8037109375
0
0.91552734375
-10.986328125
-10.986328125
-11.90185546875
-20.1416015625
-26.55029296875
-31.1279296875
-15.56396484375
-14.6484375
-13.73291015625
-27.4658203125
-24.71923828125
-32.04345703125
-19.22607421875
-25.634765625
-30.21240234375
-33.87451171875
-25.634765625
-8.23974609375
-32.958984375
-32.04345703125
-17.39501953125
-22.88818359375
-33.87451171875
-33.87451171875
0.91552734375
-19.22607421875
-21.97265625
-19.22607421875
-19.22607421875
-28.38134765625
-22.88818359375
-13.73291015625
-25.634765625
-32.04345703125
-25.634765625
-20.1416015625
-26.55029296875
-33.87451171875
-28.38134765625
-31.1279296875
-36.62109375
-32.04345703125
-24.71923828125
-31.1279296875
-27.4658203125
-41.19873046875
-30.21240234375
-30.21240234375
-29.296875
-35.70556640625
-43.02978515625
-22.88818359375
-32.958984375
-33.87451171875
-34.7900390625
-32.04345703125
-34.7900390625
-37.53662109375
-23.8037109375
-34.7900390625
-32.04345703125
-33.87451171875
-37.53662109375
-43.9453125
-39.36767578125
-31.1279296875
-22.88818359375
-25.634765625
-29.296875
-18.310546875
-30.21240234375
-15.56396484375
-26.55029296875
-15.56396484375
-12.8173828125
-21.97265625
-22.88818359375
-16.4794921875
-2.74658203125
-10.986328125
-24.71923828125
-29.296875
-16.4794921875
-1.8310546875
6.40869140625
-1.8310546875
-2.74658203125
-8.23974609375
-10.986328125
-9.1552734375
-10.986328125
0
32.04345703125
45.7763671875
41.19873046875
54.931640625
41.19873046875
36.62109375
31.1279296875
30.21240234375
25.634765625
-1.8310546875
-26.55029296875
-7.32421875
4.57763671875
-1.8310546875
-19.22607421875
-15.56396484375
-13.73291015625
-8.23974609375
-8.23974609375
-3.662109375
-12.8173828125
-13.73291015625
-9.1552734375
-9.1552734375
-1.8310546875
-25.634765625
-26.55029296875
-36.62109375
-54.01611328125
-50.35400390625
-42.1142578125
-45.7763671875
-47.607421875
-43.9453125
-50.35400390625
-44.86083984375
-36.62109375
-37.53662109375
-43.9453125
-49.4384765625
-47.607421875
-44.86083984375
-44.86083984375
-42.1142578125
-32.958984375
-32.958984375
-31.1279296875
-20.1416015625
-28.38134765625
-30.21240234375
-23.8037109375
-37.53662109375
-47.607421875
-32.958984375
-54.931640625
-55.84716796875
-48.52294921875
-38.4521484375
12.8173828125
65.91796875
170.2880859375
227.96630859375
246.27685546875
283.8134765625
349.7314453125
437.6220703125
545.654296875
628.0517578125
723.2666015625
845.947265625
981.4453125
1132.50732421875
1199.3408203125
1094.970703125
882.568359375
605.16357421875
416.56494140625
307.6171875
220.64208984375
134.58251953125
104.3701171875
73.2421875
6.40869140625
-70.49560546875
-140.07568359375
-152.89306640625
-171.20361328125
-163.87939453125
-172.119140625
-155.6396484375
-137.3291015625
-119.93408203125
-94.29931640625
-55.84716796875
-24.71923828125
-8.23974609375
-19.22607421875
-8.23974609375
-5.4931640625
2.74658203125
8.23974609375
7.32421875
-7.32421875
-3.662109375
2.74658203125
0.91552734375
5.4931640625
10.07080078125
-4.57763671875
-3.662109375
12.8173828125
10.07080078125
10.986328125
15.56396484375
19.22607421875
8.23974609375
11.90185546875
11.90185546875
3.662109375
6.40869140625
3.662109375
3.662109375
13.73291015625
13.73291015625
12.8173828125
26.55029296875
20.1416015625
27.4658203125
29.296875
10.986328125
24.71923828125
25.634765625
28.38134765625
34.7900390625
35.70556640625
29.296875
32.04345703125
32.04345703125
28.38134765625
27.4658203125
32.04345703125
46.69189453125
42.1142578125
24.71923828125
38.4521484375
41.19873046875
42.1142578125
35.70556640625
38.4521484375
54.931640625
44.86083984375
50.35400390625
65.91796875
59.50927734375
54.01611328125
60.4248046875
71.4111328125
75.0732421875
77.81982421875
74.15771484375
81.48193359375
92.46826171875
78.7353515625
78.7353515625
88.80615234375
95.21484375
92.46826171875
97.0458984375
106.201171875
100.7080078125
116.27197265625
112.60986328125
119.0185546875
128.173828125
136.41357421875
136.41357421875
138.24462890625
152.89306640625
153.80859375
147.39990234375
161.1328125
174.86572265625
164.794921875
165.71044921875
167.54150390625
164.794921875
181.2744140625
175.78125
168.45703125
195.00732421875
207.82470703125
201.416015625
195.9228515625
205.99365234375
199.5849609375
207.82470703125
202.33154296875
205.99365234375
224.30419921875
212.40234375
201.416015625
213.31787109375
210.5712890625
204.16259765625
199.5849609375
193.17626953125
209.65576171875
195.00732421875
188.5986328125
193.17626953125
176.69677734375
173.03466796875
163.87939453125
150.146484375
145.56884765625
143.73779296875
132.75146484375
116.27197265625
113.525390625
93.3837890625
86.0595703125
68.66455078125
88.80615234375
68.66455078125
47.607421875
39.36767578125
30.21240234375
31.1279296875
33.87451171875
20.1416015625
13.73291015625
14.6484375
6.40869140625
7.32421875
5.4931640625
-3.662109375
-6.40869140625
4.57763671875
-8.23974609375
-13.73291015625
-26.55029296875
-20.1416015625
-16.4794921875
-21.97265625
-11.90185546875
-15.56396484375
-21.97265625
-14.6484375
-20.1416015625
-18.310546875
-22.88818359375
-13.73291015625
-21.05712890625
-20.1416015625
-34.7900390625
-31.1279296875
-31.1279296875
-40.283203125
-32.958984375
-10.986328125
-10.986328125
-19.22607421875
-27.4658203125
-27.4658203125
-31.1279296875
-31.1279296875
-14.6484375
-19.22607421875
-28.38134765625
-26.55029296875
-23.8037109375
-12.8173828125
-21.05712890625
-26.55029296875
-24.71923828125
-26.55029296875
-26.55029296875
-23.8037109375
-24.71923828125
-15.56396484375
-15.56396484375
-6.40869140625
-8.23974609375
-10.07080078125
-22.88818359375
-23.8037109375
-12.8173828125
-13.73291015625
-14.6484375
-7.32421875
-22.88818359375
-24.71923828125
-13.73291015625
-11.90185546875
-21.05712890625
-15.56396484375
-6.40869140625
-0.91552734375
-11.90185546875
-2.74658203125
-8.23974609375
-18.310546875
-16.4794921875
-16.4794921875
-11.90185546875
0.91552734375
-3.662109375
-8.23974609375
-7.32421875
-10.986328125
-9.1552734375
-15.56396484375
-5.4931640625
9.1552734375
-2.74658203125
-0.91552734375
-18.310546875
-6.40869140625
-19.22607421875
-12.8173828125
9.1552734375
-4.57763671875
-13.73291015625
-5.4931640625
-1.8310546875
-7.32421875
-11.90185546875
-9.1552734375
-8.23974609375
-21.97265625
-8.23974609375
6.40869140625
0.91552734375
-22.88818359375
-10.07080078125
-14.6484375
-19.22607421875
-15.56396484375
-14.6484375
-22.88818359375
-21.05712890625
-13.73291015625
-12.8173828125
-15.56396484375
-22.88818359375
-25.634765625
-17.39501953125
-4.57763671875
-23.8037109375
-24.71923828125
-18.310546875
-16.4794921875
-21.05712890625
-15.56396484375
-11.90185546875
-16.4794921875
-20.1416015625
-20.1416015625
-20.1416015625
-29.296875
-24.71923828125
-32.958984375
-23.8037109375
-19.22607421875
-24.71923828125
-23.8037109375
-25.634765625
-23.8037109375
-26.55029296875
-30.21240234375
-34.7900390625
-17.39501953125
-27.4658203125
-8.23974609375
-3.662109375
-17.39501953125
-13.73291015625
-18.310546875
-34.7900390625
-25.634765625
-10.986328125
-7.32421875
-24.71923828125
-23.8037109375
-14.6484375
-21.97265625
-29.296875
-25.634765625
-21.97265625
-32.04345703125
-25.634765625
-16.4794921875
-15.56396484375
-31.1279296875
-32.958984375
-32.958984375
-26.55029296875
-18.310546875
-33.87451171875
-22.88818359375
-18.310546875
-17.39501953125
-5.4931640625
-25.634765625
-35.70556640625
-30.21240234375
-20.1416015625
-16.4794921875
-18.310546875
-13.73291015625
-24.71923828125
-8.23974609375
-14.6484375
-3.662109375
9.1552734375
-19.22607421875
-18.310546875
-4.57763671875
9.1552734375
12.8173828125
10.07080078125
3.662109375
5.4931640625
-2.74658203125
3.662109375
8.23974609375
18.310546875
36.62109375
33.87451171875
51.26953125
55.84716796875
46.69189453125
37.53662109375
42.1142578125
25.634765625
21.97265625
26.55029296875
10.07080078125
0.91552734375
11.90185546875
10.07080078125
9.1552734375
2.74658203125
-17.39501953125
-13.73291015625
-4.57763671875
-11.90185546875
-13.73291015625
-12.8173828125
9.1552734375
0
-6.40869140625
-32.04345703125
-46.69189453125
-35.70556640625
-40.283203125
-32.958984375
-32.958984375
-38.4521484375
-38.4521484375
-39.36767578125
-38.4521484375
-33.87451171875
-40.283203125
-33.87451171875
-25.634765625
-34.7900390625
-25.634765625
-28.38134765625
-32.958984375
-39.36767578125
-32.958984375
-38.4521484375
-44.86083984375
-44.86083984375
-26.55029296875
-30.21240234375
-30.21240234375
-31.1279296875
-23.8037109375
-19.22607421875
-29.296875
-48.52294921875
-72.32666015625
-53.1005859375
-15.56396484375
51.26953125
134.58251953125
203.2470703125
236.2060546875
253.60107421875
303.03955078125
405.57861328125
492.5537109375
589.599609375
678.40576171875
791.015625
917.3583984375
1069.3359375
1191.10107421875
1157.2265625
987.85400390625
736.99951171875
495.30029296875
370.78857421875
271.91162109375
163.87939453125
104.3701171875
88.80615234375
26.55029296875
-44.86083984375
-96.13037109375
-146.484375
-185.85205078125
-183.10546875
-159.3017578125
-160.21728515625
-165.71044921875
-135.498046875
-98.876953125
-56.7626953125
-24.71923828125
-3.662109375
2.74658203125
7.32421875
5.4931640625
7.32421875
-10.986328125
-3.662109375
10.07080078125
-6.40869140625
8.23974609375
1.8310546875
-3.662109375
-9.1552734375
-11.90185546875
8.23974609375
17.39501953125
15.56396484375
7.32421875
3.662109375
3.662109375
13.73291015625
3.662109375
1.8310546875
10.07080078125
25.634765625
22.88818359375
3.662109375
19.22607421875
16.4794921875
30.21240234375
19.22607421875
13.73291015625
11.90185546875
18.310546875
25.634765625
40.283203125
30.21240234375
29.296875
26.55029296875
32.958984375
29.296875
26.55029296875
30.21240234375
32.958984375
31.1279296875
30.21240234375
35.70556640625
49.4384765625
39.36767578125
46.69189453125
42.1142578125
32.04345703125
38.4521484375
40.283203125
41.19873046875
48.52294921875
56.7626953125
47.607421875
60.4248046875
73.2421875
65.00244140625
64.0869140625
67.7490234375
62.255859375
76.904296875
83.31298828125
69.580078125
76.904296875
82.3974609375
90.63720703125
86.0595703125
98.876953125
98.876953125
87.890625
115.3564453125
119.0185546875
119.93408203125
119.0185546875
114.44091796875
116.27197265625
130.92041015625
135.498046875
129.08935546875
137.3291015625
148.3154296875
166.6259765625
139.16015625
145.56884765625
167.54150390625
179.443359375
182.18994140625
184.9365234375
183.10546875
183.10546875
194.091796875
192.2607421875
196.83837890625
194.091796875
194.091796875
205.99365234375
201.416015625
196.83837890625
209.65576171875
205.078125
212.40234375
219.7265625
192.2607421875
201.416015625
216.064453125
205.99365234375
200.50048828125
187.68310546875
183.10546875
195.9228515625
187.68310546875
176.69677734375
165.71044921875
151.06201171875
153.80859375
147.39990234375
134.58251953125
128.173828125
129.08935546875
129.08935546875
98.876953125
95.21484375
73.2421875
59.50927734375
61.34033203125
58.59375
49.4384765625
54.931640625
33.87451171875
28.38134765625
37.53662109375
37.53662109375
17.39501953125
17.39501953125
7.32421875
1.8310546875
-2.74658203125
-3.662109375
-7.32421875
-8.23974609375
-26.55029296875
-18.310546875
-10.986328125
-14.6484375
-14.6484375
-6.40869140625
-20.1416015625
-19.22607421875
-15.56396484375
-19.22607421875
-24.71923828125
-18.310546875
-23.8037109375
-29.296875
-26.55029296875
-26.55029296875
-32.958984375
-32.958984375
-32.958984375
-26.55029296875
-13.73291015625
-32.958984375
-25.634765625
-22.88818359375
-10.07080078125
-23.8037109375
-41.19873046875
-25.634765625
-30.21240234375
-25.634765625
-18.310546875
-27.4658203125
-33.87451171875
-26.55029296875
-26.55029296875
-20.1416015625
-30.21240234375
-24.71923828125
-29.296875
-21.97265625
-21.05712890625
-16.4794921875
-25.634765625
-21.97265625
-16.4794921875
-25.634765625
-13.73291015625
-19.22607421875
-28.38134765625
-21.05712890625
-13.73291015625
-14.6484375
-15.56396484375
-5.4931640625
-10.986328125
-20.1416015625
-27.4658203125
-35.70556640625
-14.6484375
-18.310546875
-2.74658203125
-15.56396484375
-21.97265625
-12.8173828125
-18.310546875
-10.986328125
-1.8310546875
-1.8310546875
-23.8037109375
-16.4794921875
-19.22607421875
-16.4794921875
-20.1416015625
-7.32421875
-10.07080078125
-1.8310546875
-13.73291015625
-5.4931640625
-6.40869140625
-18.310546875
-21.97265625
-13.73291015625
2.74658203125
-8.23974609375
-21.05712890625
-18.310546875
-19.22607421875
-21.05712890625
-22.88818359375
-17.39501953125
-11.90185546875
-22.88818359375
-10.986328125
-15.56396484375
-16.4794921875
-22.88818359375
-7.32421875
-12.8173828125
-16.4794921875
-15.56396484375
-26.55029296875
-19.22607421875
-8.23974609375
-12.8173828125
-16.4794921875
-17.39501953125
-16.4794921875
-19.22607421875
-33.87451171875
-26.55029296875
-20.1416015625
-27.4658203125
-29.296875
-26.55029296875
-33.87451171875
-33.87451171875
-39.36767578125
-16.4794921875
-15.56396484375
-17.39501953125
-12.8173828125
-23.8037109375
-32.04345703125
-32.958984375
-23.8037109375
-26.55029296875
-28.38134765625
-36.62109375
-34.7900390625
-18.310546875
-27.4658203125
-28.38134765625
-31.1279296875
-40.283203125
-43.02978515625
-32.958984375
-22.88818359375
-25.634765625
-24.71923828125
-20.1416015625
-10.07080078125
-13.73291015625
-21.05712890625
-18.310546875
-32.04345703125
-43.02978515625
-31.1279296875
-30.21240234375
-34.7900390625
-29.296875
-23.8037109375
-33.87451171875
-34.7900390625
-33.87451171875
-27.4658203125
-21.97265625
-23.8037109375
-25.634765625
-31.1279296875
-41.19873046875
-36.62109375
-20.1416015625
-29.296875
-31.1279296875
-23.8037109375
-32.958984375
-35.70556640625
-32.958984375
-23.8037109375
-22.88818359375
-12.8173828125
-2.74658203125
-12.8173828125
-13.73291015625
-16.4794921875
-19.22607421875
-30.21240234375
-22.88818359375
-41.19873046875
-35.70556640625
4.57763671875
1.8310546875
-10.07080078125
-0.91552734375
-9.1552734375
-16.4794921875
-5.4931640625
6.40869140625
6.40869140625
23.8037109375
35.70556640625
39.36767578125
45.7763671875
39.36767578125
25.634765625
19.22607421875
23.8037109375
10.07080078125
-13.73291015625
-6.40869140625
9.1552734375
0.91552734375
-14.6484375
-34.7900390625
-24.71923828125
-15.56396484375
-11.90185546875
-21.05712890625
-20.1416015625
-18.310546875
-29.296875
-24.71923828125
-21.97265625
-24.71923828125
-35.70556640625
-52.18505859375
-49.4384765625
-54.931640625
-57.67822265625
-47.607421875
-75.98876953125
-65.00244140625
-54.01611328125
-48.52294921875
-37.53662109375
-47.607421875
-64.0869140625
-41.19873046875
-36.62109375
-47.607421875
-46.69189453125
-53.1005859375
-46.69189453125
-36.62109375
-52.18505859375
-47.607421875
-43.9453125
-37.53662109375
-54.01611328125
-43.9453125
-43.02978515625
-26.55029296875
-51.26953125
-59.50927734375
-65.91796875
-75.98876953125
-47.607421875
1.8310546875
61.34033203125
150.146484375
199.5849609375
228.8818359375
256.34765625
314.02587890625
401.0009765625
531.005859375
603.33251953125
687.56103515625
811.1572265625
948.486328125
1112.36572265625
1154.47998046875
1041.8701171875
828.55224609375
567.626953125
389.09912109375
296.630859375
185.85205078125
110.77880859375
65.91796875
60.4248046875
-21.97265625
-70.49560546875
-129.08935546875
-179.443359375
-208.740234375
-190.4296875
-188.5986328125
-181.2744140625
-170.2880859375
-148.3154296875
-110.77880859375
-73.2421875
-37.53662109375
-26.55029296875
-12.8173828125
-11.90185546875
-30.21240234375
-19.22607421875
-15.56396484375
-17.39501953125
-26.55029296875
-18.310546875
-16.4794921875
-12.8173828125
-16.4794921875
-20.1416015625
-19.22607421875
-13.73291015625
-13.73291015625
-6.40869140625
0.91552734375
-3.662109375
-10.07080078125
-13.73291015625
-12.8173828125
-15.56396484375
-6.40869140625
-11.90185546875
-13.73291015625
-14.6484375
-12.8173828125
11.90185546875
2.74658203125
-3.662109375
3.662109375
0
-7.32421875
-1.8310546875
2.74658203125
12.8173828125
11.90185546875
6.40869140625
-7.32421875
-2.74658203125
10.986328125
4.57763671875
5.4931640625
10.986328125
0
24.71923828125
2.74658203125
9.1552734375
25.634765625
21.97265625
20.1416015625
10.986328125
33.87451171875
26.55029296875
28.38134765625
31.1279296875
34.7900390625
32.04345703125
29.296875
33.87451171875
51.26953125
31.1279296875
34.7900390625
53.1005859375
51.26953125
54.931640625
65.00244140625
72.32666015625
57.67822265625
71.4111328125
63.17138671875
79.65087890625
73.2421875
65.00244140625
80.56640625
95.21484375
87.890625
90.63720703125
97.96142578125
107.11669921875
108.0322265625
99.79248046875
106.201171875
113.525390625
121.76513671875
130.92041015625
132.75146484375
145.56884765625
128.173828125
128.173828125
150.146484375
151.06201171875
148.3154296875
157.470703125
166.6259765625
161.1328125
162.9638671875
161.1328125
167.54150390625
174.86572265625
170.2880859375
168.45703125
173.9501953125
164.794921875
170.2880859375
177.6123046875
170.2880859375
176.69677734375
185.85205078125
171.20361328125
162.04833984375
162.9638671875
151.06201171875
160.21728515625
140.07568359375
135.498046875
127.25830078125
120.849609375
104.3701171875
99.79248046875
84.228515625
67.7490234375
62.255859375
54.01611328125
48.52294921875
43.02978515625
35.70556640625
26.55029296875
17.39501953125
8.23974609375
11.90185546875
10.986328125
6.40869140625
9.1552734375
-16.4794921875
-4.57763671875
-21.97265625
-48.52294921875
-25.634765625
-16.4794921875
-34.7900390625
-25.634765625
-29.296875
-41.19873046875
-41.19873046875
-40.283203125
-51.26953125
-58.59375
-50.35400390625
-50.35400390625
-45.7763671875
-49.4384765625
-54.931640625
-65.91796875
-60.4248046875
-54.01611328125
-48.52294921875
-56.7626953125
-62.255859375
-50.35400390625
-59.50927734375
-58.59375
-58.59375
-65.91796875
-71.4111328125
-65.91796875
-72.32666015625
-74.15771484375
-54.01611328125
-49.4384765625
-62.255859375
-66.83349609375
-52.18505859375
-46.69189453125
-67.7490234375
-54.931640625
-53.1005859375
-57.67822265625
-61.34033203125
-60.4248046875
-73.2421875
-87.890625
-81.48193359375
-60.4248046875
-43.9453125
-58.59375
-60.4248046875
-53.1005859375
-59.50927734375
-64.0869140625
-43.02978515625
-38.4521484375
-53.1005859375
-34.7900390625
-38.4521484375
-46.69189453125
-61.34033203125
-64.0869140625
-48.52294921875
-52.18505859375
-52.18505859375
-43.02978515625
-59.50927734375
-72.32666015625
-36.62109375
-44.86083984375
-31.1279296875
-34.7900390625
-30.21240234375
-42.1142578125
-32.04345703125
-27.4658203125
-36.62109375
-45.7763671875
-56.7626953125
-36.62109375
-41.19873046875
-50.35400390625
-46.69189453125
-31.1279296875
-29.296875
-46.69189453125
-48.52294921875
-30.21240234375
-48.52294921875
-52.18505859375
-36.62109375
-34.7900390625
-43.9453125
-48.52294921875
-35.70556640625
-40.283203125
-51.26953125
-43.02978515625
-33.87451171875
-31.1279296875
-32.958984375
-56.7626953125
-58.59375
-49.4384765625
-51.26953125
-50.35400390625
-51.26953125
-51.26953125
-61.34033203125
-47.607421875
-45.7763671875
-54.931640625
-60.4248046875
-61.34033203125
-52.18505859375
-52.18505859375
-46.69189453125
-57.67822265625
-55.84716796875
-62.255859375
-54.931640625
-55.84716796875
-59.50927734375
-62.255859375
-67.7490234375
-60.4248046875
-67.7490234375
-58.59375
-59.50927734375
-54.01611328125
-56.7626953125
-45.7763671875
-51.26953125
-69.580078125
-54.01611328125
-46.69189453125
-45.7763671875
-62.255859375
-54.01611328125
-58.59375
-69.580078125
-66.83349609375
-58.59375
-47.607421875
-71.4111328125
-68.66455078125
-65.00244140625
-59.50927734375
-57.67822265625
-70.49560546875
-55.84716796875
-53.1005859375
-63.17138671875
-71.4111328125
-64.0869140625
-58.59375
-63.17138671875
-57.67822265625
-51.26953125
-41.19873046875
-51.26953125
-51.26953125
-62.255859375
-63.17138671875
-54.01611328125
-51.26953125
-59.50927734375
-67.7490234375
-58.59375
-69.580078125
-63.17138671875
-42.1142578125
-24.71923828125
-43.02978515625
-50.35400390625
-51.26953125
-43.9453125
-39.36767578125
-21.97265625
-15.56396484375
-3.662109375
10.986328125
4.57763671875
2.74658203125
-5.4931640625
-16.4794921875
-9.1552734375
-7.32421875
-13.73291015625
-35.70556640625
-33.87451171875
-11.90185546875
-23.8037109375
-28.38134765625
-53.1005859375
-54.01611328125
-36.62109375
-49.4384765625
-50.35400390625
-49.4384765625
-48.52294921875
-54.931640625
-57.67822265625
-54.01611328125
-65.91796875
-80.56640625
-84.228515625
-75.0732421875
-78.7353515625
-83.31298828125
-81.48193359375
-80.56640625
-79.65087890625
-80.56640625
-87.890625
-97.0458984375
-97.96142578125
-91.552734375
-86.0595703125
-72.32666015625
-80.56640625
-73.2421875
-93.3837890625
-73.2421875
-70.49560546875
-81.48193359375
-75.98876953125
-70.49560546875
-71.4111328125
-65.00244140625
-76.904296875
-77.81982421875
-82.3974609375
-92.46826171875
-98.876953125
-104.3701171875
-113.525390625
-72.32666015625
-23.8037109375
41.19873046875
99.79248046875
168.45703125
184.9365234375
220.64208984375
278.3203125
345.15380859375
436.70654296875
520.93505859375
596.923828125
691.22314453125
866.0888671875
1019.8974609375
1050.10986328125
922.8515625
719.6044921875
487.060546875
352.47802734375
260.92529296875
163.87939453125
116.27197265625
107.11669921875
91.552734375
60.4248046875
22.88818359375
-56.7626953125
-146.484375
-212.40234375
-223.388671875
-216.97998046875
-205.078125
-181.2744140625
-195.00732421875
-176.69677734375
-168.45703125
-126.3427734375
-96.13037109375
-76.904296875
-70.49560546875
-56.7626953125
-61.34033203125
-50.35400390625
-52.18505859375
-58.59375
-48.52294921875
-39.36767578125
-43.02978515625
-53.1005859375
-58.59375
-56.7626953125
-52.18505859375
-50.35400390625
-52.18505859375
-39.36767578125
-41.19873046875
-56.7626953125
-49.4384765625
-39.36767578125
-53.1005859375
-39.36767578125
-35.70556640625
-36.62109375
-46.69189453125
-33.87451171875
-43.9453125
-39.36767578125
-53.1005859375
-39.36767578125
-32.958984375
-28.38134765625
-30.21240234375
-33.87451171875
-24.71923828125
-20.1416015625
-14.6484375
-21.05712890625
-20.1416015625
-42.1142578125
-32.04345703125
-13.73291015625
-31.1279296875
-27.4658203125
-13.73291015625
-21.05712890625
-22.88818359375
-8.23974609375
-4.57763671875
-10.07080078125
-8.23974609375
-19.22607421875
7.32421875
3.662109375
0
4.57763671875
-3.662109375
-11.90185546875
0.91552734375
2.74658203125
9.1552734375
21.05712890625
23.8037109375
28.38134765625
7.32421875
-1.8310546875
19.22607421875
28.38134765625
21.97265625
32.04345703125
46.69189453125
51.26953125
53.1005859375
45.7763671875
34.7900390625
48.52294921875
67.7490234375
65.91796875
62.255859375
72.32666015625
72.32666015625
82.3974609375
95.21484375
93.3837890625
86.97509765625
97.96142578125
110.77880859375
99.79248046875
106.201171875
118.10302734375
126.3427734375
119.0185546875
118.10302734375
118.10302734375
106.201171875
130.92041015625
126.3427734375
132.75146484375
132.75146484375
126.3427734375
122.6806640625
125.42724609375
140.9912109375
140.9912109375
131.8359375
139.16015625
122.6806640625
130.0048828125
121.76513671875
113.525390625
132.75146484375
119.93408203125
118.10302734375
118.10302734375
83.31298828125
73.2421875
76.904296875
61.34033203125
59.50927734375
50.35400390625
42.1142578125
23.8037109375
14.6484375
23.8037109375
30.21240234375
22.88818359375
14.6484375
7.32421875
-16.4794921875
-2.74658203125
-8.23974609375
-36.62109375
-42.1142578125
-32.04345703125
-23.8037109375
-42.1142578125
-51.26953125
-44.86083984375
-53.1005859375
-64.0869140625
-55.84716796875
-57.67822265625
-54.931640625
-53.1005859375
-70.49560546875
-69.580078125
-63.17138671875
-54.931640625
-73.2421875
-67.7490234375
-64.0869140625
-67.7490234375
-73.2421875
-83.31298828125
-77.81982421875
-68.66455078125
-75.0732421875
-58.59375
-68.66455078125
-76.904296875
-100.7080078125
-84.228515625
-89.7216796875
-75.98876953125
-65.91796875
-77.81982421875
-72.32666015625
-64.0869140625
-61.34033203125
-67.7490234375
-62.255859375
-66.83349609375
-71.4111328125
-67.7490234375
-73.2421875
-68.66455078125
-73.2421875
-62.255859375
-70.49560546875
-66.83349609375
-65.91796875
-56.7626953125
-65.91796875
-49.4384765625
-74.15771484375
-65.00244140625
-58.59375
-67.7490234375
-62.255859375
-64.0869140625
-81.48193359375
-54.01611328125
-68.66455078125
-61.34033203125
-64.0869140625
-53.1005859375
-61.34033203125
-53.1005859375
-51.26953125
-48.52294921875
-55.84716796875
-61.34033203125
-51.26953125
-59.50927734375
-61.34033203125
-53.1005859375
-50.35400390625
-52.18505859375
-62.255859375
-65.00244140625
-59.50927734375
-50.35400390625
-51.26953125
-65.91796875
-55.84716796875
-43.9453125
-48.52294921875
-57.67822265625
-32.958984375
-48.52294921875
-66.83349609375
-59.50927734375
-55.84716796875
-58.59375
-45.7763671875
-43.02978515625
-71.4111328125
-65.91796875
-55.84716796875
-57.67822265625
-56.7626953125
-53.1005859375
-51.26953125
-45.7763671875
-67.7490234375
-59.50927734375
-58.59375
-66.83349609375
-64.0869140625
-71.4111328125
-53.1005859375
-59.50927734375
-71.4111328125
-54.01611328125
-56.7626953125
-49.4384765625
-49.4384765625
-62.255859375
-50.35400390625
-61.34033203125
-67.7490234375
-54.931640625
-73.2421875
-72.32666015625
-65.91796875
-62.255859375
-55.84716796875
-54.931640625
-63.17138671875
-71.4111328125
-67.7490234375
-54.931640625
-59.50927734375
-61.34033203125
-45.7763671875
-58.59375
-56.7626953125
-63.17138671875
-47.607421875
-56.7626953125
-58.59375
-58.59375
-55.84716796875
-55.84716796875
-46.69189453125
-54.931640625
-70.49560546875
-64.0869140625
-60.4248046875
-60.4248046875
-50.35400390625
-34.7900390625
-35.70556640625
-30.21240234375
-32.04345703125
-37.53662109375
-41.19873046875
-30.21240234375
-17.39501953125
-8.23974609375
14.6484375
32.04345703125
28.38134765625
3.662109375
13.73291015625
20.1416015625
-9.1552734375
-4.57763671875
-26.55029296875
-27.4658203125
-17.39501953125
-20.1416015625
-29.296875
-38.4521484375
-47.607421875
-51.26953125
-42.1142578125
-38.4521484375
-45.7763671875
-41.19873046875
-41.19873046875
-20.1416015625
-40.283203125
-54.01611328125
-80.56640625
-72.32666015625
-68.66455078125
-66.83349609375
-82.3974609375
-78.7353515625
-78.7353515625
-79.65087890625
-71.4111328125
-75.98876953125
-77.81982421875
-63.17138671875
-84.228515625
-61.34033203125
-62.255859375
-73.2421875
-77.81982421875
-64.0869140625
-52.18505859375
-62.255859375
-68.66455078125
-54.931640625
-49.4384765625
-61.34033203125
-51.26953125
-54.01611328125
-64.0869140625
-59.50927734375
-56.7626953125
-74.15771484375
-89.7216796875
-79.65087890625
-48.52294921875
16.4794921875
129.08935546875
154.72412109375
173.9501953125
211.48681640625
267.333984375
340.576171875
442.19970703125
531.92138671875
629.8828125
744.32373046875
868.83544921875
1040.0390625
1146.240234375
1115.1123046875
924.6826171875
660.09521484375
453.18603515625
330.50537109375
219.7265625
144.6533203125
100.7080078125
103.45458984375
77.81982421875
21.97265625
-47.607421875
-106.201171875
-164.794921875
-204.16259765625
-201.416015625
-187.68310546875
-181.2744140625
-173.9501953125
-162.04833984375
-125.42724609375
-98.876953125
-68.66455078125
-54.01611328125
-28.38134765625
-33.87451171875
-25.634765625
-36.62109375
-24.71923828125
-36.62109375
-32.958984375
-33.87451171875
-24.71923828125
-15.56396484375
-22.88818359375
-22.88818359375
-25.634765625
-22.88818359375
-24.71923828125
-30.21240234375
-28.38134765625
-16.4794921875
-4.57763671875
-18.310546875
-21.05712890625
-11.90185546875
-17.39501953125
-6.40869140625
-4.57763671875
-14.6484375
-3.662109375
-9.1552734375
-2.74658203125
-1.8310546875
-9.1552734375
-5.4931640625
-3.662109375
-7.32421875
-0.91552734375
10.07080078125
17.39501953125
18.310546875
9.1552734375
-5.4931640625
23.8037109375
17.39501953125
16.4794921875
10.07080078125
2.74658203125
17.39501953125
16.4794921875
19.22607421875
26.55029296875
21.97265625
29.296875
36.62109375
37.53662109375
49.4384765625
41.19873046875
36.62109375
30.21240234375
42.1142578125
35.70556640625
50.35400390625
47.607421875
52.18505859375
44.86083984375
50.35400390625
53.1005859375
57.67822265625
65.00244140625
71.4111328125
67.7490234375
67.7490234375
81.48193359375
85.14404296875
80.56640625
91.552734375
91.552734375
97.0458984375
113.525390625
121.76513671875
125.42724609375
128.173828125
113.525390625
132.75146484375
125.42724609375
133.6669921875
148.3154296875
155.6396484375
163.87939453125
171.20361328125
162.04833984375
160.21728515625
159.3017578125
167.54150390625
168.45703125
179.443359375
187.68310546875
175.78125
174.86572265625
178.52783203125
186.767578125
192.2607421875
176.69677734375
184.9365234375
190.4296875
190.4296875
194.091796875
179.443359375
194.091796875
199.5849609375
174.86572265625
158.38623046875
168.45703125
165.71044921875
154.72412109375
141.90673828125
143.73779296875
139.16015625
119.93408203125
130.0048828125
112.60986328125
110.77880859375
97.0458984375
80.56640625
79.65087890625
65.00244140625
62.255859375
38.4521484375
21.05712890625
41.19873046875
43.02978515625
30.21240234375
14.6484375
14.6484375
2.74658203125
-4.57763671875
3.662109375
-5.4931640625
-17.39501953125
-14.6484375
-9.1552734375
-19.22607421875
-19.22607421875
-32.04345703125
-21.05712890625
-20.1416015625
-16.4794921875
-18.310546875
-32.04345703125
-28.38134765625
-26.55029296875
-36.62109375
-32.04345703125
-26.55029296875
-32.958984375
-50.35400390625
-45.7763671875
-45.7763671875
-54.01611328125
-32.04345703125
-25.634765625
-37.53662109375
-31.1279296875
-24.71923828125
-37.53662109375
-35.70556640625
-35.70556640625
-28.38134765625
-44.86083984375
-57.67822265625
-48.52294921875
-35.70556640625
-31.1279296875
-35.70556640625
-43.9453125
-39.36767578125
-21.97265625
-33.87451171875
-26.55029296875
-26.55029296875
-25.634765625
-31.1279296875
-43.9453125
-25.634765625
-20.1416015625
-24.71923828125
-32.04345703125
-41.19873046875
-29.296875
-25.634765625
-25.634765625
-24.71923828125
-21.05712890625
-28.38134765625
-22.88818359375
-23.8037109375
-26.55029296875
-18.310546875
-36.62109375
-27.4658203125
-22.88818359375
-26.55029296875
-32.958984375
-16.4794921875
-8.23974609375
-18.310546875
-26.55029296875
-24.71923828125
-13.73291015625
-15.56396484375
-10.986328125
-19.22607421875
-24.71923828125
-10.986328125
-15.56396484375
-9.1552734375
-19.22607421875
-16.4794921875
-5.4931640625
-20.1416015625
-31.1279296875
0
-16.4794921875
-21.05712890625
-10.986328125
-10.986328125
-26.55029296875
-23.8037109375
-17.39501953125
-16.4794921875
-13.73291015625
-13.73291015625
-8.23974609375
-17.39501953125
-32.958984375
-18.310546875
-21.97265625
-13.73291015625
-21.05712890625
-23.8037109375
-19.22607421875
-12.8173828125
-31.1279296875
-32.04345703125
-28.38134765625
-33.87451171875
-24.71923828125
-40.283203125
-21.05712890625
-21.05712890625
-18.310546875
-22.88818359375
-21.97265625
-8.23974609375
-22.88818359375
-28.38134765625
-32.04345703125
-32.958984375
-27.4658203125
-11.90185546875
-18.310546875
-16.4794921875
-26.55029296875
-24.71923828125
-22.88818359375
-27.4658203125
-31.1279296875
-34.7900390625
-31.1279296875
-19.22607421875
-20.1416015625
-35.70556640625
-27.4658203125
-17.39501953125
-28.38134765625
-32.958984375
-17.39501953125
-21.05712890625
-24.71923828125
-23.8037109375
-17.39501953125
-29.296875
-25.634765625
-28.38134765625
-35.70556640625
-32.958984375
-23.8037109375
-23.8037109375
-25.634765625
-36.62109375
-23.8037109375
-31.1279296875
-34.7900390625
-25.634765625
-29.296875
-27.4658203125
-5.4931640625
-18.310546875
-10.07080078125
-15.56396484375
-4.57763671875
-19.22607421875
-24.71923828125
-20.1416015625
-9.1552734375
-9.1552734375
-1.8310546875
1.8310546875
1.8310546875
-4.57763671875
-9.1552734375
0.91552734375
0.91552734375
2.74658203125
18.310546875
35.70556640625
46.69189453125
44.86083984375
57.67822265625
43.02978515625
38.4521484375
32.04345703125
23.8037109375
5.4931640625
1.8310546875
-8.23974609375
10.986328125
7.32421875
-29.296875
-21.05712890625
-8.23974609375
-6.40869140625
-6.40869140625
0
-0.91552734375
-7.32421875
-15.56396484375
-13.73291015625
-22.88818359375
-20.1416015625
-23.8037109375
-52.18505859375
-54.931640625
-46.69189453125
-46.69189453125
-40.283203125
-49.4384765625
-43.9453125
-34.7900390625
-42.1142578125
-42.1142578125
-44.86083984375
-59.50927734375
-58.59375
-52.18505859375
-42.1142578125
-46.69189453125
-41.19873046875
-31.1279296875
-30.21240234375
-31.1279296875
-30.21240234375
-31.1279296875
-42.1142578125
-27.4658203125
-43.02978515625
-31.1279296875
-29.296875
-35.70556640625
-43.02978515625
-61.34033203125
-46.69189453125
2.74658203125
78.7353515625
144.6533203125
207.82470703125
244.44580078125
273.74267578125
331.4208984375
415.6494140625
522.76611328125
617.98095703125
704.9560546875
825.8056640625
954.89501953125
1118.7744140625
1202.08740234375
1121.52099609375
918.27392578125
645.44677734375
446.77734375
337.82958984375
238.037109375
149.23095703125
90.63720703125
51.26953125
-17.39501953125
-80.56640625
-133.6669921875
-157.470703125
-192.2607421875
-173.9501953125
-170.2880859375
-162.9638671875
-148.3154296875
-132.75146484375
-101.62353515625
-64.0869140625
-19.22607421875
0
-1.8310546875
-10.07080078125
-5.4931640625
-17.39501953125
-5.4931640625
6.40869140625
-11.90185546875
0.91552734375
-1.8310546875
-1.8310546875
-7.32421875
-3.662109375
-9.1552734375
-10.986328125
-5.4931640625
-10.986328125
-6.40869140625
-11.90185546875
-6.40869140625
-5.4931640625
9.1552734375
23.8037109375
-1.8310546875
-5.4931640625
26.55029296875
17.39501953125
4.57763671875
8.23974609375
19.22607421875
28.38134765625
21.05712890625
18.310546875
7.32421875
14.6484375
28.38134765625
27.4658203125
21.05712890625
13.73291015625
22.88818359375
35.70556640625
35.70556640625
10.986328125
20.1416015625
21.97265625
30.21240234375
34.7900390625
26.55029296875
34.7900390625
41.19873046875
41.19873046875
36.62109375
25.634765625
37.53662109375
35.70556640625
46.69189453125
52.18505859375
46.69189453125
54.931640625
65.91796875
67.7490234375
55.84716796875
50.35400390625
52.18505859375
65.00244140625
59.50927734375
68.66455078125
83.31298828125
86.97509765625
87.890625
82.3974609375
99.79248046875
98.876953125
108.94775390625
108.94775390625
107.11669921875
115.3564453125
122.6806640625
131.8359375
128.173828125
142.822265625
126.3427734375
130.92041015625
147.39990234375
140.9912109375
155.6396484375
168.45703125
170.2880859375
166.6259765625
165.71044921875
173.9501953125
174.86572265625
170.2880859375
189.51416015625
190.4296875
204.16259765625
196.83837890625
183.10546875
200.50048828125
210.5712890625
211.48681640625
213.31787109375
219.7265625
207.82470703125
221.5576171875
215.14892578125
209.65576171875
205.078125
195.00732421875
181.2744140625
200.50048828125
201.416015625
196.83837890625
184.9365234375
187.68310546875
169.37255859375
154.72412109375
147.39990234375
154.72412109375
140.9912109375
121.76513671875
124.51171875
114.44091796875
94.29931640625
91.552734375
80.56640625
73.2421875
55.84716796875
53.1005859375
55.84716796875
35.70556640625
30.21240234375
29.296875
20.1416015625
28.38134765625
8.23974609375
0.91552734375
-9.1552734375
0
4.57763671875
-1.8310546875
-21.05712890625
-13.73291015625
-13.73291015625
-25.634765625
-10.986328125
-22.88818359375
-23.8037109375
-15.56396484375
-21.97265625
-33.87451171875
-32.958984375
-24.71923828125
-33.87451171875
-37.53662109375
-29.296875
-30.21240234375
-26.55029296875
-21.05712890625
-22.88818359375
-35.70556640625
-26.55029296875
-29.296875
-21.97265625
-32.04345703125
-39.36767578125
-33.87451171875
-33.87451171875
-33.87451171875
-38.4521484375
-35.70556640625
-30.21240234375
-33.87451171875
-21.05712890625
-22.88818359375
-30.21240234375
-32.958984375
-32.958984375
-41.19873046875
-35.70556640625
-18.310546875
-5.4931640625
-30.21240234375
-23.8037109375
-19.22607421875
-25.634765625
-34.7900390625
-28.38134765625
-25.634765625
-28.38134765625
-29.296875
-22.88818359375
-40.283203125
-29.296875
-21.05712890625
-21.97265625
-20.1416015625
-32.04345703125
-19.22607421875
-18.310546875
-33.87451171875
-19.22607421875
-24.71923828125
-21.97265625
-13.73291015625
-6.40869140625
-21.97265625
-16.4794921875
-13.73291015625
-18.310546875
-12.8173828125
-13.73291015625
-11.90185546875
-16.4794921875
-3.662109375
-10.986328125
-27.4658203125
-32.958984375
-4.57763671875
-10.07080078125
-7.32421875
-7.32421875
-21.05712890625
-14.6484375
-7.32421875
-1.8310546875
-7.32421875
-21.97265625
-16.4794921875
-12.8173828125
-13.73291015625
-21.05712890625
-38.4521484375
-21.97265625
-26.55029296875
-27.4658203125
-11.90185546875
-18.310546875
-20.1416015625
-33.87451171875
-21.05712890625
-5.4931640625
-10.07080078125
-10.986328125
-14.6484375
-29.296875
-15.56396484375
-20.1416015625
-26.55029296875
-24.71923828125
-11.90185546875
-26.55029296875
-27.4658203125
-30.21240234375
-33.87451171875
-25.634765625
-7.32421875
-14.6484375
-29.296875
-17.39501953125
-21.05712890625
-27.4658203125
-27.4658203125
-32.04345703125
-31.1279296875
-23.8037109375
-21.05712890625
-29.296875
-37.53662109375
-23.8037109375
-25.634765625
-50.35400390625
-22.88818359375
-17.39501953125
-29.296875
-17.39501953125
-17.39501953125
-35.70556640625
-34.7900390625
-19.22607421875
-26.55029296875
-22.88818359375
-21.05712890625
-25.634765625
-43.9453125
-21.05712890625
-25.634765625
-44.86083984375
-30.21240234375
-31.1279296875
-27.4658203125
-25.634765625
-31.1279296875
-32.04345703125
-36.62109375
-22.88818359375
-28.38134765625
-28.38134765625
-34.7900390625
-23.8037109375
-25.634765625
-30.21240234375
-28.38134765625
-10.986328125
-3.662109375
-20.1416015625
0
-6.40869140625
-28.38134765625
-28.38134765625
-19.22607421875
-25.634765625
-13.73291015625
-6.40869140625
-10.07080078125
-18.310546875
-8.23974609375
-3.662109375
2.74658203125
5.4931640625
32.04345703125
41.19873046875
45.7763671875
54.931640625
50.35400390625
47.607421875
29.296875
25.634765625
21.05712890625
5.4931640625
0.91552734375
-2.74658203125
0
-3.662109375
-12.8173828125
-19.22607421875
-7.32421875
-5.4931640625
-19.22607421875
-5.4931640625
-16.4794921875
-20.1416015625
-18.310546875
-21.05712890625
-24.71923828125
-21.05712890625
-33.87451171875
-47.607421875
-62.255859375
-57.67822265625
-43.02978515625
-58.59375
-54.931640625
-52.18505859375
-40.283203125
-60.4248046875
-45.7763671875
-41.19873046875
-45.7763671875
-27.4658203125
-54.931640625
-56.7626953125
-50.35400390625
-33.87451171875
-32.04345703125
-44.86083984375
-43.02978515625
-54.01611328125
-38.4521484375
-36.62109375
-36.62109375
-31.1279296875
-30.21240234375
-41.19873046875
-38.4521484375
-50.35400390625
-59.50927734375
-65.91796875
-26.55029296875
29.296875
102.5390625
180.35888671875
217.8955078125
240.78369140625
292.05322265625
353.3935546875
455.01708984375
563.96484375
643.61572265625
744.32373046875
876.15966796875
1022.64404296875
1170.0439453125
1174.62158203125
1032.71484375
801.08642578125
537.41455078125
373.53515625
283.8134765625
173.9501953125
122.6806640625
72.32666015625
18.310546875
-46.69189453125
-111.6943359375
-154.72412109375
-194.091796875
-195.9228515625
-185.85205078125
-167.54150390625
-155.6396484375
-141.90673828125
-118.10302734375
-75.98876953125
-27.4658203125
-12.8173828125
-13.73291015625
-3.662109375
-0.91552734375
-4.57763671875
-3.662109375
-10.07080078125
-13.73291015625
-20.1416015625
-10.986328125
-12.8173828125
-3.662109375
-14.6484375
-5.4931640625
-0.91552734375
0
7.32421875
1.8310546875
0.91552734375
-4.57763671875
1.8310546875
0.91552734375
6.40869140625
2.74658203125
11.90185546875
24.71923828125
21.97265625
5.4931640625
0
-0.91552734375
12.8173828125
7.32421875
-0.91552734375
13.73291015625
21.97265625
18.310546875
21.05712890625
26.55029296875
20.1416015625
15.56396484375
31.1279296875
36.62109375
19.22607421875
13.73291015625
24.71923828125
26.55029296875
24.71923828125
32.04345703125
40.283203125
39.36767578125
32.04345703125
34.7900390625
35.70556640625
40.283203125
44.86083984375
36.62109375
45.7763671875
54.01611328125
43.02978515625
42.1142578125
67.7490234375
68.66455078125
45.7763671875
75.98876953125
73.2421875
76.904296875
85.14404296875
65.91796875
83.31298828125
73.2421875
82.3974609375
85.14404296875
91.552734375
108.94775390625
123.59619140625
111.6943359375
110.77880859375
113.525390625
110.77880859375
100.7080078125
107.11669921875
143.73779296875
140.07568359375
119.0185546875
135.498046875
145.56884765625
162.9638671875
157.470703125
152.89306640625
170.2880859375
179.443359375
184.02099609375
178.52783203125
175.78125
189.51416015625
194.091796875
197.75390625
191.34521484375
200.50048828125
202.33154296875
205.078125
202.33154296875
205.078125
199.5849609375
207.82470703125
209.65576171875
190.4296875
214.2333984375
213.31787109375
200.50048828125
203.2470703125
200.50048828125
185.85205078125
187.68310546875
173.9501953125
170.2880859375
151.06201171875
144.6533203125
148.3154296875
133.6669921875
122.6806640625
111.6943359375
97.0458984375
97.0458984375
96.13037109375
97.96142578125
76.904296875
52.18505859375
47.607421875
42.1142578125
51.26953125
37.53662109375
21.05712890625
24.71923828125
14.6484375
10.07080078125
1.8310546875
0.91552734375
-11.90185546875
-0.91552734375
-2.74658203125
-13.73291015625
-27.4658203125
-23.8037109375
-11.90185546875
-14.6484375
-20.1416015625
-12.8173828125
-32.04345703125
-33.87451171875
-20.1416015625
-21.97265625
-23.8037109375
-25.634765625
-18.310546875
-32.04345703125
-36.62109375
-24.71923828125
-41.19873046875
-33.87451171875
-22.88818359375
-23.8037109375
-24.71923828125
-29.296875
-36.62109375
-31.1279296875
-35.70556640625
-37.53662109375
-35.70556640625
-39.36767578125
-34.7900390625
-37.53662109375
-39.36767578125
-43.02978515625
-35.70556640625
-31.1279296875
-23.8037109375
-32.958984375
-38.4521484375
-38.4521484375
-33.87451171875
-34.7900390625
-48.52294921875
-32.04345703125
-32.958984375
-28.38134765625
-25.634765625
-31.1279296875
-34.7900390625
-32.04345703125
-25.634765625
-18.310546875
-27.4658203125
-26.55029296875
-14.6484375
-15.56396484375
-11.90185546875
-23.8037109375
-30.21240234375
-42.1142578125
-33.87451171875
-17.39501953125
-10.986328125
-16.4794921875
-26.55029296875
-22.88818359375
-6.40869140625
-12.8173828125
-21.97265625
-17.39501953125
-22.88818359375
-16.4794921875
-19.22607421875
-13.73291015625
-20.1416015625
-14.6484375
-25.634765625
-26.55029296875
-9.1552734375
-12.8173828125
-25.634765625
-25.634765625
-14.6484375
-16.4794921875
-10.07080078125
-6.40869140625
6.40869140625
-20.1416015625
-23.8037109375
-20.1416015625
-27.4658203125
-27.4658203125
-20.1416015625
-7.32421875
-27.4658203125
-25.634765625
-17.39501953125
-21.05712890625
-27.4658203125
-27.4658203125
-21.05712890625
-14.6484375
-33.87451171875
-23.8037109375
-22.88818359375
-30.21240234375
-36.62109375
-24.71923828125
-25.634765625
-26.55029296875
-36.62109375
-24.71923828125
-26.55029296875
-39.36767578125
-31.1279296875
-31.1279296875
-28.38134765625
-24.71923828125
-41.19873046875
-40.283203125
-40.283203125
-35.70556640625
-18.310546875
-32.04345703125
-39.36767578125
-36.62109375
-38.4521484375
-38.4521484375
-21.97265625
-29.296875
-37.53662109375
-31.1279296875
-39.36767578125
-44.86083984375
-32.958984375
-33.87451171875
-32.958984375
-35.70556640625
-32.958984375
-16.4794921875
-32.04345703125
-34.7900390625
-41.19873046875
-48.52294921875
-43.9453125
-36.62109375
-43.02978515625
-39.36767578125
-39.36767578125
-46.69189453125
-18.310546875
-32.958984375
-45.7763671875
-43.02978515625
-43.02978515625
-43.9453125
-26.55029296875
-43.02978515625
-34.7900390625
-34.7900390625
-34.7900390625
-44.86083984375
-54.931640625
-42.1142578125
-32.958984375
-32.958984375
-39.36767578125
-35.70556640625
-49.4384765625
-42.1142578125
-24.71923828125
-21.05712890625
-22.88818359375
-21.97265625
-16.4794921875
-26.55029296875
-39.36767578125
-31.1279296875
-45.7763671875
-29.296875
-15.56396484375
-16.4794921875
-30.21240234375
-18.310546875
-17.39501953125
-13.73291015625
10.07080078125
6.40869140625
28.38134765625
14.6484375
28.38134765625
38.4521484375
32.04345703125
30.21240234375
25.634765625
-0.91552734375
-13.73291015625
-3.662109375
-16.4794921875
-10.986328125
-17.39501953125
-17.39501953125
-28.38134765625
-18.310546875
-24.71923828125
-40.283203125
-36.62109375
-32.04345703125
-38.4521484375
-27.4658203125
-27.4658203125
-32.958984375
-55.84716796875
-61.34033203125
-61.34033203125
-55.84716796875
-66.83349609375
-76.904296875
-68.66455078125
-63.17138671875
-64.0869140625
-62.255859375
-70.49560546875
-61.34033203125
-63.17138671875
-61.34033203125
-67.7490234375
-66.83349609375
-60.4248046875
-57.67822265625
-56.7626953125
-55.84716796875
-49.4384765625
-61.34033203125
-49.4384765625
-51.26953125
-47.607421875
-54.01611328125
-61.34033203125
-53.1005859375
-51.26953125
-54.01611328125
-65.91796875
-87.890625
-77.81982421875
-36.62109375
12.8173828125
73.2421875
140.9912109375
190.4296875
207.82470703125
255.43212890625
308.53271484375
402.83203125
529.1748046875
611.572265625
711.36474609375
818.4814453125
967.71240234375
1105.04150390625
1112.36572265625
967.71240234375
718.68896484375
491.63818359375
357.97119140625
259.09423828125
155.6396484375
91.552734375
65.91796875
45.7763671875
-34.7900390625
-84.228515625
-154.72412109375
-212.40234375
-208.740234375
-193.17626953125
-195.9228515625
-178.52783203125
-175.78125
-161.1328125
-130.92041015625
-89.7216796875
-78.7353515625
-50.35400390625
-39.36767578125
-37.53662109375
-31.1279296875
-38.4521484375
-33.87451171875
-39.36767578125
-33.87451171875
-43.02978515625
-38.4521484375
-37.53662109375
-42.1142578125
-29.296875
-21.97265625
-30.21240234375
-32.04345703125
-39.36767578125
-43.9453125
-39.36767578125
-32.04345703125
-28.38134765625
-32.04345703125
-28.38134765625
-16.4794921875
-19.22607421875
-20.1416015625
-20.1416015625
-18.310546875
-32.958984375
-32.958984375
-19.22607421875
-8.23974609375
-7.32421875
-16.4794921875
-14.6484375
-10.07080078125
-13.73291015625
-23.8037109375
-19.22607421875
-15.56396484375
-12.8173828125
-0.91552734375
1.8310546875
-3.662109375
1.8310546875
-1.8310546875
-12.8173828125
1.8310546875
-5.4931640625
-9.1552734375
0
-6.40869140625
-2.74658203125
10.07080078125
16.4794921875
20.1416015625
-0.91552734375
4.57763671875
10.07080078125
15.56396484375
15.56396484375
22.88818359375
27.4658203125
22.88818359375
38.4521484375
38.4521484375
25.634765625
30.21240234375
35.70556640625
27.4658203125
40.283203125
53.1005859375
42.1142578125
54.01611328125
60.4248046875
66.83349609375
56.7626953125
74.15771484375
95.21484375
86.97509765625
88.80615234375
86.97509765625
102.5390625
102.5390625
118.10302734375
104.3701171875
85.14404296875
99.79248046875
125.42724609375
128.173828125
122.6806640625
141.90673828125
129.08935546875
145.56884765625
142.822265625
151.06201171875
148.3154296875
151.9775390625
150.146484375
154.72412109375
155.6396484375
151.9775390625
149.23095703125
143.73779296875
137.3291015625
148.3154296875
143.73779296875
153.80859375
168.45703125
159.3017578125
138.24462890625
138.24462890625
141.90673828125
120.849609375
116.27197265625
119.0185546875
119.93408203125
98.876953125
95.21484375
87.890625
75.98876953125
67.7490234375
49.4384765625
47.607421875
39.36767578125
32.04345703125
28.38134765625
13.73291015625
3.662109375
-11.90185546875
-12.8173828125
-6.40869140625
-28.38134765625
-25.634765625
-24.71923828125
-25.634765625
-32.958984375
-34.7900390625
-42.1142578125
-56.7626953125
-37.53662109375
-55.84716796875
-51.26953125
-73.2421875
-54.01611328125
-52.18505859375
-71.4111328125
-70.49560546875
-69.580078125
-75.0732421875
-71.4111328125
-74.15771484375
-74.15771484375
-71.4111328125
-67.7490234375
-86.97509765625
-91.552734375
-80.56640625
-81.48193359375
-88.80615234375
-68.66455078125
-87.890625
-91.552734375
-75.98876953125
-89.7216796875
-86.97509765625
-88.80615234375
-78.7353515625
-83.31298828125
-80.56640625
-77.81982421875
-82.3974609375
-68.66455078125
-73.2421875
-73.2421875
-71.4111328125
-74.15771484375
-70.49560546875
-80.56640625
-73.2421875
-75.0732421875
-86.0595703125
-75.98876953125
-77.81982421875
-76.904296875
-70.49560546875
-66.83349609375
-71.4111328125
-69.580078125
-85.14404296875
-62.255859375
-67.7490234375
-80.56640625
-58.59375
-71.4111328125
-75.0732421875
-76.904296875
-70.49560546875
-70.49560546875
-68.66455078125
-64.0869140625
-82.3974609375
-51.26953125
-42.1142578125
-68.66455078125
-74.15771484375
-56.7626953125
-58.59375
-76.904296875
-57.67822265625
-59.50927734375
-62.255859375
-61.34033203125
-49.4384765625
-66.83349609375
-74.15771484375
-60.4248046875
-72.32666015625
-67.7490234375
-76.904296875
-56.7626953125
-44.86083984375
-54.01611328125
-54.931640625
-60.4248046875
-70.49560546875
-70.49560546875
-75.0732421875
-73.2421875
-71.4111328125
-54.01611328125
-58.59375
-75.98876953125
-73.2421875
-73.2421875
-65.00244140625
-62.255859375
-66.83349609375
-70.49560546875
-65.00244140625
-74.15771484375
-57.67822265625
-65.00244140625
-69.580078125
-76.904296875
-76.904296875
-76.904296875
-75.0732421875
-81.48193359375
-78.7353515625
-85.14404296875
-77.81982421875
-65.91796875
-70.49560546875
-90.63720703125
-84.228515625
-68.66455078125
-83.31298828125
-82.3974609375
-87.890625
-91.552734375
-85.14404296875
-83.31298828125
-94.29931640625
-83.31298828125
-79.65087890625
-94.29931640625
-92.46826171875
-82.3974609375
-80.56640625
-82.3974609375
-89.7216796875
-83.31298828125
-86.0595703125
-86.0595703125
-81.48193359375
-79.65087890625
-87.890625
-84.228515625
-86.0595703125
-90.63720703125
-71.4111328125
-71.4111328125
-86.97509765625
-97.96142578125
-86.0595703125
-75.98876953125
-75.98876953125
-82.3974609375
-84.228515625
-85.14404296875
-68.66455078125
-63.17138671875
-86.0595703125
-81.48193359375
-64.0869140625
-81.48193359375
-90.63720703125
-95.21484375
-83.31298828125
-82.3974609375
-84.228515625
-62.255859375
-69.580078125
-72.32666015625
-75.0732421875
-85.14404296875
-66.83349609375
-50.35400390625
-38.4521484375
-25.634765625
-10.07080078125
-25.634765625
-10.07080078125
-16.4794921875
-23.8037109375
-26.55029296875
-34.7900390625
-51.26953125
-56.7626953125
-64.0869140625
-51.26953125
-53.1005859375
-62.255859375
-79.65087890625
-68.66455078125
-71.4111328125
-77.81982421875
-65.91796875
-70.49560546875
-77.81982421875
-74.15771484375
-57.67822265625
-58.59375
-90.63720703125
-105.28564453125
-112.60986328125
-107.11669921875
-107.11669921875
-113.525390625
-108.0322265625
-108.0322265625
-98.876953125
-105.28564453125
-119.93408203125
-124.51171875
-114.44091796875
-105.28564453125
-108.0322265625
-118.10302734375
-112.60986328125
-111.6943359375
-105.28564453125
-114.44091796875
-109.86328125
-111.6943359375
-108.0322265625
-109.86328125
-99.79248046875
-94.29931640625
-99.79248046875
-83.31298828125
-84.228515625
-104.3701171875
-119.93408203125
-124.51171875
-132.75146484375
-89.7216796875
-22.88818359375
47.607421875
115.3564453125
138.24462890625
171.20361328125
218.81103515625
270.99609375
366.2109375
461.42578125
534.66796875
628.0517578125
741.5771484375
918.27392578125
1053.77197265625
999.755859375
828.55224609375
590.51513671875
366.2109375
303.03955078125
187.68310546875
112.60986328125
69.580078125
60.4248046875
41.19873046875
20.1416015625
-61.34033203125
-122.6806640625
-204.16259765625
-249.0234375
-255.43212890625
-242.61474609375
-216.97998046875
-236.2060546875
-210.5712890625
-177.6123046875
-173.03466796875
-135.498046875
-103.45458984375
-102.5390625
-77.81982421875
-73.2421875
-71.4111328125
-87.890625
-85.14404296875
-85.14404296875
-81.48193359375
-74.15771484375
-71.4111328125
-77.81982421875
-74.15771484375
-67.7490234375
-66.83349609375
-84.228515625
-78.7353515625
-64.0869140625
-58.59375
-60.4248046875
-75.0732421875
-69.580078125
-69.580078125
-54.931640625
-57.67822265625
-65.00244140625
-60.4248046875
-65.00244140625
-59.50927734375
-69.580078125
-81.48193359375
-73.2421875
-61.34033203125
-61.34033203125
-71.4111328125
-48.52294921875
-53.1005859375
-56.7626953125
-50.35400390625
-46.69189453125
-52.18505859375
-42.1142578125
-52.18505859375
-39.36767578125
-43.9453125
-53.1005859375
-43.02978515625
-28.38134765625
-40.283203125
-37.53662109375
-32.04345703125
-17.39501953125
-30.21240234375
-26.55029296875
-45.7763671875
-36.62109375
-24.71923828125
-11.90185546875
-30.21240234375
-18.310546875
-20.1416015625
-14.6484375
-8.23974609375
-6.40869140625
-4.57763671875
2.74658203125
-3.662109375
8.23974609375
10.07080078125
12.8173828125
-13.73291015625
8.23974609375
6.40869140625
10.07080078125
11.90185546875
3.662109375
40.283203125
43.9453125
24.71923828125
30.21240234375
40.283203125
52.18505859375
67.7490234375
63.17138671875
59.50927734375
67.7490234375
63.17138671875
78.7353515625
75.98876953125
74.15771484375
82.3974609375
96.13037109375
91.552734375
81.48193359375
80.56640625
97.0458984375
92.46826171875
106.201171875
112.60986328125
108.94775390625
120.849609375
111.6943359375
104.3701171875
110.77880859375
109.86328125
108.0322265625
107.11669921875
95.21484375
108.94775390625
111.6943359375
91.552734375
87.890625
82.3974609375
92.46826171875
68.66455078125
59.50927734375
63.17138671875
72.32666015625
53.1005859375
33.87451171875
24.71923828125
17.39501953125
9.1552734375
-3.662109375
0.91552734375
-10.986328125
-19.22607421875
-10.986328125
-21.97265625
-42.1142578125
-53.1005859375
-59.50927734375
-55.84716796875
-44.86083984375
-67.7490234375
-76.904296875
-68.66455078125
-72.32666015625
-78.7353515625
-79.65087890625
-87.890625
-81.48193359375
-86.0595703125
-93.3837890625
-103.45458984375
-104.3701171875
-98.876953125
-93.3837890625
-91.552734375
-107.11669921875
-103.45458984375
-93.3837890625
-86.97509765625
-108.0322265625
-102.5390625
-93.3837890625
-95.21484375
-89.7216796875
-106.201171875
-92.46826171875
-99.79248046875
-103.45458984375
-104.3701171875
-97.96142578125
-108.0322265625
-108.0322265625
-103.45458984375
-93.3837890625
-111.6943359375
-106.201171875
-94.29931640625
-97.0458984375
-99.79248046875
-110.77880859375
-108.94775390625
-105.28564453125
-97.96142578125
-98.876953125
-103.45458984375
-97.96142578125
-97.0458984375
-77.81982421875
-85.14404296875
-87.890625
-97.0458984375
-98.876953125
-93.3837890625
-86.97509765625
-94.29931640625
-104.3701171875
-97.0458984375
-94.29931640625
-94.29931640625
-95.21484375
-99.79248046875
-86.0595703125
-76.904296875
-86.0595703125
-73.2421875
-97.0458984375
-93.3837890625
-81.48193359375
-81.48193359375
-90.63720703125
-88.80615234375
-86.97509765625
-93.3837890625
-86.0595703125
-91.552734375
-85.14404296875
-86.0595703125
-84.228515625
-82.3974609375
-85.14404296875
-87.890625
-73.2421875
-70.49560546875
-77.81982421875
-76.904296875
-87.890625
-95.21484375
-90.63720703125
-77.81982421875
-75.0732421875
-100.7080078125
-95.21484375
-93.3837890625
-99.79248046875
-83.31298828125
-83.31298828125
-75.98876953125
-82.3974609375
-90.63720703125
-91.552734375
-85.14404296875
-97.0458984375
-99.79248046875
-68.66455078125
-81.48193359375
-92.46826171875
-94.29931640625
-90.63720703125
-86.0595703125
-86.0595703125
-84.228515625
-91.552734375
-100.7080078125
-84.228515625
-99.79248046875
-90.63720703125
-84.228515625
-87.890625
-88.80615234375
-81.48193359375
-93.3837890625
-87.890625
-87.890625
-96.13037109375
-91.552734375
-95.21484375
-93.3837890625
-83.31298828125
-94.29931640625
-100.7080078125
-105.28564453125
-86.97509765625
-93.3837890625
-92.46826171875
-87.890625
-91.552734375
-90.63720703125
-80.56640625
-98.876953125
-103.45458984375
-94.29931640625
-89.7216796875
-102.5390625
-104.3701171875
-90.63720703125
-95.21484375
-91.552734375
-86.97509765625
-100.7080078125
-84.228515625
-69.580078125
-77.81982421875
-94.29931640625
-93.3837890625
-92.46826171875
-80.56640625
-82.3974609375
-90.63720703125
-92.46826171875
-81.48193359375
-52.18505859375
-65.91796875
-74.15771484375
-77.81982421875
-57.67822265625
-75.98876953125
-54.01611328125
-41.19873046875
-36.62109375
-11.90185546875
-8.23974609375
-15.56396484375
-16.4794921875
-32.958984375
-27.4658203125
-46.69189453125
-42.1142578125
-58.59375
-68.66455078125
-60.4248046875
-58.59375
-69.580078125
-75.0732421875
-87.890625
-75.98876953125
-82.3974609375
-78.7353515625
-75.98876953125
-74.15771484375
-74.15771484375
-78.7353515625
-90.63720703125
-95.21484375
-92.46826171875
-101.62353515625
-105.28564453125
-97.0458984375
-103.45458984375
-110.77880859375
-121.76513671875
-124.51171875
-131.8359375
-118.10302734375
-100.7080078125
-112.60986328125
-107.11669921875
-112.60986328125
-109.86328125
-115.3564453125
-94.29931640625
-91.552734375
-104.3701171875
-107.11669921875
-97.0458984375
-100.7080078125
-97.96142578125
-108.94775390625
-107.11669921875
-84.228515625
-82.3974609375
-98.876953125
-101.62353515625
-109.86328125
-115.3564453125
-130.92041015625
-104.3701171875
-43.02978515625
28.38134765625
106.201171875
140.07568359375
173.03466796875
217.8955078125
281.982421875
379.94384765625
496.2158203125
561.21826171875
652.77099609375
766.29638671875
921.93603515625
1072.08251953125
1110.53466796875
981.4453125
748.9013671875
498.96240234375
333.251953125
219.7265625
134.58251953125
52.18505859375
35.70556640625
28.38134765625
-47.607421875
-121.76513671875
-166.6259765625
-228.8818359375
-243.5302734375
-231.62841796875
-232.5439453125
-228.8818359375
-215.14892578125
-193.17626953125
-184.9365234375
-129.08935546875
-100.7080078125
-83.31298828125
-77.81982421875
-68.66455078125
-73.2421875
-78.7353515625
-69.580078125
-74.15771484375
-65.91796875
-65.00244140625
-61.34033203125
-75.98876953125
-72.32666015625
-72.32666015625
-63.17138671875
-57.67822265625
-66.83349609375
-55.84716796875
-69.580078125
-60.4248046875
-47.607421875
-54.931640625
-52.18505859375
-59.50927734375
-53.1005859375
-61.34033203125
-56.7626953125
-49.4384765625
-50.35400390625
-62.255859375
-61.34033203125
-48.52294921875
-35.70556640625
-36.62109375
-37.53662109375
-55.84716796875
-58.59375
-53.1005859375
-42.1142578125
-47.607421875
-48.52294921875
-26.55029296875
-23.8037109375
-37.53662109375
-26.55029296875
-33.87451171875
-33.87451171875
-34.7900390625
-28.38134765625
-26.55029296875
-21.97265625
-13.73291015625
-24.71923828125
-19.22607421875
-16.4794921875
-5.4931640625
-16.4794921875
-22.88818359375
-20.1416015625
-20.1416015625
-10.07080078125
-0.91552734375
9.1552734375
6.40869140625
12.8173828125
11.90185546875
10.986328125
16.4794921875
4.57763671875
19.22607421875
12.8173828125
33.87451171875
49.4384765625
43.9453125
36.62109375
39.36767578125
44.86083984375
48.52294921875
43.9453125
46.69189453125
45.7763671875
60.4248046875
74.15771484375
70.49560546875
84.228515625
82.3974609375
88.80615234375
92.46826171875
97.0458984375
96.13037109375
107.11669921875
120.849609375
121.76513671875
120.849609375
121.76513671875
128.173828125
129.08935546875
122.6806640625
140.07568359375
138.24462890625
127.25830078125
131.8359375
132.75146484375
148.3154296875
141.90673828125
138.24462890625
130.92041015625
131.8359375
140.07568359375
135.498046875
137.3291015625
131.8359375
129.08935546875
119.93408203125
100.7080078125
103.45458984375
94.29931640625
88.80615234375
78.7353515625
69.580078125
62.255859375
46.69189453125
42.1142578125
9.1552734375
20.1416015625
8.23974609375
0
-9.1552734375
-15.56396484375
-24.71923828125
-22.88818359375
-30.21240234375
-35.70556640625
-38.4521484375
-47.607421875
-48.52294921875
-62.255859375
-67.7490234375
-62.255859375
-72.32666015625
-74.15771484375
-66.83349609375
-65.91796875
-78.7353515625
-83.31298828125
-84.228515625
-82.3974609375
-88.80615234375
-84.228515625
-95.21484375
-90.63720703125
-98.876953125
-90.63720703125
-86.0595703125
-93.3837890625
-97.0458984375
-96.13037109375
-99.79248046875
-119.93408203125
-108.0322265625
-105.28564453125
-90.63720703125
-82.3974609375
-80.56640625
-86.0595703125
-98.876953125
-102.5390625
-103.45458984375
-108.94775390625
-108.0322265625
-101.62353515625
-103.45458984375
-102.5390625
-94.29931640625
-92.46826171875
-95.21484375
-92.46826171875
-93.3837890625
-94.29931640625
-94.29931640625
-97.0458984375
-103.45458984375
-83.31298828125
-78.7353515625
-97.0458984375
-97.96142578125
-87.890625
-84.228515625
-86.0595703125
-86.97509765625
-99.79248046875
-107.11669921875
-97.0458984375
-82.3974609375
-91.552734375
-89.7216796875
-83.31298828125
-89.7216796875
-86.0595703125
-80.56640625
-84.228515625
-79.65087890625
-71.4111328125
-97.0458984375
-91.552734375
-76.904296875
-79.65087890625
-65.00244140625
-86.0595703125
-85.14404296875
-82.3974609375
-76.904296875
-75.98876953125
-84.228515625
-78.7353515625
-81.48193359375
-75.0732421875
-75.98876953125
-66.83349609375
-84.228515625
-84.228515625
-99.79248046875
-77.81982421875
-68.66455078125
-74.15771484375
-67.7490234375
-63.17138671875
-75.98876953125
-81.48193359375
-76.904296875
-76.904296875
-92.46826171875
-75.98876953125
-65.00244140625
-74.15771484375
-86.97509765625
-85.14404296875
-74.15771484375
-75.98876953125
-82.3974609375
-84.228515625
-76.904296875
-78.7353515625
-97.0458984375
-97.0458984375
-77.81982421875
-81.48193359375
-90.63720703125
-83.31298828125
-85.14404296875
-98.876953125
-89.7216796875
-79.65087890625
-90.63720703125
-86.97509765625
-84.228515625
-79.65087890625
-83.31298828125
-97.0458984375
-88.80615234375
-90.63720703125
-92.46826171875
-80.56640625
-76.904296875
-81.48193359375
-84.228515625
-72.32666015625
-90.63720703125
-100.7080078125
-92.46826171875
-85.14404296875
-86.97509765625
-73.2421875
-86.0595703125
-84.228515625
-92.46826171875
-98.876953125
-84.228515625
-84.228515625
-91.552734375
-79.65087890625
-82.3974609375
-78.7353515625
-81.48193359375
-90.63720703125
-94.29931640625
-93.3837890625
-88.80615234375
-90.63720703125
-88.80615234375
-89.7216796875
-85.14404296875
-99.79248046875
-91.552734375
-92.46826171875
-98.876953125
-98.876953125
-103.45458984375
-91.552734375
-100.7080078125
-86.97509765625
-71.4111328125
-78.7353515625
-86.0595703125
-75.98876953125
-99.79248046875
-78.7353515625
-70.49560546875
-78.7353515625
-91.552734375
-83.31298828125
-81.48193359375
-68.66455078125
-70.49560546875
-69.580078125
-66.83349609375
-71.4111328125
-69.580078125
-92.46826171875
-80.56640625
-64.0869140625
-61.34033203125
-47.607421875
-58.59375
-64.0869140625
-71.4111328125
-61.34033203125
-55.84716796875
-51.26953125
-49.4384765625
-44.86083984375
-21.97265625
-11.90185546875
4.57763671875
-11.90185546875
-24.71923828125
-28.38134765625
-29.296875
-36.62109375
-65.00244140625
-61.34033203125
-66.83349609375
-68.66455078125
-78.7353515625
-66.83349609375
-62.255859375
-61.34033203125
-67.7490234375
-67.7490234375
-79.65087890625
-87.890625
-75.0732421875
-64.0869140625
-78.7353515625
-89.7216796875
-80.56640625
-83.31298828125
-97.96142578125
-95.21484375
-105.28564453125
-103.45458984375
-95.21484375
-101.62353515625
-110.77880859375
-91.552734375
-113.525390625
-115.3564453125
-98.876953125
-95.21484375
-86.97509765625
-108.94775390625
-103.45458984375
-77.81982421875
-86.97509765625
-86.0595703125
-91.552734375
-107.11669921875
-88.80615234375
-84.228515625
-100.7080078125
-97.96142578125
-83.31298828125
-109.86328125
-105.28564453125
-92.46826171875
-95.21484375
-116.27197265625
-91.552734375
-42.1142578125
17.39501953125
91.552734375
150.146484375
187.68310546875
210.5712890625
276.4892578125
365.29541015625
474.2431640625
563.96484375
662.841796875
782.77587890625
934.75341796875
1076.66015625
1170.0439453125
1081.23779296875
863.34228515625
590.51513671875
394.59228515625
275.57373046875
177.6123046875
65.00244140625
17.39501953125
-8.23974609375
-64.0869140625
-135.498046875
-186.767578125
-231.62841796875
-249.93896484375
-234.375
-229.79736328125
-224.30419921875
-202.33154296875
-188.5986328125
-139.16015625
-102.5390625
-70.49560546875
-60.4248046875
-60.4248046875
-63.17138671875
-54.01611328125
-64.0869140625
-63.17138671875
-59.50927734375
-65.00244140625
-72.32666015625
-71.4111328125
-66.83349609375
-56.7626953125
-59.50927734375
-70.49560546875
-59.50927734375
-55.84716796875
-66.83349609375
-47.607421875
-44.86083984375
-55.84716796875
-48.52294921875
-39.36767578125
-49.4384765625
-55.84716796875
-57.67822265625
-40.283203125
-44.86083984375
-49.4384765625
-32.958984375
-45.7763671875
-43.9453125
-46.69189453125
-41.19873046875
-32.958984375
-48.52294921875
-44.86083984375
-31.1279296875
-51.26953125
-40.283203125
-41.19873046875
-27.4658203125
-27.4658203125
-30.21240234375
-30.21240234375
-35.70556640625
-32.04345703125
-10.07080078125
-1.8310546875
-4.57763671875
-25.634765625
-12.8173828125
-2.74658203125
-9.1552734375
-18.310546875
-2.74658203125
-10.07080078125
-15.56396484375
-22.88818359375
-18.310546875
-6.40869140625
9.1552734375
5.4931640625
2.74658203125
21.05712890625
19.22607421875
18.310546875
20.1416015625
29.296875
30.21240234375
20.1416015625
26.55029296875
41.19873046875
44.86083984375
41.19873046875
44.86083984375
41.19873046875
54.931640625
74.15771484375
69.580078125
64.0869140625
71.4111328125
80.56640625
88.80615234375
103.45458984375
100.7080078125
96.13037109375
98.876953125
112.60986328125
110.77880859375
119.93408203125
125.42724609375
122.6806640625
135.498046875
134.58251953125
140.07568359375
134.58251953125
136.41357421875
138.24462890625
130.0048828125
140.07568359375
155.6396484375
162.04833984375
161.1328125
138.24462890625
153.80859375
157.470703125
155.6396484375
168.45703125
152.89306640625
150.146484375
151.06201171875
151.06201171875
134.58251953125
122.6806640625
128.173828125
128.173828125
115.3564453125
91.552734375
101.62353515625
99.79248046875
72.32666015625
70.49560546875
51.26953125
38.4521484375
42.1142578125
30.21240234375
22.88818359375
18.310546875
0.91552734375
-9.1552734375
-15.56396484375
-26.55029296875
-21.05712890625
-27.4658203125
-54.931640625
-45.7763671875
-56.7626953125
-38.4521484375
-38.4521484375
-56.7626953125
-70.49560546875
-59.50927734375
-66.83349609375
-71.4111328125
-81.48193359375
-81.48193359375
-88.80615234375
-85.14404296875
-68.66455078125
-75.98876953125
-77.81982421875
-80.56640625
-74.15771484375
-71.4111328125
-74.15771484375
-88.80615234375
-79.65087890625
-76.904296875
-69.580078125
-81.48193359375
-70.49560546875
-81.48193359375
-92.46826171875
-95.21484375
-88.80615234375
-79.65087890625
-81.48193359375
-86.0595703125
-89.7216796875
-81.48193359375
-86.0595703125
-92.46826171875
-87.890625
-73.2421875
-81.48193359375
-74.15771484375
-75.98876953125
-82.3974609375
-80.56640625
-77.81982421875
-85.14404296875
-78.7353515625
-79.65087890625
-74.15771484375
-82.3974609375
-84.228515625
-86.97509765625
-79.65087890625
-79.65087890625
-87.890625
-86.97509765625
-82.3974609375
-69.580078125
-75.98876953125
-74.15771484375
-77.81982421875
-74.15771484375
-60.4248046875
-61.34033203125
-60.4248046875
-71.4111328125
-65.91796875
-69.580078125
-81.48193359375
-87.890625
-67.7490234375
-74.15771484375
-59.50927734375
-62.255859375
-76.904296875
-71.4111328125
-70.49560546875
-63.17138671875
-54.931640625
-59.50927734375
-71.4111328125
-69.580078125
-63.17138671875
-70.49560546875
-67.7490234375
-66.83349609375
-75.98876953125
-65.91796875
-66.83349609375
-73.2421875
-88.80615234375
-53.1005859375
-57.67822265625
-75.98876953125
-72.32666015625
-73.2421875
-74.15771484375
-78.7353515625
-77.81982421875
-60.4248046875
-57.67822265625
-60.4248046875
-67.7490234375
-69.580078125
-64.0869140625
-75.0732421875
-69.580078125
-64.0869140625
-73.2421875
-83.31298828125
-81.48193359375
-69.580078125
-77.81982421875
-70.49560546875
-83.31298828125
-74.15771484375
-85.14404296875
-78.7353515625
-81.48193359375
-78.7353515625
-73.2421875
-71.4111328125
-67.7490234375
-74.15771484375
-65.91796875
-65.91796875
-74.15771484375
-75.0732421875
-81.48193359375
-81.48193359375
-88.80615234375
-88.80615234375
-76.904296875
-79.65087890625
-78.7353515625
-79.65087890625
-83.31298828125
-89.7216796875
-90.63720703125
-75.98876953125
-76.904296875
-78.7353515625
-77.81982421875
-78.7353515625
-82.3974609375
-82.3974609375
-87.890625
-72.32666015625
-86.0595703125
-100.7080078125
-84.228515625
-82.3974609375
-80.56640625
-71.4111328125
-85.14404296875
-86.0595703125
-68.66455078125
-68.66455078125
-89.7216796875
-84.228515625
-94.29931640625
-79.65087890625
-75.0732421875
-80.56640625
-86.0595703125
-86.97509765625
-101.62353515625
-84.228515625
-81.48193359375
-96.13037109375
-90.63720703125
-84.228515625
-90.63720703125
-91.552734375
-79.65087890625
-76.904296875
-93.3837890625
-90.63720703125
-90.63720703125
-86.0595703125
-84.228515625
-81.48193359375
-78.7353515625
-75.98876953125
-82.3974609375
-90.63720703125
-80.56640625
-66.83349609375
-70.49560546875
-85.14404296875
-62.255859375
-67.7490234375
-75.0732421875
-60.4248046875
-66.83349609375
-61.34033203125
-60.4248046875
-84.228515625
-83.31298828125
-44.86083984375
-41.19873046875
-54.931640625
-61.34033203125
-69.580078125
-71.4111328125
-60.4248046875
-54.931640625
-46.69189453125
-9.1552734375
-7.32421875
-4.57763671875
-10.07080078125
-5.4931640625
-2.74658203125
-30.21240234375
-23.8037109375
-35.70556640625
-64.0869140625
-60.4248046875
-47.607421875
-44.86083984375
-56.7626953125
-72.32666015625
-69.580078125
-59.50927734375
-54.01611328125
-55.84716796875
-61.34033203125
-75.98876953125
-77.81982421875
-71.4111328125
-72.32666015625
-68.66455078125
-93.3837890625
-93.3837890625
-92.46826171875
-93.3837890625
-89.7216796875
-99.79248046875
-108.94775390625
-105.28564453125
-89.7216796875
-86.97509765625
-89.7216796875
-103.45458984375
-93.3837890625
-91.552734375
-92.46826171875
-93.3837890625
-100.7080078125
-99.79248046875
-82.3974609375
-78.7353515625
-103.45458984375
-112.60986328125
-87.890625
-79.65087890625
-78.7353515625
-73.2421875
-84.228515625
-95.21484375
-96.13037109375
-86.0595703125
-101.62353515625
-132.75146484375
-95.21484375
-50.35400390625
3.662109375
71.4111328125
137.3291015625
195.00732421875
222.47314453125
277.40478515625
352.47802734375
474.2431640625
556.640625
652.77099609375
763.5498046875
902.7099609375
1059.26513671875
1154.47998046875
1092.22412109375
895.3857421875
631.7138671875
414.73388671875
283.8134765625
165.71044921875
83.31298828125
31.1279296875
-3.662109375
-75.0732421875
-136.41357421875
-177.6123046875
-224.30419921875
-238.037109375
-229.79736328125
-210.5712890625
-205.078125
-201.416015625
-183.10546875
-151.06201171875
-113.525390625
-70.49560546875
-60.4248046875
-48.52294921875
-53.1005859375
-60.4248046875
-60.4248046875
-54.01611328125
-55.84716796875
-55.84716796875
-51.26953125
-46.69189453125
-52.18505859375
-63.17138671875
-58.59375
-58.59375
-54.931640625
-47.607421875
-42.1142578125
-38.4521484375
-37.53662109375
-27.4658203125
-34.7900390625
-58.59375
-51.26953125
-41.19873046875
-44.86083984375
-43.9453125
-36.62109375
-38.4521484375
-46.69189453125
-32.958984375
-27.4658203125
-18.310546875
-29.296875
-49.4384765625
-30.21240234375
-18.310546875
-37.53662109375
-30.21240234375
-22.88818359375
-16.4794921875
-19.22607421875
-20.1416015625
-12.8173828125
-20.1416015625
-34.7900390625
-26.55029296875
-17.39501953125
-27.4658203125
-12.8173828125
-9.1552734375
-9.1552734375
-9.1552734375
-17.39501953125
4.57763671875
4.57763671875
3.662109375
-4.57763671875
8.23974609375
-1.8310546875
8.23974609375
20.1416015625
14.6484375
9.1552734375
9.1552734375
23.8037109375
21.05712890625
21.97265625
29.296875
28.38134765625
34.7900390625
39.36767578125
41.19873046875
26.55029296875
42.1142578125
53.1005859375
56.7626953125
53.1005859375
59.50927734375
68.66455078125
86.0595703125
94.29931640625
86.97509765625
84.228515625
87.890625
92.46826171875
99.79248046875
100.7080078125
109.86328125
118.10302734375
116.27197265625
115.3564453125
124.51171875
117.1875
130.92041015625
138.24462890625
151.9775390625
140.9912109375
139.16015625
153.80859375
154.72412109375
152.89306640625
148.3154296875
152.89306640625
140.9912109375
136.41357421875
146.484375
162.04833984375
168.45703125
159.3017578125
161.1328125
176.69677734375
159.3017578125
140.9912109375
147.39990234375
144.6533203125
123.59619140625
119.93408203125
121.76513671875
114.44091796875
81.48193359375
89.7216796875
81.48193359375
78.7353515625
59.50927734375
46.69189453125
41.19873046875
33.87451171875
26.55029296875
5.4931640625
-2.74658203125
4.57763671875
0.91552734375
-24.71923828125
-29.296875
-30.21240234375
-27.4658203125
-35.70556640625
-43.02978515625
-37.53662109375
-59.50927734375
-52.18505859375
-53.1005859375
-64.0869140625
-65.00244140625
-66.83349609375
-70.49560546875
-66.83349609375
-60.4248046875
-58.59375
-73.2421875
-65.91796875
-65.91796875
-72.32666015625
-86.0595703125
-84.228515625
-75.0732421875
-86.0595703125
-91.552734375
-71.4111328125
-76.904296875
-81.48193359375
-82.3974609375
-84.228515625
-85.14404296875
-85.14404296875
-72.32666015625
-75.98876953125
-76.904296875
-77.81982421875
-80.56640625
-72.32666015625
-90.63720703125
-97.0458984375
-95.21484375
-85.14404296875
-63.17138671875
-75.0732421875
-76.904296875
-79.65087890625
-71.4111328125
-96.13037109375
-98.876953125
-76.904296875
-74.15771484375
-66.83349609375
-74.15771484375
-82.3974609375
-88.80615234375
-82.3974609375
-69.580078125
-73.2421875
-79.65087890625
-66.83349609375
-76.904296875
-75.0732421875
-71.4111328125
-72.32666015625
-75.98876953125
-75.0732421875
-69.580078125
-74.15771484375
-75.98876953125
-79.65087890625
-79.65087890625
-74.15771484375
-81.48193359375
-65.00244140625
-67.7490234375
-68.66455078125
-69.580078125
-77.81982421875
-63.17138671875
-65.91796875
-68.66455078125
-74.15771484375
-63.17138671875
-69.580078125
-79.65087890625
-74.15771484375
-65.00244140625
-62.255859375
-65.91796875
-68.66455078125
-71.4111328125
-63.17138671875
-66.83349609375
-68.66455078125
-78.7353515625
-67.7490234375
-78.7353515625
-97.0458984375
-76.904296875
-65.91796875
-73.2421875
-81.48193359375
-82.3974609375
-75.0732421875
-86.97509765625
-69.580078125
-77.81982421875
-57.67822265625
-77.81982421875
-79.65087890625
-81.48193359375
-82.3974609375
-82.3974609375
-78.7353515625
-77.81982421875
-71.4111328125
-78.7353515625
-73.2421875
-75.0732421875
-78.7353515625
-74.15771484375
-91.552734375
-89.7216796875
-87.890625
-89.7216796875
-74.15771484375
-85.14404296875
-83.31298828125
-85.14404296875
-92.46826171875
-79.65087890625
-80.56640625
-95.21484375
-86.0595703125
-85.14404296875
-61.34033203125
-75.98876953125
-81.48193359375
-97.96142578125
-77.81982421875
-90.63720703125
-87.890625
-95.21484375
-95.21484375
-95.21484375
-84.228515625
-78.7353515625
-81.48193359375
-89.7216796875
-87.890625
-84.228515625
-85.14404296875
-89.7216796875
-83.31298828125
-81.48193359375
-89.7216796875
-83.31298828125
-84.228515625
-100.7080078125
-88.80615234375
-86.0595703125
-92.46826171875
-70.49560546875
-83.31298828125
-97.0458984375
-100.7080078125
-83.31298828125
-86.0595703125
-76.904296875
-82.3974609375
-89.7216796875
-98.876953125
-85.14404296875
-86.0595703125
-87.890625
-82.3974609375
-86.97509765625
-92.46826171875
-89.7216796875
-88.80615234375
-83.31298828125
-94.29931640625
-93.3837890625
-86.0595703125
-87.890625
-86.0595703125
-77.81982421875
-80.56640625
-93.3837890625
-96.13037109375
-80.56640625
-78.7353515625
-74.15771484375
-83.31298828125
-80.56640625
-68.66455078125
-64.0869140625
-85.14404296875
-79.65087890625
-86.0595703125
-79.65087890625
-65.91796875
-61.34033203125
-68.66455078125
-55.84716796875
-63.17138671875
-73.2421875
-72.32666015625
-70.49560546875
-54.01611328125
-59.50927734375
-54.01611328125
-12.8173828125
-20.1416015625
-9.1552734375
-9.1552734375
-10.07080078125
-15.56396484375
-34.7900390625
-30.21240234375
-43.02978515625
-66.83349609375
-59.50927734375
-56.7626953125
-65.00244140625
-71.4111328125
-68.66455078125
-74.15771484375
-65.91796875
-63.17138671875
-67.7490234375
-71.4111328125
-79.65087890625
-75.0732421875
-78.7353515625
-66.83349609375
-82.3974609375
-101.62353515625
-110.77880859375
-102.5390625
-102.5390625
-105.28564453125
-111.6943359375
-108.94775390625
-101.62353515625
-93.3837890625
-98.876953125
-101.62353515625
-113.525390625
-110.77880859375
-119.0185546875
-104.3701171875
-105.28564453125
-93.3837890625
-111.6943359375
-105.28564453125
-82.3974609375
-98.876953125
-80.56640625
-86.97509765625
-97.0458984375
-110.77880859375
-75.98876953125
-77.81982421875
-89.7216796875
-96.13037109375
-104.3701171875
-130.92041015625
-128.173828125
-96.13037109375
-35.70556640625
43.9453125
112.60986328125
145.56884765625
173.9501953125
207.82470703125
273.74267578125
362.548828125
468.75
543.8232421875
633.544921875
749.81689453125
899.96337890625
1043.701171875
1055.60302734375
921.0205078125
678.40576171875
449.52392578125
297.54638671875
204.16259765625
108.0322265625
46.69189453125
55.84716796875
6.40869140625
-65.00244140625
-97.0458984375
-159.3017578125
-227.96630859375
-255.43212890625
-250.8544921875
-220.64208984375
-213.31787109375
-218.81103515625
-203.2470703125
-179.443359375
-137.3291015625
-95.21484375
-91.552734375
-73.2421875
-80.56640625
-82.3974609375
-69.580078125
-68.66455078125
-74.15771484375
-63.17138671875
-86.0595703125
-80.56640625
-65.91796875
-55.84716796875
-63.17138671875
-72.32666015625
-65.91796875
-63.17138671875
-75.0732421875
-65.91796875
-58.59375
-71.4111328125
-58.59375
-70.49560546875
-58.59375
-68.66455078125
-58.59375
-52.18505859375
-55.84716796875
-57.67822265625
-47.607421875
-53.1005859375
-44.86083984375
-45.7763671875
-63.17138671875
-64.0869140625
-45.7763671875
-45.7763671875
-49.4384765625
-44.86083984375
-53.1005859375
-21.97265625
-31.1279296875
-55.84716796875
-50.35400390625
-37.53662109375
-34.7900390625
-39.36767578125
-45.7763671875
-37.53662109375
-28.38134765625
-37.53662109375
-24.71923828125
-23.8037109375
-10.986328125
-14.6484375
-25.634765625
-18.310546875
-21.05712890625
-18.310546875
-21.97265625
-16.4794921875
-6.40869140625
-7.32421875
-1.8310546875
7.32421875
-2.74658203125
16.4794921875
-4.57763671875
-11.90185546875
4.57763671875
15.56396484375
15.56396484375
10.07080078125
27.4658203125
22.88818359375
32.04345703125
37.53662109375
32.04345703125
34.7900390625
45.7763671875
34.7900390625
48.52294921875
61.34033203125
62.255859375
71.4111328125
78.7353515625
85.14404296875
65.00244140625
81.48193359375
90.63720703125
104.3701171875
105.28564453125
100.7080078125
108.94775390625
105.28564453125
115.3564453125
114.44091796875
108.0322265625
119.0185546875
119.93408203125
130.92041015625
132.75146484375
135.498046875
126.3427734375
119.0185546875
133.6669921875
125.42724609375
118.10302734375
119.93408203125
125.42724609375
127.25830078125
124.51171875
111.6943359375
105.28564453125
115.3564453125
111.6943359375
109.86328125
87.890625
77.81982421875
78.7353515625
59.50927734375
51.26953125
36.62109375
35.70556640625
49.4384765625
34.7900390625
13.73291015625
-0.91552734375
0
-10.986328125
-8.23974609375
-10.07080078125
-9.1552734375
-26.55029296875
-40.283203125
-43.02978515625
-47.607421875
-57.67822265625
-60.4248046875
-73.2421875
-61.34033203125
-64.0869140625
-75.0732421875
-78.7353515625
-101.62353515625
-76.904296875
-75.98876953125
-78.7353515625
-89.7216796875
-86.0595703125
-75.98876953125
-90.63720703125
-106.201171875
-85.14404296875
-88.80615234375
-86.0595703125
-97.96142578125
-94.29931640625
-110.77880859375
-97.96142578125
-99.79248046875
-96.13037109375
-100.7080078125
-91.552734375
-80.56640625
-83.31298828125
-89.7216796875
-108.0322265625
-106.201171875
-97.96142578125
-121.76513671875
-99.79248046875
-94.29931640625
-97.0458984375
-91.552734375
-86.97509765625
-90.63720703125
-94.29931640625
-94.29931640625
-97.96142578125
-82.3974609375
-86.97509765625
-97.96142578125
-110.77880859375
-85.14404296875
-95.21484375
-91.552734375
-91.552734375
-86.0595703125
-84.228515625
-86.0595703125
-75.0732421875
-88.80615234375
-86.0595703125
-86.0595703125
-79.65087890625
-87.890625
-84.228515625
-87.890625
-81.48193359375
-76.904296875
-73.2421875
-92.46826171875
-75.98876953125
-77.81982421875
-87.890625
-69.580078125
-86.0595703125
-89.7216796875
-87.890625
-73.2421875
-69.580078125
-86.0595703125
-87.890625
-75.98876953125
-75.98876953125
-85.14404296875
-77.81982421875
-65.00244140625
-82.3974609375
-75.0732421875
-76.904296875
-84.228515625
-81.48193359375
-82.3974609375
-89.7216796875
-90.63720703125
-98.876953125
-100.7080078125
-86.97509765625
-88.80615234375
-78.7353515625
-85.14404296875
-85.14404296875
-86.97509765625
-88.80615234375
-85.14404296875
-88.80615234375
-86.0595703125
-86.97509765625
-91.552734375
-84.228515625
-82.3974609375
-88.80615234375
-84.228515625
-83.31298828125
-96.13037109375
-100.7080078125
-97.96142578125
-100.7080078125
-93.3837890625
-98.876953125
-75.0732421875
-71.4111328125
-94.29931640625
-93.3837890625
-102.5390625
-118.10302734375
-102.5390625
-86.0595703125
-83.31298828125
-88.80615234375
-101.62353515625
-104.3701171875
-107.11669921875
-95.21484375
-101.62353515625
-93.3837890625
-89.7216796875
-90.63720703125
-93.3837890625
-90.63720703125
-96.13037109375
-111.6943359375
-108.0322265625
-101.62353515625
-95.21484375
-93.3837890625
-103.45458984375
-95.21484375
-96.13037109375
-86.97509765625
-98.876953125
-113.525390625
-102.5390625
-84.228515625
-104.3701171875
-104.3701171875
-119.93408203125
-110.77880859375
-88.80615234375
-97.96142578125
-106.201171875
-101.62353515625
-107.11669921875
-93.3837890625
-101.62353515625
-95.21484375
-103.45458984375
-92.46826171875
-93.3837890625
-94.29931640625
-93.3837890625
-92.46826171875
-100.7080078125
-94.29931640625
-98.876953125
-95.21484375
-102.5390625
-99.79248046875
-89.7216796875
-85.14404296875
-70.49560546875
-71.4111328125
-77.81982421875
-81.48193359375
-86.97509765625
-98.876953125
-82.3974609375
-55.84716796875
-49.4384765625
-34.7900390625
-36.62109375
-36.62109375
-29.296875
-33.87451171875
-49.4384765625
-42.1142578125
-47.607421875
-72.32666015625
-68.66455078125
-65.91796875
-55.84716796875
-81.48193359375
-74.15771484375
-67.7490234375
-65.00244140625
-75.0732421875
-89.7216796875
-89.7216796875
-96.13037109375
-89.7216796875
-100.7080078125
-117.1875
-100.7080078125
-99.79248046875
-106.201171875
-110.77880859375
-115.3564453125
-116.27197265625
-119.93408203125
-131.8359375
-140.07568359375
-117.1875
-127.25830078125
-129.08935546875
-119.93408203125
-121.76513671875
-114.44091796875
-119.93408203125
-119.93408203125
-126.3427734375
-116.27197265625
-108.0322265625
-115.3564453125
-112.60986328125
-108.94775390625
-111.6943359375
-118.10302734375
-115.3564453125
-98.876953125
-96.13037109375
-110.77880859375
-108.94775390625
-123.59619140625
-129.08935546875
-138.24462890625
-143.73779296875
-117.1875
-36.62109375
60.4248046875
100.7080078125
118.10302734375
153.80859375
210.5712890625
281.06689453125
371.7041015625
455.01708984375
531.92138671875
624.3896484375
759.8876953125
946.6552734375
1047.36328125
986.02294921875
802.91748046875
559.38720703125
356.14013671875
274.658203125
173.03466796875
105.28564453125
72.32666015625
59.50927734375
52.18505859375
25.634765625
-60.4248046875
-131.8359375
-204.16259765625
-254.5166015625
-255.43212890625
-240.78369140625
-235.29052734375
-225.2197265625
-214.2333984375
-204.16259765625
-185.85205078125
-154.72412109375
-108.0322265625
-124.51171875
-94.29931640625
-86.97509765625
-77.81982421875
-80.56640625
-90.63720703125
-84.228515625
-75.98876953125
-92.46826171875
-87.890625
-77.81982421875
-76.904296875
-79.65087890625
-68.66455078125
-66.83349609375
-88.80615234375
-77.81982421875
-70.49560546875
-81.48193359375
-56.7626953125
-58.59375
-67.7490234375
-66.83349609375
-67.7490234375
-68.66455078125
-65.00244140625
-65.00244140625
-58.59375
-65.00244140625
-61.34033203125
-69.580078125
-61.34033203125
-69.580078125
-53.1005859375
-43.02978515625
-57.67822265625
-50.35400390625
-46.69189453125
-52.18505859375
-61.34033203125
-54.931640625
-43.9453125
-51.26953125
-48.52294921875
-48.52294921875
-29.296875
-36.62109375
-44.86083984375
-43.9453125
-40.283203125
-32.958984375
-40.283203125
-30.21240234375
-32.958984375
-21.05712890625
-32.958984375
-23.8037109375
-5.4931640625
-26.55029296875
-31.1279296875
-27.4658203125
-24.71923828125
-10.986328125
1.8310546875
4.57763671875
-1.8310546875
-0.91552734375
5.4931640625
11.90185546875
-2.74658203125
-1.8310546875
16.4794921875
16.4794921875
22.88818359375
21.05712890625
21.05712890625
32.958984375
43.02978515625
45.7763671875
43.9453125
39.36767578125
47.607421875
54.931640625
63.17138671875
56.7626953125
62.255859375
68.66455078125
79.65087890625
81.48193359375
82.3974609375
67.7490234375
76.904296875
92.46826171875
97.0458984375
95.21484375
103.45458984375
102.5390625
99.79248046875
112.60986328125
102.5390625
98.876953125
118.10302734375
106.201171875
102.5390625
98.876953125
97.96142578125
105.28564453125
98.876953125
108.94775390625
105.28564453125
108.0322265625
91.552734375
84.228515625
86.97509765625
76.904296875
71.4111328125
60.4248046875
57.67822265625
56.7626953125
30.21240234375
32.958984375
25.634765625
14.6484375
17.39501953125
5.4931640625
-3.662109375
-16.4794921875
-20.1416015625
-19.22607421875
-34.7900390625
-31.1279296875
-41.19873046875
-39.36767578125
-46.69189453125
-53.1005859375
-64.0869140625
-65.00244140625
-48.52294921875
-67.7490234375
-71.4111328125
-77.81982421875
-73.2421875
-71.4111328125
-76.904296875
-82.3974609375
-82.3974609375
-83.31298828125
-84.228515625
-80.56640625
-92.46826171875
-91.552734375
-90.63720703125
-102.5390625
-80.56640625
-85.14404296875
-97.96142578125
-87.890625
-85.14404296875
-80.56640625
-73.2421875
-97.0458984375
-102.5390625
-80.56640625
-73.2421875
-87.890625
-84.228515625
-75.98876953125
-75.98876953125
-80.56640625
-76.904296875
-76.904296875
-64.0869140625
-71.4111328125
-82.3974609375
-85.14404296875
-81.48193359375
-82.3974609375
-73.2421875
-67.7490234375
-76.904296875
-79.65087890625
-77.81982421875
-67.7490234375
-71.4111328125
-72.32666015625
-77.81982421875
-79.65087890625
-71.4111328125
-56.7626953125
-72.32666015625
-81.48193359375
-82.3974609375
-61.34033203125
-57.67822265625
-65.91796875
-59.50927734375
-62.255859375
-57.67822265625
-64.0869140625
-74.15771484375
-79.65087890625
-71.4111328125
-71.4111328125
-64.0869140625
-65.91796875
-72.32666015625
-62.255859375
-78.7353515625
-53.1005859375
-53.1005859375
-91.552734375
-82.3974609375
-55.84716796875
-54.01611328125
-53.1005859375
-60.4248046875
-64.0869140625
-61.34033203125
-61.34033203125
-76.904296875
-76.904296875
-73.2421875
-63.17138671875
-66.83349609375
-65.91796875
-73.2421875
-65.00244140625
-62.255859375
-58.59375
-54.01611328125
-62.255859375
-58.59375
-65.91796875
-71.4111328125
-61.34033203125
-61.34033203125
-70.49560546875
-76.904296875
-73.2421875
-75.0732421875
-74.15771484375
-71.4111328125
-75.0732421875
-74.15771484375
-65.00244140625
-84.228515625
-79.65087890625
-63.17138671875
-60.4248046875
-58.59375
-79.65087890625
-75.0732421875
-87.890625
-62.255859375
-56.7626953125
-68.66455078125
-76.904296875
-81.48193359375
-73.2421875
-75.98876953125
-65.00244140625
-63.17138671875
-51.26953125
-64.0869140625
-42.1142578125
-62.255859375
-63.17138671875
-65.00244140625
-71.4111328125
-65.91796875
-66.83349609375
-72.32666015625
-66.83349609375
-56.7626953125
-65.91796875
-65.00244140625
-72.32666015625
-58.59375
-69.580078125
-83.31298828125
-68.66455078125
-62.255859375
-76.904296875
-74.15771484375
-75.0732421875
-72.32666015625
-68.66455078125
-48.52294921875
-56.7626953125
-87.890625
-80.56640625
-64.0869140625
-57.67822265625
-58.59375
-52.18505859375
-70.49560546875
-67.7490234375
-53.1005859375
-49.4384765625
-51.26953125
-54.931640625
-53.1005859375
-67.7490234375
-64.0869140625
-54.931640625
-61.34033203125
-58.59375
-47.607421875
-25.634765625
-7.32421875
-49.4384765625
-65.00244140625
-51.26953125
-35.70556640625
-21.97265625
-12.8173828125
-16.4794921875
-11.90185546875
-0.91552734375
-1.8310546875
4.57763671875
-3.662109375
-5.4931640625
-14.6484375
-17.39501953125
-35.70556640625
-42.1142578125
-27.4658203125
-41.19873046875
-45.7763671875
-49.4384765625
-53.1005859375
-37.53662109375
-34.7900390625
-44.86083984375
-48.52294921875
-65.91796875
-56.7626953125
-49.4384765625
-47.607421875
-53.1005859375
-79.65087890625
-97.96142578125
-75.98876953125
-71.4111328125
-79.65087890625
-88.80615234375
-77.81982421875
-87.890625
-93.3837890625
-99.79248046875
-94.29931640625
-75.0732421875
-68.66455078125
-74.15771484375
-87.890625
-75.0732421875
-64.0869140625
-78.7353515625
-82.3974609375
-85.14404296875
-86.97509765625
-76.904296875
-59.50927734375
-62.255859375
-66.83349609375
-69.580078125
-76.904296875
-79.65087890625
-82.3974609375
-97.0458984375
-124.51171875
-93.3837890625
-38.4521484375
36.62109375
104.3701171875
150.146484375
194.091796875
220.64208984375
271.91162109375
359.80224609375
467.83447265625
572.20458984375
655.517578125
770.8740234375
901.79443359375
1058.349609375
1157.2265625
1111.4501953125
918.27392578125
639.95361328125
439.453125
305.7861328125
195.9228515625
106.201171875
65.00244140625
41.19873046875
-18.310546875
-69.580078125
-127.25830078125
-186.767578125
-230.712890625
-239.8681640625
-204.16259765625
-181.2744140625
-167.54150390625
-180.35888671875
-158.38623046875
-105.28564453125
-80.56640625
-62.255859375
-55.84716796875
-52.18505859375
-39.36767578125
-32.04345703125
-41.19873046875
-52.18505859375
-57.67822265625
-56.7626953125
-37.53662109375
-47.607421875
-50.35400390625
-29.296875
-40.283203125
-32.958984375
-36.62109375
-33.87451171875
-39.36767578125
-46.69189453125
-39.36767578125
-27.4658203125
-29.296875
-29.296875
-23.8037109375
-15.56396484375
-20.1416015625
-27.4658203125
-34.7900390625
-14.6484375
-10.986328125
-22.88818359375
-26.55029296875
-34.7900390625
-41.19873046875
-27.4658203125
-10.07080078125
-10.07080078125
-5.4931640625
0.91552734375
-10.986328125
-32.04345703125
0.91552734375
-3.662109375
0.91552734375
-6.40869140625
-9.1552734375
-3.662109375
10.986328125
-3.662109375
0.91552734375
2.74658203125
1.8310546875
1.8310546875
-6.40869140625
18.310546875
17.39501953125
17.39501953125
-2.74658203125
14.6484375
21.97265625
33.87451171875
31.1279296875
33.87451171875
20.1416015625
32.04345703125
36.62109375
43.9453125
37.53662109375
42.1142578125
45.7763671875
37.53662109375
58.59375
55.84716796875
66.83349609375
71.4111328125
57.67822265625
72.32666015625
78.7353515625
80.56640625
82.3974609375
86.0595703125
106.201171875
108.0322265625
114.44091796875
108.0322265625
108.0322265625
126.3427734375
124.51171875
132.75146484375
135.498046875
132.75146484375
137.3291015625
141.90673828125
153.80859375
175.78125
160.21728515625
145.56884765625
155.6396484375
166.6259765625
169.37255859375
168.45703125
164.794921875
172.119140625
174.86572265625
180.35888671875
162.04833984375
172.119140625
175.78125
166.6259765625
182.18994140625
169.37255859375
150.146484375
147.39990234375
151.9775390625
151.06201171875
140.9912109375
122.6806640625
117.1875
115.3564453125
108.0322265625
96.13037109375
86.0595703125
73.2421875
63.17138671875
56.7626953125
51.26953125
43.9453125
27.4658203125
21.05712890625
21.97265625
24.71923828125
9.1552734375
-4.57763671875
7.32421875
-2.74658203125
-15.56396484375
-15.56396484375
-33.87451171875
-37.53662109375
-41.19873046875
-43.02978515625
-43.02978515625
-61.34033203125
-52.18505859375
-45.7763671875
-71.4111328125
-42.1142578125
-54.931640625
-47.607421875
-51.26953125
-70.49560546875
-64.0869140625
-64.0869140625
-70.49560546875
-55.84716796875
-57.67822265625
-58.59375
-52.18505859375
-61.34033203125
-65.00244140625
-72.32666015625
-66.83349609375
-64.0869140625
-68.66455078125
-61.34033203125
-62.255859375
-80.56640625
-62.255859375
-63.17138671875
-65.91796875
-63.17138671875
-74.15771484375
-84.228515625
-54.931640625
-66.83349609375
-65.91796875
-71.4111328125
-73.2421875
-73.2421875
-62.255859375
-55.84716796875
-58.59375
-61.34033203125
-69.580078125
-55.84716796875
-60.4248046875
-55.84716796875
-61.34033203125
-82.3974609375
-65.91796875
-60.4248046875
-66.83349609375
-55.84716796875
-53.1005859375
-61.34033203125
-59.50927734375
-54.01611328125
-51.26953125
-54.931640625
-55.84716796875
-50.35400390625
-61.34033203125
-60.4248046875
-51.26953125
-46.69189453125
-56.7626953125
-75.0732421875
-66.83349609375
-43.9453125
-54.01611328125
-61.34033203125
-39.36767578125
-59.50927734375
-49.4384765625
-50.35400390625
-52.18505859375
-60.4248046875
-67.7490234375
-61.34033203125
-61.34033203125
-60.4248046875
-58.59375
-72.32666015625
-52.18505859375
-57.67822265625
-59.50927734375
-54.01611328125
-52.18505859375
-48.52294921875
-49.4384765625
-58.59375
-65.91796875
-61.34033203125
-52.18505859375
-51.26953125
-64.0869140625
-58.59375
-64.0869140625
-69.580078125
-57.67822265625
-62.255859375
-73.2421875
-74.15771484375
-58.59375
-59.50927734375
-64.0869140625
-50.35400390625
-49.4384765625
-70.49560546875
-65.91796875
-52.18505859375
-59.50927734375
-66.83349609375
-62.255859375
-68.66455078125
-73.2421875
-67.7490234375
-73.2421875
-65.00244140625
-65.00244140625
-70.49560546875
-73.2421875
-66.83349609375
-54.931640625
-55.84716796875
-62.255859375
-82.3974609375
-70.49560546875
-59.50927734375
-67.7490234375
-69.580078125
-67.7490234375
-61.34033203125
-65.00244140625
-72.32666015625
-66.83349609375
-75.0732421875
-70.49560546875
-61.34033203125
-65.91796875
-73.2421875
-77.81982421875
-59.50927734375
-50.35400390625
-67.7490234375
-80.56640625
-86.0595703125
-70.49560546875
-69.580078125
-75.98876953125
-91.552734375
-70.49560546875
-77.81982421875
-74.15771484375
-60.4248046875
-72.32666015625
-75.0732421875
-68.66455078125
-65.91796875
-68.66455078125
-70.49560546875
-72.32666015625
-70.49560546875
-68.66455078125
-57.67822265625
-77.81982421875
-72.32666015625
-78.7353515625
-75.98876953125
-83.31298828125
-72.32666015625
-72.32666015625
-74.15771484375
-63.17138671875
-69.580078125
-56.7626953125
-48.52294921875
-54.01611328125
-34.7900390625
-49.4384765625
-80.56640625
-84.228515625
-65.91796875
-51.26953125
-22.88818359375
-29.296875
-62.255859375
-64.0869140625
-38.4521484375
-42.1142578125
-38.4521484375
-22.88818359375
-11.90185546875
-7.32421875
9.1552734375
15.56396484375
-4.57763671875
-17.39501953125
-8.23974609375
-7.32421875
-26.55029296875
-52.18505859375
-49.4384765625
-48.52294921875
-43.02978515625
-56.7626953125
-62.255859375
-65.91796875
-66.83349609375
-59.50927734375
-50.35400390625
-65.00244140625
-64.0869140625
-54.01611328125
-46.69189453125
-45.7763671875
-59.50927734375
-68.66455078125
-84.228515625
-91.552734375
-91.552734375
-85.14404296875
-93.3837890625
-103.45458984375
-95.21484375
-99.79248046875
-87.890625
-89.7216796875
-91.552734375
-82.3974609375
-88.80615234375
-83.31298828125
-85.14404296875
-82.3974609375
-83.31298828125
-87.890625
-88.80615234375
-85.14404296875
-73.2421875
-68.66455078125
-89.7216796875
-79.65087890625
-72.32666015625
-80.56640625
-75.98876953125
-83.31298828125
-104.3701171875
-125.42724609375
-116.27197265625
-75.0732421875
-18.310546875
44.86083984375
125.42724609375
169.37255859375
196.83837890625
250.8544921875
323.18115234375
406.494140625
515.44189453125
621.64306640625
704.9560546875
819.39697265625
975.9521484375
1122.4365234375
1154.47998046875
1012.5732421875
781.8603515625
525.5126953125
360.7177734375
261.8408203125
147.39990234375
52.18505859375
26.55029296875
-5.4931640625
-83.31298828125
-151.9775390625
-200.50048828125
-233.45947265625
-241.69921875
-226.13525390625
-214.2333984375
-201.416015625
-183.10546875
-152.89306640625
-118.10302734375
-88.80615234375
-76.904296875
-58.59375
-52.18505859375
-45.7763671875
-53.1005859375
-60.4248046875
-56.7626953125
-49.4384765625
-44.86083984375
-32.04345703125
-41.19873046875
-53.1005859375
-63.17138671875
-46.69189453125
-53.1005859375
-43.02978515625
-58.59375
-54.931640625
-52.18505859375
-44.86083984375
-36.62109375
-33.87451171875
-33.87451171875
-33.87451171875
-32.04345703125
-32.04345703125
-41.19873046875
-36.62109375
-44.86083984375
-35.70556640625
-37.53662109375
-38.4521484375
-28.38134765625
-19.22607421875
-29.296875
-35.70556640625
-39.36767578125
-21.05712890625
-2.74658203125
-20.1416015625
-20.1416015625
-17.39501953125
-8.23974609375
-12.8173828125
-20.1416015625
-9.1552734375
-10.07080078125
-18.310546875
-10.07080078125
-7.32421875
-0.91552734375
-3.662109375
-9.1552734375
8.23974609375
-7.32421875
7.32421875
18.310546875
-4.57763671875
-9.1552734375
-2.74658203125
5.4931640625
17.39501953125
11.90185546875
12.8173828125
21.05712890625
25.634765625
43.9453125
43.02978515625
40.283203125
44.86083984375
38.4521484375
31.1279296875
36.62109375
54.931640625
59.50927734375
58.59375
72.32666015625
67.7490234375
71.4111328125
71.4111328125
84.228515625
91.552734375
94.29931640625
85.14404296875
99.79248046875
100.7080078125
100.7080078125
119.0185546875
126.3427734375
126.3427734375
128.173828125
132.75146484375
134.58251953125
129.08935546875
139.16015625
146.484375
157.470703125
164.794921875
151.06201171875
146.484375
155.6396484375
175.78125
162.9638671875
169.37255859375
169.37255859375
167.54150390625
160.21728515625
153.80859375
151.9775390625
162.9638671875
162.04833984375
171.20361328125
165.71044921875
174.86572265625
154.72412109375
133.6669921875
125.42724609375
134.58251953125
127.25830078125
110.77880859375
98.876953125
93.3837890625
90.63720703125
76.904296875
58.59375
50.35400390625
41.19873046875
30.21240234375
31.1279296875
23.8037109375
-1.8310546875
4.57763671875
7.32421875
-8.23974609375
-21.97265625
-37.53662109375
-36.62109375
-33.87451171875
-49.4384765625
-50.35400390625
-40.283203125
-58.59375
-49.4384765625
-48.52294921875
-46.69189453125
-55.84716796875
-55.84716796875
-55.84716796875
-65.91796875
-61.34033203125
-55.84716796875
-79.65087890625
-81.48193359375
-76.904296875
-68.66455078125
-68.66455078125
-75.98876953125
-78.7353515625
-62.255859375
-76.904296875
-84.228515625
-72.32666015625
-71.4111328125
-72.32666015625
-88.80615234375
-83.31298828125
-78.7353515625
-68.66455078125
-80.56640625
-76.904296875
-74.15771484375
-74.15771484375
-85.14404296875
-80.56640625
-86.97509765625
-72.32666015625
-79.65087890625
-64.0869140625
-66.83349609375
-72.32666015625
-64.0869140625
-66.83349609375
-64.0869140625
-61.34033203125
-86.97509765625
-79.65087890625
-59.50927734375
-54.931640625
-65.91796875
-61.34033203125
-67.7490234375
-75.0732421875
-73.2421875
-63.17138671875
-73.2421875
-68.66455078125
-77.81982421875
-78.7353515625
-56.7626953125
-56.7626953125
-71.4111328125
-65.00244140625
-65.91796875
-60.4248046875
-60.4248046875
-57.67822265625
-64.0869140625
-65.00244140625
-59.50927734375
-65.91796875
-65.00244140625
-62.255859375
-67.7490234375
-65.00244140625
-60.4248046875
-61.34033203125
-62.255859375
-61.34033203125
-57.67822265625
-57.67822265625
-59.50927734375
-69.580078125
-62.255859375
-58.59375
-55.84716796875
-51.26953125
-60.4248046875
-54.01611328125
-49.4384765625
-61.34033203125
-64.0869140625
-71.4111328125
-67.7490234375
-54.931640625
-53.1005859375
-48.52294921875
-58.59375
-75.0732421875
-54.931640625
-55.84716796875
-60.4248046875
-56.7626953125
-52.18505859375
-57.67822265625
-54.931640625
-69.580078125
-75.0732421875
-78.7353515625
-60.4248046875
-58.59375
-76.904296875
-73.2421875
-67.7490234375
-54.01611328125
-69.580078125
-75.0732421875
-72.32666015625
-65.00244140625
-64.0869140625
-85.14404296875
-69.580078125
-72.32666015625
-65.91796875
-63.17138671875
-67.7490234375
-73.2421875
-85.14404296875
-76.904296875
-78.7353515625
-69.580078125
-75.98876953125
-74.15771484375
-77.81982421875
-77.81982421875
-75.0732421875
-75.98876953125
-82.3974609375
-52.18505859375
-61.34033203125
-72.32666015625
-83.31298828125
-75.0732421875
-74.15771484375
-77.81982421875
-69.580078125
-76.904296875
-79.65087890625
-64.0869140625
-61.34033203125
-76.904296875
-72.32666015625
-66.83349609375
-69.580078125
-77.81982421875
-70.49560546875
-75.98876953125
-76.904296875
-72.32666015625
-54.01611328125
-69.580078125
-72.32666015625
-67.7490234375
-70.49560546875
-68.66455078125
-83.31298828125
-83.31298828125
-74.15771484375
-58.59375
-73.2421875
-75.0732421875
-75.0732421875
-67.7490234375
-74.15771484375
-61.34033203125
-57.67822265625
-75.98876953125
-77.81982421875
-70.49560546875
-71.4111328125
-58.59375
-61.34033203125
-76.904296875
-76.904296875
-43.9453125
-57.67822265625
-71.4111328125
-63.17138671875
-71.4111328125
-61.34033203125
-40.283203125
-35.70556640625
-43.02978515625
-50.35400390625
-45.7763671875
-52.18505859375
-50.35400390625
-47.607421875
-20.1416015625
-8.23974609375
-4.57763671875
-4.57763671875
-11.90185546875
5.4931640625
4.57763671875
-7.32421875
-14.6484375
-27.4658203125
-33.87451171875
-44.86083984375
-52.18505859375
-59.50927734375
-59.50927734375
-54.931640625
-46.69189453125
-55.84716796875
-59.50927734375
-64.0869140625
-61.34033203125
-47.607421875
-62.255859375
-72.32666015625
-65.00244140625
-69.580078125
-74.15771484375
-96.13037109375
-85.14404296875
-90.63720703125
-93.3837890625
-84.228515625
-87.890625
-97.0458984375
-93.3837890625
-80.56640625
-86.97509765625
-94.29931640625
-83.31298828125
-92.46826171875
-93.3837890625
-98.876953125
-83.31298828125
-74.15771484375
-90.63720703125
-92.46826171875
-75.0732421875
-75.98876953125
-81.48193359375
-94.29931640625
-75.98876953125
-69.580078125
-73.2421875
-75.98876953125
-78.7353515625
-93.3837890625
-100.7080078125
-76.904296875
-45.7763671875
1.8310546875
79.65087890625
154.72412109375
201.416015625
214.2333984375
267.333984375
346.98486328125
444.9462890625
552.06298828125
628.96728515625
725.09765625
872.49755859375
1039.12353515625
1159.97314453125
1112.36572265625
933.837890625
677.490234375
445.86181640625
316.7724609375
220.64208984375
126.3427734375
44.86083984375
16.4794921875
-22.88818359375
-97.0458984375
-154.72412109375
-203.2470703125
-227.05078125
-221.5576171875
-207.82470703125
-194.091796875
-179.443359375
-161.1328125
-135.498046875
-100.7080078125
-65.00244140625
-57.67822265625
-38.4521484375
-45.7763671875
-42.1142578125
-36.62109375
-32.04345703125
-47.607421875
-36.62109375
-37.53662109375
-43.9453125
-33.87451171875
-46.69189453125
-47.607421875
-40.283203125
-35.70556640625
-29.296875
-41.19873046875
-36.62109375
-41.19873046875
-46.69189453125
-19.22607421875
-23.8037109375
-32.958984375
-35.70556640625
-31.1279296875
-15.56396484375
-20.1416015625
-32.04345703125
-26.55029296875
-28.38134765625
-26.55029296875
-33.87451171875
-32.04345703125
-14.6484375
-24.71923828125
-23.8037109375
-14.6484375
-22.88818359375
-33.87451171875
-15.56396484375
1.8310546875
-10.07080078125
-8.23974609375
-8.23974609375
-10.07080078125
-2.74658203125
3.662109375
-0.91552734375
-9.1552734375
-26.55029296875
0.91552734375
8.23974609375
-0.91552734375
-7.32421875
-1.8310546875
16.4794921875
13.73291015625
11.90185546875
20.1416015625
10.986328125
16.4794921875
21.05712890625
37.53662109375
16.4794921875
19.22607421875
31.1279296875
32.958984375
40.283203125
43.02978515625
32.958984375
38.4521484375
40.283203125
54.931640625
57.67822265625
63.17138671875
74.15771484375
77.81982421875
83.31298828125
93.3837890625
86.97509765625
72.32666015625
94.29931640625
91.552734375
84.228515625
99.79248046875
118.10302734375
119.93408203125
120.849609375
122.6806640625
119.0185546875
130.0048828125
137.3291015625
135.498046875
124.51171875
130.92041015625
147.39990234375
156.55517578125
153.80859375
142.822265625
128.173828125
150.146484375
177.6123046875
173.9501953125
167.54150390625
163.87939453125
172.119140625
179.443359375
166.6259765625
152.89306640625
157.470703125
151.9775390625
163.87939453125
151.06201171875
146.484375
131.8359375
132.75146484375
127.25830078125
108.94775390625
110.77880859375
98.876953125
96.13037109375
97.0458984375
80.56640625
86.0595703125
64.0869140625
47.607421875
49.4384765625
35.70556640625
19.22607421875
21.97265625
7.32421875
-0.91552734375
-2.74658203125
-12.8173828125
-9.1552734375
-13.73291015625
-17.39501953125
-26.55029296875
-40.283203125
-53.1005859375
-42.1142578125
-45.7763671875
-49.4384765625
-56.7626953125
-65.91796875
-56.7626953125
-58.59375
-65.00244140625
-65.00244140625
-65.00244140625
-75.0732421875
-75.98876953125
-73.2421875
-74.15771484375
-76.904296875
-77.81982421875
-68.66455078125
-65.91796875
-77.81982421875
-75.0732421875
-88.80615234375
-82.3974609375
-72.32666015625
-93.3837890625
-85.14404296875
-91.552734375
-74.15771484375
-69.580078125
-76.904296875
-82.3974609375
-74.15771484375
-69.580078125
-79.65087890625
-77.81982421875
-75.98876953125
-82.3974609375
-89.7216796875
-88.80615234375
-77.81982421875
-78.7353515625
-74.15771484375
-85.14404296875
-82.3974609375
-92.46826171875
-79.65087890625
-66.83349609375
-76.904296875
-57.67822265625
-70.49560546875
-77.81982421875
-85.14404296875
-76.904296875
-98.876953125
-73.2421875
-70.49560546875
-74.15771484375
-71.4111328125
-65.91796875
-71.4111328125
-70.49560546875
-69.580078125
-65.91796875
-81.48193359375
-66.83349609375
-67.7490234375
-61.34033203125
-65.00244140625
-53.1005859375
-67.7490234375
-75.98876953125
-56.7626953125
-71.4111328125
-70.49560546875
-70.49560546875
-69.580078125
-74.15771484375
-54.01611328125
-54.931640625
-68.66455078125
-68.66455078125
-59.50927734375
-65.00244140625
-66.83349609375
-67.7490234375
-64.0869140625
-68.66455078125
-57.67822265625
-62.255859375
-67.7490234375
-65.91796875
-44.86083984375
-63.17138671875
-74.15771484375
-78.7353515625
-65.00244140625
-74.15771484375
-71.4111328125
-69.580078125
-72.32666015625
-69.580078125
-78.7353515625
-82.3974609375
-75.0732421875
-74.15771484375
-68.66455078125
-63.17138671875
-69.580078125
-73.2421875
-73.2421875
-69.580078125
-74.15771484375
-83.31298828125
-79.65087890625
-78.7353515625
-77.81982421875
-84.228515625
-77.81982421875
-81.48193359375
-92.46826171875
-75.98876953125
-86.97509765625
-77.81982421875
-72.32666015625
-104.3701171875
-85.14404296875
-72.32666015625
-62.255859375
-76.904296875
-86.97509765625
-95.21484375
-83.31298828125
-74.15771484375
-65.00244140625
-78.7353515625
-84.228515625
-84.228515625
-77.81982421875
-79.65087890625
-91.552734375
-76.904296875
-78.7353515625
-79.65087890625
-65.91796875
-81.48193359375
-84.228515625
-82.3974609375
-80.56640625
-78.7353515625
-77.81982421875
-88.80615234375
-82.3974609375
-88.80615234375
-95.21484375
-80.56640625
-79.65087890625
-67.7490234375
-82.3974609375
-87.890625
-75.98876953125
-76.904296875
-81.48193359375
-84.228515625
-82.3974609375
-91.552734375
-94.29931640625
-89.7216796875
-87.890625
-71.4111328125
-74.15771484375
-79.65087890625
-66.83349609375
-67.7490234375
-66.83349609375
-90.63720703125
-96.13037109375
-76.904296875
-77.81982421875
-66.83349609375
-75.0732421875
-73.2421875
-59.50927734375
-75.0732421875
-60.4248046875
-69.580078125
-51.26953125
-43.02978515625
-26.55029296875
-17.39501953125
-11.90185546875
-6.40869140625
-14.6484375
-6.40869140625
-18.310546875
-32.04345703125
-47.607421875
-52.18505859375
-58.59375
-64.0869140625
-69.580078125
-55.84716796875
-59.50927734375
-80.56640625
-74.15771484375
-71.4111328125
-62.255859375
-59.50927734375
-66.83349609375
-72.32666015625
-80.56640625
-72.32666015625
-77.81982421875
-80.56640625
-95.21484375
-112.60986328125
-113.525390625
-111.6943359375
-106.201171875
-108.0322265625
-108.94775390625
-106.201171875
-113.525390625
-107.11669921875
-106.201171875
-111.6943359375
-108.94775390625
-112.60986328125
-113.525390625
-101.62353515625
-106.201171875
-103.45458984375
-105.28564453125
-113.525390625
-87.890625
-91.552734375
-87.890625
-90.63720703125
-91.552734375
-75.0732421875
-109.86328125
-86.97509765625
-98.876953125
-124.51171875
-136.41357421875
-116.27197265625
-54.01611328125
15.56396484375
86.0595703125
155.6396484375
163.87939453125
183.10546875
243.5302734375
319.51904296875
426.6357421875
503.5400390625
587.7685546875
680.23681640625
845.03173828125
981.4453125
1042.78564453125
942.9931640625
725.09765625
476.98974609375
335.99853515625
237.12158203125
162.9638671875
85.14404296875
62.255859375
64.0869140625
37.53662109375
-37.53662109375
-100.7080078125
-170.2880859375
-228.8818359375
-257.26318359375
-251.77001953125
-208.740234375
-208.740234375
-213.31787109375
-204.16259765625
-175.78125
-146.484375
-110.77880859375
-84.228515625
-86.97509765625
-81.48193359375
-77.81982421875
-78.7353515625
-76.904296875
-76.904296875
-70.49560546875
-70.49560546875
-72.32666015625
-75.98876953125
-73.2421875
-65.00244140625
-78.7353515625
-75.98876953125
-65.91796875
-54.931640625
-60.4248046875
-75.98876953125
-65.00244140625
-62.255859375
-57.67822265625
-66.83349609375
-68.66455078125
-45.7763671875
-36.62109375
-68.66455078125
-65.91796875
-53.1005859375
-44.86083984375
-74.15771484375
-69.580078125
-65.00244140625
-66.83349609375
-64.0869140625
-49.4384765625
-53.1005859375
-51.26953125
-49.4384765625
-46.69189453125
-40.283203125
-37.53662109375
-53.1005859375
-28.38134765625
-21.05712890625
-27.4658203125
-27.4658203125
-28.38134765625
-43.9453125
-39.36767578125
-39.36767578125
-29.296875
-32.04345703125
-39.36767578125
-24.71923828125
-9.1552734375
-21.97265625
-16.4794921875
-14.6484375
-25.634765625
-16.4794921875
-22.88818359375
-4.57763671875
-10.07080078125
-15.56396484375
0.91552734375
-7.32421875
7.32421875
21.97265625
17.39501953125
5.4931640625
18.310546875
35.70556640625
31.1279296875
39.36767578125
40.283203125
32.04345703125
38.4521484375
64.0869140625
64.0869140625
54.931640625
47.607421875
73.2421875
54.931640625
75.0732421875
85.14404296875
72.32666015625
89.7216796875
84.228515625
92.46826171875
94.29931640625
89.7216796875
91.552734375
109.86328125
115.3564453125
112.60986328125
104.3701171875
117.1875
139.16015625
125.42724609375
119.0185546875
117.1875
128.173828125
139.16015625
129.08935546875
124.51171875
121.76513671875
122.6806640625
124.51171875
105.28564453125
110.77880859375
99.79248046875
108.0322265625
95.21484375
95.21484375
99.79248046875
86.0595703125
61.34033203125
62.255859375
49.4384765625
69.580078125
43.02978515625
35.70556640625
35.70556640625
12.8173828125
0
19.22607421875
9.1552734375
-10.07080078125
-15.56396484375
-28.38134765625
-32.958984375
-46.69189453125
-48.52294921875
-41.19873046875
-50.35400390625
-66.83349609375
-64.0869140625
-71.4111328125
-65.91796875
-71.4111328125
-67.7490234375
-84.228515625
-75.0732421875
-69.580078125
-63.17138671875
-70.49560546875
-82.3974609375
-94.29931640625
-94.29931640625
-78.7353515625
-94.29931640625
-90.63720703125
-86.0595703125
-103.45458984375
-76.904296875
-96.13037109375
-89.7216796875
-86.97509765625
-81.48193359375
-108.0322265625
-90.63720703125
-86.0595703125
-91.552734375
-86.0595703125
-89.7216796875
-97.96142578125
-100.7080078125
-91.552734375
-97.96142578125
-90.63720703125
-100.7080078125
-98.876953125
-91.552734375
-87.890625
-86.0595703125
-103.45458984375
-106.201171875
-77.81982421875
-82.3974609375
-90.63720703125
-81.48193359375
-67.7490234375
-85.14404296875
-78.7353515625
-79.65087890625
-93.3837890625
-94.29931640625
-91.552734375
-85.14404296875
-84.228515625
-87.890625
-99.79248046875
-82.3974609375
-66.83349609375
-75.98876953125
-80.56640625
-74.15771484375
-66.83349609375
-72.32666015625
-81.48193359375
-87.890625
-87.890625
-82.3974609375
-60.4248046875
-51.26953125
-79.65087890625
-83.31298828125
-69.580078125
-76.904296875
-84.228515625
-76.904296875
-95.21484375
-91.552734375
-99.79248046875
-74.15771484375
-73.2421875
-74.15771484375
-84.228515625
-76.904296875
-81.48193359375
-85.14404296875
-78.7353515625
-79.65087890625
-74.15771484375
-73.2421875
-72.32666015625
-75.0732421875
-75.0732421875
-71.4111328125
-80.56640625
-84.228515625
-80.56640625
-81.48193359375
-92.46826171875
-85.14404296875
-84.228515625
-80.56640625
-71.4111328125
-96.13037109375
-91.552734375
-95.21484375
-101.62353515625
-92.46826171875
-78.7353515625
-84.228515625
-92.46826171875
-73.2421875
-78.7353515625
-78.7353515625
-86.0595703125
-90.63720703125
-107.11669921875
-98.876953125
-83.31298828125
-83.31298828125
-81.48193359375
-89.7216796875
-91.552734375
-88.80615234375
-88.80615234375
-91.552734375
-89.7216796875
-101.62353515625
-104.3701171875
-83.31298828125
-82.3974609375
-92.46826171875
-80.56640625
-78.7353515625
-86.97509765625
-92.46826171875
-97.96142578125
-90.63720703125
-86.0595703125
-77.81982421875
-85.14404296875
-87.890625
-78.7353515625
-86.0595703125
-89.7216796875
-80.56640625
-95.21484375
-97.96142578125
-86.0595703125
-78.7353515625
-82.3974609375
-68.66455078125
-75.0732421875
-82.3974609375
-75.98876953125
-77.81982421875
-77.81982421875
-65.91796875
-53.1005859375
-36.62109375
-33.87451171875
-29.296875
-11.90185546875
2.74658203125
-21.97265625
-40.283203125
-36.62109375
-49.4384765625
-45.7763671875
-62.255859375
-56.7626953125
-62.255859375
-66.83349609375
-65.00244140625
-71.4111328125
-70.49560546875
-88.80615234375
-73.2421875
-66.83349609375
-82.3974609375
-77.81982421875
-78.7353515625
-69.580078125
-68.66455078125
-91.552734375
-113.525390625
-109.86328125
-106.201171875
-108.0322265625
