ECG
65.00244140625
58.59375
55.84716796875
53.1005859375
53.1005859375
56.7626953125
57.67822265625
61.34033203125
56.7626953125
54.01611328125
64.0869140625
67.7490234375
74.15771484375
69.580078125
72.32666015625
76.904296875
86.0595703125
96.13037109375
97.0458984375
104.3701171875
107.11669921875
88.80615234375
92.46826171875
104.3701171875
100.7080078125
99.79248046875
105.28564453125
114.44091796875
118.10302734375
130.92041015625
141.90673828125
139.16015625
140.9912109375
139.16015625
134.58251953125
133.6669921875
142.822265625
154.72412109375
161.1328125
166.6259765625
167.54150390625
169.37255859375
161.1328125
169.37255859375
177.6123046875
184.9365234375
184.02099609375
197.75390625
219.7265625
233.45947265625
238.037109375
242.61474609375
248.10791015625
256.34765625
265.5029296875
275.57373046875
280.1513671875
288.39111328125
289.306640625
294.7998046875
303.955078125
311.279296875
325.01220703125
341.49169921875
358.88671875
380.859375
408.3251953125
429.38232421875
440.36865234375
442.19970703125
436.70654296875
453.18603515625
455.01708984375
465.087890625
473.32763671875
478.82080078125
486.14501953125
502.62451171875
513.61083984375
514.5263671875
517.27294921875
522.76611328125
525.5126953125
525.5126953125
520.93505859375
520.93505859375
523.681640625
525.5126953125
523.681640625
521.8505859375
509.033203125
488.8916015625
476.98974609375
461.42578125
454.1015625
433.9599609375
416.56494140625
407.40966796875
387.26806640625
363.46435546875
334.16748046875
316.7724609375
297.54638671875
273.74267578125
249.93896484375
227.05078125
209.65576171875
196.83837890625
176.69677734375
154.72412109375
131.8359375
115.3564453125
104.3701171875
92.46826171875
75.0732421875
67.7490234375
48.52294921875
31.1279296875
32.04345703125
32.04345703125
21.05712890625
10.07080078125
-5.4931640625
-8.23974609375
-3.662109375
-17.39501953125
-21.05712890625
-29.296875
-26.55029296875
-32.04345703125
-27.4658203125
-38.4521484375
-40.283203125
-43.9453125
-52.18505859375
-51.26953125
-56.7626953125
-53.1005859375
-49.4384765625
-44.86083984375
-45.7763671875
-50.35400390625
-67.7490234375
-65.00244140625
-52.18505859375
-55.84716796875
-55.84716796875
-57.67822265625
-58.59375
-62.255859375
-63.17138671875
-54.931640625
-48.52294921875
-47.607421875
-55.84716796875
-57.67822265625
-54.01611328125
-54.01611328125
-51.26953125
-49.4384765625
-55.84716796875
-57.67822265625
-55.84716796875
-56.7626953125
-61.34033203125
-63.17138671875
-65.91796875
-65.91796875
-64.0869140625
-59.50927734375
-62.255859375
-62.255859375
-61.34033203125
-66.83349609375
-68.66455078125
-71.4111328125
-73.2421875
-58.59375
-58.59375
-56.7626953125
-54.01611328125
-54.01611328125
-56.7626953125
-60.4248046875
-64.0869140625
-65.00244140625
-65.91796875
-62.255859375
-57.67822265625
-57.67822265625
-54.931640625
-63.17138671875
-56.7626953125
-59.50927734375
-58.59375
-65.91796875
-66.83349609375
-64.0869140625
-62.255859375
-62.255859375
-61.34033203125
-63.17138671875
-62.255859375
-71.4111328125
-69.580078125
-69.580078125
-63.17138671875
-60.4248046875
-63.17138671875
-69.580078125
-76.904296875
-79.65087890625
-75.98876953125
-78.7353515625
-75.0732421875
-83.31298828125
-82.3974609375
-76.904296875
-72.32666015625
-69.580078125
-75.98876953125
-78.7353515625
-76.904296875
-78.7353515625
-83.31298828125
-89.7216796875
-90.63720703125
-82.3974609375
-79.65087890625
-77.81982421875
-74.15771484375
-76.904296875
-84.228515625
-97.96142578125
-101.62353515625
-94.29931640625
-86.97509765625
-80.56640625
-87.890625
-83.31298828125
-83.31298828125
-77.81982421875
-82.3974609375
-83.31298828125
-86.0595703125
-95.21484375
-98.876953125
-92.46826171875
-86.97509765625
-87.890625
-90.63720703125
-97.0458984375
-96.13037109375
-97.0458984375
-97.96142578125
-93.3837890625
-97.0458984375
-91.552734375
-99.79248046875
-99.79248046875
-102.5390625
-100.7080078125
-94.29931640625
-96.13037109375
-96.13037109375
-99.79248046875
-100.7080078125
-100.7080078125
-95.21484375
-84.228515625
-84.228515625
-86.0595703125
-89.7216796875
-92.46826171875
-86.97509765625
-91.552734375
-89.7216796875
-90.63720703125
-89.7216796875
-90.63720703125
-85.14404296875
-92.46826171875
-97.0458984375
-99.79248046875
-98.876953125
-97.0458984375
-96.13037109375
-96.13037109375
-93.3837890625
-86.97509765625
-97.0458984375
-102.5390625
-103.45458984375
-106.201171875
-103.45458984375
-109.86328125
-110.77880859375
-107.11669921875
-97.96142578125
-97.0458984375
-99.79248046875
-95.21484375
-91.552734375
-91.552734375
-89.7216796875
-94.29931640625
-95.21484375
-96.13037109375
-94.29931640625
-94.29931640625
-90.63720703125
-93.3837890625
-99.79248046875
-108.0322265625
-108.94775390625
-109.86328125
-108.0322265625
-93.3837890625
-88.80615234375
-89.7216796875
-97.96142578125
-94.29931640625
-91.552734375
-93.3837890625
-95.21484375
-101.62353515625
-102.5390625
-98.876953125
-97.96142578125
-92.46826171875
-92.46826171875
-95.21484375
-105.28564453125
-100.7080078125
-102.5390625
-108.94775390625
-109.86328125
-92.46826171875
-87.890625
-94.29931640625
-100.7080078125
-102.5390625
-103.45458984375
-107.11669921875
-107.11669921875
-108.94775390625
-99.79248046875
-97.0458984375
-96.13037109375
-103.45458984375
-107.11669921875
-103.45458984375
-107.11669921875
-105.28564453125
-99.79248046875
-104.3701171875
-104.3701171875
-100.7080078125
-104.3701171875
-99.79248046875
-103.45458984375
-110.77880859375
-108.0322265625
-121.76513671875
-132.75146484375
-121.76513671875
-111.6943359375
-99.79248046875
-97.96142578125
-93.3837890625
-112.60986328125
-114.44091796875
-101.62353515625
-106.201171875
-106.201171875
-108.94775390625
-105.28564453125
-84.228515625
-82.3974609375
-87.890625
-89.7216796875
-86.0595703125
-82.3974609375
-88.80615234375
-80.56640625
-84.228515625
-84.228515625
-76.904296875
-75.0732421875
-86.97509765625
-98.876953125
-98.876953125
-102.5390625
-102.5390625
-86.97509765625
-82.3974609375
-65.91796875
-61.34033203125
-53.1005859375
-54.931640625
-62.255859375
-72.32666015625
-77.81982421875
-86.97509765625
-86.97509765625
-80.56640625
-80.56640625
-68.66455078125
-71.4111328125
-72.32666015625
-75.0732421875
-74.15771484375
-68.66455078125
-75.98876953125
-75.0732421875
-81.48193359375
-92.46826171875
-97.96142578125
-98.876953125
-104.3701171875
-104.3701171875
-106.201171875
-107.11669921875
-101.62353515625
-108.94775390625
-120.849609375
-108.94775390625
-105.28564453125
-98.876953125
-99.79248046875
-99.79248046875
-105.28564453125
-108.94775390625
-104.3701171875
-107.11669921875
-112.60986328125
-115.3564453125
-112.60986328125
-99.79248046875
-96.13037109375
-102.5390625
-94.29931640625
-99.79248046875
-105.28564453125
-113.525390625
-114.44091796875
-109.86328125
-112.60986328125
-106.201171875
-110.77880859375
-94.29931640625
-97.0458984375
-108.0322265625
-103.45458984375
-101.62353515625
-102.5390625
-95.21484375
-98.876953125
-93.3837890625
-95.21484375
-94.29931640625
-95.21484375
-99.79248046875
-132.75146484375
-153.80859375
-187.68310546875
-206.9091796875
-222.47314453125
-225.2197265625
-212.40234375
-169.37255859375
-88.80615234375
17.39501953125
162.04833984375
356.14013671875
548.40087890625
751.64794921875
972.2900390625
1190.185546875
1332.09228515625
1370.54443359375
1322.021484375
1244.20166015625
1107.7880859375
897.216796875
660.09521484375
455.01708984375
248.10791015625
72.32666015625
-36.62109375
-57.67822265625
-88.80615234375
-122.6806640625
-150.146484375
-151.06201171875
-134.58251953125
-97.0458984375
-57.67822265625
-32.958984375
-14.6484375
-11.90185546875
-21.97265625
-31.1279296875
-39.36767578125
-29.296875
-38.4521484375
-35.70556640625
-33.87451171875
-33.87451171875
-34.7900390625
-30.21240234375
-35.70556640625
-41.19873046875
-47.607421875
-43.9453125
-50.35400390625
-47.607421875
-38.4521484375
-40.283203125
-42.1142578125
-25.634765625
-22.88818359375
-34.7900390625
-33.87451171875
-41.19873046875
-44.86083984375
-43.02978515625
-34.7900390625
-39.36767578125
-35.70556640625
-37.53662109375
-34.7900390625
-35.70556640625
-35.70556640625
-39.36767578125
-38.4521484375
-34.7900390625
-32.958984375
-24.71923828125
-17.39501953125
-21.97265625
-20.1416015625
-16.4794921875
-30.21240234375
-21.05712890625
-9.1552734375
-21.97265625
-17.39501953125
-13.73291015625
-7.32421875
-5.4931640625
-4.57763671875
-7.32421875
-21.97265625
5.4931640625
21.05712890625
8.23974609375
10.986328125
16.4794921875
17.39501953125
26.55029296875
34.7900390625
39.36767578125
33.87451171875
30.21240234375
33.87451171875
42.1142578125
43.9453125
48.52294921875
48.52294921875
47.607421875
49.4384765625
46.69189453125
50.35400390625
54.931640625
56.7626953125
67.7490234375
82.3974609375
85.14404296875
88.80615234375
86.0595703125
90.63720703125
101.62353515625
103.45458984375
97.96142578125
108.94775390625
116.27197265625
123.59619140625
131.8359375
139.16015625
148.3154296875
156.55517578125
162.9638671875
173.9501953125
177.6123046875
185.85205078125
199.5849609375
213.31787109375
227.05078125
236.2060546875
244.44580078125
255.43212890625
260.92529296875
260.92529296875
270.08056640625
291.1376953125
307.6171875
307.6171875
320.4345703125
334.16748046875
346.0693359375
366.2109375
390.93017578125
397.3388671875
388.18359375
395.5078125
409.24072265625
400.08544921875
412.90283203125
437.6220703125
453.18603515625
448.6083984375
444.03076171875
446.77734375
452.2705078125
445.86181640625
440.36865234375
442.19970703125
447.69287109375
445.86181640625
436.70654296875
425.72021484375
414.73388671875
399.169921875
378.11279296875
357.97119140625
333.251953125
328.67431640625
317.68798828125
292.96875
278.3203125
254.5166015625
218.81103515625
210.5712890625
197.75390625
164.794921875
142.822265625
124.51171875
108.94775390625
99.79248046875
78.7353515625
50.35400390625
42.1142578125
27.4658203125
19.22607421875
4.57763671875
-6.40869140625
-17.39501953125
-28.38134765625
-41.19873046875
-49.4384765625
-48.52294921875
-57.67822265625
-67.7490234375
-79.65087890625
-90.63720703125
-88.80615234375
-91.552734375
-91.552734375
-86.97509765625
-97.0458984375
-104.3701171875
-99.79248046875
-102.5390625
-119.0185546875
-120.849609375
-119.0185546875
-119.93408203125
-117.1875
-113.525390625
-116.27197265625
-111.6943359375
-121.76513671875
-125.42724609375
-126.3427734375
-134.58251953125
-128.173828125
-123.59619140625
-123.59619140625
-117.1875
-122.6806640625
-128.173828125
-124.51171875
-130.92041015625
-133.6669921875
-123.59619140625
-122.6806640625
-123.59619140625
-116.27197265625
-116.27197265625
-111.6943359375
-108.0322265625
-114.44091796875
-111.6943359375
-116.27197265625
-114.44091796875
-111.6943359375
-111.6943359375
-107.11669921875
-116.27197265625
-120.849609375
-119.0185546875
-111.6943359375
-118.10302734375
-116.27197265625
-119.0185546875
-124.51171875
-113.525390625
-117.1875
-108.94775390625
-108.94775390625
-103.45458984375
-108.94775390625
-117.1875
-116.27197265625
-119.0185546875
-121.76513671875
-123.59619140625
-115.3564453125
-104.3701171875
-109.86328125
-111.6943359375
-115.3564453125
-114.44091796875
-118.10302734375
-124.51171875
-117.1875
-117.1875
-111.6943359375
-116.27197265625
-116.27197265625
-119.0185546875
-115.3564453125
-108.94775390625
-115.3564453125
-119.0185546875
-113.525390625
-119.93408203125
-123.59619140625
-120.849609375
-119.0185546875
-119.0185546875
-131.8359375
-130.92041015625
-122.6806640625
-124.51171875
-121.76513671875
-120.849609375
-125.42724609375
-119.93408203125
-121.76513671875
-125.42724609375
-131.8359375
-141.90673828125
-139.16015625
-140.9912109375
-142.822265625
-134.58251953125
-131.8359375
-125.42724609375
-129.08935546875
-130.0048828125
-131.8359375
-136.41357421875
-131.8359375
-147.39990234375
-148.3154296875
-148.3154296875
-138.24462890625
-132.75146484375
-139.16015625
-137.3291015625
-141.90673828125
-137.3291015625
-148.3154296875
-140.9912109375
-125.42724609375
-133.6669921875
-138.24462890625
-132.75146484375
-135.498046875
-142.822265625
-140.9912109375
-145.56884765625
-141.90673828125
-133.6669921875
-138.24462890625
-142.822265625
-143.73779296875
-133.6669921875
-132.75146484375
-144.6533203125
-144.6533203125
-141.90673828125
-140.9912109375
-141.90673828125
-141.90673828125
-136.41357421875
-130.0048828125
-133.6669921875
-140.07568359375
-140.07568359375
-141.90673828125
-140.07568359375
-148.3154296875
-151.9775390625
-156.55517578125
-139.16015625
-140.07568359375
-141.90673828125
-149.23095703125
-148.3154296875
-147.39990234375
-145.56884765625
-166.6259765625
-157.470703125
-143.73779296875
-146.484375
-139.16015625
-137.3291015625
-147.39990234375
-154.72412109375
-142.822265625
-138.24462890625
-145.56884765625
-145.56884765625
-135.498046875
-144.6533203125
-146.484375
-140.07568359375
-140.07568359375
-133.6669921875
-121.76513671875
-129.08935546875
-133.6669921875
-132.75146484375
-134.58251953125
-126.3427734375
-131.8359375
-134.58251953125
-138.24462890625
-144.6533203125
-141.90673828125
-130.92041015625
-129.08935546875
-119.0185546875
-110.77880859375
-109.86328125
-117.1875
-112.60986328125
-120.849609375
-136.41357421875
-131.8359375
-124.51171875
-119.0185546875
-114.44091796875
-99.79248046875
-105.28564453125
-98.876953125
-96.13037109375
-105.28564453125
-115.3564453125
-121.76513671875
-123.59619140625
-138.24462890625
-146.484375
-145.56884765625
-140.9912109375
-139.16015625
-141.90673828125
-146.484375
-155.6396484375
-150.146484375
-154.72412109375
-156.55517578125
-154.72412109375
-152.89306640625
-152.89306640625
-153.80859375
-148.3154296875
-151.9775390625
-152.89306640625
-155.6396484375
-155.6396484375
-146.484375
-146.484375
-147.39990234375
-139.16015625
-143.73779296875
-144.6533203125
-144.6533203125
-145.56884765625
-149.23095703125
-146.484375
-151.9775390625
-150.146484375
-147.39990234375
-137.3291015625
-141.90673828125
-139.16015625
-132.75146484375
-140.9912109375
-140.9912109375
-145.56884765625
-150.146484375
-151.9775390625
-151.9775390625
-139.16015625
-132.75146484375
-136.41357421875
-136.41357421875
-142.822265625
-155.6396484375
-179.443359375
-208.740234375
-221.5576171875
-235.29052734375
-249.93896484375
-244.44580078125
-227.05078125
-181.2744140625
-90.63720703125
28.38134765625
190.4296875
395.5078125
584.1064453125
781.8603515625
1003.41796875
1208.49609375
1314.697265625
1312.8662109375
1251.52587890625
1161.80419921875
1005.2490234375
775.45166015625
538.330078125
343.32275390625
134.58251953125
-3.662109375
-77.81982421875
-102.5390625
-130.92041015625
-169.37255859375
-190.4296875
-191.34521484375
-183.10546875
-135.498046875
-96.13037109375
-61.34033203125
-46.69189453125
-49.4384765625
-44.86083984375
-51.26953125
-60.4248046875
-72.32666015625
-85.14404296875
-74.15771484375
-71.4111328125
-67.7490234375
-61.34033203125
-60.4248046875
-72.32666015625
-77.81982421875
-80.56640625
-85.14404296875
-81.48193359375
-78.7353515625
-60.4248046875
-54.931640625
-61.34033203125
-66.83349609375
-69.580078125
-55.84716796875
-54.01611328125
-58.59375
-70.49560546875
-69.580078125
-59.50927734375
-56.7626953125
-54.931640625
-51.26953125
-49.4384765625
-47.607421875
-55.84716796875
-51.26953125
-46.69189453125
-42.1142578125
-39.36767578125
-40.283203125
-44.86083984375
-45.7763671875
-43.9453125
-38.4521484375
-37.53662109375
-34.7900390625
-34.7900390625
-33.87451171875
-26.55029296875
-24.71923828125
-13.73291015625
-9.1552734375
-17.39501953125
-22.88818359375
-17.39501953125
-11.90185546875
-16.4794921875
-9.1552734375
0
-8.23974609375
1.8310546875
8.23974609375
14.6484375
14.6484375
19.22607421875
19.22607421875
17.39501953125
21.05712890625
22.88818359375
34.7900390625
31.1279296875
40.283203125
43.02978515625
36.62109375
48.52294921875
45.7763671875
49.4384765625
62.255859375
66.83349609375
74.15771484375
77.81982421875
85.14404296875
95.21484375
95.21484375
89.7216796875
91.552734375
106.201171875
115.3564453125
119.93408203125
128.173828125
133.6669921875
153.80859375
167.54150390625
169.37255859375
173.9501953125
176.69677734375
185.85205078125
200.50048828125
216.97998046875
225.2197265625
238.037109375
247.1923828125
260.009765625
275.57373046875
288.39111328125
292.96875
298.4619140625
306.70166015625
326.84326171875
346.98486328125
356.14013671875
363.46435546875
376.28173828125
388.18359375
394.59228515625
401.91650390625
404.6630859375
417.48046875
426.6357421875
438.53759765625
441.2841796875
442.19970703125
445.86181640625
439.453125
443.115234375
441.2841796875
442.19970703125
441.2841796875
426.6357421875
415.6494140625
400.08544921875
388.18359375
376.28173828125
360.7177734375
343.32275390625
326.84326171875
313.1103515625
294.7998046875
274.658203125
243.5302734375
223.388671875
203.2470703125
173.03466796875
149.23095703125
136.41357421875
110.77880859375
90.63720703125
81.48193359375
62.255859375
43.9453125
31.1279296875
17.39501953125
-2.74658203125
-10.986328125
-21.05712890625
-32.958984375
-44.86083984375
-49.4384765625
-57.67822265625
-65.00244140625
-76.904296875
-86.0595703125
-95.21484375
-101.62353515625
-108.94775390625
-108.94775390625
-112.60986328125
-116.27197265625
-119.93408203125
-124.51171875
-123.59619140625
-125.42724609375
-126.3427734375
-134.58251953125
-131.8359375
-142.822265625
-138.24462890625
-141.90673828125
-138.24462890625
-137.3291015625
-138.24462890625
-132.75146484375
-140.9912109375
-138.24462890625
-140.07568359375
-138.24462890625
-137.3291015625
-143.73779296875
-142.822265625
-134.58251953125
-134.58251953125
-133.6669921875
-133.6669921875
-140.07568359375
-140.9912109375
-143.73779296875
-140.07568359375
-140.07568359375
-134.58251953125
-132.75146484375
-125.42724609375
-126.3427734375
-130.0048828125
-130.92041015625
-137.3291015625
-132.75146484375
-147.39990234375
-138.24462890625
-129.08935546875
-135.498046875
-119.93408203125
-110.77880859375
-114.44091796875
-121.76513671875
-121.76513671875
-121.76513671875
-127.25830078125
-120.849609375
-117.1875
-118.10302734375
-107.11669921875
-113.525390625
-117.1875
-112.60986328125
-119.93408203125
-119.93408203125
-119.0185546875
-116.27197265625
-119.0185546875
-114.44091796875
-113.525390625
-119.93408203125
-117.1875
-112.60986328125
-115.3564453125
-120.849609375
-127.25830078125
-129.08935546875
-123.59619140625
-113.525390625
-119.0185546875
-115.3564453125
-125.42724609375
-119.93408203125
-119.0185546875
-120.849609375
-124.51171875
-129.08935546875
-123.59619140625
-121.76513671875
-125.42724609375
-124.51171875
-125.42724609375
-119.93408203125
-131.8359375
-142.822265625
-138.24462890625
-126.3427734375
-126.3427734375
-127.25830078125
-124.51171875
-131.8359375
-129.08935546875
-123.59619140625
-132.75146484375
-137.3291015625
-143.73779296875
-139.16015625
-130.92041015625
-130.0048828125
-127.25830078125
-130.92041015625
-130.92041015625
-128.173828125
-130.0048828125
-129.08935546875
-132.75146484375
-137.3291015625
-138.24462890625
-133.6669921875
-126.3427734375
-127.25830078125
-138.24462890625
-140.9912109375
-135.498046875
-134.58251953125
-138.24462890625
-132.75146484375
-128.173828125
-123.59619140625
-132.75146484375
-129.08935546875
-132.75146484375
-138.24462890625
-141.90673828125
-142.822265625
-136.41357421875
-132.75146484375
-130.92041015625
-131.8359375
-136.41357421875
-128.173828125
-130.0048828125
-134.58251953125
-133.6669921875
-139.16015625
-138.24462890625
-136.41357421875
-137.3291015625
-133.6669921875
-121.76513671875
-123.59619140625
-134.58251953125
-139.16015625
-136.41357421875
-139.16015625
-134.58251953125
-130.92041015625
-132.75146484375
-135.498046875
-132.75146484375
-130.92041015625
-132.75146484375
-137.3291015625
-144.6533203125
-138.24462890625
-136.41357421875
-135.498046875
-129.08935546875
-123.59619140625
-127.25830078125
-134.58251953125
-137.3291015625
-135.498046875
-137.3291015625
-137.3291015625
-137.3291015625
-135.498046875
-133.6669921875
-124.51171875
-129.08935546875
-134.58251953125
-133.6669921875
-131.8359375
-122.6806640625
-127.25830078125
-133.6669921875
-128.173828125
-131.8359375
-125.42724609375
-117.1875
-124.51171875
-133.6669921875
-125.42724609375
-119.93408203125
-121.76513671875
-118.10302734375
-108.94775390625
-102.5390625
-105.28564453125
-99.79248046875
-97.0458984375
-108.94775390625
-120.849609375
-120.849609375
-117.1875
-105.28564453125
-102.5390625
-105.28564453125
-94.29931640625
-84.228515625
-84.228515625
-86.97509765625
-95.21484375
-98.876953125
-106.201171875
-107.11669921875
-98.876953125
-94.29931640625
-95.21484375
-86.0595703125
-92.46826171875
-96.13037109375
-95.21484375
-97.96142578125
-108.94775390625
-108.0322265625
-110.77880859375
-105.28564453125
-110.77880859375
-119.0185546875
-119.93408203125
-123.59619140625
-117.1875
-129.08935546875
-124.51171875
-130.0048828125
-136.41357421875
-126.3427734375
-130.92041015625
-130.92041015625
-122.6806640625
-118.10302734375
-120.849609375
-124.51171875
-124.51171875
-130.92041015625
-132.75146484375
-126.3427734375
-117.1875
-117.1875
-122.6806640625
-127.25830078125
-123.59619140625
-119.0185546875
-122.6806640625
-130.92041015625
-130.92041015625
-117.1875
-119.93408203125
-115.3564453125
-117.1875
-121.76513671875
-122.6806640625
-113.525390625
-115.3564453125
-115.3564453125
-117.1875
-120.849609375
-118.10302734375
-112.60986328125
-111.6943359375
-116.27197265625
-115.3564453125
-116.27197265625
-123.59619140625
-138.24462890625
-153.80859375
-165.71044921875
-176.69677734375
-198.66943359375
-207.82470703125
-200.50048828125
-176.69677734375
-101.62353515625
-10.07080078125
114.44091796875
287.4755859375
485.2294921875
685.72998046875
883.48388671875
1109.619140625
1288.14697265625
1366.88232421875
1376.953125
1307.373046875
1200.25634765625
1046.44775390625
836.7919921875
592.34619140625
381.77490234375
166.6259765625
2.74658203125
-89.7216796875
-118.10302734375
-146.484375
-164.794921875
-158.38623046875
-140.07568359375
-96.13037109375
-54.01611328125
-29.296875
-18.310546875
-22.88818359375
-28.38134765625
-27.4658203125
-34.7900390625
-36.62109375
-37.53662109375
-37.53662109375
-39.36767578125
-49.4384765625
-52.18505859375
-45.7763671875
-48.52294921875
-48.52294921875
-58.59375
-56.7626953125
-55.84716796875
-45.7763671875
-40.283203125
-43.9453125
-38.4521484375
-43.02978515625
-43.02978515625
-44.86083984375
-43.9453125
-35.70556640625
-32.958984375
-27.4658203125
-27.4658203125
-30.21240234375
-37.53662109375
-37.53662109375
-33.87451171875
-32.04345703125
-27.4658203125
-21.05712890625
-12.8173828125
-14.6484375
-21.05712890625
-15.56396484375
-14.6484375
-16.4794921875
-21.05712890625
-10.986328125
-16.4794921875
-11.90185546875
-7.32421875
-4.57763671875
-7.32421875
-0.91552734375
2.74658203125
-1.8310546875
-0.91552734375
0
-0.91552734375
6.40869140625
16.4794921875
19.22607421875
21.05712890625
15.56396484375
14.6484375
21.97265625
21.05712890625
21.97265625
24.71923828125
29.296875
43.9453125
44.86083984375
45.7763671875
51.26953125
55.84716796875
53.1005859375
58.59375
59.50927734375
62.255859375
70.49560546875
79.65087890625
79.65087890625
86.97509765625
92.46826171875
94.29931640625
97.0458984375
91.552734375
97.0458984375
108.0322265625
117.1875
126.3427734375
141.90673828125
149.23095703125
146.484375
159.3017578125
168.45703125
174.86572265625
182.18994140625
191.34521484375
201.416015625
206.9091796875
221.5576171875
240.78369140625
255.43212890625
260.009765625
264.58740234375
275.57373046875
286.56005859375
294.7998046875
313.1103515625
317.68798828125
340.576171875
357.0556640625
358.88671875
363.46435546875
373.53515625
386.3525390625
402.83203125
411.07177734375
423.88916015625
429.38232421875
437.6220703125
449.52392578125
455.9326171875
455.9326171875
461.42578125
466.00341796875
469.66552734375
460.51025390625
466.00341796875
479.736328125
476.98974609375
467.83447265625
455.9326171875
444.03076171875
433.9599609375
411.9873046875
404.6630859375
400.08544921875
381.77490234375
360.7177734375
344.23828125
321.35009765625
299.37744140625
275.57373046875
254.5166015625
229.79736328125
207.82470703125
190.4296875
178.52783203125
156.55517578125
145.56884765625
120.849609375
98.876953125
76.904296875
57.67822265625
43.02978515625
30.21240234375
20.1416015625
8.23974609375
-1.8310546875
-4.57763671875
-15.56396484375
-26.55029296875
-32.958984375
-46.69189453125
-53.1005859375
-58.59375
-68.66455078125
-66.83349609375
-69.580078125
-73.2421875
-78.7353515625
-83.31298828125
-89.7216796875
-98.876953125
-97.0458984375
-103.45458984375
-104.3701171875
-98.876953125
-99.79248046875
-97.96142578125
-94.29931640625
-95.21484375
-100.7080078125
-107.11669921875
-107.11669921875
-110.77880859375
-115.3564453125
-111.6943359375
-104.3701171875
-107.11669921875
-108.0322265625
-101.62353515625
-107.11669921875
-109.86328125
-109.86328125
-109.86328125
-108.0322265625
-108.0322265625
-102.5390625
-102.5390625
-103.45458984375
-108.0322265625
-108.0322265625
-99.79248046875
-97.96142578125
-102.5390625
-100.7080078125
-101.62353515625
-99.79248046875
-99.79248046875
-93.3837890625
-95.21484375
-100.7080078125
-100.7080078125
-97.0458984375
-100.7080078125
-94.29931640625
-92.46826171875
-91.552734375
-87.890625
-87.890625
-90.63720703125
-93.3837890625
-91.552734375
-85.14404296875
-89.7216796875
-97.96142578125
-97.96142578125
-91.552734375
-91.552734375
-96.13037109375
-99.79248046875
-100.7080078125
-95.21484375
-91.552734375
-94.29931640625
-90.63720703125
-87.890625
-86.97509765625
-84.228515625
-86.97509765625
-95.21484375
-103.45458984375
-102.5390625
-99.79248046875
-99.79248046875
-97.96142578125
-96.13037109375
-96.13037109375
-98.876953125
-97.0458984375
-100.7080078125
-97.96142578125
-97.0458984375
-101.62353515625
-103.45458984375
-103.45458984375
-102.5390625
-104.3701171875
-105.28564453125
-99.79248046875
-101.62353515625
-105.28564453125
-107.11669921875
-108.94775390625
-103.45458984375
-97.96142578125
-101.62353515625
-104.3701171875
-97.0458984375
-97.96142578125
-108.0322265625
-105.28564453125
-108.94775390625
-113.525390625
-106.201171875
-107.11669921875
-108.0322265625
-110.77880859375
-110.77880859375
-102.5390625
-107.11669921875
-118.10302734375
-119.0185546875
-112.60986328125
-112.60986328125
-116.27197265625
-104.3701171875
-103.45458984375
-108.94775390625
-107.11669921875
-108.94775390625
-105.28564453125
-107.11669921875
-110.77880859375
-114.44091796875
-118.10302734375
-117.1875
-111.6943359375
-108.0322265625
-114.44091796875
-124.51171875
-118.10302734375
-116.27197265625
-119.0185546875
-117.1875
-119.93408203125
-113.525390625
-111.6943359375
-110.77880859375
-109.86328125
-109.86328125
-115.3564453125
-123.59619140625
-119.93408203125
-111.6943359375
-117.1875
-121.76513671875
-112.60986328125
-108.94775390625
-115.3564453125
-122.6806640625
-131.8359375
-123.59619140625
-112.60986328125
-118.10302734375
-120.849609375
-121.76513671875
-119.0185546875
-116.27197265625
-116.27197265625
-120.849609375
-119.93408203125
-116.27197265625
-113.525390625
-115.3564453125
-115.3564453125
-111.6943359375
-118.10302734375
-111.6943359375
-111.6943359375
-114.44091796875
-114.44091796875
-117.1875
-121.76513671875
-119.93408203125
-114.44091796875
-117.1875
-113.525390625
-112.60986328125
-109.86328125
-119.0185546875
-124.51171875
-119.0185546875
-116.27197265625
-126.3427734375
-128.173828125
-125.42724609375
-124.51171875
-123.59619140625
-122.6806640625
-112.60986328125
-112.60986328125
-127.25830078125
-126.3427734375
-128.173828125
-121.76513671875
-121.76513671875
-123.59619140625
-115.3564453125
-111.6943359375
-124.51171875
-120.849609375
-116.27197265625
-115.3564453125
-115.3564453125
-122.6806640625
-114.44091796875
-114.44091796875
-119.93408203125
-111.6943359375
-113.525390625
-119.93408203125
-123.59619140625
-122.6806640625
-123.59619140625
-126.3427734375
-121.76513671875
-113.525390625
-114.44091796875
-118.10302734375
-118.10302734375
-125.42724609375
-112.60986328125
-110.77880859375
-113.525390625
-108.0322265625
-111.6943359375
-117.1875
-108.94775390625
-109.86328125
-112.60986328125
-117.1875
-123.59619140625
-118.10302734375
-115.3564453125
-112.60986328125
-113.525390625
-111.6943359375
-113.525390625
-108.0322265625
-110.77880859375
-108.0322265625
-112.60986328125
-111.6943359375
-115.3564453125
-114.44091796875
-110.77880859375
-113.525390625
-108.94775390625
-108.0322265625
-110.77880859375
-109.86328125
-108.94775390625
-109.86328125
-117.1875
-119.0185546875
-111.6943359375
-115.3564453125
-108.0322265625
-100.7080078125
-95.21484375
-95.21484375
-91.552734375
-95.21484375
-104.3701171875
-111.6943359375
-98.876953125
-92.46826171875
-86.0595703125
-82.3974609375
-78.7353515625
-81.48193359375
-91.552734375
-90.63720703125
-100.7080078125
-105.28564453125
-96.13037109375
-89.7216796875
-82.3974609375
-75.98876953125
-74.15771484375
-65.91796875
-64.0869140625
-65.00244140625
-64.0869140625
-70.49560546875
-83.31298828125
-84.228515625
-76.904296875
-69.580078125
-70.49560546875
-70.49560546875
-75.98876953125
-71.4111328125
-74.15771484375
-77.81982421875
-76.904296875
-74.15771484375
-73.2421875
-66.83349609375
-78.7353515625
-102.5390625
-103.45458984375
-99.79248046875
-104.3701171875
-102.5390625
-95.21484375
-98.876953125
-95.21484375
-94.29931640625
-103.45458984375
-103.45458984375
-100.7080078125
-103.45458984375
-97.96142578125
-103.45458984375
-102.5390625
-103.45458984375
-94.29931640625
-90.63720703125
-97.96142578125
-103.45458984375
-97.96142578125
-91.552734375
-97.0458984375
-97.96142578125
-92.46826171875
-86.0595703125
-95.21484375
-94.29931640625
-97.0458984375
-102.5390625
-103.45458984375
-103.45458984375
-104.3701171875
-102.5390625
-90.63720703125
-81.48193359375
-82.3974609375
-87.890625
-82.3974609375
-80.56640625
-82.3974609375
-83.31298828125
-93.3837890625
-96.13037109375
-91.552734375
-96.13037109375
-106.201171875
-123.59619140625
-140.07568359375
-142.822265625
-157.470703125
-162.9638671875
-151.06201171875
-113.525390625
-39.36767578125
62.255859375
207.82470703125
394.59228515625
584.1064453125
776.3671875
1001.5869140625
1225.89111328125
1367.7978515625
1425.47607421875
1395.263671875
1311.03515625
1200.25634765625
1029.052734375
811.1572265625
580.4443359375
335.0830078125
126.3427734375
-28.38134765625
-98.876953125
-114.44091796875
-131.8359375
-130.92041015625
-108.0322265625
-62.255859375
-19.22607421875
10.07080078125
14.6484375
10.07080078125
4.57763671875
-2.74658203125
-0.91552734375
-2.74658203125
-5.4931640625
-15.56396484375
-23.8037109375
-24.71923828125
-23.8037109375
-24.71923828125
-25.634765625
-19.22607421875
-13.73291015625
-14.6484375
-12.8173828125
-11.90185546875
-10.07080078125
-10.986328125
-14.6484375
-17.39501953125
-20.1416015625
-17.39501953125
-10.986328125
-10.07080078125
-7.32421875
-7.32421875
-10.986328125
-15.56396484375
-6.40869140625
-0.91552734375
-6.40869140625
-3.662109375
-0.91552734375
6.40869140625
2.74658203125
-0.91552734375
2.74658203125
3.662109375
3.662109375
1.8310546875
2.74658203125
10.07080078125
6.40869140625
16.4794921875
23.8037109375
16.4794921875
19.22607421875
23.8037109375
28.38134765625
18.310546875
14.6484375
13.73291015625
29.296875
35.70556640625
43.02978515625
45.7763671875
46.69189453125
45.7763671875
48.52294921875
41.19873046875
43.02978515625
51.26953125
51.26953125
53.1005859375
60.4248046875
65.00244140625
64.0869140625
65.00244140625
71.4111328125
72.32666015625
75.0732421875
79.65087890625
86.97509765625
95.21484375
93.3837890625
98.876953125
103.45458984375
101.62353515625
107.11669921875
111.6943359375
118.10302734375
119.93408203125
127.25830078125
137.3291015625
146.484375
152.89306640625
155.6396484375
158.38623046875
160.21728515625
167.54150390625
179.443359375
189.51416015625
207.82470703125
208.740234375
220.64208984375
236.2060546875
239.8681640625
242.61474609375
250.8544921875
260.009765625
272.8271484375
281.982421875
299.37744140625
319.51904296875
325.01220703125
335.99853515625
351.5625
358.88671875
367.12646484375
379.94384765625
383.60595703125
396.42333984375
409.24072265625
425.72021484375
427.55126953125
434.87548828125
452.2705078125
455.01708984375
460.51025390625
471.49658203125
478.82080078125
486.14501953125
489.80712890625
494.384765625
499.8779296875
498.96240234375
494.384765625
494.384765625
492.5537109375
476.07421875
461.42578125
456.84814453125
445.86181640625
441.2841796875
427.55126953125
409.24072265625
397.3388671875
378.11279296875
356.14013671875
338.7451171875
311.279296875
294.7998046875
285.64453125
263.671875
240.78369140625
214.2333984375
193.17626953125
175.78125
160.21728515625
134.58251953125
110.77880859375
101.62353515625
89.7216796875
75.0732421875
65.00244140625
41.19873046875
34.7900390625
24.71923828125
12.8173828125
-2.74658203125
-8.23974609375
-9.1552734375
-21.05712890625
-26.55029296875
-20.1416015625
-32.958984375
-41.19873046875
-43.02978515625
-41.19873046875
-43.02978515625
-54.01611328125
-54.01611328125
-56.7626953125
-60.4248046875
-53.1005859375
-51.26953125
-60.4248046875
-66.83349609375
-69.580078125
-70.49560546875
-73.2421875
-64.0869140625
-63.17138671875
-54.931640625
-58.59375
-66.83349609375
-73.2421875
-65.91796875
-62.255859375
-70.49560546875
-76.904296875
-73.2421875
-72.32666015625
-67.7490234375
-65.91796875
-68.66455078125
-70.49560546875
-65.91796875
-67.7490234375
-71.4111328125
-75.0732421875
-77.81982421875
-67.7490234375
-58.59375
-58.59375
-66.83349609375
-70.49560546875
-73.2421875
-71.4111328125
-69.580078125
-69.580078125
-69.580078125
-62.255859375
-59.50927734375
-64.0869140625
-66.83349609375
-70.49560546875
-66.83349609375
-73.2421875
-71.4111328125
-74.15771484375
-76.904296875
-68.66455078125
-60.4248046875
-57.67822265625
-65.91796875
-65.91796875
-63.17138671875
-64.0869140625
-62.255859375
-60.4248046875
-62.255859375
-65.91796875
-64.0869140625
-64.0869140625
-65.00244140625
-67.7490234375
-70.49560546875
-68.66455078125
-74.15771484375
-79.65087890625
-75.98876953125
-68.66455078125
-65.00244140625
-62.255859375
-58.59375
-68.66455078125
-75.0732421875
-70.49560546875
-71.4111328125
-77.81982421875
-72.32666015625
-65.00244140625
-64.0869140625
-60.4248046875
-68.66455078125
-75.98876953125
-75.0732421875
-76.904296875
-74.15771484375
-79.65087890625
-77.81982421875
-75.98876953125
-75.0732421875
-76.904296875
-82.3974609375
-86.0595703125
-88.80615234375
-82.3974609375
-86.97509765625
-89.7216796875
-84.228515625
-88.80615234375
-74.15771484375
-72.32666015625
-75.0732421875
-75.98876953125
-80.56640625
-84.228515625
-94.29931640625
-92.46826171875
-87.890625
-80.56640625
-73.2421875
-77.81982421875
-78.7353515625
-86.0595703125
-89.7216796875
-90.63720703125
-85.14404296875
-88.80615234375
-88.80615234375
-86.0595703125
-80.56640625
-84.228515625
-86.97509765625
-83.31298828125
-90.63720703125
-100.7080078125
-97.96142578125
-87.890625
-89.7216796875
-85.14404296875
-86.0595703125
-88.80615234375
-89.7216796875
-88.80615234375
-87.890625
-89.7216796875
-89.7216796875
-94.29931640625
-91.552734375
-90.63720703125
-88.80615234375
-89.7216796875
-88.80615234375
-95.21484375
-97.96142578125
-93.3837890625
-89.7216796875
-96.13037109375
-91.552734375
-86.0595703125
-91.552734375
-90.63720703125
-87.890625
-87.890625
-91.552734375
-86.0595703125
-85.14404296875
-92.46826171875
-97.0458984375
-91.552734375
-86.97509765625
-90.63720703125
-94.29931640625
-97.0458984375
-97.96142578125
-96.13037109375
-88.80615234375
-88.80615234375
-91.552734375
-84.228515625
-87.890625
-90.63720703125
-96.13037109375
-92.46826171875
-89.7216796875
-86.97509765625
-93.3837890625
-102.5390625
-99.79248046875
-95.21484375
-88.80615234375
-85.14404296875
-92.46826171875
-101.62353515625
-93.3837890625
-94.29931640625
-102.5390625
-98.876953125
-91.552734375
-86.0595703125
-86.97509765625
-90.63720703125
-97.0458984375
-98.876953125
-98.876953125
-96.13037109375
-100.7080078125
-98.876953125
-94.29931640625
-86.0595703125
-88.80615234375
-86.0595703125
-88.80615234375
-95.21484375
-94.29931640625
-91.552734375
-92.46826171875
-93.3837890625
-96.13037109375
-97.96142578125
-104.3701171875
-99.79248046875
-91.552734375
-88.80615234375
-86.0595703125
-89.7216796875
-91.552734375
-94.29931640625
-94.29931640625
-89.7216796875
-94.29931640625
-98.876953125
-97.96142578125
-93.3837890625
-93.3837890625
-98.876953125
-105.28564453125
-98.876953125
-93.3837890625
-90.63720703125
-87.890625
-86.0595703125
-87.890625
-90.63720703125
-95.21484375
-96.13037109375
-96.13037109375
-97.96142578125
-97.0458984375
-99.79248046875
-96.13037109375
-94.29931640625
-95.21484375
-95.21484375
-106.201171875
-100.7080078125
-98.876953125
-102.5390625
-102.5390625
-95.21484375
-90.63720703125
-87.890625
-84.228515625
-87.890625
-97.0458984375
-100.7080078125
-95.21484375
-95.21484375
-92.46826171875
-86.0595703125
-86.97509765625
-94.29931640625
-91.552734375
-96.13037109375
-102.5390625
-91.552734375
-90.63720703125
-98.876953125
-94.29931640625
-93.3837890625
-97.0458984375
-92.46826171875
-97.96142578125
-97.96142578125
-93.3837890625
-86.97509765625
-94.29931640625
-95.21484375
-91.552734375
-91.552734375
-91.552734375
-85.14404296875
-93.3837890625
-97.0458984375
-104.3701171875
-100.7080078125
-97.0458984375
-92.46826171875
-86.97509765625
-86.97509765625
-89.7216796875
-88.80615234375
-89.7216796875
-90.63720703125
-86.97509765625
-86.97509765625
-87.890625
-84.228515625
-71.4111328125
-70.49560546875
-69.580078125
-69.580078125
-83.31298828125
-83.31298828125
-81.48193359375
-84.228515625
-76.904296875
-73.2421875
-62.255859375
-59.50927734375
-56.7626953125
-53.1005859375
-54.931640625
-54.931640625
-69.580078125
-78.7353515625
-76.904296875
-72.32666015625
-69.580078125
-59.50927734375
-59.50927734375
-62.255859375
-67.7490234375
-75.98876953125
-75.0732421875
-71.4111328125
-75.0732421875
-75.98876953125
-80.56640625
-78.7353515625
-90.63720703125
-97.0458984375
-97.0458984375
-97.0458984375
-97.96142578125
-100.7080078125
-108.0322265625
-103.45458984375
-103.45458984375
-105.28564453125
-89.7216796875
-91.552734375
-97.0458984375
-98.876953125
-108.0322265625
-110.77880859375
-106.201171875
-102.5390625
-93.3837890625
-91.552734375
-97.0458984375
-103.45458984375
-102.5390625
-106.201171875
-108.94775390625
-106.201171875
-112.60986328125
-117.1875
-108.0322265625
-104.3701171875
-97.0458984375
-100.7080078125
-106.201171875
-105.28564453125
-109.86328125
-104.3701171875
-101.62353515625
-104.3701171875
-111.6943359375
-103.45458984375
-99.79248046875
-99.79248046875
-105.28564453125
-106.201171875
-105.28564453125
-99.79248046875
-119.0185546875
-142.822265625
-160.21728515625
-172.119140625
-184.9365234375
-191.34521484375
-189.51416015625
-165.71044921875
-99.79248046875
-8.23974609375
111.6943359375
281.982421875
475.15869140625
665.58837890625
868.83544921875
1109.619140625
1283.5693359375
1388.85498046875
1392.51708984375
1326.59912109375
1210.3271484375
1081.23779296875
880.7373046875
649.10888671875
435.791015625
198.66943359375
12.8173828125
-82.3974609375
-118.10302734375
-138.24462890625
-156.55517578125
-149.23095703125
-122.6806640625
-70.49560546875
-35.70556640625
-6.40869140625
-2.74658203125
-3.662109375
-14.6484375
-29.296875
-38.4521484375
-34.7900390625
-32.04345703125
-32.958984375
-32.958984375
-32.958984375
-42.1142578125
-41.19873046875
-35.70556640625
-37.53662109375
-50.35400390625
-42.1142578125
-48.52294921875
-51.26953125
-35.70556640625
-31.1279296875
-32.04345703125
-33.87451171875
-35.70556640625
-30.21240234375
-32.958984375
-41.19873046875
-34.7900390625
-30.21240234375
-25.634765625
-24.71923828125
-22.88818359375
-12.8173828125
-17.39501953125
-32.04345703125
-35.70556640625
-23.8037109375
-15.56396484375
-10.986328125
-18.310546875
-21.05712890625
-22.88818359375
-21.97265625
-15.56396484375
-18.310546875
-11.90185546875
-13.73291015625
-13.73291015625
-12.8173828125
-5.4931640625
-0.91552734375
0
10.07080078125
1.8310546875
-4.57763671875
-1.8310546875
4.57763671875
8.23974609375
10.986328125
22.88818359375
24.71923828125
19.22607421875
21.05712890625
23.8037109375
26.55029296875
23.8037109375
23.8037109375
26.55029296875
24.71923828125
31.1279296875
39.36767578125
39.36767578125
54.01611328125
54.931640625
49.4384765625
57.67822265625
63.17138671875
65.91796875
70.49560546875
85.14404296875
87.890625
82.3974609375
80.56640625
88.80615234375
93.3837890625
97.96142578125
104.3701171875
113.525390625
126.3427734375
140.07568359375
137.3291015625
138.24462890625
150.146484375
152.89306640625
156.55517578125
160.21728515625
173.9501953125
185.85205078125
193.17626953125
217.8955078125
220.64208984375
228.8818359375
238.037109375
247.1923828125
253.60107421875
265.5029296875
272.8271484375
289.306640625
304.87060546875
316.7724609375
325.01220703125
341.49169921875
349.7314453125
351.5625
355.224609375
377.197265625
383.60595703125
394.59228515625
407.40966796875
423.88916015625
430.2978515625
433.9599609375
433.9599609375
442.19970703125
449.52392578125
447.69287109375
448.6083984375
452.2705078125
456.84814453125
466.00341796875
459.5947265625
451.35498046875
436.70654296875
434.87548828125
420.22705078125
402.83203125
395.5078125
387.26806640625
373.53515625
360.7177734375
347.900390625
327.7587890625
296.630859375
285.64453125
259.09423828125
238.037109375
215.14892578125
196.83837890625
187.68310546875
163.87939453125
138.24462890625
111.6943359375
100.7080078125
83.31298828125
64.0869140625
50.35400390625
39.36767578125
21.97265625
8.23974609375
-3.662109375
-10.986328125
-20.1416015625
-30.21240234375
-35.70556640625
-52.18505859375
-63.17138671875
-71.4111328125
-71.4111328125
-70.49560546875
-73.2421875
-79.65087890625
-86.97509765625
-96.13037109375
-103.45458984375
-106.201171875
-108.94775390625
-101.62353515625
-106.201171875
-112.60986328125
-109.86328125
-111.6943359375
-112.60986328125
-113.525390625
-122.6806640625
-122.6806640625
-126.3427734375
-123.59619140625
-112.60986328125
-109.86328125
-115.3564453125
-115.3564453125
-119.93408203125
-120.849609375
-116.27197265625
-113.525390625
-113.525390625
-121.76513671875
-126.3427734375
-114.44091796875
-118.10302734375
-114.44091796875
-114.44091796875
-116.27197265625
-119.93408203125
-119.93408203125
-118.10302734375
-119.0185546875
-119.93408203125
-111.6943359375
-114.44091796875
-119.93408203125
-118.10302734375
-121.76513671875
-115.3564453125
-118.10302734375
-118.10302734375
-113.525390625
-108.0322265625
-104.3701171875
-108.94775390625
-108.94775390625
-108.94775390625
-114.44091796875
-118.10302734375
-123.59619140625
-125.42724609375
-119.93408203125
-121.76513671875
-120.849609375
-111.6943359375
-110.77880859375
-112.60986328125
-116.27197265625
-116.27197265625
-108.94775390625
-109.86328125
-121.76513671875
-117.1875
-118.10302734375
-109.86328125
-108.94775390625
-108.0322265625
-116.27197265625
-121.76513671875
-123.59619140625
-130.0048828125
-130.0048828125
-128.173828125
-124.51171875
-117.1875
-111.6943359375
-119.0185546875
-117.1875
-119.0185546875
-121.76513671875
-132.75146484375
-136.41357421875
-130.0048828125
-121.76513671875
-117.1875
-108.0322265625
-118.10302734375
-120.849609375
-130.92041015625
-140.07568359375
-137.3291015625
-132.75146484375
-128.173828125
-122.6806640625
-113.525390625
-117.1875
-126.3427734375
-130.92041015625
-134.58251953125
-129.08935546875
-140.07568359375
-144.6533203125
-129.08935546875
-129.08935546875
-134.58251953125
-130.92041015625
-138.24462890625
-137.3291015625
-137.3291015625
-139.16015625
-136.41357421875
-131.8359375
-134.58251953125
-131.8359375
-135.498046875
-141.90673828125
-140.07568359375
-132.75146484375
-135.498046875
-144.6533203125
-144.6533203125
-143.73779296875
-148.3154296875
-137.3291015625
-134.58251953125
-137.3291015625
-131.8359375
-140.07568359375
-149.23095703125
-145.56884765625
-147.39990234375
-140.9912109375
-132.75146484375
-133.6669921875
-139.16015625
-150.146484375
-148.3154296875
-151.9775390625
-142.822265625
-144.6533203125
-146.484375
-141.90673828125
-136.41357421875
-134.58251953125
-142.822265625
-139.16015625
-142.822265625
-146.484375
-149.23095703125
-153.80859375
-148.3154296875
-138.24462890625
-142.822265625
-145.56884765625
-143.73779296875
-140.07568359375
-143.73779296875
-144.6533203125
-148.3154296875
-149.23095703125
-149.23095703125
-149.23095703125
-150.146484375
-142.822265625
-140.9912109375
-147.39990234375
-149.23095703125
-146.484375
-147.39990234375
-152.89306640625
-153.80859375
-151.06201171875
-151.9775390625
-140.9912109375
-140.9912109375
-137.3291015625
-147.39990234375
-153.80859375
-156.55517578125
-155.6396484375
-151.9775390625
-152.89306640625
-148.3154296875
-151.9775390625
-147.39990234375
-135.498046875
-139.16015625
-154.72412109375
-155.6396484375
-153.80859375
-150.146484375
-151.9775390625
-144.6533203125
-149.23095703125
-146.484375
-144.6533203125
-147.39990234375
-151.9775390625
-157.470703125
-162.04833984375
-152.89306640625
-147.39990234375
-145.56884765625
-139.16015625
-140.9912109375
-151.9775390625
-151.06201171875
-149.23095703125
-151.06201171875
-151.06201171875
-151.9775390625
-147.39990234375
-145.56884765625
-139.16015625
-146.484375
-151.9775390625
-147.39990234375
-143.73779296875
-148.3154296875
-148.3154296875
-145.56884765625
-140.07568359375
-134.58251953125
-128.173828125
-127.25830078125
-132.75146484375
-138.24462890625
-140.07568359375
-135.498046875
-140.07568359375
-135.498046875
-127.25830078125
-121.76513671875
-113.525390625
-99.79248046875
-99.79248046875
-105.28564453125
-109.86328125
-112.60986328125
-125.42724609375
-129.08935546875
-119.93408203125
-115.3564453125
-113.525390625
-103.45458984375
-102.5390625
-108.0322265625
-109.86328125
-117.1875
-117.1875
-120.849609375
-124.51171875
-130.0048828125
-135.498046875
-143.73779296875
-148.3154296875
-148.3154296875
-152.89306640625
-152.89306640625
-153.80859375
-152.89306640625
-151.9775390625
-152.89306640625
-154.72412109375
-147.39990234375
-157.470703125
-151.9775390625
-152.89306640625
-154.72412109375
-151.06201171875
-147.39990234375
-151.9775390625
-154.72412109375
-152.89306640625
-141.90673828125
-151.06201171875
-151.9775390625
-141.90673828125
-144.6533203125
-144.6533203125
-146.484375
-150.146484375
-145.56884765625
-142.822265625
-144.6533203125
-139.16015625
-144.6533203125
-140.07568359375
-145.56884765625
-148.3154296875
-147.39990234375
-153.80859375
-151.06201171875
-140.07568359375
-130.0048828125
-132.75146484375
-139.16015625
-139.16015625
-134.58251953125
-149.23095703125
-175.78125
-195.00732421875
-213.31787109375
-226.13525390625
-243.5302734375
-244.44580078125
-234.375
-201.416015625
-130.0048828125
-31.1279296875
104.3701171875
287.4755859375
488.8916015625
682.9833984375
890.80810546875
1116.943359375
1268.9208984375
1322.021484375
1284.48486328125
1210.3271484375
1105.04150390625
921.93603515625
698.54736328125
477.9052734375
267.333984375
74.15771484375
-54.01611328125
-101.62353515625
-125.42724609375
-160.21728515625
-183.10546875
-189.51416015625
-173.03466796875
-130.92041015625
-86.0595703125
-61.34033203125
-51.26953125
-46.69189453125
-52.18505859375
-56.7626953125
-68.66455078125
-70.49560546875
-70.49560546875
-66.83349609375
-67.7490234375
-70.49560546875
-68.66455078125
-67.7490234375
-68.66455078125
-74.15771484375
-75.98876953125
-75.98876953125
-69.580078125
-64.0869140625
-69.580078125
-67.7490234375
-64.0869140625
-65.00244140625
-74.15771484375
-71.4111328125
-64.0869140625
-64.0869140625
-66.83349609375
-64.0869140625
-61.34033203125
-57.67822265625
-56.7626953125
-57.67822265625
-61.34033203125
-59.50927734375
-54.931640625
-54.01611328125
-49.4384765625
-42.1142578125
-40.283203125
-42.1142578125
-43.02978515625
-46.69189453125
-43.9453125
-39.36767578125
-42.1142578125
-44.86083984375
-45.7763671875
-34.7900390625
-26.55029296875
-34.7900390625
-35.70556640625
-22.88818359375
-17.39501953125
-24.71923828125
-18.310546875
-19.22607421875
-12.8173828125
-10.986328125
-10.07080078125
0.91552734375
-0.91552734375
0.91552734375
2.74658203125
1.8310546875
-0.91552734375
-0.91552734375
11.90185546875
15.56396484375
21.05712890625
25.634765625
20.1416015625
27.4658203125
32.04345703125
33.87451171875
42.1142578125
42.1142578125
47.607421875
51.26953125
62.255859375
64.0869140625
63.17138671875
67.7490234375
72.32666015625
75.0732421875
84.228515625
85.14404296875
97.96142578125
113.525390625
116.27197265625
118.10302734375
121.76513671875
135.498046875
146.484375
150.146484375
160.21728515625
173.03466796875
181.2744140625
191.34521484375
205.99365234375
216.97998046875
227.05078125
231.62841796875
239.8681640625
253.60107421875
259.09423828125
269.1650390625
284.72900390625
305.7861328125
320.4345703125
332.33642578125
334.16748046875
346.0693359375
349.7314453125
354.30908203125
368.95751953125
386.3525390625
395.5078125
405.57861328125
415.6494140625
422.9736328125
429.38232421875
437.6220703125
444.9462890625
444.9462890625
445.86181640625
441.2841796875
442.19970703125
443.115234375
438.53759765625
436.70654296875
429.38232421875
420.22705078125
405.57861328125
400.08544921875
381.77490234375
364.3798828125
345.15380859375
325.927734375
315.85693359375
291.1376953125
267.333984375
242.61474609375
221.5576171875
198.66943359375
163.87939453125
131.8359375
108.94775390625
84.228515625
69.580078125
78.7353515625
65.91796875
43.9453125
34.7900390625
25.634765625
20.1416015625
10.986328125
2.74658203125
-13.73291015625
-27.4658203125
-38.4521484375
-47.607421875
-58.59375
-69.580078125
-81.48193359375
-93.3837890625
-93.3837890625
-92.46826171875
-95.21484375
-101.62353515625
-112.60986328125
-116.27197265625
-115.3564453125
-122.6806640625
-124.51171875
-124.51171875
-120.849609375
-120.849609375
-123.59619140625
-128.173828125
-129.08935546875
-133.6669921875
-133.6669921875
-134.58251953125
-138.24462890625
-139.16015625
-140.07568359375
-134.58251953125
-126.3427734375
-127.25830078125
-127.25830078125
-129.08935546875
-130.0048828125
-127.25830078125
-139.16015625
-145.56884765625
-140.9912109375
-135.498046875
-127.25830078125
-140.9912109375
-140.9912109375
-135.498046875
-130.0048828125
-128.173828125
-124.51171875
-130.92041015625
-136.41357421875
-135.498046875
-133.6669921875
-127.25830078125
-122.6806640625
-119.93408203125
-118.10302734375
-128.173828125
-130.92041015625
-134.58251953125
-126.3427734375
-120.849609375
-116.27197265625
-126.3427734375
-119.0185546875
-113.525390625
-118.10302734375
-126.3427734375
-130.0048828125
-126.3427734375
-124.51171875
-123.59619140625
-124.51171875
-113.525390625
-117.1875
-119.93408203125
-123.59619140625
-122.6806640625
-119.93408203125
-129.08935546875
-137.3291015625
-119.93408203125
-114.44091796875
-119.0185546875
-119.93408203125
-123.59619140625
-122.6806640625
-129.08935546875
-128.173828125
-138.24462890625
-139.16015625
-126.3427734375
-123.59619140625
-121.76513671875
-116.27197265625
-113.525390625
-125.42724609375
-127.25830078125
-135.498046875
-134.58251953125
-128.173828125
-123.59619140625
-122.6806640625
-123.59619140625
-127.25830078125
-124.51171875
-131.8359375
-137.3291015625
-141.90673828125
-140.9912109375
-132.75146484375
-126.3427734375
-128.173828125
-131.8359375
-136.41357421875
-138.24462890625
-134.58251953125
-132.75146484375
-135.498046875
-142.822265625
-135.498046875
-134.58251953125
-134.58251953125
-133.6669921875
-134.58251953125
-136.41357421875
-141.90673828125
-141.90673828125
-134.58251953125
-142.822265625
-140.07568359375
-137.3291015625
-136.41357421875
-141.90673828125
-141.90673828125
-140.07568359375
-142.822265625
-148.3154296875
-150.146484375
-155.6396484375
-152.89306640625
-143.73779296875
-137.3291015625
-129.08935546875
-140.07568359375
-140.07568359375
-142.822265625
-139.16015625
-142.822265625
-146.484375
-143.73779296875
-137.3291015625
-137.3291015625
-136.41357421875
-133.6669921875
-134.58251953125
-133.6669921875
-135.498046875
-142.822265625
-144.6533203125
-140.07568359375
-135.498046875
-132.75146484375
-139.16015625
-136.41357421875
-137.3291015625
-143.73779296875
-144.6533203125
-146.484375
-142.822265625
-141.90673828125
-140.07568359375
-144.6533203125
-142.822265625
-140.07568359375
-134.58251953125
-140.9912109375
-139.16015625
-142.822265625
-146.484375
-141.90673828125
-139.16015625
-140.9912109375
-137.3291015625
-140.9912109375
-138.24462890625
-138.24462890625
-146.484375
-149.23095703125
-144.6533203125
-157.470703125
-151.06201171875
-131.8359375
-130.92041015625
-139.16015625
-140.9912109375
-144.6533203125
-143.73779296875
-144.6533203125
-148.3154296875
-146.484375
-146.484375
-140.07568359375
-134.58251953125
-132.75146484375
-133.6669921875
-130.92041015625
-143.73779296875
-153.80859375
-149.23095703125
-150.146484375
-146.484375
-140.07568359375
-129.08935546875
-137.3291015625
-134.58251953125
-135.498046875
-138.24462890625
-136.41357421875
-137.3291015625
-135.498046875
-130.0048828125
-132.75146484375
-133.6669921875
-133.6669921875
-133.6669921875
-136.41357421875
-132.75146484375
-133.6669921875
-127.25830078125
-125.42724609375
-117.1875
-118.10302734375
-115.3564453125
-119.0185546875
-126.3427734375
-125.42724609375
-130.0048828125
-122.6806640625
-113.525390625
-108.94775390625
-104.3701171875
-101.62353515625
-97.96142578125
-97.0458984375
-99.79248046875
-104.3701171875
-112.60986328125
-111.6943359375
-114.44091796875
-108.0322265625
-107.11669921875
-102.5390625
-107.11669921875
-99.79248046875
-97.96142578125
-99.79248046875
-102.5390625
-113.525390625
-114.44091796875
-112.60986328125
-117.1875
-123.59619140625
-126.3427734375
-126.3427734375
-136.41357421875
-139.16015625
-142.822265625
-141.90673828125
-142.822265625
-140.07568359375
-130.92041015625
-130.92041015625
-132.75146484375
-134.58251953125
-134.58251953125
-140.9912109375
-139.16015625
-140.9912109375
-134.58251953125
-131.8359375
-134.58251953125
-136.41357421875
-135.498046875
-133.6669921875
-134.58251953125
-131.8359375
-134.58251953125
-138.24462890625
-134.58251953125
-138.24462890625
-136.41357421875
-136.41357421875
-135.498046875
-128.173828125
-125.42724609375
-128.173828125
-132.75146484375
-138.24462890625
-131.8359375
-129.08935546875
-128.173828125
-119.93408203125
-118.10302734375
-113.525390625
-116.27197265625
-116.27197265625
-122.6806640625
-135.498046875
-157.470703125
-173.9501953125
-179.443359375
-203.2470703125
-213.31787109375
-200.50048828125
-190.4296875
-145.56884765625
-66.83349609375
34.7900390625
172.119140625
358.88671875
554.8095703125
752.5634765625
971.37451171875
1189.27001953125
1327.5146484375
1394.34814453125
1362.3046875
1272.5830078125
1142.578125
968.6279296875
748.9013671875
522.76611328125
289.306640625
84.228515625
-60.4248046875
-113.525390625
-137.3291015625
-167.54150390625
-176.69677734375
-162.04833984375
-127.25830078125
-81.48193359375
-47.607421875
-33.87451171875
-31.1279296875
-28.38134765625
-32.958984375
-43.9453125
-46.69189453125
-54.931640625
-59.50927734375
-51.26953125
-51.26953125
-54.01611328125
-56.7626953125
-54.01611328125
-63.17138671875
-65.91796875
-66.83349609375
-66.83349609375
-57.67822265625
-49.4384765625
-48.52294921875
-49.4384765625
-50.35400390625
-54.01611328125
-54.931640625
-57.67822265625
-54.01611328125
-45.7763671875
-44.86083984375
-38.4521484375
-34.7900390625
-39.36767578125
-36.62109375
-33.87451171875
-38.4521484375
-40.283203125
-34.7900390625
-38.4521484375
-34.7900390625
-34.7900390625
-32.958984375
-28.38134765625
-26.55029296875
-28.38134765625
-20.1416015625
-21.05712890625
-23.8037109375
-30.21240234375
-23.8037109375
-19.22607421875
-21.97265625
-10.07080078125
-4.57763671875
-7.32421875
-3.662109375
0.91552734375
-7.32421875
-9.1552734375
-4.57763671875
3.662109375
2.74658203125
10.07080078125
15.56396484375
18.310546875
13.73291015625
15.56396484375
14.6484375
20.1416015625
21.05712890625
30.21240234375
37.53662109375
36.62109375
42.1142578125
44.86083984375
45.7763671875
48.52294921875
43.02978515625
54.931640625
61.34033203125
68.66455078125
75.0732421875
76.904296875
76.904296875
78.7353515625
87.890625
95.21484375
99.79248046875
108.0322265625
122.6806640625
130.0048828125
130.92041015625
136.41357421875
144.6533203125
157.470703125
162.9638671875
167.54150390625
182.18994140625
197.75390625
206.9091796875
218.81103515625
230.712890625
227.96630859375
238.037109375
253.60107421875
265.5029296875
271.91162109375
275.57373046875
298.4619140625
316.7724609375
326.84326171875
343.32275390625
357.0556640625
365.29541015625
371.7041015625
378.11279296875
379.94384765625
397.3388671875
413.818359375
422.05810546875
433.04443359375
440.36865234375
445.86181640625
453.18603515625
464.17236328125
462.34130859375
469.66552734375
465.087890625
463.2568359375
462.34130859375
458.67919921875
458.67919921875
451.35498046875
444.03076171875
435.791015625
418.39599609375
408.3251953125
393.6767578125
364.3798828125
350.64697265625
341.49169921875
325.01220703125
304.87060546875
280.1513671875
260.92529296875
240.78369140625
221.5576171875
190.4296875
164.794921875
140.9912109375
129.08935546875
119.0185546875
97.96142578125
79.65087890625
66.83349609375
44.86083984375
24.71923828125
4.57763671875
-7.32421875
-11.90185546875
-9.1552734375
-21.97265625
-34.7900390625
-43.9453125
-50.35400390625
-57.67822265625
-65.00244140625
-80.56640625
-90.63720703125
-79.65087890625
-81.48193359375
-81.48193359375
-86.0595703125
-97.96142578125
-104.3701171875
-103.45458984375
-107.11669921875
-105.28564453125
-103.45458984375
-106.201171875
-108.0322265625
-104.3701171875
-106.201171875
-107.11669921875
-117.1875
-117.1875
-111.6943359375
-119.0185546875
-121.76513671875
-118.10302734375
-115.3564453125
-109.86328125
-117.1875
-119.93408203125
-111.6943359375
-111.6943359375
-115.3564453125
-115.3564453125
-112.60986328125
-111.6943359375
-111.6943359375
-109.86328125
-112.60986328125
-114.44091796875
-119.93408203125
-117.1875
-109.86328125
-114.44091796875
-114.44091796875
-110.77880859375
-102.5390625
-97.96142578125
-101.62353515625
-108.94775390625
-110.77880859375
-111.6943359375
-111.6943359375
-109.86328125
-103.45458984375
-102.5390625
-97.0458984375
-100.7080078125
-99.79248046875
-99.79248046875
-105.28564453125
-103.45458984375
-103.45458984375
-105.28564453125
-100.7080078125
-92.46826171875
-88.80615234375
-91.552734375
-100.7080078125
-102.5390625
-92.46826171875
-99.79248046875
-100.7080078125
-100.7080078125
-103.45458984375
-97.0458984375
-96.13037109375
-94.29931640625
-94.29931640625
-98.876953125
-94.29931640625
-99.79248046875
-102.5390625
-108.0322265625
-106.201171875
-105.28564453125
-103.45458984375
-100.7080078125
-105.28564453125
-106.201171875
-100.7080078125
-104.3701171875
-104.3701171875
-108.0322265625
-108.0322265625
-108.0322265625
-102.5390625
-98.876953125
-104.3701171875
-108.94775390625
-121.76513671875
-118.10302734375
-103.45458984375
-106.201171875
-107.11669921875
-101.62353515625
-93.3837890625
-98.876953125
-104.3701171875
-106.201171875
-104.3701171875
-107.11669921875
-110.77880859375
-110.77880859375
-110.77880859375
-111.6943359375
-105.28564453125
-98.876953125
-100.7080078125
-104.3701171875
-108.0322265625
-111.6943359375
-114.44091796875
-119.93408203125
-117.1875
-115.3564453125
-111.6943359375
-117.1875
-117.1875
-111.6943359375
-120.849609375
-122.6806640625
-116.27197265625
-114.44091796875
-113.525390625
-115.3564453125
-117.1875
-114.44091796875
-115.3564453125
-118.10302734375
-115.3564453125
-119.93408203125
-116.27197265625
-115.3564453125
-119.93408203125
-118.10302734375
-118.10302734375
-110.77880859375
-123.59619140625
-124.51171875
-112.60986328125
-114.44091796875
-114.44091796875
-119.93408203125
-119.93408203125
-115.3564453125
-109.86328125
-112.60986328125
-118.10302734375
-119.93408203125
-122.6806640625
-124.51171875
-130.92041015625
-126.3427734375
-121.76513671875
-120.849609375
-120.849609375
-122.6806640625
-123.59619140625
-122.6806640625
-127.25830078125
-130.0048828125
-137.3291015625
-136.41357421875
-130.92041015625
-130.92041015625
-121.76513671875
-118.10302734375
-118.10302734375
-127.25830078125
-129.08935546875
-132.75146484375
-128.173828125
-128.173828125
-128.173828125
-126.3427734375
-127.25830078125
-126.3427734375
-127.25830078125
-125.42724609375
-122.6806640625
-129.08935546875
-132.75146484375
-135.498046875
-130.92041015625
-130.92041015625
-131.8359375
-126.3427734375
-125.42724609375
-123.59619140625
-125.42724609375
-135.498046875
-133.6669921875
-137.3291015625
-129.08935546875
-122.6806640625
-128.173828125
-125.42724609375
-125.42724609375
-132.75146484375
-130.92041015625
-122.6806640625
-119.93408203125
-123.59619140625
-125.42724609375
-132.75146484375
-131.8359375
-124.51171875
-132.75146484375
-130.92041015625
-127.25830078125
-124.51171875
-126.3427734375
-123.59619140625
-124.51171875
-127.25830078125
-123.59619140625
-124.51171875
-120.849609375
-125.42724609375
-134.58251953125
-127.25830078125
-127.25830078125
-125.42724609375
-121.76513671875
-128.173828125
-130.92041015625
-131.8359375
-129.08935546875
-125.42724609375
-125.42724609375
-133.6669921875
-131.8359375
-130.92041015625
-127.25830078125
-124.51171875
-124.51171875
-122.6806640625
-118.10302734375
-119.93408203125
-130.92041015625
-130.0048828125
-123.59619140625
-125.42724609375
-122.6806640625
-122.6806640625
-117.1875
-109.86328125
-118.10302734375
-122.6806640625
-121.76513671875
-120.849609375
-124.51171875
-122.6806640625
-117.1875
-109.86328125
-104.3701171875
-103.45458984375
-103.45458984375
-99.79248046875
-100.7080078125
-106.201171875
-106.201171875
-121.76513671875
-116.27197265625
-112.60986328125
-97.96142578125
-86.0595703125
-86.0595703125
-83.31298828125
-80.56640625
-77.81982421875
-78.7353515625
-93.3837890625
-106.201171875
-102.5390625
-102.5390625
-87.890625
-87.890625
-88.80615234375
-92.46826171875
-84.228515625
-85.14404296875
-94.29931640625
-100.7080078125
-98.876953125
-92.46826171875
-91.552734375
-102.5390625
-110.77880859375
-116.27197265625
-124.51171875
-133.6669921875
-126.3427734375
-127.25830078125
-125.42724609375
-120.849609375
-126.3427734375
-124.51171875
-121.76513671875
-121.76513671875
-129.08935546875
-131.8359375
-129.08935546875
-115.3564453125
-113.525390625
-118.10302734375
-113.525390625
-103.45458984375
-114.44091796875
-119.93408203125
-119.0185546875
-125.42724609375
-132.75146484375
-126.3427734375
-122.6806640625
-115.3564453125
-107.11669921875
-107.11669921875
-116.27197265625
-116.27197265625
-114.44091796875
-115.3564453125
-112.60986328125
-110.77880859375
-119.93408203125
-121.76513671875
-117.1875
-111.6943359375
-108.94775390625
-105.28564453125
-106.201171875
-110.77880859375
-112.60986328125
-119.93408203125
-130.0048828125
-138.24462890625
-147.39990234375
-162.9638671875
-172.119140625
-188.5986328125
-189.51416015625
-174.86572265625
-137.3291015625
-56.7626953125
38.4521484375
191.34521484375
374.45068359375
563.04931640625
753.47900390625
971.37451171875
1194.76318359375
1338.5009765625
1399.84130859375
1376.03759765625
1295.47119140625
1175.537109375
1026.30615234375
799.25537109375
572.20458984375
336.9140625
114.44091796875
-43.9453125
-117.1875
-135.498046875
-153.80859375
-160.21728515625
-140.07568359375
-92.46826171875
-43.9453125
-18.310546875
-11.90185546875
-10.07080078125
-20.1416015625
-28.38134765625
-32.958984375
-36.62109375
-39.36767578125
-37.53662109375
-40.283203125
-44.86083984375
-40.283203125
-47.607421875
-52.18505859375
-51.26953125
-43.02978515625
-41.19873046875
-43.9453125
-39.36767578125
-36.62109375
-39.36767578125
-41.19873046875
-40.283203125
-42.1142578125
-43.02978515625
-38.4521484375
-40.283203125
-39.36767578125
-38.4521484375
-29.296875
-29.296875
-34.7900390625
-31.1279296875
-25.634765625
-29.296875
-32.958984375
-27.4658203125
-23.8037109375
-28.38134765625
-21.05712890625
-22.88818359375
-22.88818359375
-21.97265625
-30.21240234375
-19.22607421875
-21.97265625
-13.73291015625
-4.57763671875
-10.07080078125
-10.07080078125
-9.1552734375
-10.986328125
-10.07080078125
-13.73291015625
-7.32421875
1.8310546875
0
5.4931640625
11.90185546875
12.8173828125
10.986328125
10.986328125
6.40869140625
19.22607421875
21.05712890625
25.634765625
32.958984375
41.19873046875
39.36767578125
34.7900390625
43.02978515625
42.1142578125
40.283203125
36.62109375
56.7626953125
65.00244140625
68.66455078125
71.4111328125
73.2421875
73.2421875
73.2421875
75.0732421875
80.56640625
86.97509765625
92.46826171875
99.79248046875
105.28564453125
116.27197265625
122.6806640625
129.08935546875
132.75146484375
147.39990234375
152.89306640625
156.55517578125
160.21728515625
173.9501953125
187.68310546875
200.50048828125
203.2470703125
210.5712890625
219.7265625
235.29052734375
243.5302734375
245.361328125
259.09423828125
271.91162109375
289.306640625
305.7861328125
311.279296875
316.7724609375
332.33642578125
350.64697265625
357.0556640625
359.80224609375
379.0283203125
387.26806640625
399.169921875
416.56494140625
424.8046875
436.70654296875
449.52392578125
451.35498046875
457.763671875
459.5947265625
463.2568359375
468.75
474.2431640625
477.9052734375
471.49658203125
470.5810546875
465.087890625
461.42578125
451.35498046875
444.03076171875
435.791015625
425.72021484375
417.48046875
411.07177734375
391.845703125
357.97119140625
340.576171875
326.84326171875
299.37744140625
279.23583984375
265.5029296875
247.1923828125
224.30419921875
198.66943359375
175.78125
161.1328125
143.73779296875
126.3427734375
105.28564453125
88.80615234375
69.580078125
56.7626953125
41.19873046875
27.4658203125
10.07080078125
3.662109375
-7.32421875
-21.97265625
-30.21240234375
-39.36767578125
-47.607421875
-52.18505859375
-56.7626953125
-55.84716796875
-60.4248046875
-58.59375
-62.255859375
-78.7353515625
-85.14404296875
-87.890625
-87.890625
-93.3837890625
-93.3837890625
-91.552734375
-81.48193359375
-92.46826171875
-100.7080078125
-101.62353515625
-99.79248046875
-107.11669921875
-107.11669921875
-108.94775390625
-103.45458984375
-90.63720703125
-86.0595703125
-94.29931640625
-106.201171875
-107.11669921875
-105.28564453125
-107.11669921875
-111.6943359375
-104.3701171875
-95.21484375
-89.7216796875
-96.13037109375
-100.7080078125
-98.876953125
-101.62353515625
-104.3701171875
-109.86328125
-106.201171875
-98.876953125
-102.5390625
-97.0458984375
-88.80615234375
-98.876953125
-110.77880859375
-110.77880859375
-112.60986328125
-106.201171875
-97.0458984375
-91.552734375
-86.0595703125
-86.0595703125
-92.46826171875
-94.29931640625
-90.63720703125
-88.80615234375
-89.7216796875
-97.0458984375
-102.5390625
-96.13037109375
-99.79248046875
-93.3837890625
-101.62353515625
-106.201171875
-108.0322265625
-99.79248046875
-85.14404296875
-89.7216796875
-93.3837890625
-92.46826171875
-88.80615234375
-85.14404296875
-86.0595703125
-88.80615234375
-86.97509765625
-91.552734375
-97.96142578125
-98.876953125
-97.96142578125
-93.3837890625
-95.21484375
-92.46826171875
-95.21484375
-97.96142578125
-97.0458984375
-97.0458984375
-96.13037109375
-96.13037109375
-100.7080078125
-97.0458984375
-94.29931640625
-97.0458984375
-94.29931640625
-99.79248046875
-105.28564453125
-107.11669921875
-104.3701171875
-107.11669921875
-98.876953125
-94.29931640625
-97.0458984375
-95.21484375
-99.79248046875
-99.79248046875
-101.62353515625
-108.0322265625
-108.94775390625
-109.86328125
-107.11669921875
-105.28564453125
-105.28564453125
-109.86328125
-108.94775390625
-110.77880859375
-112.60986328125
-111.6943359375
-112.60986328125
-105.28564453125
-104.3701171875
-112.60986328125
-111.6943359375
-116.27197265625
-106.201171875
-103.45458984375
-107.11669921875
-112.60986328125
-116.27197265625
-115.3564453125
-112.60986328125
-114.44091796875
-114.44091796875
-114.44091796875
-119.0185546875
-116.27197265625
-113.525390625
-111.6943359375
-114.44091796875
-118.10302734375
-124.51171875
-124.51171875
-119.0185546875
-112.60986328125
-116.27197265625
-112.60986328125
-120.849609375
-120.849609375
-120.849609375
-117.1875
-122.6806640625
-125.42724609375
-114.44091796875
-111.6943359375
-109.86328125
-116.27197265625
-115.3564453125
-122.6806640625
-132.75146484375
-135.498046875
-119.93408203125
-123.59619140625
-122.6806640625
-114.44091796875
-117.1875
-123.59619140625
-130.0048828125
-132.75146484375
-125.42724609375
-129.08935546875
-132.75146484375
-129.08935546875
-122.6806640625
-126.3427734375
-127.25830078125
-127.25830078125
-119.93408203125
-122.6806640625
-130.0048828125
-125.42724609375
-122.6806640625
-120.849609375
-126.3427734375
-122.6806640625
-120.849609375
-122.6806640625
-125.42724609375
-125.42724609375
-130.0048828125
-133.6669921875
-128.173828125
-131.8359375
-125.42724609375
-124.51171875
-130.0048828125
-129.08935546875
-130.0048828125
-136.41357421875
-132.75146484375
-130.0048828125
-132.75146484375
-130.0048828125
-131.8359375
-129.08935546875
-121.76513671875
-126.3427734375
-126.3427734375
-129.08935546875
-124.51171875
-133.6669921875
-135.498046875
-130.92041015625
-127.25830078125
-126.3427734375
-125.42724609375
-127.25830078125
-131.8359375
-135.498046875
-140.07568359375
-139.16015625
-138.24462890625
-136.41357421875
-129.08935546875
-127.25830078125
-127.25830078125
-129.08935546875
-131.8359375
-129.08935546875
-131.8359375
-140.9912109375
-138.24462890625
-130.0048828125
-130.0048828125
-130.0048828125
-120.849609375
-124.51171875
-130.0048828125
-128.173828125
-138.24462890625
-139.16015625
-141.90673828125
-133.6669921875
-125.42724609375
-126.3427734375
-128.173828125
-132.75146484375
-135.498046875
-130.0048828125
-128.173828125
-133.6669921875
-139.16015625
-130.92041015625
-126.3427734375
-126.3427734375
-130.92041015625
-132.75146484375
-137.3291015625
-144.6533203125
-139.16015625
-128.173828125
-128.173828125
-131.8359375
-130.0048828125
-122.6806640625
-125.42724609375
-130.92041015625
-133.6669921875
-130.92041015625
-130.0048828125
-133.6669921875
-136.41357421875
-137.3291015625
-135.498046875
-131.8359375
-123.59619140625
-118.10302734375
-108.94775390625
-115.3564453125
-121.76513671875
-124.51171875
-132.75146484375
-130.92041015625
-126.3427734375
-122.6806640625
-120.849609375
-114.44091796875
-107.11669921875
-98.876953125
-102.5390625
-96.13037109375
-97.0458984375
-89.7216796875
-93.3837890625
-104.3701171875
-106.201171875
-114.44091796875
-99.79248046875
-97.96142578125
-97.96142578125
-93.3837890625
-95.21484375
-86.0595703125
-93.3837890625
-92.46826171875
-90.63720703125
-94.29931640625
-104.3701171875
-123.59619140625
-132.75146484375
-129.08935546875
-130.92041015625
-126.3427734375
-126.3427734375
-123.59619140625
-128.173828125
-119.93408203125
-119.0185546875
-127.25830078125
-128.173828125
-130.92041015625
-133.6669921875
-125.42724609375
-127.25830078125
-128.173828125
-129.08935546875
-133.6669921875
-131.8359375
-130.0048828125
-129.08935546875
-137.3291015625
-126.3427734375
-128.173828125
-125.42724609375
-119.0185546875
-130.0048828125
-128.173828125
-125.42724609375
-119.93408203125
-122.6806640625
-128.173828125
-120.849609375
-120.849609375
-119.93408203125
-116.27197265625
-121.76513671875
-118.10302734375
-129.08935546875
-129.08935546875
-122.6806640625
-123.59619140625
-119.93408203125
-127.25830078125
-120.849609375
-118.10302734375
-125.42724609375
-145.56884765625
-167.54150390625
-188.5986328125
-201.416015625
-218.81103515625
-216.97998046875
-208.740234375
-168.45703125
-92.46826171875
6.40869140625
142.822265625
325.01220703125
511.77978515625
708.6181640625
931.09130859375
1161.80419921875
1310.11962890625
1385.19287109375
1362.3046875
1275.32958984375
1151.7333984375
985.107421875
753.47900390625
520.93505859375
294.7998046875
84.228515625
-65.91796875
-119.93408203125
-130.92041015625
-148.3154296875
-171.20361328125
-163.87939453125
-138.24462890625
-89.7216796875
-56.7626953125
-39.36767578125
-31.1279296875
-34.7900390625
-32.958984375
-43.02978515625
-48.52294921875
-52.18505859375
-60.4248046875
-67.7490234375
-66.83349609375
-65.91796875
-65.91796875
-65.91796875
-64.0869140625
-60.4248046875
-66.83349609375
-72.32666015625
-71.4111328125
-63.17138671875
-59.50927734375
-65.00244140625
-70.49560546875
-65.00244140625
-57.67822265625
-56.7626953125
-46.69189453125
-45.7763671875
-50.35400390625
-64.0869140625
-66.83349609375
-50.35400390625
-46.69189453125
-48.52294921875
-48.52294921875
-47.607421875
-49.4384765625
-43.9453125
-41.19873046875
-43.02978515625
-44.86083984375
-35.70556640625
-32.958984375
-31.1279296875
-31.1279296875
-35.70556640625
-35.70556640625
-28.38134765625
-29.296875
-30.21240234375
-27.4658203125
-28.38134765625
-24.71923828125
-30.21240234375
-21.97265625
-10.986328125
-10.07080078125
-15.56396484375
-20.1416015625
-6.40869140625
-2.74658203125
-10.986328125
-0.91552734375
2.74658203125
5.4931640625
6.40869140625
14.6484375
18.310546875
14.6484375
9.1552734375
12.8173828125
23.8037109375
32.958984375
28.38134765625
27.4658203125
29.296875
29.296875
36.62109375
47.607421875
55.84716796875
59.50927734375
62.255859375
67.7490234375
79.65087890625
89.7216796875
89.7216796875
92.46826171875
99.79248046875
101.62353515625
98.876953125
104.3701171875
114.44091796875
122.6806640625
140.9912109375
154.72412109375
151.06201171875
164.794921875
172.119140625
180.35888671875
188.5986328125
199.5849609375
204.16259765625
216.064453125
228.8818359375
240.78369140625
246.27685546875
263.671875
281.06689453125
289.306640625
292.96875
296.630859375
311.279296875
326.84326171875
335.99853515625
356.14013671875
363.46435546875
370.78857421875
390.0146484375
396.42333984375
397.3388671875
397.3388671875
418.39599609375
429.38232421875
428.466796875
433.9599609375
435.791015625
432.12890625
433.9599609375
433.9599609375
432.12890625
431.21337890625
422.9736328125
425.72021484375
417.48046875
409.24072265625
398.25439453125
384.521484375
369.873046875
350.64697265625
325.01220703125
299.37744140625
286.56005859375
281.06689453125
249.93896484375
219.7265625
200.50048828125
184.9365234375
159.3017578125
137.3291015625
113.525390625
91.552734375
75.0732421875
64.0869140625
51.26953125
32.958984375
18.310546875
-3.662109375
-21.05712890625
-32.958984375
-42.1142578125
-54.01611328125
-60.4248046875
-63.17138671875
-69.580078125
-86.0595703125
-94.29931640625
-98.876953125
-106.201171875
-111.6943359375
-124.51171875
-123.59619140625
-121.76513671875
-125.42724609375
-122.6806640625
-123.59619140625
-125.42724609375
-129.08935546875
-130.0048828125
-139.16015625
-144.6533203125
-151.06201171875
-150.146484375
-143.73779296875
-145.56884765625
-150.146484375
-149.23095703125
-160.21728515625
-160.21728515625
-153.80859375
-160.21728515625
-153.80859375
-151.9775390625
-154.72412109375
-148.3154296875
-140.9912109375
-151.9775390625
-146.484375
-141.90673828125
-151.06201171875
-151.06201171875
-148.3154296875
-144.6533203125
-142.822265625
-149.23095703125
-148.3154296875
-149.23095703125
-151.06201171875
-152.89306640625
-147.39990234375
-143.73779296875
-144.6533203125
-147.39990234375
-150.146484375
-145.56884765625
-137.3291015625
-139.16015625
-142.822265625
-144.6533203125
-151.06201171875
-143.73779296875
-146.484375
-140.9912109375
-138.24462890625
-139.16015625
-140.9912109375
-140.07568359375
-138.24462890625
-149.23095703125
-151.06201171875
-148.3154296875
-151.06201171875
-150.146484375
-138.24462890625
-130.0048828125
-129.08935546875
-134.58251953125
-138.24462890625
-145.56884765625
-140.9912109375
-140.07568359375
-151.9775390625
-148.3154296875
-145.56884765625
-148.3154296875
-147.39990234375
-147.39990234375
-144.6533203125
-152.89306640625
-155.6396484375
-162.9638671875
-167.54150390625
-159.3017578125
-143.73779296875
-135.498046875
-136.41357421875
-142.822265625
-143.73779296875
-139.16015625
-139.16015625
-140.9912109375
-148.3154296875
-153.80859375
-142.822265625
-145.56884765625
-159.3017578125
-155.6396484375
-157.470703125
-151.9775390625
-153.80859375
-155.6396484375
-151.9775390625
-151.06201171875
-150.146484375
-149.23095703125
-159.3017578125
-171.20361328125
-171.20361328125
-160.21728515625
-153.80859375
-153.80859375
-161.1328125
-164.794921875
-169.37255859375
-163.87939453125
-162.9638671875
-153.80859375
-149.23095703125
-157.470703125
-162.9638671875
-166.6259765625
-176.69677734375
-166.6259765625
-156.55517578125
-159.3017578125
-156.55517578125
-155.6396484375
-159.3017578125
-155.6396484375
-159.3017578125
-157.470703125
-160.21728515625
-162.04833984375
-163.87939453125
-165.71044921875
-162.04833984375
-167.54150390625
-168.45703125
-165.71044921875
-166.6259765625
-164.794921875
-167.54150390625
-167.54150390625
-170.2880859375
-160.21728515625
-150.146484375
-159.3017578125
-164.794921875
-160.21728515625
-155.6396484375
-162.9638671875
-164.794921875
-163.87939453125
-166.6259765625
-163.87939453125
-157.470703125
-164.794921875
-160.21728515625
-164.794921875
-167.54150390625
-171.20361328125
-171.20361328125
-170.2880859375
-163.87939453125
-165.71044921875
-173.9501953125
-171.20361328125
-167.54150390625
-172.119140625
-178.52783203125
-175.78125
-171.20361328125
-169.37255859375
-173.03466796875
-169.37255859375
-166.6259765625
-157.470703125
-159.3017578125
-165.71044921875
-160.21728515625
-169.37255859375
-170.2880859375
-177.6123046875
-173.9501953125
-171.20361328125
-164.794921875
-162.9638671875
-167.54150390625
-176.69677734375
-170.2880859375
-167.54150390625
-170.2880859375
-163.87939453125
-164.794921875
-166.6259765625
-168.45703125
-169.37255859375
-171.20361328125
-163.87939453125
-173.9501953125
-180.35888671875
-176.69677734375
-173.9501953125
-156.55517578125
-151.06201171875
-160.21728515625
-160.21728515625
-168.45703125
-172.119140625
-168.45703125
-172.119140625
-174.86572265625
-180.35888671875
-169.37255859375
-163.87939453125
-158.38623046875
-157.470703125
-153.80859375
-152.89306640625
-146.484375
-152.89306640625
-158.38623046875
-164.794921875
-167.54150390625
-157.470703125
-153.80859375
-147.39990234375
-143.73779296875
-144.6533203125
-149.23095703125
-156.55517578125
-151.9775390625
-156.55517578125
-162.9638671875
-156.55517578125
-151.06201171875
-141.90673828125
-136.41357421875
-137.3291015625
-129.08935546875
-130.92041015625
-133.6669921875
-136.41357421875
-125.42724609375
-123.59619140625
-129.08935546875
-138.24462890625
-134.58251953125
-132.75146484375
-130.92041015625
-132.75146484375
-136.41357421875
-130.92041015625
-127.25830078125
-123.59619140625
-135.498046875
-138.24462890625
-134.58251953125
-145.56884765625
-145.56884765625
-159.3017578125
-166.6259765625
-162.9638671875
-165.71044921875
-167.54150390625
-166.6259765625
-171.20361328125
-172.119140625
-177.6123046875
-173.9501953125
-173.03466796875
-172.119140625
-171.20361328125
-166.6259765625
-159.3017578125
-158.38623046875
-158.38623046875
-166.6259765625
-163.87939453125
-159.3017578125
-160.21728515625
-164.794921875
-165.71044921875
-170.2880859375
-173.9501953125
-161.1328125
-158.38623046875
-162.9638671875
-171.20361328125
-165.71044921875
-149.23095703125
-157.470703125
-163.87939453125
-164.794921875
-159.3017578125
-155.6396484375
-153.80859375
-154.72412109375
-162.04833984375
-173.9501953125
-178.52783203125
-178.52783203125
-169.37255859375
-160.21728515625
-159.3017578125
-154.72412109375
-167.54150390625
-173.03466796875
-196.83837890625
-218.81103515625
-224.30419921875
-241.69921875
-260.009765625
-252.685546875
-238.037109375
-194.091796875
-121.76513671875
-11.90185546875
135.498046875
330.50537109375
522.76611328125
721.435546875
953.06396484375
1175.537109375
1299.13330078125
1344.90966796875
1298.2177734375
1207.58056640625
1077.57568359375
884.3994140625
655.517578125
430.2978515625
202.33154296875
18.310546875
-103.45458984375
-144.6533203125
-166.6259765625
-186.767578125
-190.4296875
-184.9365234375
-147.39990234375
-107.11669921875
-81.48193359375
-53.1005859375
-49.4384765625
-62.255859375
-66.83349609375
-72.32666015625
-87.890625
-90.63720703125
-89.7216796875
-94.29931640625
-89.7216796875
-79.65087890625
-88.80615234375
-92.46826171875
-102.5390625
-108.0322265625
-103.45458984375
-106.201171875
-98.876953125
-87.890625
-84.228515625
-85.14404296875
-83.31298828125
-72.32666015625
-80.56640625
-77.81982421875
-92.46826171875
-106.201171875
-101.62353515625
-92.46826171875
-83.31298828125
-83.31298828125
-83.31298828125
-72.32666015625
-63.17138671875
-61.34033203125
-61.34033203125
-68.66455078125
-69.580078125
-67.7490234375
-66.83349609375
-66.83349609375
-58.59375
-47.607421875
-58.59375
-65.91796875
-66.83349609375
-75.98876953125
-75.98876953125
-70.49560546875
-59.50927734375
-54.01611328125
-46.69189453125
-37.53662109375
-35.70556640625
-22.88818359375
-27.4658203125
-32.958984375
-42.1142578125
-35.70556640625
-36.62109375
-23.8037109375
-15.56396484375
-5.4931640625
-9.1552734375
-11.90185546875
-7.32421875
-5.4931640625
-0.91552734375
-1.8310546875
-2.74658203125
4.57763671875
11.90185546875
19.22607421875
18.310546875
19.22607421875
25.634765625
20.1416015625
21.97265625
36.62109375
41.19873046875
41.19873046875
42.1142578125
53.1005859375
55.84716796875
60.4248046875
66.83349609375
68.66455078125
70.49560546875
80.56640625
101.62353515625
108.0322265625
123.59619140625
122.6806640625
126.3427734375
132.75146484375
139.16015625
157.470703125
165.71044921875
174.86572265625
200.50048828125
209.65576171875
226.13525390625
241.69921875
255.43212890625
261.8408203125
263.671875
266.41845703125
271.91162109375
296.630859375
315.85693359375
325.01220703125
346.98486328125
368.0419921875
380.859375
379.0283203125
386.3525390625
390.93017578125
394.59228515625
405.57861328125
419.3115234375
424.8046875
423.88916015625
428.466796875
433.04443359375
440.36865234375
438.53759765625
442.19970703125
449.52392578125
437.6220703125
431.21337890625
420.22705078125
410.15625
407.40966796875
402.83203125
386.3525390625
368.95751953125
357.97119140625
335.0830078125
306.70166015625
281.982421875
261.8408203125
244.44580078125
224.30419921875
197.75390625
183.10546875
173.03466796875
149.23095703125
121.76513671875
91.552734375
77.81982421875
65.00244140625
49.4384765625
28.38134765625
11.90185546875
9.1552734375
-7.32421875
-23.8037109375
-34.7900390625
-46.69189453125
-62.255859375
-64.0869140625
-71.4111328125
-81.48193359375
-90.63720703125
-94.29931640625
-102.5390625
-108.0322265625
-117.1875
-128.173828125
-123.59619140625
-118.10302734375
-119.93408203125
-118.10302734375
-126.3427734375
-133.6669921875
-141.90673828125
-153.80859375
-157.470703125
-150.146484375
-140.07568359375
-133.6669921875
-129.08935546875
-130.0048828125
-136.41357421875
-147.39990234375
-149.23095703125
-149.23095703125
-147.39990234375
-140.07568359375
-143.73779296875
-131.8359375
-126.3427734375
-126.3427734375
-148.3154296875
-157.470703125
-159.3017578125
-151.06201171875
-157.470703125
-157.470703125
-153.80859375
-143.73779296875
-136.41357421875
-138.24462890625
-135.498046875
-134.58251953125
-127.25830078125
-122.6806640625
-135.498046875
-140.07568359375
-140.9912109375
-138.24462890625
-139.16015625
-139.16015625
-131.8359375
-134.58251953125
-129.08935546875
-123.59619140625
-126.3427734375
-130.0048828125
-126.3427734375
-123.59619140625
-124.51171875
-121.76513671875
-121.76513671875
-122.6806640625
-137.3291015625
-144.6533203125
-147.39990234375
-146.484375
-140.07568359375
-136.41357421875
-122.6806640625
-111.6943359375
-118.10302734375
-130.0048828125
-131.8359375
-128.173828125
-131.8359375
-140.9912109375
-139.16015625
-136.41357421875
-131.8359375
-119.0185546875
-121.76513671875
-130.0048828125
-133.6669921875
-127.25830078125
-130.92041015625
-140.9912109375
-140.07568359375
-134.58251953125
-128.173828125
-124.51171875
-131.8359375
-136.41357421875
-147.39990234375
-157.470703125
-157.470703125
-158.38623046875
-142.822265625
-141.90673828125
-133.6669921875
-125.42724609375
-125.42724609375
-134.58251953125
-135.498046875
-140.07568359375
-138.24462890625
-142.822265625
-139.16015625
-145.56884765625
-151.06201171875
-153.80859375
-143.73779296875
-144.6533203125
-145.56884765625
-150.146484375
-144.6533203125
-152.89306640625
-154.72412109375
-145.56884765625
-154.72412109375
-159.3017578125
-145.56884765625
-140.07568359375
-130.92041015625
-133.6669921875
-140.07568359375
-146.484375
-152.89306640625
-159.3017578125
-148.3154296875
-136.41357421875
-141.90673828125
-137.3291015625
-139.16015625
-146.484375
-154.72412109375
-160.21728515625
-147.39990234375
-151.06201171875
-143.73779296875
-142.822265625
-141.90673828125
-144.6533203125
-151.06201171875
-151.9775390625
-154.72412109375
-162.04833984375
-172.119140625
-152.89306640625
-144.6533203125
-151.06201171875
-147.39990234375
-145.56884765625
-144.6533203125
-143.73779296875
-140.07568359375
-142.822265625
-157.470703125
-156.55517578125
-156.55517578125
-151.06201171875
-151.06201171875
-148.3154296875
-146.484375
-151.06201171875
-147.39990234375
-151.06201171875
-163.87939453125
-158.38623046875
-147.39990234375
-144.6533203125
-151.9775390625
-154.72412109375
-153.80859375
-151.9775390625
-144.6533203125
-151.06201171875
-154.72412109375
-153.80859375
-159.3017578125
-151.9775390625
-145.56884765625
-138.24462890625
-150.146484375
-153.80859375
-150.146484375
-151.9775390625
-158.38623046875
-151.9775390625
-149.23095703125
-150.146484375
-148.3154296875
-148.3154296875
-154.72412109375
-157.470703125
-151.06201171875
-151.9775390625
-152.89306640625
-154.72412109375
-157.470703125
-145.56884765625
-141.90673828125
-143.73779296875
-140.07568359375
-144.6533203125
-152.89306640625
-153.80859375
-162.04833984375
-158.38623046875
-152.89306640625
-140.07568359375
-140.07568359375
-139.16015625
-128.173828125
-139.16015625
-144.6533203125
-146.484375
-143.73779296875
-145.56884765625
-135.498046875
-130.0048828125
-137.3291015625
-144.6533203125
-152.89306640625
-154.72412109375
-149.23095703125
-141.90673828125
-150.146484375
-140.9912109375
-133.6669921875
-139.16015625
-145.56884765625
-146.484375
-143.73779296875
-130.0048828125
-135.498046875
-133.6669921875
-140.9912109375
-147.39990234375
-140.07568359375
-132.75146484375
-125.42724609375
-120.849609375
-129.08935546875
-139.16015625
-146.484375
-152.89306640625
-156.55517578125
-143.73779296875
-135.498046875
-140.07568359375
-131.8359375
-126.3427734375
-132.75146484375
-124.51171875
-124.51171875
-125.42724609375
-126.3427734375
-131.8359375
-130.0048828125
-125.42724609375
-126.3427734375
-122.6806640625
-120.849609375
-119.0185546875
-119.93408203125
-117.1875
-122.6806640625
-123.59619140625
-120.849609375
-120.849609375
-124.51171875
-119.0185546875
-109.86328125
-109.86328125
-105.28564453125
-105.28564453125
-100.7080078125
-107.11669921875
-101.62353515625
-98.876953125
-108.0322265625
-112.60986328125
-97.96142578125
-97.96142578125
-110.77880859375
-108.94775390625
-104.3701171875
-100.7080078125
-98.876953125
-99.79248046875
-104.3701171875
-112.60986328125
-108.94775390625
-108.94775390625
-114.44091796875
-128.173828125
-142.822265625
-143.73779296875
-134.58251953125
-135.498046875
-133.6669921875
-126.3427734375
-129.08935546875
-128.173828125
-141.90673828125
-145.56884765625
-140.07568359375
-132.75146484375
-131.8359375
-129.08935546875
-130.92041015625
-135.498046875
-138.24462890625
-136.41357421875
-134.58251953125
-139.16015625
-140.07568359375
-137.3291015625
-134.58251953125
-136.41357421875
-141.90673828125
-142.822265625
-136.41357421875
-127.25830078125
-129.08935546875
-142.822265625
-144.6533203125
-136.41357421875
-130.92041015625
-128.173828125
-123.59619140625
-130.92041015625
-135.498046875
-128.173828125
-130.92041015625
-133.6669921875
-127.25830078125
-131.8359375
-130.92041015625
-123.59619140625
-133.6669921875
-143.73779296875
-165.71044921875
-184.9365234375
-188.5986328125
-211.48681640625
-221.5576171875
-217.8955078125
-187.68310546875
-125.42724609375
-41.19873046875
79.65087890625
243.5302734375
435.791015625
628.0517578125
828.55224609375
1070.25146484375
1274.4140625
1388.85498046875
1411.7431640625
1348.57177734375
1244.20166015625
1094.970703125
900.87890625
674.74365234375
434.87548828125
199.5849609375
19.22607421875
-94.29931640625
-128.173828125
-150.146484375
-178.52783203125
-168.45703125
-140.07568359375
-97.96142578125
-61.34033203125
-17.39501953125
-21.97265625
-32.958984375
-29.296875
-42.1142578125
-48.52294921875
-54.01611328125
-58.59375
-57.67822265625
-62.255859375
-65.91796875
-63.17138671875
-55.84716796875
-51.26953125
-57.67822265625
-67.7490234375
-65.91796875
-66.83349609375
-63.17138671875
-66.83349609375
-68.66455078125
-69.580078125
-56.7626953125
-48.52294921875
-47.607421875
-50.35400390625
-52.18505859375
-57.67822265625
-55.84716796875
-62.255859375
-64.0869140625
-54.01611328125
-46.69189453125
-41.19873046875
-41.19873046875
-42.1142578125
-38.4521484375
-45.7763671875
-54.931640625
-52.18505859375
-50.35400390625
-43.02978515625
-34.7900390625
-34.7900390625
-38.4521484375
-34.7900390625
-36.62109375
-31.1279296875
-30.21240234375
-30.21240234375
-31.1279296875
-20.1416015625
-12.8173828125
-8.23974609375
-14.6484375
-17.39501953125
-21.05712890625
-10.07080078125
-10.07080078125
-17.39501953125
-10.986328125
-7.32421875
0
15.56396484375
16.4794921875
5.4931640625
9.1552734375
11.90185546875
13.73291015625
17.39501953125
16.4794921875
20.1416015625
27.4658203125
37.53662109375
38.4521484375
33.87451171875
41.19873046875
48.52294921875
43.9453125
48.52294921875
52.18505859375
54.931640625
78.7353515625
89.7216796875
87.890625
91.552734375
98.876953125
101.62353515625
107.11669921875
111.6943359375
115.3564453125
125.42724609375
144.6533203125
158.38623046875
166.6259765625
175.78125
175.78125
189.51416015625
195.00732421875
203.2470703125
211.48681640625
224.30419921875
242.61474609375
254.5166015625
267.333984375
283.8134765625
294.7998046875
304.87060546875
315.85693359375
319.51904296875
335.99853515625
350.64697265625
366.2109375
379.0283203125
380.859375
387.26806640625
395.5078125
404.6630859375
418.39599609375
433.9599609375
446.77734375
457.763671875
460.51025390625
470.5810546875
478.82080078125
477.9052734375
475.15869140625
476.07421875
476.98974609375
467.83447265625
463.2568359375
457.763671875
451.35498046875
444.03076171875
433.9599609375
421.142578125
400.08544921875
380.859375
357.0556640625
344.23828125
325.927734375
302.1240234375
278.3203125
256.34765625
229.79736328125
204.16259765625
180.35888671875
162.9638671875
148.3154296875
122.6806640625
102.5390625
87.890625
77.81982421875
58.59375
43.02978515625
30.21240234375
17.39501953125
1.8310546875
-21.97265625
-36.62109375
-41.19873046875
-45.7763671875
-53.1005859375
-54.931640625
-67.7490234375
-68.66455078125
-79.65087890625
-83.31298828125
-79.65087890625
-91.552734375
-91.552734375
-98.876953125
-98.876953125
-101.62353515625
-107.11669921875
-101.62353515625
-104.3701171875
-103.45458984375
-108.94775390625
-116.27197265625
-113.525390625
-114.44091796875
-114.44091796875
-116.27197265625
-115.3564453125
-124.51171875
-123.59619140625
-119.0185546875
-126.3427734375
-132.75146484375
-120.849609375
-114.44091796875
-119.0185546875
-119.93408203125
-128.173828125
-129.08935546875
-130.0048828125
-129.08935546875
-124.51171875
-129.08935546875
-129.08935546875
-122.6806640625
-115.3564453125
-119.0185546875
-121.76513671875
-119.0185546875
-120.849609375
-122.6806640625
-123.59619140625
-124.51171875
-117.1875
-110.77880859375
-112.60986328125
-106.201171875
-108.94775390625
-113.525390625
-117.1875
-116.27197265625
-109.86328125
-115.3564453125
-124.51171875
-119.93408203125
-110.77880859375
-121.76513671875
-116.27197265625
-112.60986328125
-112.60986328125
-114.44091796875
-116.27197265625
-120.849609375
-124.51171875
-120.849609375
-117.1875
-111.6943359375
-115.3564453125
-116.27197265625
-113.525390625
-119.0185546875
-124.51171875
-125.42724609375
-130.92041015625
-128.173828125
-121.76513671875
-127.25830078125
-128.173828125
-122.6806640625
-116.27197265625
-114.44091796875
-125.42724609375
-127.25830078125
-125.42724609375
-119.0185546875
-116.27197265625
-119.93408203125
-123.59619140625
-121.76513671875
-124.51171875
-125.42724609375
-123.59619140625
-135.498046875
-138.24462890625
-131.8359375
-122.6806640625
-124.51171875
-131.8359375
-130.92041015625
-138.24462890625
-140.07568359375
-133.6669921875
-137.3291015625
-140.07568359375
-135.498046875
-128.173828125
-121.76513671875
-123.59619140625
-132.75146484375
-137.3291015625
-135.498046875
-130.92041015625
-136.41357421875
-137.3291015625
-139.16015625
-136.41357421875
-127.25830078125
-129.08935546875
-134.58251953125
-141.90673828125
-140.07568359375
-143.73779296875
-146.484375
-147.39990234375
-151.06201171875
-140.9912109375
-133.6669921875
-140.07568359375
-144.6533203125
-149.23095703125
-145.56884765625
-151.9775390625
-153.80859375
-149.23095703125
-150.146484375
-145.56884765625
-146.484375
-149.23095703125
-153.80859375
-151.06201171875
-142.822265625
-140.9912109375
-153.80859375
-146.484375
-145.56884765625
-140.9912109375
-139.16015625
-149.23095703125
-156.55517578125
-142.822265625
-144.6533203125
-140.9912109375
-146.484375
-153.80859375
-140.07568359375
-141.90673828125
-148.3154296875
-145.56884765625
-140.9912109375
-142.822265625
-146.484375
-146.484375
-152.89306640625
-159.3017578125
-151.9775390625
-148.3154296875
-151.06201171875
-155.6396484375
-153.80859375
-155.6396484375
-155.6396484375
-162.04833984375
-151.9775390625
-151.9775390625
-156.55517578125
-143.73779296875
-137.3291015625
-139.16015625
-140.9912109375
-145.56884765625
-147.39990234375
-151.9775390625
-157.470703125
-162.9638671875
-158.38623046875
-162.04833984375
-153.80859375
-146.484375
-149.23095703125
-159.3017578125
-149.23095703125
-147.39990234375
-151.9775390625
-150.146484375
-143.73779296875
-146.484375
-153.80859375
-150.146484375
-145.56884765625
-148.3154296875
-155.6396484375
-159.3017578125
-166.6259765625
-162.9638671875
-157.470703125
-156.55517578125
-155.6396484375
-160.21728515625
-166.6259765625
-158.38623046875
-155.6396484375
-148.3154296875
-143.73779296875
-142.822265625
-133.6669921875
-132.75146484375
-133.6669921875
-136.41357421875
-148.3154296875
-161.1328125
-159.3017578125
-160.21728515625
-159.3017578125
-167.54150390625
-161.1328125
-148.3154296875
-132.75146484375
-134.58251953125
-141.90673828125
-140.07568359375
-141.90673828125
-144.6533203125
-159.3017578125
-162.04833984375
-156.55517578125
-151.9775390625
-148.3154296875
-141.90673828125
-141.90673828125
-143.73779296875
-152.89306640625
-142.822265625
-154.72412109375
-155.6396484375
-158.38623046875
-151.06201171875
-149.23095703125
-152.89306640625
-143.73779296875
-138.24462890625
-138.24462890625
-143.73779296875
-143.73779296875
-135.498046875
-130.0048828125
-135.498046875
-135.498046875
-135.498046875
-137.3291015625
-138.24462890625
-150.146484375
-152.89306640625
-147.39990234375
-130.0048828125
-120.849609375
-131.8359375
-130.92041015625
-126.3427734375
-126.3427734375
-125.42724609375
-130.0048828125
-148.3154296875
-146.484375
-134.58251953125
-117.1875
-108.0322265625
-104.3701171875
-102.5390625
-96.13037109375
-101.62353515625
-105.28564453125
-109.86328125
-117.1875
-125.42724609375
-125.42724609375
-112.60986328125
-108.0322265625
-100.7080078125
-111.6943359375
-100.7080078125
-103.45458984375
-120.849609375
-125.42724609375
-110.77880859375
-97.96142578125
-105.28564453125
-113.525390625
-134.58251953125
-142.822265625
-139.16015625
-144.6533203125
-142.822265625
-156.55517578125
-151.06201171875
-150.146484375
-143.73779296875
-143.73779296875
-152.89306640625
-160.21728515625
-139.16015625
-128.173828125
-130.92041015625
-138.24462890625
-137.3291015625
-140.9912109375
-130.92041015625
-126.3427734375
-130.92041015625
-139.16015625
-137.3291015625
-144.6533203125
-143.73779296875
-142.822265625
-149.23095703125
-146.484375
-136.41357421875
-126.3427734375
-129.08935546875
-133.6669921875
-142.822265625
-147.39990234375
-156.55517578125
-151.06201171875
-148.3154296875
-159.3017578125
-154.72412109375
-140.9912109375
-137.3291015625
-123.59619140625
-111.6943359375
-105.28564453125
-114.44091796875
-126.3427734375
-121.76513671875
-125.42724609375
-166.6259765625
-194.091796875
-205.99365234375
-227.05078125
-246.27685546875
-242.61474609375
-230.712890625
-186.767578125
-101.62353515625
-5.4931640625
147.39990234375
340.576171875
539.24560546875
723.2666015625
948.486328125
1169.12841796875
1293.64013671875
1336.669921875
1291.80908203125
1224.06005859375
1103.21044921875
915.52734375
682.9833984375
470.5810546875
251.77001953125
64.0869140625
-53.1005859375
-100.7080078125
-130.92041015625
-172.119140625
-190.4296875
-181.2744140625
-162.9638671875
-118.10302734375
-71.4111328125
-33.87451171875
-30.21240234375
-44.86083984375
-49.4384765625
-51.26953125
-55.84716796875
-54.01611328125
-46.69189453125
-49.4384765625
-60.4248046875
-63.17138671875
-57.67822265625
-68.66455078125
-73.2421875
-73.2421875
-54.931640625
-45.7763671875
-52.18505859375
-57.67822265625
-69.580078125
-103.45458984375
-100.7080078125
-95.21484375
-93.3837890625
-73.2421875
-50.35400390625
-47.607421875
-53.1005859375
-53.1005859375
-43.02978515625
-49.4384765625
-72.32666015625
-59.50927734375
-48.52294921875
-43.02978515625
-33.87451171875
-37.53662109375
-50.35400390625
-36.62109375
-41.19873046875
-33.87451171875
-48.52294921875
-62.255859375
-72.32666015625
-61.34033203125
-40.283203125
-39.36767578125
-40.283203125
-34.7900390625
-25.634765625
-22.88818359375
-29.296875
-24.71923828125
-32.04345703125
-33.87451171875
-28.38134765625
-19.22607421875
-20.1416015625
-26.55029296875
2.74658203125
16.4794921875
19.22607421875
12.8173828125
21.05712890625
37.53662109375
32.04345703125
32.958984375
43.02978515625
34.7900390625
14.6484375
29.296875
41.19873046875
52.18505859375
56.7626953125
65.00244140625
50.35400390625
58.59375
47.607421875
47.607421875
75.0732421875
86.0595703125
75.98876953125
66.83349609375
77.81982421875
103.45458984375
98.876953125
102.5390625
122.6806640625
126.3427734375
124.51171875
121.76513671875
141.90673828125
136.41357421875
154.72412109375
155.6396484375
156.55517578125
150.146484375
164.794921875
187.68310546875
203.2470703125
227.05078125
241.69921875
262.75634765625
284.72900390625
292.96875
288.39111328125
303.955078125
308.53271484375
296.630859375
315.85693359375
346.0693359375
361.63330078125
382.6904296875
397.3388671875
434.87548828125
441.2841796875
449.52392578125
450.439453125
444.03076171875
441.2841796875
439.453125
454.1015625
456.84814453125
456.84814453125
451.35498046875
467.83447265625
472.412109375
460.51025390625
433.04443359375
436.70654296875
434.87548828125
445.86181640625
420.22705078125
397.3388671875
397.3388671875
393.6767578125
379.94384765625
341.49169921875
319.51904296875
295.71533203125
257.26318359375
232.5439453125
210.5712890625
186.767578125
179.443359375
171.20361328125
151.9775390625
155.6396484375
130.92041015625
110.77880859375
90.63720703125
76.904296875
38.4521484375
27.4658203125
7.32421875
0
-8.23974609375
-23.8037109375
-28.38134765625
-40.283203125
-47.607421875
-55.84716796875
-52.18505859375
-51.26953125
-63.17138671875
-86.97509765625
-108.0322265625
-124.51171875
-125.42724609375
-120.849609375
-112.60986328125
-116.27197265625
-100.7080078125
-92.46826171875
-86.0595703125
-91.552734375
-109.86328125
-125.42724609375
-110.77880859375
-124.51171875
-147.39990234375
-159.3017578125
-168.45703125
-162.04833984375
-153.80859375
-151.06201171875
-154.72412109375
-146.484375
-157.470703125
-181.2744140625
-183.10546875
-143.73779296875
-136.41357421875
-126.3427734375
-114.44091796875
-110.77880859375
-118.10302734375
-130.92041015625
-139.16015625
-147.39990234375
-135.498046875
-140.07568359375
-150.146484375
-165.71044921875
-184.9365234375
-155.6396484375
-130.92041015625
-118.10302734375
-97.96142578125
-113.525390625
-113.525390625
-121.76513671875
-140.9912109375
-125.42724609375
-136.41357421875
-141.90673828125
-143.73779296875
-152.89306640625
-155.6396484375
-126.3427734375
-147.39990234375
-133.6669921875
-130.92041015625
-142.822265625
-145.56884765625
-119.0185546875
-126.3427734375
-147.39990234375
-119.93408203125
-116.27197265625
-108.0322265625
-122.6806640625
-145.56884765625
-110.77880859375
-127.25830078125
-138.24462890625
-123.59619140625
-115.3564453125
-92.46826171875
-85.14404296875
-88.80615234375
-90.63720703125
-117.1875
-147.39990234375
-172.119140625
-178.52783203125
-170.2880859375
-132.75146484375
-125.42724609375
-107.11669921875
-105.28564453125
-106.201171875
-114.44091796875
-124.51171875
-130.0048828125
-117.1875
-123.59619140625
-140.9912109375
-112.60986328125
-127.25830078125
-149.23095703125
-145.56884765625
-140.07568359375
-151.9775390625
-142.822265625
-162.9638671875
-160.21728515625
-148.3154296875
-134.58251953125
-148.3154296875
-134.58251953125
-145.56884765625
-150.146484375
-167.54150390625
-167.54150390625
-152.89306640625
-163.87939453125
-174.86572265625
-141.90673828125
-113.525390625
-116.27197265625
-98.876953125
-86.97509765625
-103.45458984375
-133.6669921875
-152.89306640625
-142.822265625
-124.51171875
-109.86328125
-143.73779296875
-171.20361328125
-173.9501953125
-170.2880859375
-142.822265625
-123.59619140625
-112.60986328125
-107.11669921875
-97.0458984375
-110.77880859375
-119.93408203125
-144.6533203125
-151.06201171875
-154.72412109375
-152.89306640625
-147.39990234375
-137.3291015625
-113.525390625
-123.59619140625
-116.27197265625
-115.3564453125
-121.76513671875
-132.75146484375
-126.3427734375
-131.8359375
-143.73779296875
-131.8359375
-140.07568359375
-141.90673828125
-134.58251953125
-135.498046875
-141.90673828125
-126.3427734375
-123.59619140625
-133.6669921875
-129.08935546875
-140.07568359375
-128.173828125
-122.6806640625
-126.3427734375
-131.8359375
-138.24462890625
-128.173828125
-123.59619140625
-128.173828125
-134.58251953125
-128.173828125
-131.8359375
-131.8359375
-128.173828125
-126.3427734375
-140.07568359375
-124.51171875
-125.42724609375
-128.173828125
-133.6669921875
-144.6533203125
-144.6533203125
-137.3291015625
-135.498046875
-144.6533203125
-133.6669921875
-135.498046875
-135.498046875
-140.9912109375
-132.75146484375
-127.25830078125
-138.24462890625
-147.39990234375
-144.6533203125
-111.6943359375
-115.3564453125
-121.76513671875
-110.77880859375
-108.94775390625
-108.94775390625
-113.525390625
-118.10302734375
-112.60986328125
-106.201171875
-117.1875
-119.93408203125
-122.6806640625
-125.42724609375
-131.8359375
-110.77880859375
-108.0322265625
-97.96142578125
-98.876953125
-101.62353515625
-98.876953125
-99.79248046875
-108.0322265625
-105.28564453125
-106.201171875
-108.0322265625
-108.0322265625
-92.46826171875
-96.13037109375
-88.80615234375
-107.11669921875
-122.6806640625
-112.60986328125
-114.44091796875
-118.10302734375
-110.77880859375
-106.201171875
-100.7080078125
-94.29931640625
-85.14404296875
-82.3974609375
-86.97509765625
-100.7080078125
-101.62353515625
-92.46826171875
-85.14404296875
-92.46826171875
-71.4111328125
-52.18505859375
-47.607421875
-62.255859375
-77.81982421875
-72.32666015625
-72.32666015625
-71.4111328125
-67.7490234375
-69.580078125
-64.0869140625
-79.65087890625
-89.7216796875
-93.3837890625
-105.28564453125
-104.3701171875
-103.45458984375
-127.25830078125
-128.173828125
-115.3564453125
-105.28564453125
-107.11669921875
-119.0185546875
-106.201171875
-104.3701171875
-89.7216796875
-91.552734375
-85.14404296875
-87.890625
-98.876953125
-106.201171875
-118.10302734375
-107.11669921875
-108.94775390625
-123.59619140625
-108.94775390625
-86.0595703125
-96.13037109375
-66.83349609375
-68.66455078125
-58.59375
-64.0869140625
-75.98876953125
-39.36767578125
-58.59375
-82.3974609375
-86.97509765625
-92.46826171875
-109.86328125
-103.45458984375
-153.80859375
-157.470703125
-139.16015625
-121.76513671875
-109.86328125
-102.5390625
-83.31298828125
-85.14404296875
-92.46826171875
-65.91796875
-121.76513671875
-140.07568359375
-151.06201171875
-183.10546875
-205.99365234375
-226.13525390625
-183.10546875
-108.94775390625
11.90185546875
175.78125
379.0283203125
584.1064453125
820.3125
1029.96826171875
1256.103515625
1391.6015625
1429.13818359375
1401.67236328125
1304.62646484375
1155.3955078125
972.2900390625
754.39453125
498.046875
276.4892578125
86.0595703125
-32.958984375
-43.02978515625
-32.04345703125
-52.18505859375
-48.52294921875
-46.69189453125
-24.71923828125
-7.32421875
-16.4794921875
-34.7900390625
-35.70556640625
-51.26953125
-60.4248046875
-25.634765625
-6.40869140625
4.57763671875
27.4658203125
23.8037109375
0
13.73291015625
-31.1279296875
-19.22607421875
4.57763671875
-17.39501953125
-14.6484375
-28.38134765625
-34.7900390625
-50.35400390625
-70.49560546875
-82.3974609375
-77.81982421875
-20.1416015625
6.40869140625
-5.4931640625
19.22607421875
22.88818359375
27.4658203125
19.22607421875
-3.662109375
-31.1279296875
-9.1552734375
-9.1552734375
-4.57763671875
10.986328125
-10.986328125
-21.97265625
2.74658203125
-2.74658203125
-5.4931640625
21.05712890625
63.17138671875
44.86083984375
-0.91552734375
-30.21240234375
-32.958984375
-16.4794921875
-4.57763671875
37.53662109375
21.97265625
16.4794921875
21.05712890625
28.38134765625
17.39501953125
33.87451171875
39.36767578125
46.69189453125
39.36767578125
31.1279296875
23.8037109375
52.18505859375
66.83349609375
67.7490234375
53.1005859375
52.18505859375
59.50927734375
54.931640625
49.4384765625
64.0869140625
82.3974609375
103.45458984375
105.28564453125
73.2421875
51.26953125
104.3701171875
79.65087890625
73.2421875
97.0458984375
119.0185546875
117.1875
141.90673828125
161.1328125
162.04833984375
172.119140625
173.03466796875
191.34521484375
203.2470703125
184.02099609375
197.75390625
195.00732421875
205.99365234375
229.79736328125
246.27685546875
248.10791015625
259.09423828125
258.1787109375
270.99609375
286.56005859375
308.53271484375
327.7587890625
338.7451171875
336.9140625
339.66064453125
358.88671875
376.28173828125
368.0419921875
385.43701171875
391.845703125
405.57861328125
423.88916015625
441.2841796875
447.69287109375
457.763671875
473.32763671875
476.98974609375
508.11767578125
531.005859375
528.25927734375
529.1748046875
529.1748046875
542.90771484375
539.24560546875
535.58349609375
562.1337890625
574.951171875
584.1064453125
594.17724609375
592.34619140625
579.52880859375
571.2890625
560.302734375
552.978515625
534.66796875
522.76611328125
510.8642578125
498.96240234375
468.75
454.1015625
430.2978515625
400.08544921875
388.18359375
368.0419921875
345.15380859375
330.50537109375
310.36376953125
283.8134765625
276.4892578125
240.78369140625
214.2333984375
187.68310546875
162.9638671875
151.06201171875
138.24462890625
148.3154296875
133.6669921875
105.28564453125
86.97509765625
75.98876953125
71.4111328125
68.66455078125
59.50927734375
46.69189453125
31.1279296875
11.90185546875
8.23974609375
11.90185546875
0.91552734375
-31.1279296875
-31.1279296875
-41.19873046875
-39.36767578125
-26.55029296875
-34.7900390625
-24.71923828125
-7.32421875
-5.4931640625
10.07080078125
12.8173828125
14.6484375
26.55029296875
25.634765625
-3.662109375
-15.56396484375
-10.986328125
-13.73291015625
-3.662109375
-3.662109375
-21.97265625
-23.8037109375
-24.71923828125
-35.70556640625
-28.38134765625
-32.958984375
-52.18505859375
-32.958984375
-25.634765625
-36.62109375
-26.55029296875
-31.1279296875
-24.71923828125
-28.38134765625
-24.71923828125
-27.4658203125
-25.634765625
-24.71923828125
-25.634765625
-36.62109375
-34.7900390625
-36.62109375
-37.53662109375
-51.26953125
-63.17138671875
-54.01611328125
-32.04345703125
-28.38134765625
-34.7900390625
-25.634765625
-12.8173828125
-20.1416015625
-27.4658203125
-10.07080078125
-23.8037109375
-34.7900390625
-19.22607421875
-19.22607421875
-23.8037109375
-30.21240234375
-34.7900390625
-31.1279296875
-27.4658203125
-40.283203125
-50.35400390625
-37.53662109375
-30.21240234375
-20.1416015625
-12.8173828125
-34.7900390625
-36.62109375
-41.19873046875
-38.4521484375
-22.88818359375
-31.1279296875
-37.53662109375
-39.36767578125
-32.04345703125
-25.634765625
-33.87451171875
-40.283203125
-47.607421875
-57.67822265625
-54.931640625
-67.7490234375
-88.80615234375
-67.7490234375
-46.69189453125
-52.18505859375
-43.02978515625
-34.7900390625
-16.4794921875
-29.296875
-44.86083984375
-46.69189453125
-65.00244140625
-67.7490234375
-59.50927734375
-54.01611328125
-54.01611328125
-43.02978515625
-45.7763671875
-46.69189453125
-61.34033203125
-70.49560546875
-61.34033203125
-55.84716796875
-66.83349609375
-52.18505859375
-36.62109375
-48.52294921875
-54.01611328125
-51.26953125
-59.50927734375
-54.01611328125
-47.607421875
-56.7626953125
-75.98876953125
-59.50927734375
-50.35400390625
-54.01611328125
-69.580078125
-55.84716796875
-47.607421875
-43.9453125
-61.34033203125
-61.34033203125
-43.02978515625
-31.1279296875
-25.634765625
-25.634765625
-38.4521484375
-41.19873046875
-63.17138671875
-75.0732421875
-83.31298828125
-81.48193359375
-74.15771484375
-78.7353515625
-69.580078125
-66.83349609375
-66.83349609375
-65.91796875
-64.0869140625
-53.1005859375
-61.34033203125
-80.56640625
-96.13037109375
-68.66455078125
-46.69189453125
-48.52294921875
-57.67822265625
-78.7353515625
-75.0732421875
-75.0732421875
-75.98876953125
-67.7490234375
-62.255859375
-34.7900390625
-18.310546875
-27.4658203125
-34.7900390625
-28.38134765625
-21.97265625
-30.21240234375
-37.53662109375
-54.01611328125
-47.607421875
-43.02978515625
-34.7900390625
-42.1142578125
-54.01611328125
-57.67822265625
-64.0869140625
-72.32666015625
-65.91796875
-65.00244140625
-63.17138671875
-57.67822265625
-47.607421875
-55.84716796875
-67.7490234375
-66.83349609375
-63.17138671875
-83.31298828125
-89.7216796875
-82.3974609375
-73.2421875
-80.56640625
-57.67822265625
-40.283203125
-24.71923828125
-45.7763671875
-47.607421875
-57.67822265625
-65.91796875
-74.15771484375
-63.17138671875
-57.67822265625
-59.50927734375
-52.18505859375
-66.83349609375
-46.69189453125
-44.86083984375
-40.283203125
-47.607421875
-56.7626953125
-25.634765625
-9.1552734375
-4.57763671875
-15.56396484375
-29.296875
-35.70556640625
-51.26953125
-49.4384765625
-48.52294921875
-32.958984375
-13.73291015625
-2.74658203125
-3.662109375
-13.73291015625
-14.6484375
-16.4794921875
-29.296875
-40.283203125
-50.35400390625
-50.35400390625
-35.70556640625
-23.8037109375
-21.05712890625
-25.634765625
-29.296875
-19.22607421875
-18.310546875
-21.97265625
-42.1142578125
-48.52294921875
-39.36767578125
-38.4521484375
-42.1142578125
-53.1005859375
-74.15771484375
-80.56640625
-67.7490234375
-54.01611328125
-68.66455078125
-60.4248046875
-62.255859375
-54.01611328125
-46.69189453125
-53.1005859375
-56.7626953125
-69.580078125
-65.00244140625
-47.607421875
-60.4248046875
-70.49560546875
-63.17138671875
-67.7490234375
-64.0869140625
-55.84716796875
-50.35400390625
-58.59375
-55.84716796875
-61.34033203125
-58.59375
-66.83349609375
-55.84716796875
-44.86083984375
-55.84716796875
-65.91796875
-60.4248046875
-58.59375
-61.34033203125
-72.32666015625
-82.3974609375
-75.98876953125
-79.65087890625
-56.7626953125
-41.19873046875
-38.4521484375
-41.19873046875
-54.931640625
-65.91796875
-71.4111328125
-71.4111328125
-74.15771484375
-89.7216796875
-119.93408203125
-133.6669921875
-167.54150390625
-208.740234375
-203.2470703125
-188.5986328125
-137.3291015625
-60.4248046875
76.904296875
244.44580078125
453.18603515625
662.841796875
882.568359375
1112.36572265625
1322.93701171875
1430.0537109375
1458.43505859375
1400.7568359375
1331.1767578125
1190.185546875
983.2763671875
747.98583984375
520.93505859375
281.06689453125
87.890625
-24.71923828125
-43.9453125
-58.59375
-86.97509765625
-97.0458984375
-75.98876953125
-58.59375
-28.38134765625
13.73291015625
31.1279296875
35.70556640625
23.8037109375
0.91552734375
-9.1552734375
-10.07080078125
-5.4931640625
0
-7.32421875
4.57763671875
9.1552734375
-4.57763671875
-13.73291015625
-21.05712890625
-11.90185546875
-10.986328125
3.662109375
14.6484375
6.40869140625
-10.07080078125
-0.91552734375
11.90185546875
11.90185546875
5.4931640625
7.32421875
9.1552734375
12.8173828125
17.39501953125
27.4658203125
21.05712890625
8.23974609375
-3.662109375
0.91552734375
0.91552734375
3.662109375
13.73291015625
30.21240234375
13.73291015625
1.8310546875
18.310546875
27.4658203125
25.634765625
25.634765625
23.8037109375
26.55029296875
39.36767578125
38.4521484375
59.50927734375
52.18505859375
51.26953125
32.04345703125
32.04345703125
43.02978515625
36.62109375
39.36767578125
46.69189453125
64.0869140625
61.34033203125
64.0869140625
56.7626953125
61.34033203125
58.59375
55.84716796875
46.69189453125
56.7626953125
78.7353515625
98.876953125
97.0458984375
95.21484375
96.13037109375
102.5390625
96.13037109375
87.890625
92.46826171875
102.5390625
109.86328125
118.10302734375
126.3427734375
127.25830078125
121.76513671875
139.16015625
136.41357421875
126.3427734375
116.27197265625
125.42724609375
149.23095703125
167.54150390625
184.9365234375
197.75390625
203.2470703125
206.9091796875
182.18994140625
183.10546875
209.65576171875
227.96630859375
239.8681640625
247.1923828125
267.333984375
280.1513671875
277.40478515625
282.89794921875
280.1513671875
273.74267578125
293.88427734375
323.18115234375
346.98486328125
365.29541015625
392.76123046875
404.6630859375
399.169921875
409.24072265625
424.8046875
434.87548828125
433.9599609375
436.70654296875
451.35498046875
470.5810546875
483.3984375
496.2158203125
506.28662109375
497.13134765625
498.046875
496.2158203125
496.2158203125
501.708984375
517.27294921875
520.93505859375
526.42822265625
524.59716796875
513.61083984375
509.033203125
488.8916015625
466.9189453125
444.03076171875
429.38232421875
438.53759765625
417.48046875
397.3388671875
382.6904296875
368.95751953125
344.23828125
304.87060546875
272.8271484375
244.44580078125
231.62841796875
233.45947265625
224.30419921875
208.740234375
174.86572265625
150.146484375
129.08935546875
97.96142578125
78.7353515625
64.0869140625
46.69189453125
44.86083984375
39.36767578125
32.04345703125
11.90185546875
-9.1552734375
-17.39501953125
-21.97265625
-36.62109375
-41.19873046875
-41.19873046875
-32.04345703125
-26.55029296875
-35.70556640625
-46.69189453125
-45.7763671875
-47.607421875
-65.91796875
-77.81982421875
-86.0595703125
-83.31298828125
-65.91796875
-57.67822265625
-54.931640625
-65.00244140625
-82.3974609375
-90.63720703125
-92.46826171875
-87.890625
-96.13037109375
-102.5390625
-98.876953125
-90.63720703125
-78.7353515625
-75.0732421875
-70.49560546875
-65.91796875
-69.580078125
-89.7216796875
-97.0458984375
-94.29931640625
-102.5390625
-87.890625
-90.63720703125
-100.7080078125
-95.21484375
-87.890625
-88.80615234375
-89.7216796875
-89.7216796875
-79.65087890625
-70.49560546875
-69.580078125
-65.91796875
-65.91796875
-69.580078125
-78.7353515625
-80.56640625
-89.7216796875
-96.13037109375
-100.7080078125
-97.0458984375
-78.7353515625
-68.66455078125
-66.83349609375
-72.32666015625
-65.91796875
-69.580078125
-75.0732421875
-83.31298828125
-72.32666015625
-74.15771484375
-74.15771484375
-70.49560546875
-75.98876953125
-74.15771484375
-91.552734375
-97.96142578125
-99.79248046875
-101.62353515625
-90.63720703125
-86.97509765625
-75.98876953125
-64.0869140625
-69.580078125
-75.98876953125
-85.14404296875
-88.80615234375
-97.0458984375
-100.7080078125
-104.3701171875
-103.45458984375
-88.80615234375
-83.31298828125
-82.3974609375
-76.904296875
-86.97509765625
-97.96142578125
-93.3837890625
-92.46826171875
-99.79248046875
-97.0458984375
-89.7216796875
-74.15771484375
-73.2421875
-88.80615234375
-97.0458984375
-100.7080078125
-110.77880859375
-116.27197265625
-112.60986328125
-111.6943359375
-102.5390625
-96.13037109375
-100.7080078125
-109.86328125
-105.28564453125
-92.46826171875
-101.62353515625
-112.60986328125
-113.525390625
-100.7080078125
-85.14404296875
-94.29931640625
-96.13037109375
-103.45458984375
-120.849609375
-129.08935546875
-130.92041015625
-140.07568359375
-130.92041015625
-102.5390625
-87.890625
-91.552734375
-96.13037109375
-102.5390625
-111.6943359375
-98.876953125
-108.0322265625
-117.1875
-119.0185546875
-113.525390625
-98.876953125
-106.201171875
-116.27197265625
-117.1875
-110.77880859375
-109.86328125
-116.27197265625
-119.0185546875
-108.94775390625
-110.77880859375
-106.201171875
-106.201171875
-108.94775390625
-118.10302734375
-109.86328125
-111.6943359375
-117.1875
-120.849609375
-124.51171875
-125.42724609375
-121.76513671875
-111.6943359375
-116.27197265625
-111.6943359375
-108.0322265625
-117.1875
-124.51171875
-134.58251953125
-126.3427734375
-113.525390625
-103.45458984375
-96.13037109375
-107.11669921875
-117.1875
-124.51171875
-126.3427734375
-133.6669921875
-127.25830078125
-132.75146484375
-143.73779296875
-149.23095703125
-140.07568359375
-126.3427734375
-116.27197265625
-119.0185546875
-111.6943359375
-104.3701171875
-111.6943359375
-111.6943359375
-99.79248046875
-96.13037109375
-96.13037109375
-97.0458984375
-100.7080078125
-111.6943359375
-115.3564453125
-122.6806640625
-126.3427734375
-138.24462890625
-127.25830078125
-124.51171875
-111.6943359375
-110.77880859375
-116.27197265625
-115.3564453125
-111.6943359375
-116.27197265625
-119.0185546875
-120.849609375
-112.60986328125
-110.77880859375
-102.5390625
-111.6943359375
-118.10302734375
-119.0185546875
-111.6943359375
-118.10302734375
-124.51171875
-124.51171875
-109.86328125
-106.201171875
-111.6943359375
-122.6806640625
-108.94775390625
-111.6943359375
-119.0185546875
-117.1875
-112.60986328125
-114.44091796875
-92.46826171875
-88.80615234375
-87.890625
-89.7216796875
-103.45458984375
-108.94775390625
-120.849609375
-114.44091796875
-100.7080078125
-98.876953125
-97.96142578125
-88.80615234375
-86.0595703125
-90.63720703125
-92.46826171875
-89.7216796875
-95.21484375
-93.3837890625
-86.97509765625
-89.7216796875
-86.0595703125
-76.904296875
-73.2421875
-78.7353515625
-79.65087890625
-80.56640625
-80.56640625
-92.46826171875
-91.552734375
-71.4111328125
-84.228515625
-100.7080078125
-102.5390625
-108.0322265625
-122.6806640625
-121.76513671875
-119.0185546875
-123.59619140625
-119.93408203125
-127.25830078125
-128.173828125
-118.10302734375
-97.96142578125
-109.86328125
-116.27197265625
-117.1875
-125.42724609375
-136.41357421875
-143.73779296875
-141.90673828125
-136.41357421875
-115.3564453125
-115.3564453125
-109.86328125
-108.94775390625
-109.86328125
-124.51171875
-126.3427734375
-131.8359375
-122.6806640625
-125.42724609375
-117.1875
-130.92041015625
-140.9912109375
-148.3154296875
-134.58251953125
-128.173828125
-104.3701171875
-104.3701171875
-100.7080078125
-87.890625
-73.2421875
-78.7353515625
-90.63720703125
-106.201171875
-108.94775390625
-125.42724609375
-140.9912109375
-149.23095703125
-168.45703125
-178.52783203125
-191.34521484375
-200.50048828125
-205.078125
-186.767578125
-120.849609375
-35.70556640625
86.0595703125
254.5166015625
466.9189453125
669.25048828125
870.66650390625
1116.943359375
1300.048828125
1389.7705078125
1377.86865234375
1299.13330078125
1203.0029296875
1048.27880859375
835.87646484375
597.83935546875
389.09912109375
177.6123046875
17.39501953125
-75.0732421875
-104.3701171875
-139.16015625
-159.3017578125
-167.54150390625
-165.71044921875
-131.8359375
-84.228515625
-42.1142578125
-11.90185546875
-12.8173828125
-29.296875
-45.7763671875
-46.69189453125
-40.283203125
-48.52294921875
-39.36767578125
-31.1279296875
-26.55029296875
-31.1279296875
-44.86083984375
-53.1005859375
-55.84716796875
-56.7626953125
-67.7490234375
-73.2421875
-64.0869140625
-47.607421875
-32.04345703125
-38.4521484375
-44.86083984375
-41.19873046875
-48.52294921875
-54.931640625
-49.4384765625
-43.9453125
-35.70556640625
-25.634765625
-14.6484375
-27.4658203125
-28.38134765625
-21.05712890625
-25.634765625
-31.1279296875
-45.7763671875
-33.87451171875
-26.55029296875
-23.8037109375
-13.73291015625
-22.88818359375
-21.05712890625
-22.88818359375
