ECG
-96.13037109375
-97.96142578125
-106.201171875
-105.28564453125
-107.11669921875
-96.13037109375
-86.0595703125
-86.97509765625
-88.80615234375
-75.0732421875
-79.65087890625
-73.2421875
-65.91796875
-77.81982421875
-65.00244140625
-71.4111328125
-71.4111328125
-54.01611328125
-50.35400390625
-41.19873046875
-38.4521484375
-40.283203125
-24.71923828125
-23.8037109375
-19.22607421875
-11.90185546875
-13.73291015625
-12.8173828125
-5.4931640625
7.32421875
11.90185546875
3.662109375
6.40869140625
22.88818359375
19.22607421875
17.39501953125
36.62109375
38.4521484375
33.87451171875
45.7763671875
41.19873046875
50.35400390625
48.52294921875
54.931640625
45.7763671875
55.84716796875
75.98876953125
72.32666015625
73.2421875
84.228515625
75.0732421875
58.59375
48.52294921875
40.283203125
39.36767578125
58.59375
43.02978515625
24.71923828125
6.40869140625
-9.1552734375
-9.1552734375
-15.56396484375
-32.04345703125
-35.70556640625
-48.52294921875
-58.59375
-64.0869140625
-75.0732421875
-75.98876953125
-86.0595703125
-85.14404296875
-92.46826171875
-106.201171875
-108.94775390625
-119.93408203125
-126.3427734375
-130.0048828125
-151.9775390625
-148.3154296875
-152.89306640625
-150.146484375
-152.89306640625
-158.38623046875
-155.6396484375
-158.38623046875
-142.822265625
-153.80859375
-155.6396484375
-152.89306640625
-151.06201171875
-157.470703125
-160.21728515625
-159.3017578125
-165.71044921875
-163.87939453125
-161.1328125
-182.18994140625
-168.45703125
-145.56884765625
-143.73779296875
-151.9775390625
-153.80859375
-157.470703125
-146.484375
-150.146484375
-161.1328125
-162.9638671875
-151.06201171875
-144.6533203125
-140.07568359375
-130.92041015625
-132.75146484375
-138.24462890625
-133.6669921875
-140.07568359375
-142.822265625
-130.0048828125
-118.10302734375
-125.42724609375
-123.59619140625
-124.51171875
-135.498046875
-142.822265625
-140.9912109375
-146.484375
-134.58251953125
-140.07568359375
-135.498046875
-130.0048828125
-129.08935546875
-127.25830078125
-135.498046875
-123.59619140625
-111.6943359375
-115.3564453125
-120.849609375
-138.24462890625
-148.3154296875
-135.498046875
-133.6669921875
-129.08935546875
-130.92041015625
-135.498046875
-121.76513671875
-117.1875
-126.3427734375
-124.51171875
-129.08935546875
-132.75146484375
-118.10302734375
-104.3701171875
-109.86328125
-126.3427734375
-130.0048828125
-125.42724609375
-128.173828125
-117.1875
-121.76513671875
-137.3291015625
-134.58251953125
-128.173828125
-124.51171875
-136.41357421875
-143.73779296875
-128.173828125
-116.27197265625
-98.876953125
-106.201171875
-141.90673828125
-152.89306640625
-143.73779296875
-144.6533203125
-145.56884765625
-142.822265625
-136.41357421875
-138.24462890625
-142.822265625
-142.822265625
-146.484375
-139.16015625
-147.39990234375
-152.89306640625
-140.9912109375
-136.41357421875
-140.07568359375
-140.07568359375
-134.58251953125
-133.6669921875
-114.44091796875
-90.63720703125
-103.45458984375
-108.0322265625
-98.876953125
-94.29931640625
-94.29931640625
-97.96142578125
-104.3701171875
-83.31298828125
-75.0732421875
-69.580078125
-76.904296875
-67.7490234375
-73.2421875
-68.66455078125
-28.38134765625
-27.4658203125
-46.69189453125
-54.931640625
-55.84716796875
-51.26953125
-70.49560546875
-75.0732421875
-78.7353515625
-86.97509765625
-92.46826171875
-102.5390625
-126.3427734375
-141.90673828125
-128.173828125
-119.93408203125
-128.173828125
-140.9912109375
-145.56884765625
-143.73779296875
-151.9775390625
-157.470703125
-162.9638671875
-173.9501953125
-173.03466796875
-166.6259765625
-149.23095703125
-173.03466796875
-157.470703125
-157.470703125
-170.2880859375
-162.04833984375
-161.1328125
-161.1328125
-171.20361328125
-175.78125
-166.6259765625
-164.794921875
-164.794921875
-169.37255859375
-174.86572265625
-177.6123046875
-165.71044921875
-150.146484375
-164.794921875
-174.86572265625
-178.52783203125
-168.45703125
-184.02099609375
-168.45703125
-152.89306640625
-148.3154296875
-135.498046875
-118.10302734375
-102.5390625
-62.255859375
-21.05712890625
51.26953125
116.27197265625
193.17626953125
277.40478515625
339.66064453125
405.57861328125
435.791015625
446.77734375
344.23828125
175.78125
44.86083984375
-83.31298828125
-184.02099609375
-270.99609375
-365.29541015625
-407.40966796875
-395.5078125
-343.32275390625
-279.23583984375
-248.10791015625
-217.8955078125
-187.68310546875
-154.72412109375
-140.9912109375
-142.822265625
-142.822265625
-142.822265625
-124.51171875
-132.75146484375
-149.23095703125
-148.3154296875
-156.55517578125
-158.38623046875
-136.41357421875
-127.25830078125
-140.9912109375
-144.6533203125
-131.8359375
-124.51171875
-135.498046875
-136.41357421875
-118.10302734375
-117.1875
-118.10302734375
-128.173828125
-132.75146484375
-126.3427734375
-129.08935546875
-129.08935546875
-132.75146484375
-126.3427734375
-135.498046875
-130.0048828125
-133.6669921875
-135.498046875
-128.173828125
-119.0185546875
-125.42724609375
-110.77880859375
-108.94775390625
-100.7080078125
-93.3837890625
-108.0322265625
-122.6806640625
-115.3564453125
-110.77880859375
-106.201171875
-115.3564453125
-120.849609375
-114.44091796875
-97.0458984375
-94.29931640625
-92.46826171875
-100.7080078125
-96.13037109375
-92.46826171875
-82.3974609375
-89.7216796875
-91.552734375
-80.56640625
-68.66455078125
-69.580078125
-71.4111328125
-74.15771484375
-81.48193359375
-81.48193359375
-93.3837890625
-75.98876953125
-60.4248046875
-59.50927734375
-62.255859375
-48.52294921875
-54.01611328125
-43.02978515625
-38.4521484375
-48.52294921875
-44.86083984375
-36.62109375
-30.21240234375
-42.1142578125
-40.283203125
-32.958984375
-26.55029296875
-9.1552734375
-2.74658203125
-15.56396484375
-13.73291015625
2.74658203125
8.23974609375
20.1416015625
32.958984375
25.634765625
19.22607421875
23.8037109375
16.4794921875
35.70556640625
33.87451171875
43.02978515625
44.86083984375
48.52294921875
43.9453125
49.4384765625
65.91796875
75.0732421875
78.7353515625
72.32666015625
77.81982421875
75.0732421875
86.0595703125
85.14404296875
83.31298828125
88.80615234375
89.7216796875
80.56640625
85.14404296875
96.13037109375
98.876953125
76.904296875
77.81982421875
67.7490234375
62.255859375
68.66455078125
56.7626953125
42.1142578125
34.7900390625
35.70556640625
25.634765625
-7.32421875
-22.88818359375
-21.97265625
-37.53662109375
-47.607421875
-58.59375
-82.3974609375
-85.14404296875
-88.80615234375
-87.890625
-97.96142578125
-100.7080078125
-103.45458984375
-116.27197265625
-130.92041015625
-130.92041015625
-135.498046875
-127.25830078125
-120.849609375
-130.92041015625
-126.3427734375
-129.08935546875
-126.3427734375
-128.173828125
-137.3291015625
-143.73779296875
-144.6533203125
-140.07568359375
-140.9912109375
-140.9912109375
-144.6533203125
-138.24462890625
-139.16015625
-141.90673828125
-138.24462890625
-142.822265625
-147.39990234375
-148.3154296875
-141.90673828125
-143.73779296875
-145.56884765625
-125.42724609375
-123.59619140625
-133.6669921875
-147.39990234375
-149.23095703125
-143.73779296875
-135.498046875
-131.8359375
-139.16015625
-148.3154296875
-140.07568359375
-130.0048828125
-140.9912109375
-144.6533203125
-125.42724609375
-139.16015625
-136.41357421875
-141.90673828125
-144.6533203125
-132.75146484375
-130.92041015625
-134.58251953125
-130.0048828125
-130.0048828125
-131.8359375
-132.75146484375
-122.6806640625
-120.849609375
-134.58251953125
-133.6669921875
-128.173828125
-127.25830078125
-124.51171875
-131.8359375
-130.92041015625
-127.25830078125
-122.6806640625
-121.76513671875
-127.25830078125
-122.6806640625
-137.3291015625
-126.3427734375
-119.0185546875
-122.6806640625
-115.3564453125
-121.76513671875
-125.42724609375
-130.92041015625
-125.42724609375
-125.42724609375
-111.6943359375
-108.94775390625
-112.60986328125
-123.59619140625
-128.173828125
-123.59619140625
-112.60986328125
-121.76513671875
-130.0048828125
-119.0185546875
-118.10302734375
-105.28564453125
-112.60986328125
-127.25830078125
-129.08935546875
-119.0185546875
-120.849609375
-127.25830078125
-127.25830078125
-126.3427734375
-118.10302734375
-115.3564453125
-123.59619140625
-123.59619140625
-126.3427734375
-130.92041015625
-125.42724609375
-133.6669921875
-141.90673828125
-133.6669921875
-134.58251953125
-142.822265625
-144.6533203125
-147.39990234375
-127.25830078125
-123.59619140625
-123.59619140625
-132.75146484375
-132.75146484375
-139.16015625
-141.90673828125
-145.56884765625
-146.484375
-141.90673828125
-137.3291015625
-131.8359375
-128.173828125
-130.92041015625
-140.07568359375
-137.3291015625
-129.08935546875
-135.498046875
-138.24462890625
-129.08935546875
-130.92041015625
-115.3564453125
-95.21484375
-99.79248046875
-104.3701171875
-101.62353515625
-97.0458984375
-90.63720703125
-87.890625
-84.228515625
-73.2421875
-64.0869140625
-62.255859375
-59.50927734375
-55.84716796875
-53.1005859375
-52.18505859375
-53.1005859375
-56.7626953125
-43.02978515625
-30.21240234375
-36.62109375
-33.87451171875
-43.02978515625
-42.1142578125
-30.21240234375
-35.70556640625
-55.84716796875
-59.50927734375
-68.66455078125
-75.0732421875
-86.97509765625
-102.5390625
-108.0322265625
-115.3564453125
-119.0185546875
-130.92041015625
-127.25830078125
-124.51171875
-131.8359375
-132.75146484375
-123.59619140625
-126.3427734375
-136.41357421875
-132.75146484375
-131.8359375
-136.41357421875
-139.16015625
-162.04833984375
-160.21728515625
-151.9775390625
-136.41357421875
-140.07568359375
-148.3154296875
-161.1328125
-155.6396484375
-148.3154296875
-149.23095703125
-148.3154296875
-145.56884765625
-140.9912109375
-132.75146484375
-138.24462890625
-150.146484375
-137.3291015625
-147.39990234375
-145.56884765625
-153.80859375
-146.484375
-147.39990234375
-140.9912109375
-122.6806640625
-103.45458984375
-86.97509765625
-60.4248046875
-18.310546875
43.9453125
101.62353515625
169.37255859375
260.92529296875
334.16748046875
408.3251953125
458.67919921875
479.736328125
428.466796875
249.0234375
130.92041015625
11.90185546875
-105.28564453125
-179.443359375
-262.75634765625
-332.33642578125
-355.224609375
-341.49169921875
-304.87060546875
-264.58740234375
-225.2197265625
-196.83837890625
-155.6396484375
-131.8359375
-123.59619140625
-110.77880859375
-105.28564453125
-97.96142578125
-95.21484375
-105.28564453125
-102.5390625
-108.94775390625
-119.93408203125
-120.849609375
-109.86328125
-111.6943359375
-107.11669921875
-113.525390625
-114.44091796875
-111.6943359375
-108.0322265625
-115.3564453125
-111.6943359375
-112.60986328125
-108.94775390625
-110.77880859375
-104.3701171875
-112.60986328125
-108.0322265625
-97.96142578125
-98.876953125
-86.97509765625
-87.890625
-88.80615234375
-83.31298828125
-78.7353515625
-75.0732421875
-87.890625
-94.29931640625
-91.552734375
-87.890625
-80.56640625
-70.49560546875
-69.580078125
-75.0732421875
-77.81982421875
-71.4111328125
-70.49560546875
-77.81982421875
-76.904296875
-74.15771484375
-65.00244140625
-65.00244140625
-63.17138671875
-64.0869140625
-54.931640625
-54.931640625
-62.255859375
-58.59375
-60.4248046875
-54.931640625
-46.69189453125
-53.1005859375
-51.26953125
-36.62109375
-28.38134765625
-42.1142578125
-52.18505859375
-28.38134765625
-32.04345703125
-40.283203125
-28.38134765625
-24.71923828125
-15.56396484375
-18.310546875
-18.310546875
-22.88818359375
-21.97265625
-10.07080078125
-8.23974609375
6.40869140625
9.1552734375
6.40869140625
8.23974609375
8.23974609375
18.310546875
22.88818359375
26.55029296875
26.55029296875
39.36767578125
41.19873046875
43.9453125
62.255859375
70.49560546875
62.255859375
56.7626953125
48.52294921875
54.01611328125
61.34033203125
67.7490234375
93.3837890625
93.3837890625
87.890625
89.7216796875
92.46826171875
97.0458984375
102.5390625
97.96142578125
106.201171875
116.27197265625
119.0185546875
124.51171875
127.25830078125
132.75146484375
129.08935546875
124.51171875
123.59619140625
119.0185546875
119.93408203125
115.3564453125
111.6943359375
97.0458984375
92.46826171875
78.7353515625
70.49560546875
64.0869140625
53.1005859375
42.1142578125
35.70556640625
32.04345703125
13.73291015625
19.22607421875
3.662109375
-21.97265625
-33.87451171875
-34.7900390625
-22.88818359375
-35.70556640625
-49.4384765625
-54.931640625
-54.931640625
-55.84716796875
-65.91796875
-84.228515625
-89.7216796875
-90.63720703125
-92.46826171875
-86.97509765625
-96.13037109375
-97.0458984375
-90.63720703125
-91.552734375
-79.65087890625
-108.0322265625
-103.45458984375
-92.46826171875
-98.876953125
-102.5390625
-96.13037109375
-101.62353515625
-104.3701171875
-97.96142578125
-100.7080078125
-101.62353515625
-87.890625
-84.228515625
-97.96142578125
-105.28564453125
-111.6943359375
-99.79248046875
-100.7080078125
-103.45458984375
-103.45458984375
-107.11669921875
-98.876953125
-105.28564453125
-97.0458984375
-91.552734375
-86.0595703125
-81.48193359375
-86.0595703125
-94.29931640625
-87.890625
-88.80615234375
-96.13037109375
-88.80615234375
-91.552734375
-92.46826171875
-94.29931640625
-90.63720703125
-90.63720703125
-80.56640625
-82.3974609375
-85.14404296875
-85.14404296875
-84.228515625
-80.56640625
-89.7216796875
-86.97509765625
-78.7353515625
-88.80615234375
-86.97509765625
-83.31298828125
-78.7353515625
-76.904296875
-77.81982421875
-81.48193359375
-82.3974609375
-85.14404296875
-80.56640625
-78.7353515625
-85.14404296875
-86.97509765625
-84.228515625
-80.56640625
-79.65087890625
-76.904296875
-75.98876953125
-78.7353515625
-75.0732421875
-80.56640625
-91.552734375
-88.80615234375
-84.228515625
-96.13037109375
-88.80615234375
-86.0595703125
-78.7353515625
-75.0732421875
-78.7353515625
-84.228515625
-83.31298828125
-92.46826171875
-100.7080078125
-91.552734375
-88.80615234375
-90.63720703125
-85.14404296875
-89.7216796875
-86.97509765625
-84.228515625
-86.0595703125
-88.80615234375
-88.80615234375
-96.13037109375
-94.29931640625
-97.0458984375
-92.46826171875
-104.3701171875
-97.0458984375
-110.77880859375
-108.94775390625
-101.62353515625
-114.44091796875
-97.0458984375
-94.29931640625
-92.46826171875
-93.3837890625
-97.96142578125
-97.96142578125
-105.28564453125
-104.3701171875
-94.29931640625
-90.63720703125
-97.0458984375
-94.29931640625
-104.3701171875
-103.45458984375
-107.11669921875
-104.3701171875
-95.21484375
-101.62353515625
-85.14404296875
-89.7216796875
-97.96142578125
-93.3837890625
-95.21484375
-91.552734375
-97.96142578125
-101.62353515625
-96.13037109375
-105.28564453125
-105.28564453125
-105.28564453125
-106.201171875
-107.11669921875
-102.5390625
-97.96142578125
-106.201171875
-109.86328125
-101.62353515625
-97.96142578125
-97.0458984375
-86.0595703125
-78.7353515625
-62.255859375
-54.01611328125
-54.01611328125
-63.17138671875
-67.7490234375
-57.67822265625
-61.34033203125
-54.931640625
-33.87451171875
-28.38134765625
-2.74658203125
-25.634765625
-33.87451171875
-33.87451171875
-25.634765625
-11.90185546875
-5.4931640625
-11.90185546875
-5.4931640625
-7.32421875
0
5.4931640625
-0.91552734375
-13.73291015625
-21.05712890625
-32.958984375
-38.4521484375
-46.69189453125
-54.01611328125
-78.7353515625
-81.48193359375
-78.7353515625
-86.0595703125
-93.3837890625
-84.228515625
-89.7216796875
-89.7216796875
-101.62353515625
-107.11669921875
-109.86328125
-115.3564453125
-114.44091796875
-108.94775390625
-109.86328125
-103.45458984375
-108.0322265625
-111.6943359375
-119.0185546875
-102.5390625
-103.45458984375
-116.27197265625
-107.11669921875
-112.60986328125
-115.3564453125
-116.27197265625
-123.59619140625
-122.6806640625
-116.27197265625
-117.1875
-115.3564453125
-105.28564453125
-117.1875
-113.525390625
-119.0185546875
-121.76513671875
-110.77880859375
-108.0322265625
-102.5390625
-91.552734375
-71.4111328125
-44.86083984375
-10.986328125
44.86083984375
97.96142578125
163.87939453125
241.69921875
321.35009765625
403.74755859375
464.17236328125
486.14501953125
499.8779296875
360.7177734375
205.078125
85.14404296875
-22.88818359375
-102.5390625
-199.5849609375
-263.671875
-293.88427734375
-295.71533203125
-279.23583984375
-247.1923828125
-222.47314453125
-196.83837890625
-160.21728515625
-130.0048828125
-107.11669921875
-85.14404296875
-84.228515625
-86.0595703125
-82.3974609375
-86.97509765625
-88.80615234375
-81.48193359375
-79.65087890625
-87.890625
-88.80615234375
-84.228515625
-82.3974609375
-86.0595703125
-96.13037109375
-100.7080078125
-97.96142578125
-102.5390625
-96.13037109375
-87.890625
-78.7353515625
-80.56640625
-99.79248046875
-93.3837890625
-91.552734375
-94.29931640625
-93.3837890625
-89.7216796875
-86.0595703125
-92.46826171875
-82.3974609375
-78.7353515625
-73.2421875
-64.0869140625
-53.1005859375
-64.0869140625
-67.7490234375
-59.50927734375
-67.7490234375
-65.00244140625
-75.0732421875
-72.32666015625
-73.2421875
-66.83349609375
-73.2421875
-66.83349609375
-62.255859375
-64.0869140625
-65.91796875
-65.91796875
-60.4248046875
-57.67822265625
-54.01611328125
-42.1142578125
-43.9453125
-46.69189453125
-46.69189453125
-46.69189453125
-37.53662109375
-33.87451171875
-32.04345703125
-35.70556640625
-40.283203125
-37.53662109375
-31.1279296875
-17.39501953125
-19.22607421875
-21.05712890625
-16.4794921875
-23.8037109375
-17.39501953125
-17.39501953125
-11.90185546875
-11.90185546875
-8.23974609375
-7.32421875
-15.56396484375
-11.90185546875
-0.91552734375
17.39501953125
21.97265625
12.8173828125
17.39501953125
18.310546875
17.39501953125
32.958984375
27.4658203125
34.7900390625
34.7900390625
35.70556640625
43.02978515625
58.59375
49.4384765625
55.84716796875
55.84716796875
62.255859375
73.2421875
75.0732421875
74.15771484375
70.49560546875
76.904296875
87.890625
81.48193359375
98.876953125
102.5390625
106.201171875
108.0322265625
106.201171875
107.11669921875
118.10302734375
112.60986328125
107.11669921875
97.96142578125
106.201171875
101.62353515625
107.11669921875
94.29931640625
89.7216796875
82.3974609375
75.98876953125
71.4111328125
69.580078125
54.01611328125
49.4384765625
37.53662109375
28.38134765625
12.8173828125
-2.74658203125
-19.22607421875
-24.71923828125
-21.05712890625
-36.62109375
-53.1005859375
-53.1005859375
-57.67822265625
-70.49560546875
-73.2421875
-79.65087890625
-75.0732421875
-72.32666015625
-77.81982421875
-86.97509765625
-90.63720703125
-86.0595703125
-89.7216796875
-95.21484375
-102.5390625
-114.44091796875
-117.1875
-113.525390625
-112.60986328125
-112.60986328125
-118.10302734375
-121.76513671875
-128.173828125
-126.3427734375
-119.0185546875
-130.0048828125
-129.08935546875
-129.08935546875
-128.173828125
-122.6806640625
-116.27197265625
-115.3564453125
-114.44091796875
-108.94775390625
-110.77880859375
-117.1875
-120.849609375
-122.6806640625
-116.27197265625
-123.59619140625
-130.0048828125
-121.76513671875
-113.525390625
-109.86328125
-125.42724609375
-119.93408203125
-109.86328125
-95.21484375
-104.3701171875
-110.77880859375
-108.94775390625
-114.44091796875
-116.27197265625
-122.6806640625
-117.1875
-117.1875
-107.11669921875
-101.62353515625
-95.21484375
-106.201171875
-106.201171875
-97.96142578125
-94.29931640625
-101.62353515625
-97.0458984375
-100.7080078125
-101.62353515625
-106.201171875
-118.10302734375
-115.3564453125
-108.0322265625
-101.62353515625
-105.28564453125
-104.3701171875
-87.890625
-82.3974609375
-92.46826171875
-97.96142578125
-94.29931640625
-97.0458984375
-100.7080078125
-91.552734375
-100.7080078125
-106.201171875
-122.6806640625
-112.60986328125
-99.79248046875
-100.7080078125
-100.7080078125
-108.0322265625
-110.77880859375
-109.86328125
-107.11669921875
-114.44091796875
-105.28564453125
-110.77880859375
-108.94775390625
-107.11669921875
-108.0322265625
-104.3701171875
-107.11669921875
-108.0322265625
-106.201171875
-107.11669921875
-108.94775390625
-118.10302734375
-117.1875
-115.3564453125
-123.59619140625
-120.849609375
-130.0048828125
-130.92041015625
-121.76513671875
-110.77880859375
-108.94775390625
-111.6943359375
-108.0322265625
-105.28564453125
-110.77880859375
-119.0185546875
-118.10302734375
-120.849609375
-130.92041015625
-126.3427734375
-120.849609375
-117.1875
-122.6806640625
-131.8359375
-130.0048828125
-121.76513671875
-140.07568359375
-136.41357421875
-132.75146484375
-131.8359375
-130.0048828125
-136.41357421875
-139.16015625
-136.41357421875
-127.25830078125
-123.59619140625
-127.25830078125
-123.59619140625
-129.08935546875
-128.173828125
-124.51171875
-132.75146484375
-139.16015625
-138.24462890625
-130.0048828125
-136.41357421875
-128.173828125
-119.93408203125
-115.3564453125
-108.94775390625
-104.3701171875
-97.96142578125
-81.48193359375
-78.7353515625
-84.228515625
-93.3837890625
-91.552734375
-90.63720703125
-64.0869140625
-57.67822265625
-46.69189453125
-48.52294921875
-46.69189453125
-43.9453125
-51.26953125
-65.91796875
-52.18505859375
-42.1142578125
-51.26953125
-38.4521484375
-29.296875
-29.296875
-25.634765625
-27.4658203125
-33.87451171875
-43.9453125
-57.67822265625
-68.66455078125
-80.56640625
-95.21484375
-100.7080078125
-114.44091796875
-120.849609375
-118.10302734375
-125.42724609375
-124.51171875
-119.0185546875
-125.42724609375
-127.25830078125
-130.92041015625
-135.498046875
-151.9775390625
-140.9912109375
-142.822265625
-139.16015625
-153.80859375
-158.38623046875
-152.89306640625
-137.3291015625
-131.8359375
-130.0048828125
-138.24462890625
-151.9775390625
-162.9638671875
-159.3017578125
-163.87939453125
-156.55517578125
-158.38623046875
-167.54150390625
-166.6259765625
-164.794921875
-159.3017578125
-166.6259765625
-162.9638671875
-157.470703125
-161.1328125
-161.1328125
-157.470703125
-149.23095703125
-128.173828125
-106.201171875
-74.15771484375
-23.8037109375
29.296875
84.228515625
166.6259765625
245.361328125
350.64697265625
428.466796875
469.66552734375
485.2294921875
379.0283203125
209.65576171875
86.97509765625
-37.53662109375
-120.849609375
-207.82470703125
-283.8134765625
-311.279296875
-328.67431640625
-328.67431640625
-317.68798828125
-281.06689453125
-264.58740234375
-231.62841796875
-194.091796875
-176.69677734375
-154.72412109375
-142.822265625
-132.75146484375
-116.27197265625
-127.25830078125
-129.08935546875
-129.08935546875
-127.25830078125
-126.3427734375
-131.8359375
-132.75146484375
-133.6669921875
-143.73779296875
-131.8359375
-126.3427734375
-134.58251953125
-119.93408203125
-123.59619140625
-139.16015625
-138.24462890625
-147.39990234375
-130.92041015625
-128.173828125
-144.6533203125
-140.07568359375
-136.41357421875
-130.0048828125
-119.93408203125
-123.59619140625
-119.0185546875
-105.28564453125
-98.876953125
-102.5390625
-107.11669921875
-110.77880859375
-102.5390625
-117.1875
-129.08935546875
-124.51171875
-128.173828125
-120.849609375
-121.76513671875
-116.27197265625
-107.11669921875
-103.45458984375
-105.28564453125
-92.46826171875
-87.890625
-89.7216796875
-89.7216796875
-94.29931640625
-110.77880859375
-137.3291015625
-103.45458984375
-74.15771484375
-57.67822265625
-66.83349609375
-75.0732421875
-77.81982421875
-79.65087890625
-91.552734375
-78.7353515625
-64.0869140625
-65.91796875
-58.59375
-54.01611328125
-57.67822265625
-57.67822265625
-51.26953125
-54.931640625
-64.0869140625
-49.4384765625
-44.86083984375
-54.01611328125
-46.69189453125
-51.26953125
-33.87451171875
-24.71923828125
-26.55029296875
-23.8037109375
-13.73291015625
-16.4794921875
-12.8173828125
-9.1552734375
-13.73291015625
-8.23974609375
-7.32421875
-5.4931640625
2.74658203125
4.57763671875
-8.23974609375
13.73291015625
39.36767578125
21.97265625
32.958984375
37.53662109375
45.7763671875
47.607421875
44.86083984375
43.9453125
46.69189453125
44.86083984375
53.1005859375
53.1005859375
67.7490234375
67.7490234375
61.34033203125
66.83349609375
56.7626953125
68.66455078125
78.7353515625
65.91796875
54.01611328125
45.7763671875
62.255859375
60.4248046875
62.255859375
35.70556640625
23.8037109375
26.55029296875
11.90185546875
12.8173828125
-2.74658203125
-16.4794921875
-31.1279296875
-34.7900390625
-50.35400390625
-54.01611328125
-55.84716796875
-70.49560546875
-75.98876953125
-83.31298828125
-99.79248046875
-118.10302734375
-117.1875
-136.41357421875
-133.6669921875
-129.08935546875
-136.41357421875
-147.39990234375
-141.90673828125
-149.23095703125
-153.80859375
-147.39990234375
-150.146484375
-151.06201171875
-157.470703125
-153.80859375
-162.9638671875
-157.470703125
-162.04833984375
-161.1328125
-170.2880859375
-176.69677734375
-179.443359375
-183.10546875
-170.2880859375
-164.794921875
-155.6396484375
-157.470703125
-156.55517578125
-159.3017578125
-162.9638671875
-171.20361328125
-161.1328125
-170.2880859375
-156.55517578125
-144.6533203125
-147.39990234375
-160.21728515625
-156.55517578125
-155.6396484375
-157.470703125
-162.04833984375
-162.04833984375
-161.1328125
-161.1328125
-151.06201171875
-143.73779296875
-140.9912109375
-146.484375
-150.146484375
-150.146484375
-158.38623046875
-165.71044921875
-154.72412109375
-162.04833984375
-155.6396484375
-143.73779296875
-147.39990234375
-147.39990234375
-144.6533203125
-142.822265625
-144.6533203125
-142.822265625
-139.16015625
-140.9912109375
-144.6533203125
-140.9912109375
-137.3291015625
-134.58251953125
-136.41357421875
-140.9912109375
-141.90673828125
-143.73779296875
-143.73779296875
-143.73779296875
-137.3291015625
-129.08935546875
-134.58251953125
-135.498046875
-129.08935546875
-126.3427734375
-132.75146484375
-126.3427734375
-112.60986328125
-116.27197265625
-120.849609375
-130.0048828125
-147.39990234375
-145.56884765625
-136.41357421875
-150.146484375
-153.80859375
-154.72412109375
-155.6396484375
-146.484375
-145.56884765625
-150.146484375
-140.07568359375
-146.484375
-141.90673828125
-139.16015625
-140.07568359375
-139.16015625
-150.146484375
-139.16015625
-145.56884765625
-158.38623046875
-152.89306640625
-145.56884765625
-142.822265625
-144.6533203125
-157.470703125
-162.04833984375
-159.3017578125
-150.146484375
-146.484375
-153.80859375
-166.6259765625
-158.38623046875
-140.9912109375
-138.24462890625
-152.89306640625
-148.3154296875
-153.80859375
-159.3017578125
-142.822265625
-130.0048828125
-146.484375
-156.55517578125
-160.21728515625
-154.72412109375
-162.9638671875
-147.39990234375
-148.3154296875
-171.20361328125
-171.20361328125
-154.72412109375
-162.9638671875
-159.3017578125
-167.54150390625
-175.78125
-156.55517578125
-142.822265625
-148.3154296875
-172.119140625
-162.04833984375
-158.38623046875
-152.89306640625
-154.72412109375
-147.39990234375
-140.07568359375
-130.92041015625
-126.3427734375
-118.10302734375
-118.10302734375
-102.5390625
-96.13037109375
-91.552734375
-88.80615234375
-95.21484375
-94.29931640625
-88.80615234375
-86.0595703125
-81.48193359375
-65.91796875
-64.0869140625
-55.84716796875
-54.01611328125
-45.7763671875
-28.38134765625
-14.6484375
-13.73291015625
-28.38134765625
-36.62109375
-37.53662109375
-40.283203125
-24.71923828125
-16.4794921875
-37.53662109375
-43.9453125
-51.26953125
-64.0869140625
-80.56640625
-97.0458984375
-92.46826171875
-102.5390625
-99.79248046875
-114.44091796875
-117.1875
-114.44091796875
-110.77880859375
-115.3564453125
-124.51171875
-133.6669921875
-146.484375
-137.3291015625
-133.6669921875
-124.51171875
-118.10302734375
-125.42724609375
-120.849609375
-119.93408203125
-116.27197265625
-116.27197265625
-114.44091796875
-128.173828125
-136.41357421875
-140.9912109375
-150.146484375
-128.173828125
-118.10302734375
-131.8359375
-135.498046875
-122.6806640625
-130.0048828125
-128.173828125
-130.0048828125
-134.58251953125
-118.10302734375
-107.11669921875
-108.94775390625
-96.13037109375
-77.81982421875
-47.607421875
-24.71923828125
26.55029296875
78.7353515625
151.06201171875
227.96630859375
314.94140625
385.43701171875
462.34130859375
495.30029296875
509.94873046875
411.07177734375
227.96630859375
110.77880859375
-18.310546875
-110.77880859375
-202.33154296875
-279.23583984375
-321.35009765625
-330.50537109375
-319.51904296875
-286.56005859375
-240.78369140625
-213.31787109375
-178.52783203125
-136.41357421875
-117.1875
-90.63720703125
-82.3974609375
-86.97509765625
-78.7353515625
-69.580078125
-79.65087890625
-86.0595703125
-86.97509765625
-92.46826171875
-88.80615234375
-75.98876953125
-75.0732421875
-74.15771484375
-80.56640625
-74.15771484375
-68.66455078125
-71.4111328125
-73.2421875
-86.0595703125
-82.3974609375
-79.65087890625
-75.98876953125
-71.4111328125
-80.56640625
-75.0732421875
-70.49560546875
-65.00244140625
-65.91796875
-63.17138671875
-57.67822265625
-53.1005859375
-54.01611328125
-51.26953125
-50.35400390625
-54.931640625
-59.50927734375
-67.7490234375
-61.34033203125
-62.255859375
-62.255859375
-51.26953125
-43.9453125
-42.1142578125
-33.87451171875
-35.70556640625
-50.35400390625
-49.4384765625
-45.7763671875
-40.283203125
-38.4521484375
-39.36767578125
-32.958984375
-14.6484375
-23.8037109375
-36.62109375
-25.634765625
-28.38134765625
-32.04345703125
-27.4658203125
-12.8173828125
-18.310546875
-21.97265625
-10.986328125
-4.57763671875
-13.73291015625
-27.4658203125
-15.56396484375
-3.662109375
12.8173828125
2.74658203125
14.6484375
12.8173828125
17.39501953125
32.04345703125
35.70556640625
19.22607421875
8.23974609375
24.71923828125
31.1279296875
26.55029296875
47.607421875
46.69189453125
53.1005859375
73.2421875
64.0869140625
65.00244140625
69.580078125
80.56640625
81.48193359375
89.7216796875
86.0595703125
75.98876953125
86.0595703125
89.7216796875
97.96142578125
106.201171875
100.7080078125
115.3564453125
127.25830078125
132.75146484375
128.173828125
134.58251953125
124.51171875
131.8359375
139.16015625
140.9912109375
135.498046875
147.39990234375
140.9912109375
138.24462890625
146.484375
161.1328125
172.119140625
167.54150390625
152.89306640625
136.41357421875
133.6669921875
130.0048828125
121.76513671875
119.93408203125
118.10302734375
112.60986328125
88.80615234375
65.91796875
44.86083984375
43.9453125
44.86083984375
41.19873046875
31.1279296875
12.8173828125
-2.74658203125
-19.22607421875
-22.88818359375
-12.8173828125
-21.97265625
-24.71923828125
-28.38134765625
-17.39501953125
-55.84716796875
-75.0732421875
-67.7490234375
-76.904296875
-86.97509765625
-73.2421875
-71.4111328125
-77.81982421875
-83.31298828125
-91.552734375
-86.0595703125
-94.29931640625
-93.3837890625
-88.80615234375
-77.81982421875
-77.81982421875
-73.2421875
-80.56640625
-89.7216796875
-97.0458984375
-85.14404296875
-86.0595703125
-75.0732421875
-76.904296875
-74.15771484375
-72.32666015625
-81.48193359375
-91.552734375
-86.97509765625
-77.81982421875
-81.48193359375
-89.7216796875
-86.0595703125
-75.0732421875
-75.0732421875
-75.98876953125
-74.15771484375
-70.49560546875
-74.15771484375
-83.31298828125
-77.81982421875
-67.7490234375
-65.91796875
-74.15771484375
-56.7626953125
-55.84716796875
-59.50927734375
-56.7626953125
-58.59375
-57.67822265625
-58.59375
-50.35400390625
-50.35400390625
-53.1005859375
-56.7626953125
-58.59375
-49.4384765625
-59.50927734375
-52.18505859375
-53.1005859375
-50.35400390625
-54.931640625
-59.50927734375
-48.52294921875
-46.69189453125
-45.7763671875
-48.52294921875
-43.9453125
-45.7763671875
-55.84716796875
-53.1005859375
-54.01611328125
-47.607421875
-50.35400390625
-48.52294921875
-49.4384765625
-33.87451171875
-37.53662109375
-49.4384765625
-60.4248046875
-56.7626953125
-59.50927734375
-40.283203125
-40.283203125
-55.84716796875
-39.36767578125
-45.7763671875
-50.35400390625
-60.4248046875
-58.59375
-63.17138671875
-53.1005859375
-56.7626953125
-57.67822265625
-59.50927734375
-63.17138671875
-71.4111328125
-61.34033203125
-61.34033203125
-59.50927734375
-51.26953125
-55.84716796875
-51.26953125
-59.50927734375
-64.0869140625
-64.0869140625
-65.91796875
-82.3974609375
-79.65087890625
-72.32666015625
-65.00244140625
-62.255859375
-64.0869140625
-59.50927734375
-54.01611328125
-46.69189453125
-47.607421875
-45.7763671875
-53.1005859375
-64.0869140625
-60.4248046875
-55.84716796875
-45.7763671875
-61.34033203125
-69.580078125
-59.50927734375
-62.255859375
-77.81982421875
-67.7490234375
-66.83349609375
-73.2421875
-68.66455078125
-73.2421875
-68.66455078125
-72.32666015625
-76.904296875
-53.1005859375
-42.1142578125
-58.59375
-64.0869140625
-66.83349609375
-62.255859375
-65.91796875
-62.255859375
-58.59375
-67.7490234375
-77.81982421875
-76.904296875
-74.15771484375
-60.4248046875
-69.580078125
-69.580078125
-67.7490234375
-64.0869140625
-65.91796875
-74.15771484375
-74.15771484375
-72.32666015625
-79.65087890625
-83.31298828125
-65.91796875
-61.34033203125
-55.84716796875
-57.67822265625
-60.4248046875
-52.18505859375
-38.4521484375
-25.634765625
-27.4658203125
-28.38134765625
-34.7900390625
-34.7900390625
-17.39501953125
-19.22607421875
-16.4794921875
-6.40869140625
0.91552734375
0
-6.40869140625
-3.662109375
7.32421875
10.986328125
2.74658203125
11.90185546875
12.8173828125
10.986328125
23.8037109375
24.71923828125
17.39501953125
21.97265625
21.97265625
21.97265625
10.986328125
-10.07080078125
-21.97265625
-33.87451171875
-48.52294921875
-55.84716796875
-56.7626953125
-50.35400390625
-57.67822265625
-62.255859375
-63.17138671875
-50.35400390625
-60.4248046875
-69.580078125
-73.2421875
-74.15771484375
-81.48193359375
-80.56640625
-97.0458984375
-96.13037109375
-91.552734375
-81.48193359375
-85.14404296875
-80.56640625
-92.46826171875
-90.63720703125
-91.552734375
-85.14404296875
-91.552734375
-86.0595703125
-85.14404296875
-93.3837890625
-96.13037109375
-97.0458984375
-96.13037109375
-90.63720703125
-86.97509765625
-95.21484375
-108.0322265625
-96.13037109375
-75.0732421875
-75.98876953125
-70.49560546875
-39.36767578125
-22.88818359375
7.32421875
65.00244140625
127.25830078125
194.091796875
271.91162109375
367.12646484375
435.791015625
512.6953125
546.56982421875
552.978515625
484.31396484375
291.1376953125
168.45703125
26.55029296875
-71.4111328125
-149.23095703125
-256.34765625
-298.4619140625
-309.4482421875
-279.23583984375
-225.2197265625
-188.5986328125
-155.6396484375
-119.0185546875
-86.97509765625
-66.83349609375
-55.84716796875
-43.02978515625
-42.1142578125
-49.4384765625
-53.1005859375
-49.4384765625
-52.18505859375
-45.7763671875
-44.86083984375
-59.50927734375
-60.4248046875
-54.931640625
-65.00244140625
-52.18505859375
-57.67822265625
-51.26953125
-48.52294921875
-56.7626953125
-47.607421875
-45.7763671875
-65.91796875
-55.84716796875
-37.53662109375
-50.35400390625
-41.19873046875
-43.02978515625
-35.70556640625
-34.7900390625
-32.958984375
-29.296875
-39.36767578125
-48.52294921875
-51.26953125
-41.19873046875
-33.87451171875
-30.21240234375
-25.634765625
-32.04345703125
-29.296875
-22.88818359375
-30.21240234375
-32.04345703125
-38.4521484375
-31.1279296875
-22.88818359375
-15.56396484375
-16.4794921875
-16.4794921875
-23.8037109375
-20.1416015625
-13.73291015625
-15.56396484375
-10.986328125
-10.07080078125
-15.56396484375
-7.32421875
-6.40869140625
-7.32421875
-4.57763671875
-0.91552734375
-3.662109375
1.8310546875
7.32421875
0.91552734375
9.1552734375
11.90185546875
11.90185546875
22.88818359375
24.71923828125
22.88818359375
21.05712890625
20.1416015625
14.6484375
17.39501953125
21.05712890625
41.19873046875
44.86083984375
41.19873046875
52.18505859375
52.18505859375
54.01611328125
42.1142578125
49.4384765625
54.01611328125
70.49560546875
76.904296875
83.31298828125
80.56640625
94.29931640625
97.0458984375
97.96142578125
98.876953125
98.876953125
121.76513671875
129.08935546875
131.8359375
136.41357421875
140.9912109375
142.822265625
149.23095703125
144.6533203125
142.822265625
143.73779296875
152.89306640625
160.21728515625
145.56884765625
160.21728515625
172.119140625
181.2744140625
183.10546875
176.69677734375
183.10546875
170.2880859375
161.1328125
152.89306640625
159.3017578125
175.78125
171.20361328125
172.119140625
147.39990234375
132.75146484375
120.849609375
108.0322265625
95.21484375
92.46826171875
86.97509765625
84.228515625
78.7353515625
79.65087890625
60.4248046875
42.1142578125
32.958984375
22.88818359375
22.88818359375
19.22607421875
8.23974609375
-4.57763671875
-3.662109375
-15.56396484375
-25.634765625
-33.87451171875
-32.04345703125
-32.04345703125
-23.8037109375
-27.4658203125
-45.7763671875
-49.4384765625
-46.69189453125
-35.70556640625
-28.38134765625
-27.4658203125
-32.04345703125
-33.87451171875
-31.1279296875
-21.05712890625
-38.4521484375
-46.69189453125
-28.38134765625
-24.71923828125
-40.283203125
-30.21240234375
-26.55029296875
-27.4658203125
-40.283203125
-38.4521484375
-30.21240234375
-41.19873046875
-39.36767578125
-31.1279296875
-11.90185546875
-44.86083984375
-42.1142578125
-46.69189453125
-50.35400390625
-41.19873046875
-45.7763671875
-53.1005859375
-49.4384765625
-43.02978515625
-28.38134765625
-18.310546875
-36.62109375
-30.21240234375
-25.634765625
-32.958984375
-34.7900390625
-31.1279296875
-35.70556640625
-30.21240234375
-31.1279296875
-32.958984375
-23.8037109375
-18.310546875
-10.986328125
-17.39501953125
-18.310546875
-28.38134765625
-24.71923828125
-22.88818359375
-14.6484375
-18.310546875
-21.05712890625
-24.71923828125
-21.05712890625
-29.296875
-26.55029296875
-26.55029296875
-21.05712890625
-16.4794921875
-13.73291015625
-26.55029296875
-32.958984375
-25.634765625
-21.05712890625
-8.23974609375
-14.6484375
-19.22607421875
-23.8037109375
-25.634765625
-20.1416015625
-26.55029296875
-19.22607421875
-17.39501953125
-0.91552734375
-26.55029296875
-37.53662109375
-27.4658203125
-26.55029296875
-34.7900390625
-20.1416015625
-22.88818359375
-26.55029296875
-18.310546875
-31.1279296875
-54.01611328125
-27.4658203125
-26.55029296875
-18.310546875
-24.71923828125
-31.1279296875
-29.296875
-35.70556640625
-32.04345703125
-24.71923828125
-19.22607421875
-35.70556640625
-32.958984375
-41.19873046875
-43.02978515625
-38.4521484375
-23.8037109375
-32.958984375
-37.53662109375
-35.70556640625
-27.4658203125
-25.634765625
-35.70556640625
-42.1142578125
-40.283203125
-39.36767578125
-43.9453125
-39.36767578125
-44.86083984375
-39.36767578125
-32.04345703125
-33.87451171875
-32.04345703125
-42.1142578125
-38.4521484375
-44.86083984375
-40.283203125
-28.38134765625
-36.62109375
-49.4384765625
-43.9453125
-41.19873046875
-29.296875
-29.296875
-35.70556640625
-44.86083984375
-66.83349609375
-39.36767578125
-20.1416015625
-26.55029296875
-34.7900390625
-36.62109375
-43.02978515625
-37.53662109375
-29.296875
-31.1279296875
-36.62109375
-34.7900390625
-36.62109375
-37.53662109375
-39.36767578125
-38.4521484375
-32.04345703125
-30.21240234375
-27.4658203125
-32.04345703125
-35.70556640625
-38.4521484375
-31.1279296875
-36.62109375
-34.7900390625
-40.283203125
-42.1142578125
-29.296875
-23.8037109375
-25.634765625
-31.1279296875
-23.8037109375
-11.90185546875
3.662109375
9.1552734375
11.90185546875
12.8173828125
11.90185546875
11.90185546875
15.56396484375
13.73291015625
32.04345703125
44.86083984375
42.1142578125
33.87451171875
33.87451171875
46.69189453125
44.86083984375
54.01611328125
62.255859375
72.32666015625
68.66455078125
64.0869140625
56.7626953125
57.67822265625
54.931640625
54.01611328125
46.69189453125
36.62109375
28.38134765625
10.986328125
-10.986328125
-10.07080078125
-11.90185546875
-19.22607421875
-20.1416015625
-23.8037109375
-23.8037109375
-22.88818359375
-32.958984375
-40.283203125
-33.87451171875
-42.1142578125
-36.62109375
-48.52294921875
-56.7626953125
-48.52294921875
-38.4521484375
-42.1142578125
-49.4384765625
-54.01611328125
-58.59375
-42.1142578125
-54.01611328125
-61.34033203125
-55.84716796875
-65.00244140625
-54.931640625
-45.7763671875
-44.86083984375
-54.931640625
-65.91796875
-71.4111328125
-57.67822265625
-58.59375
-74.15771484375
-61.34033203125
-50.35400390625
-59.50927734375
-37.53662109375
-19.22607421875
-0.91552734375
28.38134765625
84.228515625
123.59619140625
195.00732421875
276.4892578125
356.14013671875
435.791015625
512.6953125
553.89404296875
574.03564453125
499.8779296875
316.7724609375
195.9228515625
67.7490234375
-32.04345703125
-113.525390625
-200.50048828125
-262.75634765625
-277.40478515625
-257.26318359375
-215.14892578125
-177.6123046875
-138.24462890625
-106.201171875
-73.2421875
-41.19873046875
-25.634765625
-13.73291015625
-27.4658203125
-27.4658203125
-28.38134765625
-21.05712890625
-34.7900390625
-38.4521484375
-31.1279296875
-21.97265625
-28.38134765625
-28.38134765625
-36.62109375
-39.36767578125
-30.21240234375
-32.958984375
-21.97265625
-13.73291015625
-19.22607421875
-13.73291015625
-25.634765625
-21.97265625
-22.88818359375
-24.71923828125
-24.71923828125
-14.6484375
-14.6484375
-18.310546875
-32.958984375
-32.958984375
-19.22607421875
-26.55029296875
-24.71923828125
-30.21240234375
-23.8037109375
-25.634765625
-17.39501953125
-24.71923828125
-31.1279296875
-11.90185546875
3.662109375
1.8310546875
10.07080078125
1.8310546875
3.662109375
-4.57763671875
-16.4794921875
-12.8173828125
-4.57763671875
-0.91552734375
5.4931640625
4.57763671875
8.23974609375
15.56396484375
20.1416015625
16.4794921875
10.986328125
32.04345703125
36.62109375
22.88818359375
22.88818359375
33.87451171875
37.53662109375
32.958984375
37.53662109375
44.86083984375
36.62109375
38.4521484375
44.86083984375
43.02978515625
51.26953125
41.19873046875
53.1005859375
59.50927734375
67.7490234375
76.904296875
61.34033203125
68.66455078125
75.0732421875
81.48193359375
70.49560546875
87.890625
102.5390625
109.86328125
110.77880859375
114.44091796875
108.94775390625
122.6806640625
130.0048828125
132.75146484375
140.07568359375
125.42724609375
124.51171875
127.25830078125
151.9775390625
163.87939453125
161.1328125
152.89306640625
159.3017578125
172.119140625
166.6259765625
167.54150390625
170.2880859375
179.443359375
173.9501953125
170.2880859375
192.2607421875
184.9365234375
186.767578125
189.51416015625
183.10546875
195.00732421875
204.16259765625
213.31787109375
200.50048828125
206.9091796875
194.091796875
173.9501953125
168.45703125
161.1328125
156.55517578125
146.484375
143.73779296875
145.56884765625
132.75146484375
109.86328125
109.86328125
83.31298828125
77.81982421875
76.904296875
82.3974609375
71.4111328125
46.69189453125
43.02978515625
39.36767578125
25.634765625
17.39501953125
7.32421875
12.8173828125
-0.91552734375
-2.74658203125
-13.73291015625
-14.6484375
-17.39501953125
-32.04345703125
-21.05712890625
-18.310546875
-29.296875
-49.4384765625
-54.01611328125
-29.296875
-27.4658203125
-31.1279296875
-27.4658203125
-34.7900390625
-22.88818359375
-26.55029296875
-37.53662109375
-42.1142578125
-38.4521484375
-28.38134765625
-33.87451171875
-48.52294921875
-53.1005859375
-46.69189453125
-39.36767578125
-34.7900390625
-33.87451171875
-35.70556640625
-30.21240234375
-27.4658203125
-27.4658203125
-34.7900390625
-32.04345703125
-27.4658203125
-32.04345703125
-40.283203125
-34.7900390625
-33.87451171875
-43.02978515625
-35.70556640625
-30.21240234375
-36.62109375
-34.7900390625
-14.6484375
-14.6484375
-22.88818359375
-18.310546875
-11.90185546875
-17.39501953125
-21.05712890625
-23.8037109375
-29.296875
-30.21240234375
-25.634765625
-21.05712890625
-20.1416015625
-28.38134765625
-41.19873046875
-32.958984375
-24.71923828125
-30.21240234375
-27.4658203125
-21.97265625
-23.8037109375
-17.39501953125
-19.22607421875
-30.21240234375
-31.1279296875
-21.05712890625
-21.97265625
-25.634765625
-31.1279296875
-43.02978515625
-38.4521484375
-24.71923828125
-21.97265625
-30.21240234375
-19.22607421875
-22.88818359375
-35.70556640625
-32.04345703125
-30.21240234375
-32.958984375
-24.71923828125
-20.1416015625
-26.55029296875
-36.62109375
-35.70556640625
-33.87451171875
-23.8037109375
-25.634765625
-23.8037109375
-20.1416015625
-19.22607421875
-23.8037109375
-26.55029296875
-31.1279296875
-29.296875
-32.958984375
-32.04345703125
-35.70556640625
-37.53662109375
-46.69189453125
-38.4521484375
-42.1142578125
-37.53662109375
-39.36767578125
-37.53662109375
-39.36767578125
-37.53662109375
-32.04345703125
-46.69189453125
-49.4384765625
-39.36767578125
-48.52294921875
-48.52294921875
-48.52294921875
-49.4384765625
-54.931640625
-65.00244140625
-75.0732421875
-62.255859375
-55.84716796875
-63.17138671875
-63.17138671875
-59.50927734375
-51.26953125
-48.52294921875
-43.02978515625
-48.52294921875
-41.19873046875
-46.69189453125
-43.9453125
-40.283203125
-43.02978515625
-53.1005859375
-50.35400390625
-54.01611328125
-41.19873046875
-45.7763671875
-43.9453125
-44.86083984375
-52.18505859375
-58.59375
-53.1005859375
-46.69189453125
-53.1005859375
-52.18505859375
-53.1005859375
-49.4384765625
-48.52294921875
-51.26953125
-38.4521484375
-41.19873046875
-47.607421875
-48.52294921875
-50.35400390625
-40.283203125
-49.4384765625
-47.607421875
-41.19873046875
-42.1142578125
-43.02978515625
-47.607421875
-49.4384765625
-51.26953125
-70.49560546875
-59.50927734375
-60.4248046875
-46.69189453125
-41.19873046875
-42.1142578125
-26.55029296875
-15.56396484375
-19.22607421875
-13.73291015625
-2.74658203125
-14.6484375
-12.8173828125
-0.91552734375
14.6484375
15.56396484375
22.88818359375
20.1416015625
32.04345703125
35.70556640625
34.7900390625
40.283203125
33.87451171875
34.7900390625
44.86083984375
43.9453125
34.7900390625
52.18505859375
56.7626953125
43.02978515625
36.62109375
38.4521484375
34.7900390625
22.88818359375
18.310546875
13.73291015625
10.07080078125
-3.662109375
-16.4794921875
-20.1416015625
-27.4658203125
-47.607421875
-37.53662109375
-33.87451171875
-50.35400390625
-55.84716796875
-54.931640625
-50.35400390625
-61.34033203125
-64.0869140625
-61.34033203125
-53.1005859375
-57.67822265625
-60.4248046875
-60.4248046875
-62.255859375
-65.00244140625
-46.69189453125
-54.01611328125
-58.59375
-54.01611328125
-51.26953125
-63.17138671875
-67.7490234375
-59.50927734375
-68.66455078125
-69.580078125
-69.580078125
-64.0869140625
-58.59375
-69.580078125
-55.84716796875
-46.69189453125
-38.4521484375
-36.62109375
-31.1279296875
-5.4931640625
17.39501953125
46.69189453125
93.3837890625
145.56884765625
214.2333984375
280.1513671875
363.46435546875
452.2705078125
514.5263671875
550.23193359375
571.2890625
485.2294921875
316.7724609375
196.83837890625
75.0732421875
-11.90185546875
-112.60986328125
-197.75390625
-248.10791015625
-260.009765625
-251.77001953125
-214.2333984375
-173.03466796875
-144.6533203125
-107.11669921875
-69.580078125
-44.86083984375
-17.39501953125
-2.74658203125
-10.07080078125
-9.1552734375
-15.56396484375
-17.39501953125
-20.1416015625
-24.71923828125
-23.8037109375
-10.986328125
-14.6484375
-21.05712890625
-16.4794921875
-23.8037109375
-31.1279296875
-12.8173828125
-26.55029296875
-28.38134765625
-19.22607421875
-3.662109375
1.8310546875
-1.8310546875
-0.91552734375
-10.986328125
-8.23974609375
1.8310546875
-3.662109375
-22.88818359375
-15.56396484375
-5.4931640625
-3.662109375
-16.4794921875
-27.4658203125
-23.8037109375
-30.21240234375
-35.70556640625
-15.56396484375
0.91552734375
7.32421875
7.32421875
-1.8310546875
-7.32421875
-5.4931640625
-8.23974609375
-0.91552734375
5.4931640625
-2.74658203125
-6.40869140625
-4.57763671875
2.74658203125
12.8173828125
10.986328125
17.39501953125
26.55029296875
23.8037109375
27.4658203125
26.55029296875
31.1279296875
14.6484375
6.40869140625
20.1416015625
23.8037109375
29.296875
35.70556640625
35.70556640625
31.1279296875
31.1279296875
46.69189453125
49.4384765625
39.36767578125
43.02978515625
37.53662109375
52.18505859375
58.59375
64.0869140625
64.0869140625
59.50927734375
51.26953125
61.34033203125
67.7490234375
80.56640625
81.48193359375
84.228515625
81.48193359375
89.7216796875
99.79248046875
99.79248046875
94.29931640625
97.96142578125
104.3701171875
116.27197265625
112.60986328125
109.86328125
108.0322265625
112.60986328125
127.25830078125
130.0048828125
124.51171875
129.08935546875
130.0048828125
139.16015625
127.25830078125
125.42724609375
130.0048828125
134.58251953125
140.9912109375
136.41357421875
161.1328125
158.38623046875
158.38623046875
151.06201171875
149.23095703125
152.89306640625
156.55517578125
154.72412109375
151.06201171875
147.39990234375
143.73779296875
136.41357421875
137.3291015625
129.08935546875
108.94775390625
103.45458984375
82.3974609375
77.81982421875
65.91796875
65.00244140625
52.18505859375
39.36767578125
35.70556640625
21.97265625
7.32421875
6.40869140625
0.91552734375
-4.57763671875
-25.634765625
-35.70556640625
-40.283203125
-38.4521484375
-47.607421875
-44.86083984375
-66.83349609375
-68.66455078125
-66.83349609375
-59.50927734375
-67.7490234375
-75.0732421875
-82.3974609375
-85.14404296875
-59.50927734375
-68.66455078125
-83.31298828125
-76.904296875
-94.29931640625
-99.79248046875
-100.7080078125
-93.3837890625
-99.79248046875
-97.0458984375
-99.79248046875
-92.46826171875
-106.201171875
-113.525390625
-108.0322265625
-106.201171875
-103.45458984375
-95.21484375
-99.79248046875
-115.3564453125
-105.28564453125
-97.96142578125
-107.11669921875
-110.77880859375
-109.86328125
-109.86328125
-93.3837890625
-108.94775390625
-120.849609375
-109.86328125
-101.62353515625
-95.21484375
-89.7216796875
-97.96142578125
-107.11669921875
-98.876953125
-98.876953125
-98.876953125
-100.7080078125
-91.552734375
-102.5390625
-101.62353515625
-107.11669921875
-102.5390625
-111.6943359375
-107.11669921875
-103.45458984375
-113.525390625
-121.76513671875
-117.1875
-106.201171875
-107.11669921875
-111.6943359375
-134.58251953125
-116.27197265625
-101.62353515625
-105.28564453125
-108.0322265625
-113.525390625
-105.28564453125
-110.77880859375
-115.3564453125
-124.51171875
-126.3427734375
-106.201171875
-108.0322265625
-121.76513671875
-128.173828125
-129.08935546875
-119.93408203125
-124.51171875
-129.08935546875
-127.25830078125
-116.27197265625
-122.6806640625
-127.25830078125
-129.08935546875
-144.6533203125
-138.24462890625
-139.16015625
-139.16015625
-140.9912109375
-143.73779296875
-150.146484375
-140.07568359375
-138.24462890625
-139.16015625
-148.3154296875
-141.90673828125
-151.06201171875
-144.6533203125
-152.89306640625
-162.9638671875
-155.6396484375
-140.9912109375
-139.16015625
-158.38623046875
-162.04833984375
-165.71044921875
-160.21728515625
-164.794921875
-161.1328125
-167.54150390625
-173.9501953125
-162.9638671875
-173.9501953125
-177.6123046875
-176.69677734375
-180.35888671875
-179.443359375
-177.6123046875
-173.9501953125
-174.86572265625
-181.2744140625
-182.18994140625
-183.10546875
-186.767578125
-188.5986328125
-184.02099609375
-185.85205078125
-198.66943359375
-197.75390625
-188.5986328125
-182.18994140625
-185.85205078125
-188.5986328125
-188.5986328125
-200.50048828125
-208.740234375
-202.33154296875
-187.68310546875
-189.51416015625
-207.82470703125
-210.5712890625
-218.81103515625
-209.65576171875
-200.50048828125
-198.66943359375
-200.50048828125
-206.9091796875
-197.75390625
-201.416015625
-210.5712890625
-210.5712890625
-201.416015625
-186.767578125
-200.50048828125
-217.8955078125
-221.5576171875
-226.13525390625
-227.96630859375
-217.8955078125
-214.2333984375
-215.14892578125
-211.48681640625
-207.82470703125
-190.4296875
-189.51416015625
-182.18994140625
-181.2744140625
-183.10546875
-184.9365234375
-187.68310546875
-187.68310546875
-169.37255859375
-160.21728515625
-154.72412109375
-142.822265625
-151.06201171875
-151.9775390625
-144.6533203125
-148.3154296875
-152.89306640625
-148.3154296875
-142.822265625
-140.9912109375
-135.498046875
-135.498046875
-143.73779296875
-134.58251953125
-137.3291015625
-151.9775390625
-168.45703125
-167.54150390625
-170.2880859375
-189.51416015625
-205.99365234375
-230.712890625
-230.712890625
-220.64208984375
-219.7265625
-232.5439453125
-238.95263671875
-237.12158203125
-239.8681640625
-238.95263671875
-233.45947265625
-243.5302734375
-256.34765625
-257.26318359375
-257.26318359375
-256.34765625
-252.685546875
-258.1787109375
-274.658203125
-259.09423828125
-260.009765625
-254.5166015625
-267.333984375
-265.5029296875
-266.41845703125
-258.1787109375
-260.92529296875
-282.89794921875
-286.56005859375
-282.89794921875
-280.1513671875
-280.1513671875
-288.39111328125
-289.306640625
-280.1513671875
-277.40478515625
-282.89794921875
-270.08056640625
-276.4892578125
-260.009765625
-233.45947265625
-226.13525390625
-195.9228515625
-136.41357421875
-73.2421875
-21.05712890625
57.67822265625
138.24462890625
205.99365234375
266.41845703125
305.7861328125
311.279296875
174.86572265625
32.04345703125
-99.79248046875
-207.82470703125
-297.54638671875
-388.18359375
-460.51025390625
-498.96240234375
-496.2158203125
-491.63818359375
-460.51025390625
-423.88916015625
-387.26806640625
-341.49169921875
-325.01220703125
-300.29296875
-280.1513671875
-290.22216796875
-289.306640625
-283.8134765625
-274.658203125
-275.57373046875
-294.7998046875
-288.39111328125
-291.1376953125
-291.1376953125
-295.71533203125
-281.06689453125
-288.39111328125
-294.7998046875
-294.7998046875
-291.1376953125
-290.22216796875
-288.39111328125
-288.39111328125
-282.89794921875
-291.1376953125
-286.56005859375
-292.05322265625
-302.1240234375
-275.57373046875
-293.88427734375
-287.4755859375
-292.05322265625
-294.7998046875
-297.54638671875
-298.4619140625
-292.05322265625
-281.06689453125
-276.4892578125
-286.56005859375
-300.29296875
-297.54638671875
-294.7998046875
-308.53271484375
-325.01220703125
-305.7861328125
-307.6171875
-308.53271484375
-307.6171875
-298.4619140625
-284.72900390625
-284.72900390625
-289.306640625
-293.88427734375
-286.56005859375
-287.4755859375
-289.306640625
-288.39111328125
-289.306640625
-289.306640625
-290.22216796875
-283.8134765625
-275.57373046875
-281.06689453125
-280.1513671875
-283.8134765625
-288.39111328125
-283.8134765625
-283.8134765625
-279.23583984375
-280.1513671875
-270.99609375
-265.5029296875
-270.99609375
-277.40478515625
-270.08056640625
-262.75634765625
-260.009765625
-270.08056640625
-275.57373046875
-262.75634765625
-254.5166015625
-264.58740234375
-260.009765625
-252.685546875
-248.10791015625
-249.93896484375
-249.93896484375
-251.77001953125
-241.69921875
-251.77001953125
-241.69921875
-233.45947265625
-236.2060546875
-223.388671875
-216.064453125
-199.5849609375
-203.2470703125
-216.064453125
-222.47314453125
-213.31787109375
-204.16259765625
-205.078125
-208.740234375
-202.33154296875
-204.16259765625
-199.5849609375
-185.85205078125
-189.51416015625
-192.2607421875
-188.5986328125
-181.2744140625
-172.119140625
-165.71044921875
-165.71044921875
-158.38623046875
-162.9638671875
-171.20361328125
-182.18994140625
-190.4296875
-194.091796875
-195.9228515625
-205.078125
-215.14892578125
-219.7265625
-224.30419921875
-227.96630859375
-240.78369140625
-250.8544921875
-260.92529296875
-263.671875
-280.1513671875
-292.05322265625
-302.1240234375
-306.70166015625
-316.7724609375
-328.67431640625
-333.251953125
-355.224609375
-361.63330078125
-361.63330078125
-376.28173828125
-375.3662109375
-379.0283203125
-379.94384765625
-402.83203125
-402.83203125
-402.83203125
-414.73388671875
-423.88916015625
-412.90283203125
-422.9736328125
-421.142578125
-411.9873046875
-428.466796875
-442.19970703125
-442.19970703125
-430.2978515625
-449.52392578125
-421.142578125
-420.22705078125
-421.142578125
-425.72021484375
-437.6220703125
-437.6220703125
-444.03076171875
-450.439453125
-446.77734375
-444.03076171875
-462.34130859375
-468.75
-458.67919921875
-445.86181640625
-459.5947265625
-433.9599609375
-437.6220703125
-445.86181640625
-434.87548828125
-452.2705078125
-464.17236328125
-455.01708984375
-444.9462890625
-444.9462890625
-444.03076171875
-432.12890625
-428.466796875
-434.87548828125
-431.21337890625
-433.04443359375
-445.86181640625
-459.5947265625
-451.35498046875
-447.69287109375
-445.86181640625
-448.6083984375
-442.19970703125
-436.70654296875
-446.77734375
-459.5947265625
-458.67919921875
-455.9326171875
-453.18603515625
-449.52392578125
-455.01708984375
-455.01708984375
-450.439453125
-448.6083984375
-454.1015625
-450.439453125
-454.1015625
-458.67919921875
-470.5810546875
-452.2705078125
-465.087890625
-463.2568359375
-460.51025390625
-457.763671875
-465.087890625
-469.66552734375
-479.736328125
-476.07421875
-466.00341796875
-454.1015625
-465.087890625
-463.2568359375
-456.84814453125
-451.35498046875
-468.75
-474.2431640625
-476.07421875
-489.80712890625
-489.80712890625
-479.736328125
-466.9189453125
-469.66552734375
-473.32763671875
-467.83447265625
-484.31396484375
-484.31396484375
-473.32763671875
-467.83447265625
-470.5810546875
-472.412109375
-478.82080078125
-479.736328125
-486.14501953125
-482.48291015625
-476.07421875
-485.2294921875
-473.32763671875
-480.65185546875
-483.3984375
-486.14501953125
-491.63818359375
-486.14501953125
-483.3984375
-485.2294921875
-487.060546875
-506.28662109375
-505.37109375
-487.97607421875
-480.65185546875
-481.5673828125
-481.5673828125
-485.2294921875
-483.3984375
-481.5673828125
-487.060546875
-495.30029296875
-496.2158203125
-479.736328125
-485.2294921875
-487.97607421875
-490.72265625
-485.2294921875
-493.46923828125
-492.5537109375
-482.48291015625
-492.5537109375
-497.13134765625
-491.63818359375
-498.046875
-494.384765625
-494.384765625
-492.5537109375
-492.5537109375
-494.384765625
-500.79345703125
-495.30029296875
-497.13134765625
-498.046875
-482.48291015625
-473.32763671875
-473.32763671875
-455.9326171875
-452.2705078125
-451.35498046875
-455.01708984375
-443.115234375
-434.87548828125
-449.52392578125
-443.115234375
-437.6220703125
-445.86181640625
-417.48046875
-409.24072265625
-418.39599609375
-407.40966796875
-416.56494140625
-417.48046875
-412.90283203125
-393.6767578125
-390.0146484375
-395.5078125
-400.08544921875
-393.6767578125
-397.3388671875
-410.15625
-422.9736328125
-433.9599609375
-433.9599609375
-445.86181640625
-455.01708984375
-472.412109375
-480.65185546875
-471.49658203125
-475.15869140625
-487.060546875
-500.79345703125
-496.2158203125
-494.384765625
-488.8916015625
-496.2158203125
-508.11767578125
-511.77978515625
-507.2021484375
-502.62451171875
-499.8779296875
-509.94873046875
-509.033203125
-516.357421875
-516.357421875
-524.59716796875
-513.61083984375
-518.1884765625
-515.44189453125
-517.27294921875
-520.01953125
-518.1884765625
-527.34375
-520.93505859375
-498.96240234375
-509.033203125
-526.42822265625
-521.8505859375
-518.1884765625
-517.27294921875
-515.44189453125
-508.11767578125
-508.11767578125
-504.45556640625
-502.62451171875
-485.2294921875
-453.18603515625
-438.53759765625
-393.6767578125
-331.4208984375
-278.3203125
-205.078125
-128.173828125
-40.283203125
42.1142578125
87.890625
104.3701171875
31.1279296875
-151.06201171875
-275.57373046875
-392.76123046875
-486.14501953125
-578.61328125
-650.93994140625
-692.138671875
-694.88525390625
-692.138671875
-689.39208984375
-661.92626953125
-618.896484375
-579.52880859375
-555.72509765625
-520.93505859375
-495.30029296875
-479.736328125
-469.66552734375
-455.9326171875
-455.01708984375
-466.00341796875
-471.49658203125
-471.49658203125
-459.5947265625
-466.9189453125
-469.66552734375
-468.75
-461.42578125
-472.412109375
-487.060546875
-481.5673828125
-474.2431640625
-476.98974609375
-474.2431640625
-460.51025390625
-466.9189453125
-474.2431640625
-477.9052734375
-475.15869140625
-467.83447265625
-466.9189453125
-465.087890625
-462.34130859375
-447.69287109375
-451.35498046875
-463.2568359375
-468.75
-464.17236328125
-462.34130859375
-456.84814453125
-450.439453125
-453.18603515625
-445.86181640625
-440.36865234375
-449.52392578125
-455.01708984375
-446.77734375
-442.19970703125
-439.453125
-437.6220703125
-430.2978515625
-417.48046875
-418.39599609375
-418.39599609375
-418.39599609375
-421.142578125
-433.9599609375
-435.791015625
-429.38232421875
-427.55126953125
-418.39599609375
-402.83203125
-401.91650390625
-411.07177734375
-413.818359375
-396.42333984375
-405.57861328125
-406.494140625
-406.494140625
-399.169921875
-398.25439453125
-398.25439453125
-384.521484375
-379.0283203125
-384.521484375
-378.11279296875
-365.29541015625
-368.0419921875
-366.2109375
-357.0556640625
-353.3935546875
-346.0693359375
-346.98486328125
-341.49169921875
-343.32275390625
-357.0556640625
-348.81591796875
-345.15380859375
-343.32275390625
-337.82958984375
-328.67431640625
-327.7587890625
-304.87060546875
-301.20849609375
-304.87060546875
-298.4619140625
-276.4892578125
-265.5029296875
-270.08056640625
-272.8271484375
-270.08056640625
-271.91162109375
-269.1650390625
-269.1650390625
-271.91162109375
-265.5029296875
-251.77001953125
-247.1923828125
-240.78369140625
-229.79736328125
-234.375
-238.037109375
-229.79736328125
-238.95263671875
-241.69921875
-218.81103515625
-219.7265625
-224.30419921875
-217.8955078125
-222.47314453125
-222.47314453125
-229.79736328125
-230.712890625
-245.361328125
-255.43212890625
-253.60107421875
-261.8408203125
-261.8408203125
-290.22216796875
-308.53271484375
-325.927734375
-324.0966796875
-325.927734375
-338.7451171875
-355.224609375
-357.0556640625
-366.2109375
-370.78857421875
-381.77490234375
-393.6767578125
-393.6767578125
-400.08544921875
-406.494140625
-405.57861328125
-412.90283203125
-418.39599609375
-420.22705078125
-421.142578125
-415.6494140625
-417.48046875
-430.2978515625
-434.87548828125
-433.9599609375
-433.04443359375
-440.36865234375
-439.453125
-432.12890625
-436.70654296875
-440.36865234375
-444.9462890625
-445.86181640625
-446.77734375
-438.53759765625
-445.86181640625
-446.77734375
-442.19970703125
-436.70654296875
-439.453125
-436.70654296875
-442.19970703125
-437.6220703125
-430.2978515625
-441.2841796875
-444.03076171875
-425.72021484375
-435.791015625
-428.466796875
-426.6357421875
-429.38232421875
-422.05810546875
-418.39599609375
-421.142578125
-412.90283203125
-412.90283203125
-410.15625
-413.818359375
-418.39599609375
-426.6357421875
-433.04443359375
-433.04443359375
-419.3115234375
-420.22705078125
-429.38232421875
-422.9736328125
-411.07177734375
-411.9873046875
-411.07177734375
-407.40966796875
-412.90283203125
-412.90283203125
-416.56494140625
-411.07177734375
-405.57861328125
-402.83203125
-406.494140625
-414.73388671875
-413.818359375
-405.57861328125
-397.3388671875
-407.40966796875
-398.25439453125
-406.494140625
-403.74755859375
-406.494140625
-401.91650390625
-401.91650390625
-396.42333984375
-382.6904296875
-394.59228515625
-395.5078125
-401.0009765625
-406.494140625
-407.40966796875
-398.25439453125
-385.43701171875
-395.5078125
-400.08544921875
-401.0009765625
-402.83203125
-401.91650390625
-414.73388671875
-413.818359375
-409.24072265625
-408.3251953125
-401.91650390625
-407.40966796875
-404.6630859375
-398.25439453125
-388.18359375
-400.08544921875
-404.6630859375
-403.74755859375
-405.57861328125
-405.57861328125
-406.494140625
-395.5078125
-392.76123046875
-401.0009765625
-408.3251953125
-396.42333984375
-388.18359375
-407.40966796875
-401.91650390625
-404.6630859375
-405.57861328125
-400.08544921875
-398.25439453125
-383.60595703125
-393.6767578125
-390.0146484375
-387.26806640625
-401.91650390625
-406.494140625
-404.6630859375
-409.24072265625
-398.25439453125
-392.76123046875
-391.845703125
-387.26806640625
-396.42333984375
-409.24072265625
-401.0009765625
-385.43701171875
-404.6630859375
-410.15625
-407.40966796875
-400.08544921875
-396.42333984375
-393.6767578125
-381.77490234375
-382.6904296875
-391.845703125
-395.5078125
-391.845703125
-388.18359375
-391.845703125
-393.6767578125
-404.6630859375
-410.15625
-416.56494140625
-400.08544921875
-383.60595703125
-379.0283203125
-389.09912109375
-384.521484375
-382.6904296875
-384.521484375
-385.43701171875
-383.60595703125
-372.61962890625
-372.61962890625
-366.2109375
-357.0556640625
-346.98486328125
-343.32275390625
-344.23828125
-342.4072265625
-342.4072265625
-339.66064453125
-339.66064453125
-338.7451171875
-325.01220703125
-309.4482421875
-298.4619140625
-303.955078125
-304.87060546875
-303.955078125
-291.1376953125
-282.89794921875
-281.06689453125
-289.306640625
-279.23583984375
-272.8271484375
-271.91162109375
-282.89794921875
-283.8134765625
-293.88427734375
-301.20849609375
-311.279296875
-319.51904296875
-325.01220703125
-346.0693359375
-345.15380859375
-347.900390625
-352.47802734375
-346.98486328125
-355.224609375
-352.47802734375
-363.46435546875
-370.78857421875
-372.61962890625
-365.29541015625
-369.873046875
-382.6904296875
-368.95751953125
-380.859375
-369.873046875
-361.63330078125
-359.80224609375
-372.61962890625
-367.12646484375
-374.45068359375
-380.859375
-385.43701171875
-373.53515625
-368.95751953125
-382.6904296875
-374.45068359375
-375.3662109375
-372.61962890625
-373.53515625
-379.0283203125
-376.28173828125
-360.7177734375
-364.3798828125
-376.28173828125
-380.859375
-378.11279296875
-375.3662109375
-357.0556640625
-341.49169921875
-314.94140625
-276.4892578125
-239.8681640625
-185.85205078125
-125.42724609375
-46.69189453125
39.36767578125
118.10302734375
186.767578125
240.78369140625
271.91162109375
182.18994140625
0
-120.849609375
-256.34765625
-344.23828125
-426.6357421875
-519.10400390625
-565.7958984375
-564.88037109375
-548.40087890625
-529.1748046875
-481.5673828125
-447.69287109375
-406.494140625
-365.29541015625
-346.98486328125
-334.16748046875
-319.51904296875
-308.53271484375
-321.35009765625
-319.51904296875
-300.29296875
-313.1103515625
-314.94140625
-308.53271484375
-310.36376953125
-312.19482421875
-307.6171875
-319.51904296875
-329.58984375
-318.603515625
-324.0966796875
-331.4208984375
-329.58984375
-316.7724609375
-308.53271484375
-308.53271484375
-314.02587890625
-303.955078125
-314.02587890625
-313.1103515625
-303.955078125
-296.630859375
-301.20849609375
-307.6171875
-297.54638671875
-306.70166015625
-313.1103515625
-295.71533203125
-289.306640625
-291.1376953125
-292.05322265625
-293.88427734375
-295.71533203125
-290.22216796875
-286.56005859375
-281.982421875
-284.72900390625
-275.57373046875
-262.75634765625
-272.8271484375
-281.06689453125
-274.658203125
-280.1513671875
-266.41845703125
-258.1787109375
-258.1787109375
-246.27685546875
-256.34765625
-259.09423828125
-252.685546875
-244.44580078125
-243.5302734375
-247.1923828125
-242.61474609375
-233.45947265625
-233.45947265625
-237.12158203125
-224.30419921875
-227.96630859375
-237.12158203125
-234.375
-212.40234375
-215.14892578125
-225.2197265625
-220.64208984375
-208.740234375
-194.091796875
-185.85205078125
-184.9365234375
-189.51416015625
-190.4296875
-182.18994140625
-170.2880859375
-161.1328125
-163.87939453125
-177.6123046875
-166.6259765625
-162.9638671875
-165.71044921875
-148.3154296875
-150.146484375
-151.06201171875
-146.484375
-140.07568359375
-135.498046875
-141.90673828125
-152.89306640625
-159.3017578125
-162.9638671875
-119.93408203125
-109.86328125
-111.6943359375
-110.77880859375
-82.3974609375
-78.7353515625
-96.13037109375
-97.96142578125
-108.0322265625
-118.10302734375
-83.31298828125
-95.21484375
-119.93408203125
-117.1875
-155.6396484375
-140.07568359375
-72.32666015625
-82.3974609375
-98.876953125
-48.52294921875
-51.26953125
-83.31298828125
-12.8173828125
23.8037109375
-29.296875
-92.46826171875
-128.173828125
-172.119140625
-213.31787109375
-153.80859375
-80.56640625
-75.0732421875
-51.26953125
-51.26953125
-66.83349609375
-109.86328125
-140.07568359375
-130.0048828125
-142.822265625
-165.71044921875
-173.03466796875
-192.2607421875
-201.416015625
-207.82470703125
-216.97998046875
-229.79736328125
-236.2060546875
-223.388671875
-230.712890625
-240.78369140625
-253.60107421875
-249.93896484375
-244.44580078125
-262.75634765625
-268.24951171875
-251.77001953125
-249.0234375
-257.26318359375
-262.75634765625
-252.685546875
-244.44580078125
-243.5302734375
-262.75634765625
-261.8408203125
-257.26318359375
-258.1787109375
-260.92529296875
-265.5029296875
-251.77001953125
-258.1787109375
-249.0234375
-245.361328125
-260.009765625
-261.8408203125
-252.685546875
-251.77001953125
-258.1787109375
-253.60107421875
-256.34765625
-249.0234375
-249.0234375
-246.27685546875
-245.361328125
-235.29052734375
-247.1923828125
-249.0234375
-239.8681640625
-231.62841796875
-232.5439453125
-238.95263671875
-242.61474609375
-235.29052734375
-225.2197265625
-201.416015625
-228.8818359375
-252.685546875
-250.8544921875
-278.3203125
-281.06689453125
-239.8681640625
-236.2060546875
-219.7265625
-227.05078125
-239.8681640625
-224.30419921875
-250.8544921875
-236.2060546875
-226.13525390625
-236.2060546875
-240.78369140625
-249.0234375
-222.47314453125
-227.96630859375
-215.14892578125
-199.5849609375
-226.13525390625
-204.16259765625
-182.18994140625
-196.83837890625
-201.416015625
-189.51416015625
-212.40234375
-230.712890625
-216.064453125
-213.31787109375
-227.96630859375
-244.44580078125
-251.77001953125
-231.62841796875
-217.8955078125
-203.2470703125
-226.13525390625
-238.95263671875
-238.95263671875
-231.62841796875
-249.0234375
-249.0234375
-249.93896484375
-261.8408203125
-249.93896484375
-196.83837890625
-173.03466796875
-184.02099609375
-207.82470703125
-192.2607421875
-179.443359375
-187.68310546875
-220.64208984375
-226.13525390625
-225.2197265625
-250.8544921875
-265.5029296875
-265.5029296875
-260.009765625
-238.037109375
-238.95263671875
-232.5439453125
-227.96630859375
-228.8818359375
-250.8544921875
-227.96630859375
-213.31787109375
-202.33154296875
-197.75390625
-206.9091796875
-197.75390625
-193.17626953125
-201.416015625
-209.65576171875
-212.40234375
-235.29052734375
-224.30419921875
-217.8955078125
-244.44580078125
-268.24951171875
-276.4892578125
-262.75634765625
-232.5439453125
-195.9228515625
-208.740234375
-218.81103515625
-241.69921875
-258.1787109375
-249.93896484375
-228.8818359375
-230.712890625
-255.43212890625
-257.26318359375
-218.81103515625
-198.66943359375
-225.2197265625
-233.45947265625
-242.61474609375
-241.69921875
-223.388671875
-230.712890625
-236.2060546875
-218.81103515625
-229.79736328125
-252.685546875
-250.8544921875
-229.79736328125
-202.33154296875
-234.375
-245.361328125
-214.2333984375
-175.78125
-184.02099609375
-239.8681640625
-236.2060546875
-218.81103515625
-194.091796875
-200.50048828125
-195.00732421875
-157.470703125
-112.60986328125
-84.228515625
-118.10302734375
-154.72412109375
-139.16015625
-147.39990234375
-141.90673828125
-110.77880859375
-95.21484375
-110.77880859375
-119.0185546875
-118.10302734375
-137.3291015625
-161.1328125
-161.1328125
-167.54150390625
-162.9638671875
-161.1328125
-179.443359375
-182.18994140625
-202.33154296875
-259.09423828125
-259.09423828125
-215.14892578125
-164.794921875
-153.80859375
-172.119140625
-178.52783203125
-215.14892578125
-225.2197265625
-219.7265625
-232.5439453125
-221.5576171875
-212.40234375
-188.5986328125
-199.5849609375
-214.2333984375
-205.99365234375
-223.388671875
-227.05078125
-230.712890625
-229.79736328125
-224.30419921875
-229.79736328125
-238.037109375
-247.1923828125
-249.0234375
-238.95263671875
-249.0234375
-256.34765625
-245.361328125
-261.8408203125
-240.78369140625
-219.7265625
-219.7265625
-246.27685546875
-269.1650390625
-272.8271484375
-249.0234375
-205.99365234375
-108.94775390625
-113.525390625
-94.29931640625
-42.1142578125
25.634765625
79.65087890625
168.45703125
260.009765625
345.15380859375
366.2109375
400.08544921875
364.3798828125
149.23095703125
0
-126.3427734375
-195.9228515625
-281.06689453125
-368.95751953125
-411.07177734375
-411.9873046875
-415.6494140625
-383.60595703125
-368.0419921875
-348.81591796875
-298.4619140625
-240.78369140625
-216.97998046875
-199.5849609375
-191.34521484375
-184.9365234375
-177.6123046875
-176.69677734375
-194.091796875
-201.416015625
-229.79736328125
-214.2333984375
-206.9091796875
-184.9365234375
-204.16259765625
-199.5849609375
-194.091796875
-189.51416015625
-213.31787109375
-196.83837890625
-184.9365234375
-185.85205078125
-196.83837890625
-194.091796875
-200.50048828125
-200.50048828125
-175.78125
-173.03466796875
-187.68310546875
-212.40234375
-190.4296875
-188.5986328125
-196.83837890625
-203.2470703125
-189.51416015625
-147.39990234375
-152.89306640625
-170.2880859375
-156.55517578125
-186.767578125
-155.6396484375
-157.470703125
-159.3017578125
-172.119140625
-173.03466796875
-168.45703125
-147.39990234375
-161.1328125
-160.21728515625
-165.71044921875
-173.9501953125
-194.091796875
-180.35888671875
-172.119140625
-188.5986328125
-143.73779296875
-118.10302734375
-121.76513671875
-130.0048828125
-136.41357421875
-136.41357421875
-142.822265625
-144.6533203125
-146.484375
-127.25830078125
-136.41357421875
-136.41357421875
-99.79248046875
-100.7080078125
-119.93408203125
-108.0322265625
-119.93408203125
-96.13037109375
-80.56640625
-92.46826171875
-87.890625
-95.21484375
-86.0595703125
-80.56640625
-81.48193359375
-87.890625
-90.63720703125
-102.5390625
-79.65087890625
-50.35400390625
-56.7626953125
-69.580078125
-65.91796875
-72.32666015625
-39.36767578125
-9.1552734375
-16.4794921875
-33.87451171875
-25.634765625
-34.7900390625
-18.310546875
6.40869140625
9.1552734375
11.90185546875
-13.73291015625
12.8173828125
19.22607421875
6.40869140625
-23.8037109375
-18.310546875
25.634765625
47.607421875
60.4248046875
52.18505859375
39.36767578125
55.84716796875
53.1005859375
48.52294921875
52.18505859375
60.4248046875
68.66455078125
69.580078125
39.36767578125
47.607421875
40.283203125
10.07080078125
27.4658203125
24.71923828125
28.38134765625
13.73291015625
16.4794921875
-20.1416015625
-34.7900390625
-22.88818359375
2.74658203125
1.8310546875
-37.53662109375
-56.7626953125
-73.2421875
-93.3837890625
-100.7080078125
-106.201171875
-119.0185546875
-119.0185546875
-139.16015625
-130.0048828125
-137.3291015625
-168.45703125
-154.72412109375
-130.92041015625
-130.0048828125
-156.55517578125
-147.39990234375
-159.3017578125
-158.38623046875
-156.55517578125
-159.3017578125
-169.37255859375
-197.75390625
-205.078125
-198.66943359375
-181.2744140625
-192.2607421875
-181.2744140625
-138.24462890625
-124.51171875
-177.6123046875
-161.1328125
-149.23095703125
-170.2880859375
-167.54150390625
-151.06201171875
-158.38623046875
-162.04833984375
-162.9638671875
-164.794921875
-166.6259765625
-180.35888671875
-182.18994140625
-174.86572265625
-181.2744140625
-171.20361328125
-155.6396484375
-187.68310546875
-161.1328125
-140.07568359375
-139.16015625
-130.0048828125
-140.07568359375
-131.8359375
-146.484375
-160.21728515625
-155.6396484375
-150.146484375
-148.3154296875
-151.06201171875
-150.146484375
-151.06201171875
-151.9775390625
-170.2880859375
-172.119140625
-180.35888671875
-165.71044921875
-115.3564453125
-130.0048828125
-142.822265625
-159.3017578125
-188.5986328125
-213.31787109375
-177.6123046875
-162.04833984375
-168.45703125
-161.1328125
-170.2880859375
-176.69677734375
-157.470703125
-110.77880859375
-74.15771484375
-83.31298828125
-90.63720703125
-101.62353515625
-100.7080078125
-83.31298828125
-94.29931640625
-105.28564453125
-97.0458984375
-119.0185546875
-131.8359375
-134.58251953125
-145.56884765625
-142.822265625
-133.6669921875
-141.90673828125
-150.146484375
-138.24462890625
-117.1875
-145.56884765625
-165.71044921875
-174.86572265625
-173.9501953125
-193.17626953125
-189.51416015625
-129.08935546875
-113.525390625
-100.7080078125
-113.525390625
-132.75146484375
-142.822265625
-146.484375
-140.07568359375
-119.0185546875
-112.60986328125
-124.51171875
-130.92041015625
-129.08935546875
-130.92041015625
-137.3291015625
-145.56884765625
-131.8359375
-130.92041015625
-145.56884765625
-155.6396484375
-162.04833984375
-157.470703125
-144.6533203125
-147.39990234375
-153.80859375
-153.80859375
-154.72412109375
-156.55517578125
-169.37255859375
-169.37255859375
-155.6396484375
-126.3427734375
-156.55517578125
-152.89306640625
-168.45703125
-166.6259765625
-142.822265625
-116.27197265625
-121.76513671875
-159.3017578125
-152.89306640625
-139.16015625
-140.07568359375
-148.3154296875
-137.3291015625
-139.16015625
-142.822265625
-128.173828125
-137.3291015625
-153.80859375
-144.6533203125
-127.25830078125
-119.0185546875
-138.24462890625
-136.41357421875
-124.51171875
-119.93408203125
-114.44091796875
-120.849609375
-99.79248046875
-92.46826171875
-104.3701171875
-97.0458984375
-79.65087890625
-91.552734375
-110.77880859375
-75.98876953125
-39.36767578125
-23.8037109375
-25.634765625
-35.70556640625
-32.958984375
-21.05712890625
-25.634765625
-31.1279296875
-10.07080078125
-24.71923828125
-32.958984375
-32.04345703125
-21.05712890625
-21.05712890625
-24.71923828125
-20.1416015625
-41.19873046875
-47.607421875
-53.1005859375
-79.65087890625
-77.81982421875
-81.48193359375
-78.7353515625
-96.13037109375
-94.29931640625
-102.5390625
-107.11669921875
-120.849609375
-130.0048828125
-122.6806640625
-121.76513671875
-120.849609375
-106.201171875
-95.21484375
-91.552734375
-96.13037109375
-101.62353515625
-97.96142578125
-109.86328125
-112.60986328125
-124.51171875
-119.0185546875
-107.11669921875
-113.525390625
-123.59619140625
-126.3427734375
-128.173828125
-124.51171875
-141.90673828125
-126.3427734375
-109.86328125
-102.5390625
-119.93408203125
-102.5390625
-101.62353515625
-111.6943359375
-101.62353515625
-84.228515625
-82.3974609375
-86.97509765625
-61.34033203125
-36.62109375
11.90185546875
71.4111328125
121.76513671875
187.68310546875
268.24951171875
366.2109375
435.791015625
485.2294921875
496.2158203125
498.96240234375
346.98486328125
195.9228515625
40.283203125
-59.50927734375
-147.39990234375
-227.96630859375
-257.26318359375
-269.1650390625
-289.306640625
-280.1513671875
-255.43212890625
-216.97998046875
-187.68310546875
-158.38623046875
-118.10302734375
-86.0595703125
-68.66455078125
-68.66455078125
-41.19873046875
-42.1142578125
-41.19873046875
-28.38134765625
-43.02978515625
-48.52294921875
-56.7626953125
-54.931640625
-63.17138671875
-75.98876953125
-74.15771484375
-77.81982421875
-85.14404296875
-100.7080078125
-68.66455078125
-67.7490234375
-47.607421875
-40.283203125
-34.7900390625
-27.4658203125
-23.8037109375
-40.283203125
-42.1142578125
-43.02978515625
-29.296875
-39.36767578125
-36.62109375
-38.4521484375
-52.18505859375
-43.02978515625
-25.634765625
-32.04345703125
-28.38134765625
-26.55029296875
-15.56396484375
-8.23974609375
-10.986328125
-15.56396484375
-4.57763671875
0
-9.1552734375
-3.662109375
-2.74658203125
-8.23974609375
-7.32421875
-0.91552734375
10.07080078125
0.91552734375
-17.39501953125
-0.91552734375
6.40869140625
4.57763671875
22.88818359375
21.05712890625
8.23974609375
10.986328125
28.38134765625
14.6484375
8.23974609375
9.1552734375
1.8310546875
10.986328125
21.05712890625
33.87451171875
36.62109375
32.04345703125
36.62109375
35.70556640625
47.607421875
64.0869140625
64.0869140625
81.48193359375
87.890625
87.890625
97.96142578125
96.13037109375
88.80615234375
88.80615234375
87.890625
89.7216796875
96.13037109375
108.0322265625
111.6943359375
108.94775390625
131.8359375
140.9912109375
137.3291015625
151.06201171875
144.6533203125
138.24462890625
136.41357421875
152.89306640625
159.3017578125
161.1328125
170.2880859375
166.6259765625
141.90673828125
123.59619140625
173.03466796875
200.50048828125
182.18994140625
183.10546875
216.97998046875
227.96630859375
224.30419921875
214.2333984375
210.5712890625
240.78369140625
236.2060546875
230.712890625
226.13525390625
218.81103515625
241.69921875
232.5439453125
225.2197265625
226.13525390625
221.5576171875
205.078125
185.85205078125
178.52783203125
157.470703125
145.56884765625
130.92041015625
112.60986328125
115.3564453125
112.60986328125
99.79248046875
98.876953125
88.80615234375
97.96142578125
97.0458984375
80.56640625
66.83349609375
44.86083984375
44.86083984375
32.04345703125
38.4521484375
43.9453125
51.26953125
49.4384765625
53.1005859375
55.84716796875
46.69189453125
22.88818359375
34.7900390625
21.05712890625
23.8037109375
32.958984375
21.97265625
17.39501953125
26.55029296875
23.8037109375
21.05712890625
20.1416015625
24.71923828125
17.39501953125
26.55029296875
39.36767578125
28.38134765625
19.22607421875
7.32421875
6.40869140625
17.39501953125
37.53662109375
21.05712890625
22.88818359375
24.71923828125
26.55029296875
42.1142578125
49.4384765625
48.52294921875
34.7900390625
31.1279296875
26.55029296875
37.53662109375
48.52294921875
54.931640625
54.931640625
40.283203125
33.87451171875
35.70556640625
53.1005859375
56.7626953125
52.18505859375
43.9453125
35.70556640625
53.1005859375
66.83349609375
72.32666015625
51.26953125
58.59375
61.34033203125
70.49560546875
62.255859375
53.1005859375
45.7763671875
53.1005859375
63.17138671875
45.7763671875
38.4521484375
50.35400390625
65.91796875
66.83349609375
81.48193359375
75.98876953125
64.0869140625
65.00244140625
58.59375
59.50927734375
65.00244140625
48.52294921875
54.01611328125
78.7353515625
89.7216796875
94.29931640625
92.46826171875
92.46826171875
85.14404296875
76.904296875
75.0732421875
78.7353515625
88.80615234375
71.4111328125
69.580078125
72.32666015625
84.228515625
77.81982421875
65.00244140625
64.0869140625
72.32666015625
68.66455078125
75.98876953125
70.49560546875
72.32666015625
56.7626953125
56.7626953125
48.52294921875
53.1005859375
73.2421875
70.49560546875
68.66455078125
81.48193359375
68.66455078125
64.0869140625
78.7353515625
89.7216796875
83.31298828125
79.65087890625
75.0732421875
87.890625
91.552734375
72.32666015625
61.34033203125
59.50927734375
62.255859375
63.17138671875
56.7626953125
57.67822265625
55.84716796875
65.91796875
65.91796875
77.81982421875
77.81982421875
69.580078125
68.66455078125
74.15771484375
61.34033203125
65.00244140625
61.34033203125
50.35400390625
65.91796875
66.83349609375
62.255859375
60.4248046875
72.32666015625
62.255859375
62.255859375
70.49560546875
67.7490234375
67.7490234375
71.4111328125
69.580078125
76.904296875
77.81982421875
76.904296875
73.2421875
75.98876953125
67.7490234375
65.91796875
84.228515625
76.904296875
65.91796875
82.3974609375
86.0595703125
93.3837890625
114.44091796875
111.6943359375
114.44091796875
110.77880859375
102.5390625
97.0458984375
119.93408203125
145.56884765625
151.06201171875
167.54150390625
161.1328125
178.52783203125
173.03466796875
157.470703125
160.21728515625
167.54150390625
176.69677734375
184.9365234375
181.2744140625
173.03466796875
189.51416015625
182.18994140625
180.35888671875
159.3017578125
153.80859375
132.75146484375
120.849609375
119.0185546875
123.59619140625
113.525390625
110.77880859375
101.62353515625
91.552734375
89.7216796875
86.0595703125
87.890625
84.228515625
78.7353515625
91.552734375
85.14404296875
87.890625
87.890625
77.81982421875
72.32666015625
69.580078125
65.91796875
67.7490234375
64.0869140625
67.7490234375
73.2421875
57.67822265625
55.84716796875
70.49560546875
64.0869140625
50.35400390625
57.67822265625
73.2421875
75.98876953125
55.84716796875
58.59375
65.91796875
68.66455078125
65.00244140625
71.4111328125
80.56640625
74.15771484375
78.7353515625
108.0322265625
124.51171875
141.90673828125
184.02099609375
250.8544921875
299.37744140625
355.224609375
428.466796875
537.41455078125
612.48779296875
658.26416015625
689.39208984375
690.3076171875
533.75244140625
389.09912109375
244.44580078125
128.173828125
40.283203125
-35.70556640625
-85.14404296875
-115.3564453125
-119.0185546875
-118.10302734375
-98.876953125
-58.59375
-18.310546875
19.22607421875
57.67822265625
86.0595703125
114.44091796875
119.0185546875
121.76513671875
112.60986328125
120.849609375
117.1875
114.44091796875
118.10302734375
110.77880859375
116.27197265625
118.10302734375
114.44091796875
113.525390625
115.3564453125
112.60986328125
121.76513671875
110.77880859375
108.94775390625
107.11669921875
107.11669921875
113.525390625
114.44091796875
113.525390625
129.08935546875
128.173828125
131.8359375
126.3427734375
130.92041015625
123.59619140625
131.8359375
141.90673828125
137.3291015625
130.0048828125
135.498046875
130.92041015625
129.08935546875
130.0048828125
121.76513671875
125.42724609375
131.8359375
151.06201171875
151.9775390625
144.6533203125
154.72412109375
151.9775390625
153.80859375
162.9638671875
154.72412109375
155.6396484375
166.6259765625
158.38623046875
167.54150390625
173.9501953125
165.71044921875
169.37255859375
175.78125
171.20361328125
162.9638671875
174.86572265625
173.9501953125
182.18994140625
187.68310546875
185.85205078125
186.767578125
195.00732421875
193.17626953125
190.4296875
205.078125
196.83837890625
190.4296875
195.00732421875
205.078125
204.16259765625
213.31787109375
233.45947265625
229.79736328125
227.05078125
232.5439453125
237.12158203125
238.037109375
247.1923828125
247.1923828125
254.5166015625
260.92529296875
260.009765625
266.41845703125
269.1650390625
261.8408203125
273.74267578125
277.40478515625
281.982421875
293.88427734375
289.306640625
287.4755859375
296.630859375
288.39111328125
299.37744140625
306.70166015625
326.84326171875
340.576171875
332.33642578125
333.251953125
328.67431640625
319.51904296875
326.84326171875
332.33642578125
346.0693359375
355.224609375
357.97119140625
364.3798828125
367.12646484375
343.32275390625
332.33642578125
338.7451171875
342.4072265625
336.9140625
341.49169921875
329.58984375
314.94140625
305.7861328125
305.7861328125
303.03955078125
293.88427734375
281.06689453125
261.8408203125
247.1923828125
249.0234375
240.78369140625
234.375
232.5439453125
229.79736328125
207.82470703125
185.85205078125
187.68310546875
194.091796875
165.71044921875
158.38623046875
158.38623046875
155.6396484375
158.38623046875
148.3154296875
149.23095703125
140.9912109375
123.59619140625
130.0048828125
124.51171875
119.0185546875
121.76513671875
118.10302734375
103.45458984375
107.11669921875
115.3564453125
107.11669921875
112.60986328125
110.77880859375
106.201171875
111.6943359375
121.76513671875
130.0048828125
124.51171875
122.6806640625
118.10302734375
120.849609375
124.51171875
121.76513671875
120.849609375
109.86328125
96.13037109375
101.62353515625
108.94775390625
97.96142578125
95.21484375
98.876953125
106.201171875
103.45458984375
116.27197265625
121.76513671875
103.45458984375
98.876953125
103.45458984375
106.201171875
119.0185546875
121.76513671875
127.25830078125
135.498046875
129.08935546875
122.6806640625
128.173828125
140.07568359375
126.3427734375
126.3427734375
129.08935546875
117.1875
126.3427734375
128.173828125
124.51171875
123.59619140625
123.59619140625
123.59619140625
126.3427734375
130.0048828125
123.59619140625
118.10302734375
105.28564453125
107.11669921875
119.0185546875
129.08935546875
130.92041015625
135.498046875
130.0048828125
135.498046875
141.90673828125
139.16015625
150.146484375
135.498046875
127.25830078125
133.6669921875
126.3427734375
138.24462890625
138.24462890625
139.16015625
132.75146484375
129.08935546875
116.27197265625
119.0185546875
123.59619140625
117.1875
122.6806640625
123.59619140625
113.525390625
110.77880859375
121.76513671875
114.44091796875
118.10302734375
121.76513671875
112.60986328125
110.77880859375
113.525390625
119.93408203125
120.849609375
130.0048828125
135.498046875
127.25830078125
117.1875
108.94775390625
110.77880859375
113.525390625
108.94775390625
109.86328125
108.94775390625
119.0185546875
127.25830078125
116.27197265625
115.3564453125
118.10302734375
113.525390625
119.93408203125
121.76513671875
113.525390625
106.201171875
97.96142578125
103.45458984375
102.5390625
91.552734375
101.62353515625
111.6943359375
97.96142578125
98.876953125
95.21484375
101.62353515625
103.45458984375
100.7080078125
99.79248046875
101.62353515625
106.201171875
104.3701171875
92.46826171875
95.21484375
99.79248046875
101.62353515625
97.96142578125
97.0458984375
102.5390625
94.29931640625
91.552734375
93.3837890625
105.28564453125
102.5390625
100.7080078125
101.62353515625
100.7080078125
90.63720703125
91.552734375
90.63720703125
96.13037109375
87.890625
94.29931640625
92.46826171875
103.45458984375
121.76513671875
140.07568359375
144.6533203125
141.90673828125
150.146484375
144.6533203125
140.9912109375
136.41357421875
134.58251953125
144.6533203125
167.54150390625
174.86572265625
173.03466796875
165.71044921875
180.35888671875
173.03466796875
177.6123046875
167.54150390625
173.03466796875
188.5986328125
188.5986328125
197.75390625
207.82470703125
195.9228515625
179.443359375
182.18994140625
177.6123046875
155.6396484375
160.21728515625
162.04833984375
143.73779296875
128.173828125
118.10302734375
115.3564453125
99.79248046875
102.5390625
102.5390625
102.5390625
107.11669921875
96.13037109375
88.80615234375
98.876953125
92.46826171875
80.56640625
88.80615234375
87.890625
75.0732421875
83.31298828125
87.890625
83.31298828125
83.31298828125
78.7353515625
93.3837890625
92.46826171875
76.904296875
77.81982421875
82.3974609375
75.98876953125
71.4111328125
70.49560546875
66.83349609375
65.91796875
73.2421875
62.255859375
58.59375
64.0869140625
65.91796875
70.49560546875
80.56640625
96.13037109375
117.1875
142.822265625
159.3017578125
206.9091796875
260.009765625
327.7587890625
394.59228515625
489.80712890625
569.4580078125
646.3623046875
691.22314453125
732.421875
653.6865234375
466.00341796875
329.58984375
186.767578125
93.3837890625
10.07080078125
-66.83349609375
-94.29931640625
-113.525390625
-108.94775390625
-92.46826171875
-61.34033203125
-32.958984375
2.74658203125
35.70556640625
75.98876953125
81.48193359375
88.80615234375
105.28564453125
106.201171875
108.0322265625
103.45458984375
101.62353515625
98.876953125
102.5390625
103.45458984375
106.201171875
107.11669921875
116.27197265625
130.0048828125
113.525390625
102.5390625
114.44091796875
114.44091796875
103.45458984375
98.876953125
121.76513671875
121.76513671875
107.11669921875
111.6943359375
108.0322265625
109.86328125
103.45458984375
101.62353515625
113.525390625
106.201171875
115.3564453125
120.849609375
138.24462890625
132.75146484375
132.75146484375
137.3291015625
140.07568359375
140.07568359375
150.146484375
138.24462890625
121.76513671875
123.59619140625
130.0048828125
127.25830078125
132.75146484375
139.16015625
131.8359375
128.173828125
137.3291015625
137.3291015625
132.75146484375
136.41357421875
145.56884765625
154.72412109375
153.80859375
156.55517578125
156.55517578125
162.04833984375
166.6259765625
159.3017578125
167.54150390625
189.51416015625
182.18994140625
179.443359375
177.6123046875
180.35888671875
180.35888671875
181.2744140625
187.68310546875
184.9365234375
188.5986328125
198.66943359375
199.5849609375
198.66943359375
207.82470703125
216.97998046875
208.740234375
211.48681640625
217.8955078125
223.388671875
227.05078125
246.27685546875
245.361328125
232.5439453125
241.69921875
253.60107421875
247.1923828125
259.09423828125
266.41845703125
262.75634765625
266.41845703125
260.92529296875
262.75634765625
282.89794921875
277.40478515625
267.333984375
279.23583984375
290.22216796875
295.71533203125
307.6171875
314.02587890625
323.18115234375
322.265625
327.7587890625
324.0966796875
323.18115234375
315.85693359375
320.4345703125
321.35009765625
332.33642578125
333.251953125
341.49169921875
354.30908203125
354.30908203125
347.900390625
335.0830078125
329.58984375
324.0966796875
313.1103515625
308.53271484375
306.70166015625
298.4619140625
296.630859375
286.56005859375
271.91162109375
258.1787109375
243.5302734375
228.8818359375
211.48681640625
200.50048828125
190.4296875
200.50048828125
184.9365234375
175.78125
174.86572265625
166.6259765625
173.03466796875
155.6396484375
140.07568359375
130.0048828125
137.3291015625
131.8359375
132.75146484375
123.59619140625
120.849609375
113.525390625
113.525390625
125.42724609375
130.0048828125
116.27197265625
103.45458984375
113.525390625
110.77880859375
106.201171875
101.62353515625
97.0458984375
88.80615234375
86.97509765625
95.21484375
89.7216796875
90.63720703125
98.876953125
99.79248046875
103.45458984375
98.876953125
97.0458984375
92.46826171875
98.876953125
94.29931640625
96.13037109375
98.876953125
108.94775390625
108.0322265625
102.5390625
107.11669921875
113.525390625
107.11669921875
97.0458984375
98.876953125
97.96142578125
100.7080078125
108.0322265625
112.60986328125
117.1875
113.525390625
115.3564453125
113.525390625
108.94775390625
118.10302734375
122.6806640625
117.1875
111.6943359375
108.0322265625
119.0185546875
123.59619140625
99.79248046875
102.5390625
117.1875
122.6806640625
116.27197265625
123.59619140625
117.1875
112.60986328125
107.11669921875
104.3701171875
103.45458984375
114.44091796875
116.27197265625
112.60986328125
123.59619140625
121.76513671875
107.11669921875
117.1875
123.59619140625
126.3427734375
121.76513671875
119.0185546875
108.0322265625
108.0322265625
108.94775390625
112.60986328125
108.0322265625
118.10302734375
114.44091796875
107.11669921875
100.7080078125
103.45458984375
100.7080078125
107.11669921875
115.3564453125
105.28564453125
117.1875
109.86328125
120.849609375
108.0322265625
115.3564453125
117.1875
119.0185546875
119.0185546875
120.849609375
123.59619140625
111.6943359375
111.6943359375
112.60986328125
103.45458984375
90.63720703125
90.63720703125
93.3837890625
107.11669921875
110.77880859375
95.21484375
88.80615234375
99.79248046875
101.62353515625
102.5390625
95.21484375
99.79248046875
93.3837890625
89.7216796875
85.14404296875
97.96142578125
97.96142578125
87.890625
92.46826171875
89.7216796875
83.31298828125
89.7216796875
96.13037109375
92.46826171875
85.14404296875
86.0595703125
72.32666015625
86.0595703125
91.552734375
79.65087890625
74.15771484375
76.904296875
76.904296875
85.14404296875
86.0595703125
96.13037109375
91.552734375
88.80615234375
92.46826171875
86.0595703125
75.98876953125
65.00244140625
59.50927734375
68.66455078125
67.7490234375
61.34033203125
77.81982421875
88.80615234375
82.3974609375
93.3837890625
90.63720703125
78.7353515625
91.552734375
90.63720703125
86.0595703125
83.31298828125
86.97509765625
95.21484375
98.876953125
103.45458984375
110.77880859375
132.75146484375
130.0048828125
115.3564453125
109.86328125
110.77880859375
106.201171875
95.21484375
93.3837890625
114.44091796875
139.16015625
145.56884765625
178.52783203125
178.52783203125
174.86572265625
177.6123046875
187.68310546875
177.6123046875
165.71044921875
177.6123046875
162.9638671875
156.55517578125
146.484375
133.6669921875
130.92041015625
145.56884765625
152.89306640625
159.3017578125
144.6533203125
121.76513671875
93.3837890625
77.81982421875
57.67822265625
40.283203125
42.1142578125
25.634765625
34.7900390625
58.59375
94.29931640625
92.46826171875
109.86328125
97.0458984375
118.10302734375
128.173828125
121.76513671875
109.86328125
107.11669921875
118.10302734375
122.6806640625
105.28564453125
83.31298828125
86.0595703125
90.63720703125
86.97509765625
77.81982421875
75.98876953125
74.15771484375
74.15771484375
51.26953125
43.02978515625
41.19873046875
43.9453125
37.53662109375
37.53662109375
43.02978515625
50.35400390625
49.4384765625
54.01611328125
97.96142578125
149.23095703125
191.34521484375
253.60107421875
334.16748046875
440.36865234375
488.8916015625
549.31640625
628.0517578125
689.39208984375
722.35107421875
725.09765625
626.220703125
434.87548828125
291.1376953125
169.37255859375
86.97509765625
-39.36767578125
-73.2421875
-119.93408203125
-125.42724609375
-128.173828125
-108.0322265625
-79.65087890625
-64.0869140625
-34.7900390625
-1.8310546875
41.19873046875
92.46826171875
121.76513671875
121.76513671875
126.3427734375
136.41357421875
178.52783203125
162.9638671875
136.41357421875
133.6669921875
125.42724609375
126.3427734375
124.51171875
115.3564453125
101.62353515625
74.15771484375
65.91796875
75.0732421875
88.80615234375
104.3701171875
119.0185546875
142.822265625
139.16015625
155.6396484375
155.6396484375
144.6533203125
121.76513671875
119.93408203125
140.07568359375
156.55517578125
143.73779296875
130.92041015625
120.849609375
140.07568359375
105.28564453125
129.08935546875
162.04833984375
180.35888671875
185.85205078125
182.18994140625
154.72412109375
145.56884765625
130.92041015625
118.10302734375
110.77880859375
97.96142578125
117.1875
163.87939453125
142.822265625
119.93408203125
170.2880859375
194.091796875
157.470703125
159.3017578125
180.35888671875
190.4296875
189.51416015625
192.2607421875
192.2607421875
179.443359375
186.767578125
209.65576171875
197.75390625
203.2470703125
226.13525390625
219.7265625
219.7265625
227.96630859375
207.82470703125
191.34521484375
175.78125
167.54150390625
163.87939453125
178.52783203125
197.75390625
227.05078125
237.12158203125
265.5029296875
278.3203125
283.8134765625
267.333984375
279.23583984375
287.4755859375
279.23583984375
284.72900390625
279.23583984375
275.57373046875
271.91162109375
286.56005859375
296.630859375
321.35009765625
320.4345703125
325.927734375
317.68798828125
292.05322265625
271.91162109375
260.009765625
271.91162109375
268.24951171875
286.56005859375
321.35009765625
348.81591796875
369.873046875
377.197265625
376.28173828125
373.53515625
376.28173828125
374.45068359375
368.95751953125
368.0419921875
360.7177734375
368.95751953125
361.63330078125
357.97119140625
346.0693359375
337.82958984375
339.66064453125
303.03955078125
311.279296875
335.99853515625
335.0830078125
333.251953125
319.51904296875
267.333984375
260.009765625
257.26318359375
254.5166015625
259.09423828125
275.57373046875
253.60107421875
237.12158203125
223.388671875
199.5849609375
221.5576171875
198.66943359375
188.5986328125
193.17626953125
209.65576171875
195.9228515625
183.10546875
172.119140625
162.9638671875
163.87939453125
142.822265625
147.39990234375
151.9775390625
125.42724609375
110.77880859375
96.13037109375
102.5390625
89.7216796875
115.3564453125
146.484375
133.6669921875
118.10302734375
108.94775390625
103.45458984375
103.45458984375
116.27197265625
119.93408203125
132.75146484375
130.0048828125
130.92041015625
122.6806640625
105.28564453125
116.27197265625
136.41357421875
140.07568359375
145.56884765625
115.3564453125
97.0458984375
108.94775390625
102.5390625
135.498046875
151.06201171875
134.58251953125
131.8359375
126.3427734375
120.849609375
129.08935546875
119.0185546875
121.76513671875
140.07568359375
146.484375
152.89306640625
121.76513671875
120.849609375
136.41357421875
129.08935546875
116.27197265625
99.79248046875
140.07568359375
153.80859375
137.3291015625
147.39990234375
131.8359375
116.27197265625
130.0048828125
157.470703125
152.89306640625
145.56884765625
143.73779296875
146.484375
157.470703125
158.38623046875
148.3154296875
141.90673828125
135.498046875
138.24462890625
155.6396484375
156.55517578125
144.6533203125
126.3427734375
136.41357421875
154.72412109375
125.42724609375
116.27197265625
115.3564453125
140.07568359375
157.470703125
163.87939453125
166.6259765625
159.3017578125
156.55517578125
159.3017578125
150.146484375
139.16015625
145.56884765625
159.3017578125
159.3017578125
151.9775390625
147.39990234375
150.146484375
155.6396484375
155.6396484375
147.39990234375
129.08935546875
123.59619140625
131.8359375
114.44091796875
102.5390625
106.201171875
118.10302734375
116.27197265625
126.3427734375
135.498046875
145.56884765625
148.3154296875
141.90673828125
143.73779296875
149.23095703125
151.06201171875
153.80859375
140.07568359375
127.25830078125
103.45458984375
90.63720703125
106.201171875
144.6533203125
134.58251953125
122.6806640625
121.76513671875
128.173828125
119.93408203125
132.75146484375
127.25830078125
140.9912109375
158.38623046875
147.39990234375
141.90673828125
144.6533203125
142.822265625
126.3427734375
100.7080078125
92.46826171875
66.83349609375
57.67822265625
91.552734375
132.75146484375
161.1328125
166.6259765625
139.16015625
132.75146484375
121.76513671875
121.76513671875
130.92041015625
138.24462890625
131.8359375
119.0185546875
125.42724609375
130.92041015625
112.60986328125
109.86328125
109.86328125
91.552734375
110.77880859375
110.77880859375
114.44091796875
134.58251953125
119.0185546875
127.25830078125
119.93408203125
110.77880859375
105.28564453125
117.1875
126.3427734375
116.27197265625
122.6806640625
126.3427734375
113.525390625
136.41357421875
125.42724609375
141.90673828125
175.78125
175.78125
166.6259765625
167.54150390625
175.78125
166.6259765625
151.06201171875
151.9775390625
155.6396484375
170.2880859375
169.37255859375
182.18994140625
198.66943359375
225.2197265625
199.5849609375
192.2607421875
205.078125
203.2470703125
208.740234375
226.13525390625
231.62841796875
247.1923828125
242.61474609375
230.712890625
214.2333984375
188.5986328125
150.146484375
155.6396484375
159.3017578125
151.06201171875
144.6533203125
146.484375
137.3291015625
97.96142578125
78.7353515625
60.4248046875
64.0869140625
89.7216796875
107.11669921875
124.51171875
151.06201171875
154.72412109375
140.07568359375
144.6533203125
134.58251953125
130.92041015625
110.77880859375
100.7080078125
103.45458984375
106.201171875
103.45458984375
115.3564453125
100.7080078125
106.201171875
100.7080078125
85.14404296875
82.3974609375
97.0458984375
113.525390625
111.6943359375
117.1875
109.86328125
95.21484375
93.3837890625
98.876953125
112.60986328125
108.94775390625
125.42724609375
139.16015625
180.35888671875
245.361328125
280.1513671875
339.66064453125
419.3115234375
516.357421875
588.68408203125
695.80078125
767.2119140625
789.1845703125
719.6044921875
531.92138671875
389.09912109375
240.78369140625
126.3427734375
43.02978515625
-38.4521484375
-90.63720703125
-103.45458984375
-108.94775390625
-90.63720703125
-58.59375
-24.71923828125
7.32421875
58.59375
101.62353515625
137.3291015625
145.56884765625
143.73779296875
150.146484375
155.6396484375
162.9638671875
162.9638671875
158.38623046875
149.23095703125
140.9912109375
132.75146484375
123.59619140625
120.849609375
122.6806640625
133.6669921875
133.6669921875
130.92041015625
120.849609375
120.849609375
140.07568359375
147.39990234375
156.55517578125
157.470703125
154.72412109375
151.9775390625
151.06201171875
144.6533203125
140.9912109375
140.07568359375
147.39990234375
137.3291015625
119.93408203125
117.1875
132.75146484375
168.45703125
161.1328125
161.1328125
172.119140625
180.35888671875
170.2880859375
173.03466796875
163.87939453125
154.72412109375
170.2880859375
171.20361328125
188.5986328125
180.35888671875
163.87939453125
169.37255859375
164.794921875
164.794921875
168.45703125
176.69677734375
184.9365234375
177.6123046875
188.5986328125
196.83837890625
188.5986328125
194.091796875
193.17626953125
202.33154296875
195.9228515625
186.767578125
133.6669921875
107.11669921875
121.76513671875
148.3154296875
195.00732421875
232.5439453125
249.0234375
268.24951171875
260.92529296875
248.10791015625
260.009765625
257.26318359375
253.60107421875
259.09423828125
252.685546875
260.009765625
266.41845703125
256.34765625
258.1787109375
263.671875
264.58740234375
280.1513671875
279.23583984375
286.56005859375
291.1376953125
287.4755859375
285.64453125
287.4755859375
275.57373046875
262.75634765625
281.982421875
309.4482421875
309.4482421875
335.99853515625
335.99853515625
319.51904296875
325.927734375
333.251953125
333.251953125
342.4072265625
362.548828125
370.78857421875
372.61962890625
381.77490234375
374.45068359375
369.873046875
367.12646484375
373.53515625
385.43701171875
377.197265625
373.53515625
376.28173828125
379.0283203125
382.6904296875
370.78857421875
357.97119140625
355.224609375
345.15380859375
341.49169921875
331.4208984375
315.85693359375
315.85693359375
323.18115234375
306.70166015625
288.39111328125
276.4892578125
260.009765625
249.0234375
227.05078125
209.65576171875
197.75390625
185.85205078125
175.78125
152.89306640625
124.51171875
137.3291015625
144.6533203125
145.56884765625
161.1328125
167.54150390625
175.78125
185.85205078125
183.10546875
177.6123046875
162.04833984375
151.9775390625
137.3291015625
141.90673828125
147.39990234375
139.16015625
125.42724609375
125.42724609375
134.58251953125
137.3291015625
135.498046875
136.41357421875
132.75146484375
123.59619140625
116.27197265625
114.44091796875
128.173828125
118.10302734375
109.86328125
127.25830078125
134.58251953125
127.25830078125
127.25830078125
134.58251953125
124.51171875
130.92041015625
130.92041015625
128.173828125
126.3427734375
124.51171875
124.51171875
121.76513671875
131.8359375
126.3427734375
129.08935546875
121.76513671875
120.849609375
129.08935546875
127.25830078125
129.08935546875
122.6806640625
114.44091796875
116.27197265625
105.28564453125
120.849609375
151.06201171875
145.56884765625
151.06201171875
149.23095703125
144.6533203125
149.23095703125
141.90673828125
140.07568359375
139.16015625
137.3291015625
138.24462890625
156.55517578125
145.56884765625
146.484375
138.24462890625
137.3291015625
142.822265625
138.24462890625
140.07568359375
133.6669921875
139.16015625
126.3427734375
140.9912109375
127.25830078125
134.58251953125
133.6669921875
128.173828125
143.73779296875
141.90673828125
130.0048828125
112.60986328125
125.42724609375
130.0048828125
127.25830078125
128.173828125
135.498046875
133.6669921875
142.822265625
135.498046875
123.59619140625
121.76513671875
127.25830078125
122.6806640625
135.498046875
140.9912109375
139.16015625
133.6669921875
134.58251953125
141.90673828125
132.75146484375
130.0048828125
127.25830078125
132.75146484375
135.498046875
138.24462890625
133.6669921875
140.9912109375
140.07568359375
155.6396484375
135.498046875
119.0185546875
101.62353515625
105.28564453125
114.44091796875
109.86328125
114.44091796875
122.6806640625
122.6806640625
119.93408203125
110.77880859375
119.0185546875
119.93408203125
102.5390625
76.904296875
87.890625
92.46826171875
88.80615234375
109.86328125
126.3427734375
123.59619140625
112.60986328125
100.7080078125
87.890625
93.3837890625
103.45458984375
115.3564453125
123.59619140625
130.92041015625
137.3291015625
127.25830078125
112.60986328125
120.849609375
125.42724609375
130.0048828125
130.92041015625
124.51171875
107.11669921875
105.28564453125
110.77880859375
108.0322265625
104.3701171875
111.6943359375
124.51171875
126.3427734375
140.9912109375
127.25830078125
105.28564453125
107.11669921875
106.201171875
95.21484375
106.201171875
99.79248046875
102.5390625
99.79248046875
98.876953125
104.3701171875
110.77880859375
109.86328125
92.46826171875
85.14404296875
97.96142578125
103.45458984375
132.75146484375
140.07568359375
138.24462890625
162.9638671875
167.54150390625
177.6123046875
187.68310546875
173.03466796875
173.9501953125
168.45703125
178.52783203125
180.35888671875
191.34521484375
187.68310546875
198.66943359375
179.443359375
195.00732421875
199.5849609375
214.2333984375
216.97998046875
209.65576171875
197.75390625
197.75390625
201.416015625
216.064453125
205.078125
185.85205078125
184.9365234375
167.54150390625
162.04833984375
140.07568359375
129.08935546875
115.3564453125
121.76513671875
120.849609375
136.41357421875
130.0048828125
129.08935546875
127.25830078125
133.6669921875
122.6806640625
110.77880859375
108.0322265625
104.3701171875
95.21484375
110.77880859375
125.42724609375
119.0185546875
116.27197265625
113.525390625
117.1875
108.94775390625
109.86328125
91.552734375
96.13037109375
104.3701171875
103.45458984375
95.21484375
88.80615234375
99.79248046875
100.7080078125
92.46826171875
90.63720703125
75.98876953125
61.34033203125
64.0869140625
66.83349609375
80.56640625
86.0595703125
91.552734375
117.1875
140.07568359375
163.87939453125
219.7265625
281.982421875
341.49169921875
408.3251953125
479.736328125
560.302734375
645.44677734375
697.6318359375
735.16845703125
687.56103515625
508.11767578125
393.6767578125
268.24951171875
167.54150390625
76.904296875
-15.56396484375
-96.13037109375
-127.25830078125
-109.86328125
-75.98876953125
-31.1279296875
-3.662109375
23.8037109375
65.00244140625
91.552734375
115.3564453125
132.75146484375
129.08935546875
125.42724609375
116.27197265625
99.79248046875
125.42724609375
113.525390625
97.0458984375
111.6943359375
101.62353515625
93.3837890625
80.56640625
87.890625
68.66455078125
83.31298828125
96.13037109375
119.0185546875
141.90673828125
139.16015625
149.23095703125
144.6533203125
138.24462890625
142.822265625
131.8359375
158.38623046875
161.1328125
162.04833984375
165.71044921875
164.794921875
158.38623046875
162.04833984375
162.9638671875
148.3154296875
162.04833984375
153.80859375
151.9775390625
147.39990234375
141.90673828125
140.07568359375
142.822265625
151.06201171875
151.06201171875
150.146484375
154.72412109375
154.72412109375
151.9775390625
162.04833984375
155.6396484375
151.9775390625
151.9775390625
162.04833984375
169.37255859375
168.45703125
187.68310546875
189.51416015625
194.091796875
203.2470703125
203.2470703125
192.2607421875
200.50048828125
190.4296875
179.443359375
179.443359375
186.767578125
182.18994140625
189.51416015625
195.9228515625
199.5849609375
206.9091796875
211.48681640625
212.40234375
207.82470703125
208.740234375
214.2333984375
208.740234375
216.064453125
220.64208984375
225.2197265625
225.2197265625
232.5439453125
240.78369140625
248.10791015625
249.0234375
252.685546875
258.1787109375
260.009765625
261.8408203125
288.39111328125
278.3203125
277.40478515625
281.982421875
281.982421875
290.22216796875
298.4619140625
303.955078125
303.955078125
311.279296875
310.36376953125
314.02587890625
316.7724609375
323.18115234375
324.0966796875
326.84326171875
320.4345703125
331.4208984375
337.82958984375
338.7451171875
339.66064453125
346.98486328125
346.98486328125
343.32275390625
345.15380859375
346.0693359375
342.4072265625
340.576171875
335.99853515625
345.15380859375
343.32275390625
334.16748046875
324.0966796875
323.18115234375
311.279296875
309.4482421875
289.306640625
276.4892578125
266.41845703125
254.5166015625
236.2060546875
221.5576171875
210.5712890625
190.4296875
199.5849609375
182.18994140625
186.767578125
179.443359375
169.37255859375
169.37255859375
162.04833984375
152.89306640625
151.9775390625
142.822265625
136.41357421875
135.498046875
124.51171875
127.25830078125
128.173828125
129.08935546875
130.92041015625
128.173828125
119.93408203125
111.6943359375
107.11669921875
108.0322265625
97.96142578125
92.46826171875
90.63720703125
86.0595703125
84.228515625
90.63720703125
92.46826171875
75.98876953125
77.81982421875
68.66455078125
70.49560546875
65.00244140625
89.7216796875
101.62353515625
96.13037109375
97.96142578125
99.79248046875
97.96142578125
103.45458984375
97.0458984375
98.876953125
81.48193359375
73.2421875
70.49560546875
83.31298828125
81.48193359375
79.65087890625
86.0595703125
98.876953125
91.552734375
96.13037109375
97.0458984375
97.0458984375
96.13037109375
94.29931640625
103.45458984375
96.13037109375
98.876953125
100.7080078125
91.552734375
94.29931640625
98.876953125
96.13037109375
88.80615234375
91.552734375
85.14404296875
84.228515625
81.48193359375
90.63720703125
105.28564453125
103.45458984375
79.65087890625
78.7353515625
87.890625
89.7216796875
91.552734375
87.890625
97.0458984375
104.3701171875
89.7216796875
83.31298828125
86.0595703125
89.7216796875
87.890625
92.46826171875
98.876953125
95.21484375
95.21484375
93.3837890625
92.46826171875
93.3837890625
91.552734375
86.0595703125
96.13037109375
96.13037109375
91.552734375
85.14404296875
75.98876953125
81.48193359375
84.228515625
77.81982421875
72.32666015625
79.65087890625
77.81982421875
72.32666015625
91.552734375
90.63720703125
87.890625
74.15771484375
78.7353515625
65.91796875
69.580078125
83.31298828125
75.0732421875
69.580078125
74.15771484375
66.83349609375
73.2421875
71.4111328125
68.66455078125
65.00244140625
78.7353515625
77.81982421875
71.4111328125
70.49560546875
66.83349609375
65.00244140625
71.4111328125
74.15771484375
65.91796875
72.32666015625
70.49560546875
66.83349609375
45.7763671875
48.52294921875
54.01611328125
47.607421875
56.7626953125
52.18505859375
49.4384765625
44.86083984375
42.1142578125
54.931640625
58.59375
59.50927734375
47.607421875
48.52294921875
43.9453125
42.1142578125
50.35400390625
51.26953125
49.4384765625
60.4248046875
59.50927734375
56.7626953125
57.67822265625
50.35400390625
47.607421875
51.26953125
40.283203125
45.7763671875
45.7763671875
34.7900390625
31.1279296875
39.36767578125
33.87451171875
25.634765625
25.634765625
35.70556640625
42.1142578125
36.62109375
53.1005859375
46.69189453125
42.1142578125
37.53662109375
45.7763671875
54.931640625
56.7626953125
59.50927734375
70.49560546875
82.3974609375
82.3974609375
68.66455078125
75.98876953125
96.13037109375
72.32666015625
76.904296875
79.65087890625
84.228515625
102.5390625
110.77880859375
100.7080078125
94.29931640625
92.46826171875
93.3837890625
88.80615234375
86.97509765625
102.5390625
97.96142578125
98.876953125
107.11669921875
108.0322265625
119.93408203125
116.27197265625
113.525390625
103.45458984375
84.228515625
59.50927734375
54.931640625
49.4384765625
44.86083984375
34.7900390625
29.296875
36.62109375
16.4794921875
12.8173828125
3.662109375
22.88818359375
36.62109375
28.38134765625
26.55029296875
19.22607421875
6.40869140625
-0.91552734375
-4.57763671875
-0.91552734375
-11.90185546875
-22.88818359375
-10.986328125
-18.310546875
-14.6484375
-6.40869140625
-12.8173828125
-28.38134765625
-32.04345703125
-20.1416015625
-21.05712890625
-21.97265625
-14.6484375
-16.4794921875
-18.310546875
-7.32421875
0
-10.07080078125
8.23974609375
20.1416015625
23.8037109375
39.36767578125
52.18505859375
84.228515625
130.0048828125
189.51416015625
252.685546875
329.58984375
412.90283203125
498.96240234375
556.640625
588.68408203125
608.82568359375
514.5263671875
335.99853515625
209.65576171875
70.49560546875
-5.4931640625
-98.876953125
-169.37255859375
-220.64208984375
-235.29052734375
-207.82470703125
-199.5849609375
-152.89306640625
-128.173828125
-81.48193359375
-44.86083984375
-32.958984375
-9.1552734375
9.1552734375
8.23974609375
8.23974609375
5.4931640625
7.32421875
9.1552734375
1.8310546875
6.40869140625
6.40869140625
13.73291015625
16.4794921875
9.1552734375
3.662109375
7.32421875
1.8310546875
-2.74658203125
-2.74658203125
-6.40869140625
10.07080078125
29.296875
-2.74658203125
18.310546875
11.90185546875
20.1416015625
23.8037109375
34.7900390625
32.04345703125
10.986328125
12.8173828125
6.40869140625
-7.32421875
-4.57763671875
-12.8173828125
-5.4931640625
12.8173828125
8.23974609375
10.07080078125
20.1416015625
31.1279296875
30.21240234375
20.1416015625
16.4794921875
24.71923828125
12.8173828125
7.32421875
20.1416015625
21.97265625
31.1279296875
25.634765625
28.38134765625
42.1142578125
39.36767578125
30.21240234375
23.8037109375
19.22607421875
38.4521484375
49.4384765625
33.87451171875
33.87451171875
35.70556640625
51.26953125
37.53662109375
44.86083984375
43.02978515625
65.91796875
42.1142578125
54.931640625
54.01611328125
59.50927734375
71.4111328125
73.2421875
79.65087890625
79.65087890625
67.7490234375
69.580078125
66.83349609375
73.2421875
72.32666015625
91.552734375
97.96142578125
99.79248046875
99.79248046875
104.3701171875
87.890625
114.44091796875
114.44091796875
107.11669921875
115.3564453125
103.45458984375
135.498046875
134.58251953125
141.90673828125
154.72412109375
162.04833984375
156.55517578125
160.21728515625
166.6259765625
179.443359375
161.1328125
157.470703125
162.04833984375
169.37255859375
173.9501953125
185.85205078125
189.51416015625
183.10546875
194.091796875
200.50048828125
184.9365234375
194.091796875
173.9501953125
193.17626953125
191.34521484375
184.02099609375
173.9501953125
166.6259765625
161.1328125
168.45703125
158.38623046875
156.55517578125
151.06201171875
159.3017578125
148.3154296875
123.59619140625
112.60986328125
123.59619140625
109.86328125
97.0458984375
74.15771484375
45.7763671875
33.87451171875
23.8037109375
0
21.97265625
7.32421875
-23.8037109375
-9.1552734375
-1.8310546875
-25.634765625
-7.32421875
-32.04345703125
-54.01611328125
-63.17138671875
-67.7490234375
-86.0595703125
-75.98876953125
-44.86083984375
-34.7900390625
-44.86083984375
-65.00244140625
-56.7626953125
-54.931640625
-68.66455078125
-64.0869140625
-80.56640625
-51.26953125
-56.7626953125
-76.904296875
-67.7490234375
-78.7353515625
-98.876953125
-99.79248046875
-104.3701171875
-98.876953125
-89.7216796875
-67.7490234375
-59.50927734375
-96.13037109375
-88.80615234375
-106.201171875
-87.890625
-65.91796875
-75.0732421875
-79.65087890625
-82.3974609375
-87.890625
-66.83349609375
-52.18505859375
-61.34033203125
-92.46826171875
-81.48193359375
-74.15771484375
-62.255859375
-70.49560546875
-84.228515625
-92.46826171875
-79.65087890625
-95.21484375
-106.201171875
-127.25830078125
-107.11669921875
-79.65087890625
-88.80615234375
-82.3974609375
-83.31298828125
-98.876953125
-105.28564453125
-116.27197265625
-96.13037109375
-106.201171875
-92.46826171875
-92.46826171875
-67.7490234375
-61.34033203125
-50.35400390625
-74.15771484375
-91.552734375
-64.0869140625
-65.00244140625
-112.60986328125
-103.45458984375
-98.876953125
-97.0458984375
-75.0732421875
-63.17138671875
-90.63720703125
-80.56640625
-85.14404296875
-101.62353515625
-88.80615234375
-95.21484375
-115.3564453125
-97.0458984375
-117.1875
-111.6943359375
-100.7080078125
-98.876953125
-94.29931640625
-106.201171875
-110.77880859375
-99.79248046875
-95.21484375
-109.86328125
-93.3837890625
-99.79248046875
-133.6669921875
-134.58251953125
-156.55517578125
-152.89306640625
-112.60986328125
-110.77880859375
-123.59619140625
-133.6669921875
-114.44091796875
-102.5390625
-86.97509765625
-108.0322265625
-119.0185546875
-123.59619140625
-129.08935546875
-110.77880859375
-100.7080078125
-125.42724609375
-133.6669921875
-147.39990234375
-141.90673828125
-140.07568359375
-159.3017578125
-171.20361328125
-161.1328125
-150.146484375
-130.0048828125
-140.9912109375
-126.3427734375
-124.51171875
-119.93408203125
-150.146484375
-143.73779296875
-151.06201171875
-139.16015625
-119.0185546875
-140.07568359375
-122.6806640625
-81.48193359375
-85.14404296875
-108.94775390625
-114.44091796875
-135.498046875
-127.25830078125
-110.77880859375
-128.173828125
-108.0322265625
-67.7490234375
-37.53662109375
-46.69189453125
-30.21240234375
-42.1142578125
-54.01611328125
-61.34033203125
-41.19873046875
-49.4384765625
-83.31298828125
-85.14404296875
-67.7490234375
-55.84716796875
-72.32666015625
-78.7353515625
-63.17138671875
-94.29931640625
-117.1875
-130.92041015625
-130.92041015625
-133.6669921875
-156.55517578125
-157.470703125
-171.20361328125
-162.9638671875
-164.794921875
-173.9501953125
-174.86572265625
-150.146484375
-143.73779296875
-139.16015625
-86.97509765625
-97.96142578125
-151.06201171875
-161.1328125
-163.87939453125
-147.39990234375
-156.55517578125
-161.1328125
-170.2880859375
-188.5986328125
-188.5986328125
-201.416015625
-212.40234375
-173.9501953125
-181.2744140625
-163.87939453125
-175.78125
-177.6123046875
-201.416015625
-206.9091796875
-191.34521484375
-208.740234375
-189.51416015625
-193.17626953125
-207.82470703125
-201.416015625
-200.50048828125
-200.50048828125
-180.35888671875
-165.71044921875
-128.173828125
-88.80615234375
-20.1416015625
31.1279296875
95.21484375
175.78125
246.27685546875
351.5625
416.56494140625
437.6220703125
401.91650390625
241.69921875
122.6806640625
-54.01611328125
-136.41357421875
-210.5712890625
-277.40478515625
-352.47802734375
-371.7041015625
-377.197265625
-353.3935546875
-343.32275390625
-326.84326171875
-291.1376953125
-255.43212890625
-216.064453125
-197.75390625
-195.00732421875
-174.86572265625
-173.9501953125
-184.02099609375
-212.40234375
-188.5986328125
-193.17626953125
-182.18994140625
-189.51416015625
-186.767578125
-156.55517578125
-150.146484375
-166.6259765625
-164.794921875
-148.3154296875
-154.72412109375
-167.54150390625
-179.443359375
-174.86572265625
-178.52783203125
-183.10546875
-174.86572265625
-184.9365234375
-191.34521484375
-183.10546875
-203.2470703125
-180.35888671875
-140.9912109375
-119.93408203125
-130.0048828125
-175.78125
-180.35888671875
-177.6123046875
-192.2607421875
-218.81103515625
-250.8544921875
-246.27685546875
-163.87939453125
-57.67822265625
-59.50927734375
-105.28564453125
-115.3564453125
-97.96142578125
-123.59619140625
-130.0048828125
-148.3154296875
-149.23095703125
-141.90673828125
-122.6806640625
-112.60986328125
-100.7080078125
-101.62353515625
-86.0595703125
-91.552734375
-79.65087890625
-82.3974609375
-87.890625
-88.80615234375
-80.56640625
-84.228515625
-95.21484375
-88.80615234375
-87.890625
-90.63720703125
-77.81982421875
-66.83349609375
-63.17138671875
-74.15771484375
-93.3837890625
-100.7080078125
-79.65087890625
-90.63720703125
-95.21484375
-97.96142578125
-75.0732421875
-68.66455078125
-84.228515625
-60.4248046875
-35.70556640625
-13.73291015625
1.8310546875
4.57763671875
-14.6484375
10.986328125
-0.91552734375
3.662109375
19.22607421875
32.958984375
25.634765625
49.4384765625
29.296875
54.01611328125
47.607421875
64.0869140625
75.0732421875
63.17138671875
64.0869140625
69.580078125
72.32666015625
54.931640625
60.4248046875
53.1005859375
36.62109375
54.931640625
69.580078125
74.15771484375
97.96142578125
98.876953125
51.26953125
45.7763671875
67.7490234375
79.65087890625
89.7216796875
98.876953125
114.44091796875
119.93408203125
