ECG
-76.904296875
-84.228515625
-80.56640625
-75.98876953125
-76.904296875
-85.14404296875
-69.580078125
-72.32666015625
-75.98876953125
-73.2421875
-78.7353515625
-77.81982421875
-90.63720703125
-85.14404296875
-72.32666015625
-83.31298828125
-82.3974609375
-91.552734375
-89.7216796875
-96.13037109375
-92.46826171875
-83.31298828125
-86.97509765625
-90.63720703125
-85.14404296875
-89.7216796875
-97.0458984375
-100.7080078125
-89.7216796875
-94.29931640625
-83.31298828125
-80.56640625
-86.97509765625
-92.46826171875
-87.890625
-83.31298828125
-87.890625
-97.0458984375
-93.3837890625
-97.96142578125
-103.45458984375
-100.7080078125
-100.7080078125
-97.0458984375
-79.65087890625
-89.7216796875
-91.552734375
-102.5390625
-88.80615234375
-89.7216796875
-88.80615234375
-88.80615234375
-100.7080078125
-91.552734375
-89.7216796875
-86.97509765625
-81.48193359375
-75.98876953125
-79.65087890625
-85.14404296875
-75.0732421875
-68.66455078125
-54.01611328125
-58.59375
-59.50927734375
-34.7900390625
-36.62109375
-51.26953125
-43.02978515625
-32.04345703125
-27.4658203125
-16.4794921875
-22.88818359375
-24.71923828125
-23.8037109375
-25.634765625
-16.4794921875
-19.22607421875
-28.38134765625
-28.38134765625
-19.22607421875
-19.22607421875
-12.8173828125
-18.310546875
-2.74658203125
-19.22607421875
-36.62109375
-39.36767578125
-39.36767578125
-54.931640625
-70.49560546875
-75.98876953125
-74.15771484375
-76.904296875
-75.0732421875
-75.0732421875
-75.0732421875
-83.31298828125
-106.201171875
-106.201171875
-107.11669921875
-102.5390625
-100.7080078125
-90.63720703125
-102.5390625
-106.201171875
-102.5390625
-110.77880859375
-115.3564453125
-108.94775390625
-94.29931640625
-108.94775390625
-102.5390625
-100.7080078125
-112.60986328125
-123.59619140625
-107.11669921875
-103.45458984375
-114.44091796875
-112.60986328125
-102.5390625
-112.60986328125
-116.27197265625
-104.3701171875
-112.60986328125
-117.1875
-124.51171875
-108.94775390625
-100.7080078125
-89.7216796875
-64.0869140625
-28.38134765625
3.662109375
64.0869140625
113.525390625
173.9501953125
249.93896484375
319.51904296875
397.3388671875
484.31396484375
521.8505859375
524.59716796875
477.9052734375
314.02587890625
177.6123046875
55.84716796875
-70.49560546875
-166.6259765625
-265.5029296875
-321.35009765625
-332.33642578125
-308.53271484375
-253.60107421875
-214.2333984375
-173.03466796875
-155.6396484375
-117.1875
-95.21484375
-69.580078125
-59.50927734375
-50.35400390625
-55.84716796875
-59.50927734375
-59.50927734375
-66.83349609375
-76.904296875
-64.0869140625
-56.7626953125
-77.81982421875
-81.48193359375
-95.21484375
-83.31298828125
-63.17138671875
-59.50927734375
-70.49560546875
-60.4248046875
-73.2421875
-71.4111328125
-72.32666015625
-73.2421875
-60.4248046875
-49.4384765625
-54.931640625
-60.4248046875
-58.59375
-61.34033203125
-84.228515625
-54.931640625
-44.86083984375
-45.7763671875
-42.1142578125
-45.7763671875
-59.50927734375
-54.01611328125
-53.1005859375
-39.36767578125
-29.296875
-33.87451171875
-43.9453125
-47.607421875
-45.7763671875
-38.4521484375
-32.958984375
-39.36767578125
-37.53662109375
-27.4658203125
-33.87451171875
-30.21240234375
-35.70556640625
-21.05712890625
-22.88818359375
-16.4794921875
-8.23974609375
-5.4931640625
-16.4794921875
-25.634765625
-18.310546875
-20.1416015625
-10.07080078125
-14.6484375
-9.1552734375
-10.986328125
-8.23974609375
-9.1552734375
12.8173828125
13.73291015625
15.56396484375
21.97265625
14.6484375
22.88818359375
25.634765625
19.22607421875
24.71923828125
21.97265625
33.87451171875
46.69189453125
41.19873046875
39.36767578125
61.34033203125
58.59375
61.34033203125
74.15771484375
68.66455078125
67.7490234375
86.0595703125
79.65087890625
80.56640625
84.228515625
102.5390625
110.77880859375
105.28564453125
113.525390625
117.1875
122.6806640625
132.75146484375
127.25830078125
130.0048828125
128.173828125
133.6669921875
130.92041015625
147.39990234375
151.9775390625
159.3017578125
162.9638671875
158.38623046875
161.1328125
151.9775390625
162.9638671875
170.2880859375
173.03466796875
170.2880859375
170.2880859375
163.87939453125
157.470703125
156.55517578125
147.39990234375
119.0185546875
107.11669921875
108.0322265625
101.62353515625
77.81982421875
77.81982421875
63.17138671875
46.69189453125
41.19873046875
36.62109375
11.90185546875
0
1.8310546875
-4.57763671875
-13.73291015625
-15.56396484375
-30.21240234375
-32.04345703125
-49.4384765625
-44.86083984375
-42.1142578125
-65.91796875
-74.15771484375
-74.15771484375
-66.83349609375
-63.17138671875
-61.34033203125
-54.931640625
-69.580078125
-78.7353515625
-81.48193359375
-77.81982421875
-86.97509765625
-76.904296875
-86.0595703125
-78.7353515625
-66.83349609375
-69.580078125
-68.66455078125
-68.66455078125
-86.0595703125
-77.81982421875
-92.46826171875
-88.80615234375
-86.0595703125
-89.7216796875
-87.890625
-83.31298828125
-71.4111328125
-87.890625
-81.48193359375
-75.98876953125
-76.904296875
-68.66455078125
-74.15771484375
-70.49560546875
-80.56640625
-69.580078125
-80.56640625
-77.81982421875
-65.00244140625
-69.580078125
-69.580078125
-73.2421875
-74.15771484375
-71.4111328125
-67.7490234375
-68.66455078125
-77.81982421875
-66.83349609375
-61.34033203125
-68.66455078125
-64.0869140625
-68.66455078125
-75.0732421875
-75.98876953125
-74.15771484375
-61.34033203125
-50.35400390625
-64.0869140625
-49.4384765625
-61.34033203125
-59.50927734375
-65.00244140625
-73.2421875
-54.931640625
-46.69189453125
-55.84716796875
-54.01611328125
-45.7763671875
-65.00244140625
-61.34033203125
-65.00244140625
-56.7626953125
-56.7626953125
-61.34033203125
-48.52294921875
-48.52294921875
-53.1005859375
-54.01611328125
-45.7763671875
-47.607421875
-58.59375
-56.7626953125
-57.67822265625
-51.26953125
-66.83349609375
-65.91796875
-64.0869140625
-75.98876953125
-65.00244140625
-63.17138671875
-60.4248046875
-58.59375
-65.91796875
-64.0869140625
-63.17138671875
-59.50927734375
-54.01611328125
-66.83349609375
-73.2421875
-75.0732421875
-68.66455078125
-66.83349609375
-69.580078125
-64.0869140625
-64.0869140625
-68.66455078125
-71.4111328125
-81.48193359375
-74.15771484375
-65.91796875
-78.7353515625
-83.31298828125
-75.0732421875
-79.65087890625
-79.65087890625
-83.31298828125
-75.98876953125
-78.7353515625
-82.3974609375
-67.7490234375
-76.904296875
-75.98876953125
-90.63720703125
-83.31298828125
-84.228515625
-72.32666015625
-70.49560546875
-73.2421875
-70.49560546875
-90.63720703125
-83.31298828125
-77.81982421875
-73.2421875
-86.97509765625
-82.3974609375
-77.81982421875
-75.98876953125
-82.3974609375
-76.904296875
-66.83349609375
-74.15771484375
-81.48193359375
-74.15771484375
-86.97509765625
-88.80615234375
-87.890625
-66.83349609375
-76.904296875
-81.48193359375
-91.552734375
-91.552734375
-88.80615234375
-81.48193359375
-74.15771484375
-74.15771484375
-83.31298828125
-82.3974609375
-84.228515625
-78.7353515625
-76.904296875
-77.81982421875
-76.904296875
-80.56640625
-75.98876953125
-81.48193359375
-93.3837890625
-80.56640625
-69.580078125
-69.580078125
-68.66455078125
-57.67822265625
-61.34033203125
-53.1005859375
-41.19873046875
-34.7900390625
-38.4521484375
-41.19873046875
-40.283203125
-38.4521484375
-37.53662109375
-17.39501953125
-10.986328125
-19.22607421875
-7.32421875
-7.32421875
-11.90185546875
-2.74658203125
-1.8310546875
0.91552734375
7.32421875
-5.4931640625
2.74658203125
3.662109375
1.8310546875
-3.662109375
-1.8310546875
-7.32421875
-24.71923828125
-21.05712890625
-30.21240234375
-28.38134765625
-30.21240234375
-34.7900390625
-42.1142578125
-49.4384765625
-54.931640625
-65.91796875
-78.7353515625
-67.7490234375
-75.98876953125
-76.904296875
-81.48193359375
-75.0732421875
-75.98876953125
-84.228515625
-72.32666015625
-79.65087890625
-87.890625
-80.56640625
-88.80615234375
-94.29931640625
-91.552734375
-89.7216796875
-91.552734375
-89.7216796875
-85.14404296875
-97.96142578125
-96.13037109375
-87.890625
-89.7216796875
-97.0458984375
-102.5390625
-87.890625
-88.80615234375
-80.56640625
-91.552734375
-99.79248046875
-94.29931640625
-72.32666015625
-72.32666015625
-29.296875
-11.90185546875
10.07080078125
55.84716796875
110.77880859375
172.119140625
258.1787109375
335.99853515625
391.845703125
466.9189453125
536.4990234375
542.90771484375
490.72265625
320.4345703125
197.75390625
56.7626953125
-71.4111328125
-152.89306640625
-232.5439453125
-303.955078125
-325.01220703125
-292.05322265625
-247.1923828125
-209.65576171875
-173.9501953125
-128.173828125
-103.45458984375
-84.228515625
-59.50927734375
-55.84716796875
-55.84716796875
-47.607421875
-44.86083984375
-40.283203125
-53.1005859375
-54.931640625
-62.255859375
-70.49560546875
-59.50927734375
-64.0869140625
-63.17138671875
-57.67822265625
-65.00244140625
-56.7626953125
-45.7763671875
-45.7763671875
-51.26953125
-45.7763671875
-38.4521484375
-40.283203125
-54.01611328125
-61.34033203125
-60.4248046875
-46.69189453125
-46.69189453125
-57.67822265625
-60.4248046875
-64.0869140625
-55.84716796875
-56.7626953125
-50.35400390625
-40.283203125
-26.55029296875
-43.02978515625
-49.4384765625
-39.36767578125
-43.02978515625
-37.53662109375
-29.296875
-23.8037109375
-24.71923828125
-31.1279296875
-32.04345703125
-32.958984375
-51.26953125
-39.36767578125
-34.7900390625
-19.22607421875
-33.87451171875
-24.71923828125
-20.1416015625
-21.05712890625
-22.88818359375
-23.8037109375
-16.4794921875
-9.1552734375
-7.32421875
-10.07080078125
-10.07080078125
-5.4931640625
5.4931640625
21.05712890625
13.73291015625
14.6484375
2.74658203125
4.57763671875
4.57763671875
10.07080078125
18.310546875
18.310546875
16.4794921875
12.8173828125
17.39501953125
23.8037109375
31.1279296875
32.04345703125
31.1279296875
35.70556640625
36.62109375
40.283203125
53.1005859375
44.86083984375
50.35400390625
65.00244140625
74.15771484375
78.7353515625
95.21484375
98.876953125
76.904296875
71.4111328125
76.904296875
79.65087890625
88.80615234375
108.94775390625
119.93408203125
129.08935546875
140.9912109375
136.41357421875
140.9912109375
141.90673828125
147.39990234375
142.822265625
133.6669921875
149.23095703125
153.80859375
151.9775390625
173.03466796875
174.86572265625
150.146484375
144.6533203125
150.146484375
138.24462890625
152.89306640625
140.07568359375
142.822265625
138.24462890625
130.0048828125
108.94775390625
109.86328125
104.3701171875
103.45458984375
78.7353515625
68.66455078125
43.9453125
37.53662109375
29.296875
22.88818359375
20.1416015625
5.4931640625
-14.6484375
-17.39501953125
-18.310546875
-28.38134765625
-21.97265625
-33.87451171875
-43.02978515625
-50.35400390625
-54.01611328125
-52.18505859375
-52.18505859375
-61.34033203125
-58.59375
-43.02978515625
-58.59375
-94.29931640625
-93.3837890625
-88.80615234375
-86.0595703125
-88.80615234375
-107.11669921875
-103.45458984375
-95.21484375
-89.7216796875
-92.46826171875
-105.28564453125
-97.0458984375
-92.46826171875
-86.0595703125
-89.7216796875
-86.97509765625
-94.29931640625
-117.1875
-113.525390625
-89.7216796875
-97.96142578125
-94.29931640625
-96.13037109375
-84.228515625
-89.7216796875
-97.96142578125
-98.876953125
-97.96142578125
-92.46826171875
-92.46826171875
-84.228515625
-89.7216796875
-103.45458984375
-97.96142578125
-97.0458984375
-87.890625
-80.56640625
-86.97509765625
-96.13037109375
-84.228515625
-73.2421875
-77.81982421875
-90.63720703125
-85.14404296875
-80.56640625
-90.63720703125
-81.48193359375
-75.98876953125
-75.98876953125
-70.49560546875
-76.904296875
-79.65087890625
-78.7353515625
-71.4111328125
-62.255859375
-69.580078125
-82.3974609375
-86.0595703125
-75.98876953125
-82.3974609375
-77.81982421875
-64.0869140625
-62.255859375
-70.49560546875
-77.81982421875
-69.580078125
-70.49560546875
-63.17138671875
-65.00244140625
-66.83349609375
-72.32666015625
-72.32666015625
-73.2421875
-75.98876953125
-82.3974609375
-78.7353515625
-72.32666015625
-60.4248046875
-67.7490234375
-64.0869140625
-75.98876953125
-69.580078125
-67.7490234375
-76.904296875
-74.15771484375
-69.580078125
-76.904296875
-86.0595703125
-81.48193359375
-86.0595703125
-67.7490234375
-72.32666015625
-89.7216796875
-84.228515625
-71.4111328125
-70.49560546875
-80.56640625
-80.56640625
-84.228515625
-80.56640625
-75.0732421875
-79.65087890625
-84.228515625
-75.98876953125
-86.0595703125
-77.81982421875
-77.81982421875
-85.14404296875
-75.0732421875
-98.876953125
-95.21484375
-81.48193359375
-80.56640625
-71.4111328125
-80.56640625
-92.46826171875
-89.7216796875
-80.56640625
-85.14404296875
-100.7080078125
-94.29931640625
-82.3974609375
-87.890625
-92.46826171875
-83.31298828125
-80.56640625
-92.46826171875
-120.849609375
-106.201171875
-86.0595703125
-98.876953125
-99.79248046875
-104.3701171875
-97.96142578125
-92.46826171875
-78.7353515625
-82.3974609375
-89.7216796875
-81.48193359375
-99.79248046875
-86.0595703125
-97.96142578125
-109.86328125
-108.0322265625
-108.94775390625
-104.3701171875
-106.201171875
-91.552734375
-88.80615234375
-76.904296875
-83.31298828125
-98.876953125
-96.13037109375
-94.29931640625
-68.66455078125
-55.84716796875
-51.26953125
-52.18505859375
-61.34033203125
-56.7626953125
-53.1005859375
-40.283203125
-43.9453125
-30.21240234375
-30.21240234375
-24.71923828125
-19.22607421875
-16.4794921875
-13.73291015625
-2.74658203125
-16.4794921875
-1.8310546875
10.986328125
0.91552734375
4.57763671875
-1.8310546875
9.1552734375
2.74658203125
-4.57763671875
2.74658203125
-8.23974609375
-29.296875
-37.53662109375
-48.52294921875
-56.7626953125
-60.4248046875
-77.81982421875
-62.255859375
-74.15771484375
-76.904296875
-89.7216796875
-85.14404296875
-99.79248046875
-93.3837890625
-83.31298828125
-67.7490234375
-107.11669921875
-109.86328125
-91.552734375
-106.201171875
-129.08935546875
-95.21484375
-114.44091796875
-97.0458984375
-78.7353515625
-120.849609375
-129.08935546875
-119.93408203125
-128.173828125
-112.60986328125
-110.77880859375
-121.76513671875
-99.79248046875
-117.1875
-128.173828125
-130.92041015625
-130.0048828125
-124.51171875
-119.93408203125
-94.29931640625
-97.96142578125
-106.201171875
-75.98876953125
-50.35400390625
-49.4384765625
-23.8037109375
38.4521484375
107.11669921875
140.9912109375
200.50048828125
281.06689453125
355.224609375
446.77734375
499.8779296875
512.6953125
463.2568359375
296.630859375
174.86572265625
44.86083984375
-53.1005859375
-130.92041015625
-232.5439453125
-292.96875
-314.02587890625
-303.03955078125
-270.08056640625
-227.05078125
-192.2607421875
-159.3017578125
-118.10302734375
-90.63720703125
-65.00244140625
-43.02978515625
-48.52294921875
-53.1005859375
-51.26953125
-51.26953125
-53.1005859375
-56.7626953125
-64.0869140625
-74.15771484375
-59.50927734375
-61.34033203125
-62.255859375
-78.7353515625
-72.32666015625
-71.4111328125
-70.49560546875
-70.49560546875
-79.65087890625
-69.580078125
-64.0869140625
-59.50927734375
-53.1005859375
-54.01611328125
-65.91796875
-83.31298828125
-65.91796875
-70.49560546875
-68.66455078125
-67.7490234375
-68.66455078125
-46.69189453125
-31.1279296875
-14.6484375
-28.38134765625
-47.607421875
-38.4521484375
-49.4384765625
-61.34033203125
-66.83349609375
-66.83349609375
-67.7490234375
-63.17138671875
-54.931640625
-44.86083984375
-45.7763671875
-37.53662109375
-41.19873046875
-52.18505859375
-39.36767578125
-52.18505859375
-46.69189453125
-44.86083984375
-19.22607421875
-2.74658203125
-21.05712890625
-22.88818359375
-30.21240234375
-28.38134765625
-17.39501953125
-27.4658203125
-7.32421875
0
6.40869140625
-15.56396484375
-16.4794921875
-4.57763671875
5.4931640625
-11.90185546875
-14.6484375
4.57763671875
16.4794921875
26.55029296875
16.4794921875
7.32421875
18.310546875
2.74658203125
14.6484375
43.9453125
46.69189453125
54.01611328125
43.9453125
28.38134765625
35.70556640625
54.931640625
64.0869140625
87.890625
83.31298828125
71.4111328125
73.2421875
58.59375
65.00244140625
77.81982421875
74.15771484375
75.98876953125
102.5390625
117.1875
110.77880859375
118.10302734375
129.08935546875
140.9912109375
132.75146484375
140.9912109375
137.3291015625
133.6669921875
140.07568359375
137.3291015625
154.72412109375
152.89306640625
135.498046875
149.23095703125
134.58251953125
118.10302734375
136.41357421875
140.9912109375
145.56884765625
137.3291015625
133.6669921875
108.0322265625
70.49560546875
71.4111328125
101.62353515625
78.7353515625
52.18505859375
37.53662109375
37.53662109375
33.87451171875
21.97265625
-12.8173828125
-0.91552734375
-0.91552734375
-17.39501953125
-28.38134765625
-31.1279296875
-62.255859375
-62.255859375
-60.4248046875
-64.0869140625
-75.98876953125
-74.15771484375
-89.7216796875
-84.228515625
-83.31298828125
-79.65087890625
-84.228515625
-84.228515625
-97.0458984375
-106.201171875
-133.6669921875
-111.6943359375
-97.96142578125
-86.0595703125
-96.13037109375
-102.5390625
-112.60986328125
-110.77880859375
-98.876953125
-80.56640625
-96.13037109375
-107.11669921875
-119.0185546875
-127.25830078125
-111.6943359375
-115.3564453125
-118.10302734375
-106.201171875
-105.28564453125
-99.79248046875
-112.60986328125
-119.93408203125
-112.60986328125
-125.42724609375
-113.525390625
-87.890625
-97.0458984375
-108.0322265625
-103.45458984375
-98.876953125
-98.876953125
-114.44091796875
-108.94775390625
-105.28564453125
-92.46826171875
-84.228515625
-97.96142578125
-108.0322265625
-98.876953125
-101.62353515625
-97.0458984375
-96.13037109375
-94.29931640625
-84.228515625
-81.48193359375
-89.7216796875
-93.3837890625
-91.552734375
-95.21484375
-87.890625
-86.97509765625
-93.3837890625
-97.96142578125
-97.0458984375
-89.7216796875
-95.21484375
-90.63720703125
-86.97509765625
-95.21484375
-93.3837890625
-78.7353515625
-87.890625
-97.96142578125
-92.46826171875
-87.890625
-84.228515625
-91.552734375
-95.21484375
-84.228515625
-95.21484375
-99.79248046875
-101.62353515625
-103.45458984375
-107.11669921875
-104.3701171875
-108.0322265625
-102.5390625
-94.29931640625
-92.46826171875
-92.46826171875
-89.7216796875
-101.62353515625
-104.3701171875
-107.11669921875
-106.201171875
-109.86328125
-119.93408203125
-119.93408203125
-103.45458984375
-94.29931640625
-101.62353515625
-101.62353515625
-102.5390625
-104.3701171875
-106.201171875
-119.0185546875
-97.96142578125
-99.79248046875
-119.0185546875
-108.94775390625
-102.5390625
-112.60986328125
-119.93408203125
-127.25830078125
-111.6943359375
-119.93408203125
-110.77880859375
-118.10302734375
-116.27197265625
-118.10302734375
-121.76513671875
-120.849609375
-108.0322265625
-105.28564453125
-108.94775390625
-110.77880859375
-127.25830078125
-115.3564453125
-113.525390625
-106.201171875
-92.46826171875
-105.28564453125
-93.3837890625
-80.56640625
-80.56640625
-72.32666015625
-71.4111328125
-66.83349609375
-69.580078125
-57.67822265625
-51.26953125
-62.255859375
-46.69189453125
-42.1142578125
-18.310546875
-14.6484375
-20.1416015625
-19.22607421875
-9.1552734375
1.8310546875
-8.23974609375
-13.73291015625
-8.23974609375
-2.74658203125
0.91552734375
12.8173828125
9.1552734375
-1.8310546875
-19.22607421875
-29.296875
-41.19873046875
-54.931640625
-60.4248046875
-67.7490234375
-80.56640625
-86.0595703125
-84.228515625
-95.21484375
-90.63720703125
-92.46826171875
-103.45458984375
-97.0458984375
-100.7080078125
-104.3701171875
-102.5390625
-114.44091796875
-117.1875
-112.60986328125
-112.60986328125
-107.11669921875
-114.44091796875
-117.1875
-109.86328125
-112.60986328125
-116.27197265625
-120.849609375
-116.27197265625
-98.876953125
-111.6943359375
-128.173828125
-122.6806640625
-119.0185546875
-131.8359375
-128.173828125
-131.8359375
-127.25830078125
-133.6669921875
-132.75146484375
-111.6943359375
-105.28564453125
-107.11669921875
-89.7216796875
-54.01611328125
-43.02978515625
12.8173828125
63.17138671875
121.76513671875
199.5849609375
263.671875
321.35009765625
423.88916015625
462.34130859375
487.060546875
488.8916015625
346.98486328125
188.5986328125
31.1279296875
-60.4248046875
-151.9775390625
-257.26318359375
-310.36376953125
-345.15380859375
-339.66064453125
-295.71533203125
-242.61474609375
-198.66943359375
-157.470703125
-132.75146484375
-113.525390625
-83.31298828125
-81.48193359375
-83.31298828125
-67.7490234375
-75.0732421875
-86.0595703125
-80.56640625
-92.46826171875
-86.97509765625
-77.81982421875
-91.552734375
-86.0595703125
-85.14404296875
-86.97509765625
-86.97509765625
-77.81982421875
-79.65087890625
-76.904296875
-82.3974609375
-86.97509765625
-82.3974609375
-77.81982421875
-81.48193359375
-76.904296875
-82.3974609375
-79.65087890625
-76.904296875
-77.81982421875
-67.7490234375
-51.26953125
-58.59375
-81.48193359375
-80.56640625
-69.580078125
-68.66455078125
-65.00244140625
-67.7490234375
-54.01611328125
-56.7626953125
-59.50927734375
-63.17138671875
-61.34033203125
-49.4384765625
-51.26953125
-58.59375
-58.59375
-52.18505859375
-54.01611328125
-64.0869140625
-56.7626953125
-59.50927734375
-52.18505859375
-35.70556640625
-27.4658203125
-35.70556640625
-31.1279296875
-39.36767578125
-32.04345703125
-32.958984375
-25.634765625
-25.634765625
-23.8037109375
-26.55029296875
-25.634765625
-26.55029296875
-15.56396484375
-18.310546875
-10.07080078125
-14.6484375
-7.32421875
-6.40869140625
0
1.8310546875
10.986328125
17.39501953125
12.8173828125
25.634765625
16.4794921875
24.71923828125
35.70556640625
39.36767578125
42.1142578125
38.4521484375
49.4384765625
42.1142578125
50.35400390625
67.7490234375
60.4248046875
57.67822265625
72.32666015625
75.98876953125
78.7353515625
86.97509765625
92.46826171875
100.7080078125
101.62353515625
96.13037109375
107.11669921875
111.6943359375
97.96142578125
113.525390625
130.92041015625
130.0048828125
125.42724609375
131.8359375
118.10302734375
139.16015625
144.6533203125
141.90673828125
125.42724609375
131.8359375
137.3291015625
126.3427734375
140.07568359375
142.822265625
148.3154296875
132.75146484375
108.0322265625
101.62353515625
99.79248046875
86.97509765625
83.31298828125
76.904296875
56.7626953125
43.02978515625
41.19873046875
33.87451171875
10.986328125
3.662109375
-3.662109375
1.8310546875
-18.310546875
-32.958984375
-33.87451171875
-58.59375
-61.34033203125
-51.26953125
-57.67822265625
-72.32666015625
-75.0732421875
-60.4248046875
-66.83349609375
-72.32666015625
-75.98876953125
-93.3837890625
-90.63720703125
-86.0595703125
-94.29931640625
-86.97509765625
-82.3974609375
-86.97509765625
-91.552734375
-103.45458984375
-104.3701171875
-101.62353515625
-108.0322265625
-105.28564453125
-103.45458984375
-109.86328125
-109.86328125
-108.94775390625
-107.11669921875
-104.3701171875
-95.21484375
-100.7080078125
-103.45458984375
-103.45458984375
-102.5390625
-86.0595703125
-85.14404296875
-109.86328125
-97.96142578125
-90.63720703125
-85.14404296875
-87.890625
-92.46826171875
-96.13037109375
-93.3837890625
-89.7216796875
-75.0732421875
-75.98876953125
-78.7353515625
-78.7353515625
-81.48193359375
-91.552734375
-86.0595703125
-85.14404296875
-75.98876953125
-67.7490234375
-77.81982421875
-75.0732421875
-70.49560546875
-70.49560546875
-77.81982421875
-71.4111328125
-75.98876953125
-75.0732421875
-67.7490234375
-67.7490234375
-90.63720703125
-94.29931640625
-88.80615234375
-83.31298828125
-67.7490234375
-75.98876953125
-84.228515625
-70.49560546875
-69.580078125
-70.49560546875
-71.4111328125
-68.66455078125
-75.0732421875
-68.66455078125
-60.4248046875
-69.580078125
-91.552734375
-92.46826171875
-75.0732421875
-66.83349609375
-74.15771484375
-74.15771484375
-75.98876953125
-78.7353515625
-75.0732421875
-65.91796875
-75.0732421875
-77.81982421875
-84.228515625
-84.228515625
-94.29931640625
-84.228515625
-82.3974609375
-85.14404296875
-76.904296875
-72.32666015625
-78.7353515625
-83.31298828125
-97.0458984375
-86.97509765625
-82.3974609375
-95.21484375
-90.63720703125
-89.7216796875
-80.56640625
-89.7216796875
-76.904296875
-81.48193359375
-86.97509765625
-88.80615234375
-80.56640625
-73.2421875
-68.66455078125
-61.34033203125
-56.7626953125
-56.7626953125
-46.69189453125
-48.52294921875
-32.04345703125
-34.7900390625
-28.38134765625
-10.986328125
-10.07080078125
-13.73291015625
-5.4931640625
5.4931640625
7.32421875
0.91552734375
-0.91552734375
10.07080078125
5.4931640625
6.40869140625
11.90185546875
33.87451171875
21.97265625
6.40869140625
2.74658203125
-18.310546875
-24.71923828125
-33.87451171875
-53.1005859375
-67.7490234375
-67.7490234375
-70.49560546875
-82.3974609375
-77.81982421875
-93.3837890625
-88.80615234375
-92.46826171875
-90.63720703125
-98.876953125
-94.29931640625
-85.14404296875
-107.11669921875
-111.6943359375
-108.0322265625
-96.13037109375
-102.5390625
-91.552734375
-81.48193359375
-110.77880859375
-103.45458984375
-108.94775390625
-122.6806640625
-124.51171875
-105.28564453125
-106.201171875
-104.3701171875
-105.28564453125
-102.5390625
-101.62353515625
-111.6943359375
-129.08935546875
-122.6806640625
-129.08935546875
-123.59619140625
-119.0185546875
-108.0322265625
-108.0322265625
-93.3837890625
-85.14404296875
-54.01611328125
-20.1416015625
17.39501953125
68.66455078125
122.6806640625
189.51416015625
273.74267578125
356.14013671875
427.55126953125
476.98974609375
501.708984375
477.9052734375
320.4345703125
178.52783203125
43.02978515625
-67.7490234375
-154.72412109375
-260.92529296875
-311.279296875
-335.0830078125
-314.94140625
-282.89794921875
-239.8681640625
-209.65576171875
-162.04833984375
-125.42724609375
-103.45458984375
-73.2421875
-59.50927734375
-75.0732421875
-68.66455078125
-72.32666015625
-77.81982421875
-74.15771484375
-75.98876953125
-71.4111328125
-77.81982421875
-75.98876953125
-88.80615234375
-80.56640625
-71.4111328125
-77.81982421875
-67.7490234375
-72.32666015625
-71.4111328125
-67.7490234375
-74.15771484375
-78.7353515625
-84.228515625
-89.7216796875
-87.890625
-74.15771484375
-64.0869140625
-70.49560546875
-81.48193359375
-71.4111328125
-75.0732421875
-71.4111328125
-59.50927734375
-65.00244140625
-64.0869140625
-56.7626953125
-68.66455078125
-69.580078125
-56.7626953125
-42.1142578125
-51.26953125
-59.50927734375
-58.59375
-51.26953125
-44.86083984375
-56.7626953125
-46.69189453125
-24.71923828125
-39.36767578125
-48.52294921875
-44.86083984375
-43.02978515625
-44.86083984375
-47.607421875
-43.9453125
-33.87451171875
-27.4658203125
-16.4794921875
-13.73291015625
-15.56396484375
-12.8173828125
-16.4794921875
-15.56396484375
-8.23974609375
-7.32421875
-17.39501953125
-13.73291015625
-6.40869140625
7.32421875
-5.4931640625
1.8310546875
0
0.91552734375
1.8310546875
21.05712890625
24.71923828125
23.8037109375
23.8037109375
27.4658203125
34.7900390625
27.4658203125
32.958984375
41.19873046875
46.69189453125
46.69189453125
45.7763671875
48.52294921875
59.50927734375
71.4111328125
72.32666015625
69.580078125
79.65087890625
84.228515625
82.3974609375
86.0595703125
88.80615234375
97.96142578125
103.45458984375
117.1875
116.27197265625
115.3564453125
121.76513671875
128.173828125
133.6669921875
128.173828125
130.0048828125
128.173828125
145.56884765625
141.90673828125
146.484375
138.24462890625
149.23095703125
151.9775390625
139.16015625
143.73779296875
133.6669921875
118.10302734375
121.76513671875
108.94775390625
113.525390625
100.7080078125
87.890625
66.83349609375
71.4111328125
59.50927734375
39.36767578125
34.7900390625
10.986328125
2.74658203125
-1.8310546875
-13.73291015625
-26.55029296875
-30.21240234375
-28.38134765625
-21.97265625
-43.9453125
-51.26953125
-57.67822265625
-68.66455078125
-68.66455078125
-70.49560546875
-72.32666015625
-74.15771484375
-66.83349609375
-67.7490234375
-75.98876953125
-81.48193359375
-75.0732421875
-78.7353515625
-89.7216796875
-75.98876953125
-86.97509765625
-89.7216796875
-88.80615234375
-91.552734375
-88.80615234375
-102.5390625
-95.21484375
-89.7216796875
-69.580078125
-78.7353515625
-82.3974609375
-85.14404296875
-94.29931640625
-92.46826171875
-86.97509765625
-77.81982421875
-80.56640625
-84.228515625
-82.3974609375
-83.31298828125
-102.5390625
-105.28564453125
-93.3837890625
-88.80615234375
-86.0595703125
-69.580078125
-65.91796875
-69.580078125
-74.15771484375
-80.56640625
-80.56640625
-76.904296875
-77.81982421875
-64.0869140625
-59.50927734375
-74.15771484375
-65.91796875
-69.580078125
-73.2421875
-74.15771484375
-75.98876953125
-66.83349609375
-69.580078125
-74.15771484375
-61.34033203125
-51.26953125
-63.17138671875
-69.580078125
-70.49560546875
-58.59375
-62.255859375
-57.67822265625
-49.4384765625
-53.1005859375
-60.4248046875
-64.0869140625
-54.931640625
-59.50927734375
-57.67822265625
-64.0869140625
-66.83349609375
-63.17138671875
-59.50927734375
-57.67822265625
-53.1005859375
-54.01611328125
-55.84716796875
-70.49560546875
-68.66455078125
-59.50927734375
-68.66455078125
-73.2421875
-65.91796875
-65.00244140625
-65.91796875
-70.49560546875
-66.83349609375
-74.15771484375
-75.98876953125
-74.15771484375
-68.66455078125
-75.0732421875
-75.0732421875
-65.91796875
-69.580078125
-75.0732421875
-84.228515625
-84.228515625
-75.0732421875
-79.65087890625
-71.4111328125
-68.66455078125
-81.48193359375
-82.3974609375
-82.3974609375
-76.904296875
-69.580078125
-69.580078125
-64.0869140625
-85.14404296875
-87.890625
-75.0732421875
-60.4248046875
-64.0869140625
-74.15771484375
-59.50927734375
-49.4384765625
-50.35400390625
-43.9453125
-32.958984375
-33.87451171875
-32.04345703125
-27.4658203125
-24.71923828125
-26.55029296875
-3.662109375
17.39501953125
4.57763671875
2.74658203125
18.310546875
23.8037109375
15.56396484375
10.07080078125
30.21240234375
25.634765625
26.55029296875
32.958984375
34.7900390625
29.296875
10.07080078125
2.74658203125
-14.6484375
-17.39501953125
-18.310546875
-26.55029296875
-33.87451171875
-47.607421875
-55.84716796875
-58.59375
-61.34033203125
-64.0869140625
-65.91796875
-72.32666015625
-72.32666015625
-86.97509765625
-92.46826171875
-80.56640625
-82.3974609375
-80.56640625
-82.3974609375
-97.96142578125
-90.63720703125
-91.552734375
-81.48193359375
-88.80615234375
-103.45458984375
-108.94775390625
-97.96142578125
-98.876953125
-87.890625
-89.7216796875
-98.876953125
-89.7216796875
-86.97509765625
-91.552734375
-91.552734375
-92.46826171875
-94.29931640625
-103.45458984375
-110.77880859375
-102.5390625
-97.0458984375
-79.65087890625
-84.228515625
-63.17138671875
-37.53662109375
-25.634765625
22.88818359375
87.890625
146.484375
213.31787109375
297.54638671875
365.29541015625
449.52392578125
499.8779296875
512.6953125
476.07421875
320.4345703125
184.9365234375
45.7763671875
-62.255859375
-166.6259765625
-263.671875
-317.68798828125
-316.7724609375
-299.37744140625
-256.34765625
-214.2333984375
-179.443359375
-142.822265625
-101.62353515625
-79.65087890625
-65.00244140625
-55.84716796875
-54.01611328125
-52.18505859375
-52.18505859375
-51.26953125
-60.4248046875
-68.66455078125
-72.32666015625
-55.84716796875
-56.7626953125
-55.84716796875
-62.255859375
-66.83349609375
-61.34033203125
-56.7626953125
-57.67822265625
-56.7626953125
-48.52294921875
-43.02978515625
-48.52294921875
-54.931640625
-56.7626953125
-56.7626953125
-66.83349609375
-67.7490234375
-60.4248046875
-49.4384765625
-43.9453125
-40.283203125
-57.67822265625
-41.19873046875
-43.9453125
-47.607421875
-40.283203125
-35.70556640625
-27.4658203125
-37.53662109375
-46.69189453125
-32.04345703125
-35.70556640625
-36.62109375
-32.04345703125
-39.36767578125
-33.87451171875
-21.05712890625
-21.05712890625
-27.4658203125
-22.88818359375
-19.22607421875
-10.07080078125
-16.4794921875
-18.310546875
-0.91552734375
-4.57763671875
4.57763671875
-5.4931640625
-15.56396484375
-4.57763671875
-4.57763671875
7.32421875
9.1552734375
6.40869140625
15.56396484375
14.6484375
14.6484375
21.97265625
31.1279296875
21.97265625
21.97265625
24.71923828125
35.70556640625
44.86083984375
45.7763671875
47.607421875
42.1142578125
41.19873046875
46.69189453125
48.52294921875
65.91796875
76.904296875
71.4111328125
71.4111328125
75.98876953125
76.904296875
88.80615234375
99.79248046875
90.63720703125
76.904296875
84.228515625
91.552734375
119.0185546875
114.44091796875
119.0185546875
119.0185546875
130.92041015625
138.24462890625
129.08935546875
126.3427734375
133.6669921875
137.3291015625
138.24462890625
140.9912109375
142.822265625
151.9775390625
154.72412109375
151.06201171875
167.54150390625
166.6259765625
153.80859375
159.3017578125
157.470703125
169.37255859375
166.6259765625
162.9638671875
159.3017578125
148.3154296875
138.24462890625
140.9912109375
130.0048828125
114.44091796875
108.0322265625
100.7080078125
86.0595703125
77.81982421875
52.18505859375
48.52294921875
32.958984375
36.62109375
21.05712890625
8.23974609375
2.74658203125
-14.6484375
-13.73291015625
-19.22607421875
6.40869140625
-7.32421875
-33.87451171875
-43.02978515625
-42.1142578125
-35.70556640625
-32.958984375
-34.7900390625
-30.21240234375
-43.9453125
-54.01611328125
-40.283203125
-45.7763671875
-58.59375
-57.67822265625
-37.53662109375
-50.35400390625
-61.34033203125
-66.83349609375
-56.7626953125
-46.69189453125
-48.52294921875
-52.18505859375
-44.86083984375
-52.18505859375
-53.1005859375
-54.931640625
-58.59375
-60.4248046875
-53.1005859375
-54.01611328125
-52.18505859375
-50.35400390625
-32.04345703125
-47.607421875
-44.86083984375
-34.7900390625
-40.283203125
-55.84716796875
-48.52294921875
-50.35400390625
-39.36767578125
-44.86083984375
-50.35400390625
-39.36767578125
-32.958984375
-40.283203125
-47.607421875
-40.283203125
-35.70556640625
-36.62109375
-37.53662109375
-32.958984375
-30.21240234375
-30.21240234375
-41.19873046875
-29.296875
-34.7900390625
-49.4384765625
-38.4521484375
-31.1279296875
-16.4794921875
-34.7900390625
-34.7900390625
-21.97265625
-24.71923828125
-32.958984375
-28.38134765625
-28.38134765625
-32.04345703125
-30.21240234375
-21.97265625
-30.21240234375
-28.38134765625
-31.1279296875
-37.53662109375
-26.55029296875
-32.04345703125
-30.21240234375
-23.8037109375
-29.296875
-33.87451171875
-30.21240234375
-27.4658203125
-33.87451171875
-37.53662109375
-33.87451171875
-34.7900390625
-33.87451171875
-31.1279296875
-36.62109375
-53.1005859375
-43.9453125
-42.1142578125
-35.70556640625
-36.62109375
-36.62109375
-27.4658203125
-44.86083984375
-54.01611328125
-42.1142578125
-34.7900390625
-33.87451171875
-43.9453125
-43.02978515625
-49.4384765625
-42.1142578125
-44.86083984375
-46.69189453125
-40.283203125
-37.53662109375
-49.4384765625
-61.34033203125
-57.67822265625
-51.26953125
-54.01611328125
-27.4658203125
-37.53662109375
-49.4384765625
-42.1142578125
-39.36767578125
-40.283203125
-28.38134765625
-15.56396484375
-7.32421875
3.662109375
2.74658203125
6.40869140625
-1.8310546875
-7.32421875
-1.8310546875
12.8173828125
23.8037109375
27.4658203125
47.607421875
39.36767578125
41.19873046875
38.4521484375
44.86083984375
60.4248046875
61.34033203125
49.4384765625
54.931640625
59.50927734375
67.7490234375
66.83349609375
60.4248046875
48.52294921875
21.97265625
12.8173828125
3.662109375
-10.986328125
-26.55029296875
-5.4931640625
-14.6484375
-39.36767578125
-43.02978515625
-51.26953125
-52.18505859375
-39.36767578125
-45.7763671875
-49.4384765625
-50.35400390625
-54.931640625
-58.59375
-49.4384765625
-48.52294921875
-62.255859375
-56.7626953125
-68.66455078125
-56.7626953125
-57.67822265625
-55.84716796875
-45.7763671875
-61.34033203125
-63.17138671875
-53.1005859375
-46.69189453125
-55.84716796875
-67.7490234375
-66.83349609375
-57.67822265625
-66.83349609375
-65.00244140625
-74.15771484375
-76.904296875
-69.580078125
-60.4248046875
-64.0869140625
-57.67822265625
-50.35400390625
-32.958984375
-22.88818359375
17.39501953125
65.91796875
121.76513671875
174.86572265625
251.77001953125
326.84326171875
399.169921875
469.66552734375
509.94873046875
532.8369140625
478.82080078125
315.85693359375
193.17626953125
57.67822265625
-32.04345703125
-119.0185546875
-216.064453125
-264.58740234375
-264.58740234375
-254.5166015625
-229.79736328125
-182.18994140625
-160.21728515625
-127.25830078125
-84.228515625
-59.50927734375
-32.958984375
-27.4658203125
-23.8037109375
-31.1279296875
-31.1279296875
-24.71923828125
-10.986328125
-29.296875
-21.97265625
-26.55029296875
-38.4521484375
-39.36767578125
-37.53662109375
-34.7900390625
-30.21240234375
-40.283203125
-37.53662109375
-28.38134765625
-38.4521484375
-43.9453125
-24.71923828125
-22.88818359375
-23.8037109375
-21.05712890625
-20.1416015625
-14.6484375
-15.56396484375
-19.22607421875
-15.56396484375
-31.1279296875
-29.296875
-14.6484375
-17.39501953125
-9.1552734375
-1.8310546875
-6.40869140625
-7.32421875
-5.4931640625
-6.40869140625
-1.8310546875
12.8173828125
8.23974609375
-12.8173828125
-8.23974609375
-7.32421875
-3.662109375
2.74658203125
9.1552734375
12.8173828125
12.8173828125
13.73291015625
6.40869140625
5.4931640625
5.4931640625
21.05712890625
21.05712890625
31.1279296875
26.55029296875
24.71923828125
10.07080078125
18.310546875
23.8037109375
30.21240234375
37.53662109375
34.7900390625
51.26953125
55.84716796875
54.931640625
48.52294921875
59.50927734375
61.34033203125
62.255859375
69.580078125
71.4111328125
75.0732421875
71.4111328125
85.14404296875
83.31298828125
64.0869140625
75.98876953125
84.228515625
90.63720703125
97.96142578125
96.13037109375
102.5390625
117.1875
112.60986328125
119.93408203125
111.6943359375
113.525390625
125.42724609375
124.51171875
125.42724609375
137.3291015625
140.07568359375
146.484375
142.822265625
148.3154296875
157.470703125
151.06201171875
151.06201171875
166.6259765625
173.03466796875
170.2880859375
167.54150390625
162.04833984375
183.10546875
184.02099609375
180.35888671875
173.9501953125
184.02099609375
187.68310546875
175.78125
180.35888671875
183.10546875
171.20361328125
180.35888671875
170.2880859375
165.71044921875
151.9775390625
136.41357421875
130.92041015625
125.42724609375
114.44091796875
94.29931640625
89.7216796875
85.14404296875
81.48193359375
71.4111328125
60.4248046875
52.18505859375
38.4521484375
35.70556640625
21.05712890625
20.1416015625
9.1552734375
11.90185546875
5.4931640625
-4.57763671875
-1.8310546875
0.91552734375
-3.662109375
-19.22607421875
-15.56396484375
-10.07080078125
-20.1416015625
-17.39501953125
-21.97265625
-20.1416015625
-31.1279296875
-19.22607421875
-17.39501953125
-32.958984375
-33.87451171875
-28.38134765625
-37.53662109375
-32.04345703125
-34.7900390625
-27.4658203125
-19.22607421875
-22.88818359375
-27.4658203125
-30.21240234375
-26.55029296875
-23.8037109375
-24.71923828125
-24.71923828125
-30.21240234375
-23.8037109375
-23.8037109375
-28.38134765625
-18.310546875
-23.8037109375
-16.4794921875
-16.4794921875
-11.90185546875
-8.23974609375
-5.4931640625
-10.986328125
-10.07080078125
0
-2.74658203125
-8.23974609375
-5.4931640625
-8.23974609375
-9.1552734375
0
-16.4794921875
-8.23974609375
-12.8173828125
0
10.07080078125
-7.32421875
-2.74658203125
2.74658203125
-11.90185546875
-6.40869140625
-0.91552734375
6.40869140625
5.4931640625
0.91552734375
10.986328125
9.1552734375
3.662109375
0
-9.1552734375
-10.07080078125
-6.40869140625
-11.90185546875
-14.6484375
11.90185546875
-6.40869140625
-16.4794921875
-0.91552734375
-0.91552734375
-4.57763671875
0
-3.662109375
-6.40869140625
-15.56396484375
-15.56396484375
-3.662109375
-10.986328125
-14.6484375
-6.40869140625
-14.6484375
-12.8173828125
-0.91552734375
-5.4931640625
-16.4794921875
-14.6484375
-10.07080078125
-7.32421875
-15.56396484375
-25.634765625
-20.1416015625
-11.90185546875
-17.39501953125
-5.4931640625
-8.23974609375
-1.8310546875
-2.74658203125
-10.986328125
-10.986328125
-16.4794921875
-17.39501953125
-18.310546875
6.40869140625
19.22607421875
21.97265625
30.21240234375
22.88818359375
20.1416015625
17.39501953125
29.296875
37.53662109375
32.958984375
45.7763671875
55.84716796875
54.931640625
55.84716796875
75.0732421875
80.56640625
76.904296875
74.15771484375
90.63720703125
81.48193359375
90.63720703125
95.21484375
92.46826171875
97.0458984375
96.13037109375
74.15771484375
67.7490234375
43.02978515625
32.04345703125
23.8037109375
11.90185546875
2.74658203125
-12.8173828125
-14.6484375
-19.22607421875
-11.90185546875
-11.90185546875
-20.1416015625
-8.23974609375
-15.56396484375
-22.88818359375
-42.1142578125
-17.39501953125
-21.05712890625
-30.21240234375
-21.05712890625
-21.05712890625
-35.70556640625
-30.21240234375
-29.296875
-24.71923828125
-37.53662109375
-23.8037109375
-33.87451171875
-28.38134765625
-22.88818359375
-34.7900390625
-30.21240234375
-37.53662109375
-40.283203125
-37.53662109375
-40.283203125
-44.86083984375
-45.7763671875
-54.01611328125
-45.7763671875
-31.1279296875
-32.958984375
-11.90185546875
-0.91552734375
14.6484375
34.7900390625
82.3974609375
142.822265625
207.82470703125
259.09423828125
333.251953125
423.88916015625
502.62451171875
536.4990234375
558.4716796875
525.5126953125
346.0693359375
227.05078125
98.876953125
0
-112.60986328125
-191.34521484375
-225.2197265625
-248.10791015625
-232.5439453125
-195.9228515625
-149.23095703125
-126.3427734375
-94.29931640625
-61.34033203125
-31.1279296875
-21.97265625
-2.74658203125
5.4931640625
-0.91552734375
-10.07080078125
-0.91552734375
-8.23974609375
-7.32421875
4.57763671875
-5.4931640625
-5.4931640625
-2.74658203125
1.8310546875
2.74658203125
-2.74658203125
-4.57763671875
-6.40869140625
-3.662109375
0
-0.91552734375
-6.40869140625
0
7.32421875
14.6484375
3.662109375
0
8.23974609375
13.73291015625
-4.57763671875
-2.74658203125
-0.91552734375
-4.57763671875
4.57763671875
20.1416015625
12.8173828125
12.8173828125
17.39501953125
28.38134765625
25.634765625
22.88818359375
35.70556640625
30.21240234375
24.71923828125
30.21240234375
23.8037109375
33.87451171875
31.1279296875
29.296875
37.53662109375
43.9453125
43.9453125
53.1005859375
55.84716796875
57.67822265625
49.4384765625
42.1142578125
47.607421875
52.18505859375
63.17138671875
63.17138671875
65.00244140625
65.91796875
74.15771484375
74.15771484375
79.65087890625
56.7626953125
66.83349609375
82.3974609375
78.7353515625
75.98876953125
75.0732421875
94.29931640625
103.45458984375
89.7216796875
85.14404296875
90.63720703125
104.3701171875
112.60986328125
93.3837890625
108.94775390625
110.77880859375
115.3564453125
128.173828125
131.8359375
138.24462890625
130.0048828125
151.9775390625
156.55517578125
146.484375
143.73779296875
151.06201171875
166.6259765625
173.9501953125
169.37255859375
162.9638671875
176.69677734375
179.443359375
173.03466796875
185.85205078125
194.091796875
190.4296875
191.34521484375
195.00732421875
204.16259765625
200.50048828125
207.82470703125
212.40234375
211.48681640625
205.99365234375
205.078125
205.078125
207.82470703125
203.2470703125
210.5712890625
207.82470703125
202.33154296875
194.091796875
180.35888671875
178.52783203125
164.794921875
157.470703125
140.9912109375
144.6533203125
125.42724609375
118.10302734375
113.525390625
107.11669921875
99.79248046875
89.7216796875
76.904296875
58.59375
42.1142578125
42.1142578125
39.36767578125
35.70556640625
26.55029296875
29.296875
23.8037109375
16.4794921875
17.39501953125
14.6484375
7.32421875
1.8310546875
-5.4931640625
-7.32421875
-10.07080078125
-6.40869140625
-8.23974609375
-19.22607421875
-4.57763671875
-4.57763671875
-4.57763671875
-9.1552734375
1.8310546875
-2.74658203125
-2.74658203125
-4.57763671875
-6.40869140625
-7.32421875
-8.23974609375
-3.662109375
-10.986328125
-6.40869140625
-21.05712890625
-28.38134765625
-19.22607421875
0
-15.56396484375
-2.74658203125
-5.4931640625
-11.90185546875
-0.91552734375
1.8310546875
1.8310546875
-3.662109375
-1.8310546875
0.91552734375
7.32421875
-4.57763671875
-15.56396484375
5.4931640625
7.32421875
-3.662109375
4.57763671875
8.23974609375
14.6484375
22.88818359375
19.22607421875
9.1552734375
13.73291015625
11.90185546875
0.91552734375
0.91552734375
-0.91552734375
5.4931640625
15.56396484375
5.4931640625
5.4931640625
5.4931640625
12.8173828125
12.8173828125
3.662109375
10.07080078125
14.6484375
16.4794921875
10.07080078125
6.40869140625
4.57763671875
-0.91552734375
-1.8310546875
-1.8310546875
-0.91552734375
11.90185546875
3.662109375
8.23974609375
5.4931640625
5.4931640625
2.74658203125
-4.57763671875
4.57763671875
10.07080078125
12.8173828125
3.662109375
-5.4931640625
0.91552734375
-4.57763671875
-6.40869140625
3.662109375
-0.91552734375
-2.74658203125
7.32421875
3.662109375
-10.986328125
-11.90185546875
-6.40869140625
-6.40869140625
-7.32421875
-8.23974609375
-8.23974609375
3.662109375
6.40869140625
-8.23974609375
-13.73291015625
-16.4794921875
-14.6484375
-10.07080078125
-3.662109375
-9.1552734375
-25.634765625
-26.55029296875
-8.23974609375
-17.39501953125
-19.22607421875
-2.74658203125
5.4931640625
12.8173828125
24.71923828125
27.4658203125
36.62109375
28.38134765625
23.8037109375
35.70556640625
20.1416015625
28.38134765625
46.69189453125
73.2421875
80.56640625
61.34033203125
79.65087890625
96.13037109375
93.3837890625
94.29931640625
103.45458984375
89.7216796875
86.0595703125
88.80615234375
86.97509765625
78.7353515625
85.14404296875
69.580078125
58.59375
65.00244140625
65.91796875
42.1142578125
11.90185546875
2.74658203125
0.91552734375
0
2.74658203125
-10.986328125
-3.662109375
-2.74658203125
-4.57763671875
-16.4794921875
-25.634765625
-22.88818359375
-32.04345703125
-26.55029296875
-22.88818359375
-26.55029296875
-26.55029296875
-39.36767578125
-41.19873046875
-40.283203125
-40.283203125
-41.19873046875
-32.958984375
-38.4521484375
-57.67822265625
-52.18505859375
-48.52294921875
-34.7900390625
-23.8037109375
-37.53662109375
-51.26953125
-28.38134765625
-37.53662109375
-44.86083984375
-34.7900390625
-37.53662109375
-27.4658203125
-15.56396484375
-18.310546875
-10.07080078125
6.40869140625
32.958984375
96.13037109375
147.39990234375
212.40234375
273.74267578125
357.97119140625
431.21337890625
503.5400390625
550.23193359375
568.54248046875
555.72509765625
391.845703125
249.0234375
116.27197265625
8.23974609375
-92.46826171875
-186.767578125
-252.685546875
-263.671875
-244.44580078125
-217.8955078125
-164.794921875
-128.173828125
-91.552734375
-53.1005859375
-33.87451171875
-17.39501953125
-10.07080078125
-5.4931640625
-1.8310546875
15.56396484375
-0.91552734375
-13.73291015625
-17.39501953125
-10.986328125
-11.90185546875
-10.07080078125
-19.22607421875
-21.97265625
-12.8173828125
-9.1552734375
-4.57763671875
-11.90185546875
-8.23974609375
-14.6484375
-14.6484375
-1.8310546875
4.57763671875
0.91552734375
-6.40869140625
-9.1552734375
5.4931640625
-2.74658203125
-10.07080078125
-4.57763671875
-4.57763671875
4.57763671875
2.74658203125
0.91552734375
2.74658203125
-2.74658203125
-10.986328125
4.57763671875
17.39501953125
25.634765625
13.73291015625
22.88818359375
17.39501953125
6.40869140625
18.310546875
21.05712890625
21.97265625
25.634765625
21.05712890625
30.21240234375
37.53662109375
32.958984375
30.21240234375
43.02978515625
53.1005859375
36.62109375
35.70556640625
40.283203125
43.9453125
50.35400390625
46.69189453125
59.50927734375
62.255859375
45.7763671875
46.69189453125
65.00244140625
65.00244140625
63.17138671875
68.66455078125
78.7353515625
79.65087890625
74.15771484375
86.97509765625
73.2421875
77.81982421875
79.65087890625
75.0732421875
93.3837890625
91.552734375
83.31298828125
102.5390625
105.28564453125
114.44091796875
120.849609375
131.8359375
128.173828125
133.6669921875
140.07568359375
146.484375
144.6533203125
144.6533203125
149.23095703125
157.470703125
169.37255859375
171.20361328125
151.06201171875
162.9638671875
172.119140625
167.54150390625
165.71044921875
179.443359375
181.2744140625
184.02099609375
195.9228515625
187.68310546875
174.86572265625
187.68310546875
195.00732421875
206.9091796875
207.82470703125
200.50048828125
208.740234375
215.14892578125
200.50048828125
195.9228515625
201.416015625
201.416015625
190.4296875
178.52783203125
167.54150390625
178.52783203125
160.21728515625
156.55517578125
155.6396484375
127.25830078125
108.0322265625
99.79248046875
93.3837890625
86.97509765625
82.3974609375
70.49560546875
70.49560546875
64.0869140625
44.86083984375
34.7900390625
42.1142578125
27.4658203125
25.634765625
19.22607421875
11.90185546875
7.32421875
9.1552734375
-1.8310546875
-4.57763671875
-1.8310546875
-3.662109375
-5.4931640625
-17.39501953125
-26.55029296875
-20.1416015625
0
-4.57763671875
-10.07080078125
-22.88818359375
-26.55029296875
-21.05712890625
-11.90185546875
-25.634765625
-18.310546875
-17.39501953125
-16.4794921875
-24.71923828125
-20.1416015625
-27.4658203125
-28.38134765625
-20.1416015625
-28.38134765625
-15.56396484375
-5.4931640625
-9.1552734375
-14.6484375
-7.32421875
0
-3.662109375
-0.91552734375
-10.986328125
-4.57763671875
-13.73291015625
-10.986328125
-9.1552734375
-4.57763671875
5.4931640625
0
12.8173828125
17.39501953125
5.4931640625
7.32421875
1.8310546875
1.8310546875
-5.4931640625
-9.1552734375
2.74658203125
9.1552734375
0.91552734375
-0.91552734375
0
9.1552734375
13.73291015625
4.57763671875
10.986328125
7.32421875
6.40869140625
6.40869140625
1.8310546875
6.40869140625
21.97265625
12.8173828125
12.8173828125
0.91552734375
-1.8310546875
7.32421875
8.23974609375
0
-7.32421875
-2.74658203125
-2.74658203125
-7.32421875
-9.1552734375
-6.40869140625
-7.32421875
-0.91552734375
-8.23974609375
-18.310546875
-17.39501953125
-11.90185546875
0
-10.07080078125
-10.986328125
-14.6484375
-21.97265625
-13.73291015625
-13.73291015625
-15.56396484375
-4.57763671875
-4.57763671875
-5.4931640625
-1.8310546875
-6.40869140625
-5.4931640625
-9.1552734375
-3.662109375
-16.4794921875
-20.1416015625
-18.310546875
-13.73291015625
-21.05712890625
-4.57763671875
-21.97265625
-30.21240234375
-13.73291015625
-10.07080078125
-15.56396484375
-11.90185546875
-15.56396484375
-2.74658203125
-7.32421875
2.74658203125
9.1552734375
17.39501953125
23.8037109375
34.7900390625
22.88818359375
19.22607421875
21.97265625
30.21240234375
22.88818359375
49.4384765625
54.931640625
63.17138671875
65.00244140625
61.34033203125
65.00244140625
74.15771484375
72.32666015625
90.63720703125
82.3974609375
83.31298828125
84.228515625
89.7216796875
75.0732421875
82.3974609375
86.0595703125
64.0869140625
35.70556640625
39.36767578125
41.19873046875
13.73291015625
-7.32421875
-6.40869140625
-7.32421875
0
1.8310546875
-6.40869140625
-24.71923828125
-26.55029296875
-20.1416015625
-19.22607421875
-18.310546875
-23.8037109375
-16.4794921875
-15.56396484375
-25.634765625
-28.38134765625
-32.04345703125
-31.1279296875
-36.62109375
-32.958984375
-26.55029296875
-32.958984375
-42.1142578125
-44.86083984375
-48.52294921875
-44.86083984375
-45.7763671875
-29.296875
-31.1279296875
-33.87451171875
-43.9453125
-55.84716796875
-69.580078125
-56.7626953125
-35.70556640625
-25.634765625
-36.62109375
-25.634765625
-23.8037109375
-3.662109375
27.4658203125
61.34033203125
119.93408203125
173.03466796875
236.2060546875
319.51904296875
399.169921875
468.75
535.58349609375
560.302734375
566.71142578125
447.69287109375
288.39111328125
168.45703125
36.62109375
-65.00244140625
-149.23095703125
-227.96630859375
-259.09423828125
-257.26318359375
-225.2197265625
-175.78125
-142.822265625
-94.29931640625
-64.0869140625
-43.9453125
-15.56396484375
-9.1552734375
3.662109375
7.32421875
7.32421875
3.662109375
0
-13.73291015625
-18.310546875
-6.40869140625
3.662109375
-6.40869140625
-11.90185546875
-8.23974609375
-13.73291015625
-24.71923828125
-23.8037109375
-5.4931640625
4.57763671875
1.8310546875
0.91552734375
-1.8310546875
-7.32421875
0.91552734375
4.57763671875
-3.662109375
-4.57763671875
-16.4794921875
-8.23974609375
1.8310546875
4.57763671875
-3.662109375
-6.40869140625
-0.91552734375
6.40869140625
10.986328125
-0.91552734375
2.74658203125
6.40869140625
17.39501953125
27.4658203125
27.4658203125
28.38134765625
19.22607421875
10.986328125
10.986328125
23.8037109375
19.22607421875
29.296875
22.88818359375
28.38134765625
41.19873046875
36.62109375
39.36767578125
33.87451171875
19.22607421875
31.1279296875
31.1279296875
40.283203125
47.607421875
45.7763671875
43.9453125
54.931640625
55.84716796875
62.255859375
69.580078125
60.4248046875
72.32666015625
79.65087890625
72.32666015625
69.580078125
86.0595703125
95.21484375
86.0595703125
88.80615234375
107.11669921875
94.29931640625
104.3701171875
108.0322265625
96.13037109375
108.0322265625
114.44091796875
108.0322265625
120.849609375
134.58251953125
127.25830078125
118.10302734375
134.58251953125
142.822265625
146.484375
138.24462890625
138.24462890625
144.6533203125
145.56884765625
159.3017578125
169.37255859375
179.443359375
163.87939453125
173.9501953125
176.69677734375
182.18994140625
181.2744140625
184.02099609375
179.443359375
173.9501953125
200.50048828125
198.66943359375
200.50048828125
198.66943359375
199.5849609375
205.99365234375
199.5849609375
206.9091796875
209.65576171875
207.82470703125
196.83837890625
194.091796875
187.68310546875
164.794921875
154.72412109375
138.24462890625
124.51171875
130.0048828125
116.27197265625
105.28564453125
100.7080078125
92.46826171875
79.65087890625
75.98876953125
60.4248046875
53.1005859375
52.18505859375
39.36767578125
18.310546875
16.4794921875
21.97265625
2.74658203125
-8.23974609375
-10.986328125
-8.23974609375
-15.56396484375
-7.32421875
-20.1416015625
-24.71923828125
-24.71923828125
-14.6484375
-21.97265625
-22.88818359375
-31.1279296875
-24.71923828125
-23.8037109375
-26.55029296875
-25.634765625
-21.05712890625
-20.1416015625
-41.19873046875
-37.53662109375
-29.296875
-22.88818359375
-27.4658203125
-28.38134765625
-41.19873046875
-31.1279296875
-43.9453125
-32.958984375
-29.296875
-34.7900390625
-32.04345703125
-19.22607421875
-21.05712890625
-23.8037109375
-31.1279296875
-37.53662109375
-28.38134765625
-26.55029296875
-25.634765625
-19.22607421875
-21.05712890625
-33.87451171875
-25.634765625
-24.71923828125
-18.310546875
-8.23974609375
-17.39501953125
-16.4794921875
-25.634765625
-20.1416015625
-21.97265625
-24.71923828125
-27.4658203125
-20.1416015625
-12.8173828125
-11.90185546875
-9.1552734375
-2.74658203125
-12.8173828125
-19.22607421875
-19.22607421875
-17.39501953125
-24.71923828125
-18.310546875
-22.88818359375
-31.1279296875
-24.71923828125
-15.56396484375
-19.22607421875
-26.55029296875
-10.986328125
-13.73291015625
-21.97265625
-17.39501953125
-10.986328125
-12.8173828125
-15.56396484375
-18.310546875
-21.97265625
-32.958984375
-26.55029296875
-41.19873046875
-32.958984375
-18.310546875
-32.04345703125
-43.02978515625
-35.70556640625
-28.38134765625
-26.55029296875
-31.1279296875
-32.958984375
-28.38134765625
-21.05712890625
-34.7900390625
-32.04345703125
-55.84716796875
-51.26953125
-43.02978515625
-45.7763671875
-55.84716796875
-41.19873046875
-28.38134765625
-32.04345703125
-43.9453125
-32.958984375
-32.958984375
-43.9453125
-44.86083984375
-57.67822265625
-59.50927734375
-48.52294921875
-49.4384765625
-48.52294921875
-52.18505859375
-40.283203125
-32.04345703125
-12.8173828125
-11.90185546875
-10.07080078125
-2.74658203125
-15.56396484375
-27.4658203125
-6.40869140625
-7.32421875
-2.74658203125
9.1552734375
23.8037109375
23.8037109375
29.296875
34.7900390625
42.1142578125
31.1279296875
65.00244140625
58.59375
43.02978515625
42.1142578125
50.35400390625
40.283203125
44.86083984375
47.607421875
30.21240234375
20.1416015625
16.4794921875
9.1552734375
-11.90185546875
-24.71923828125
-35.70556640625
-43.02978515625
-39.36767578125
-47.607421875
-55.84716796875
-57.67822265625
-54.931640625
-51.26953125
-65.91796875
-59.50927734375
-66.83349609375
-72.32666015625
-67.7490234375
-56.7626953125
-72.32666015625
-74.15771484375
-85.14404296875
-91.552734375
-88.80615234375
-87.890625
-87.890625
-83.31298828125
-93.3837890625
-83.31298828125
-73.2421875
-86.0595703125
-97.0458984375
-96.13037109375
-93.3837890625
-86.0595703125
-82.3974609375
-72.32666015625
-75.0732421875
-79.65087890625
-74.15771484375
-74.15771484375
-73.2421875
-61.34033203125
-39.36767578125
-4.57763671875
15.56396484375
53.1005859375
108.0322265625
171.20361328125
245.361328125
326.84326171875
411.07177734375
485.2294921875
517.27294921875
536.4990234375
494.384765625
303.955078125
167.54150390625
40.283203125
-59.50927734375
-170.2880859375
-244.44580078125
-311.279296875
-323.18115234375
-280.1513671875
-246.27685546875
-211.48681640625
-172.119140625
-140.07568359375
-99.79248046875
-78.7353515625
-66.83349609375
-68.66455078125
-42.1142578125
-35.70556640625
-51.26953125
-44.86083984375
-46.69189453125
-52.18505859375
-45.7763671875
-53.1005859375
-57.67822265625
-53.1005859375
-62.255859375
-45.7763671875
-43.9453125
-49.4384765625
-43.02978515625
-51.26953125
-57.67822265625
-53.1005859375
-43.02978515625
-43.9453125
-51.26953125
-60.4248046875
-33.87451171875
-37.53662109375
-40.283203125
-38.4521484375
-39.36767578125
-32.04345703125
-49.4384765625
-45.7763671875
-35.70556640625
-45.7763671875
-41.19873046875
-42.1142578125
-40.283203125
-36.62109375
-34.7900390625
-28.38134765625
-32.04345703125
-26.55029296875
-19.22607421875
-35.70556640625
-31.1279296875
-29.296875
-16.4794921875
-10.07080078125
-9.1552734375
-15.56396484375
-1.8310546875
-17.39501953125
-12.8173828125
-6.40869140625
-17.39501953125
-14.6484375
-17.39501953125
-2.74658203125
6.40869140625
15.56396484375
14.6484375
10.07080078125
14.6484375
19.22607421875
8.23974609375
22.88818359375
29.296875
23.8037109375
22.88818359375
32.958984375
41.19873046875
43.9453125
45.7763671875
43.9453125
43.9453125
47.607421875
54.931640625
65.91796875
83.31298828125
85.14404296875
67.7490234375
73.2421875
86.97509765625
80.56640625
91.552734375
94.29931640625
98.876953125
97.0458984375
106.201171875
100.7080078125
108.94775390625
126.3427734375
131.8359375
121.76513671875
122.6806640625
140.07568359375
143.73779296875
128.173828125
128.173828125
147.39990234375
152.89306640625
130.92041015625
141.90673828125
150.146484375
153.80859375
159.3017578125
155.6396484375
156.55517578125
169.37255859375
172.119140625
166.6259765625
164.794921875
163.87939453125
165.71044921875
159.3017578125
145.56884765625
140.07568359375
129.08935546875
118.10302734375
110.77880859375
100.7080078125
89.7216796875
84.228515625
59.50927734375
67.7490234375
62.255859375
35.70556640625
41.19873046875
29.296875
15.56396484375
2.74658203125
-3.662109375
-15.56396484375
-14.6484375
-26.55029296875
-32.958984375
-45.7763671875
-43.02978515625
-43.02978515625
-37.53662109375
-41.19873046875
-38.4521484375
-50.35400390625
-56.7626953125
-65.91796875
-68.66455078125
-74.15771484375
-62.255859375
-58.59375
-69.580078125
-75.98876953125
-61.34033203125
-73.2421875
-66.83349609375
-68.66455078125
-56.7626953125
-66.83349609375
-74.15771484375
-67.7490234375
-67.7490234375
-71.4111328125
-62.255859375
-60.4248046875
-63.17138671875
-67.7490234375
-70.49560546875
-62.255859375
-64.0869140625
-67.7490234375
-58.59375
-58.59375
-74.15771484375
-68.66455078125
-51.26953125
-47.607421875
-54.931640625
-49.4384765625
-51.26953125
-54.931640625
-47.607421875
-49.4384765625
-54.01611328125
-50.35400390625
-48.52294921875
-37.53662109375
-40.283203125
-37.53662109375
-44.86083984375
-44.86083984375
-44.86083984375
-39.36767578125
-39.36767578125
-56.7626953125
-32.958984375
-26.55029296875
-32.04345703125
-43.02978515625
-38.4521484375
-21.97265625
-26.55029296875
-34.7900390625
-35.70556640625
-41.19873046875
-41.19873046875
-33.87451171875
-41.19873046875
-42.1142578125
-38.4521484375
-50.35400390625
-43.9453125
-50.35400390625
-46.69189453125
-47.607421875
-39.36767578125
-49.4384765625
-51.26953125
-63.17138671875
-59.50927734375
-43.9453125
-49.4384765625
-63.17138671875
-57.67822265625
-61.34033203125
-54.01611328125
-62.255859375
-49.4384765625
-40.283203125
-47.607421875
-56.7626953125
-45.7763671875
-39.36767578125
-50.35400390625
-60.4248046875
-42.1142578125
-61.34033203125
-67.7490234375
-45.7763671875
-57.67822265625
-49.4384765625
-59.50927734375
-73.2421875
-80.56640625
-67.7490234375
-61.34033203125
-80.56640625
-67.7490234375
-54.931640625
-54.01611328125
-46.69189453125
-40.283203125
-46.69189453125
-52.18505859375
-54.01611328125
-54.01611328125
-53.1005859375
-41.19873046875
-25.634765625
-19.22607421875
-13.73291015625
-13.73291015625
-12.8173828125
-26.55029296875
-23.8037109375
-29.296875
-38.4521484375
-11.90185546875
3.662109375
5.4931640625
11.90185546875
15.56396484375
15.56396484375
19.22607421875
35.70556640625
59.50927734375
54.01611328125
39.36767578125
33.87451171875
25.634765625
43.02978515625
44.86083984375
23.8037109375
19.22607421875
2.74658203125
-1.8310546875
-13.73291015625
-39.36767578125
-45.7763671875
-46.69189453125
-54.01611328125
-58.59375
-67.7490234375
-54.01611328125
-61.34033203125
-67.7490234375
-56.7626953125
-63.17138671875
-61.34033203125
-62.255859375
-70.49560546875
-65.91796875
-78.7353515625
-75.98876953125
-85.14404296875
-92.46826171875
-88.80615234375
-79.65087890625
-86.97509765625
-81.48193359375
-79.65087890625
-88.80615234375
-80.56640625
-76.904296875
-75.0732421875
-86.97509765625
-103.45458984375
-101.62353515625
-92.46826171875
-92.46826171875
-88.80615234375
-104.3701171875
-113.525390625
-98.876953125
-83.31298828125
-81.48193359375
-67.7490234375
-44.86083984375
-31.1279296875
-5.4931640625
48.52294921875
101.62353515625
165.71044921875
223.388671875
310.36376953125
399.169921875
469.66552734375
502.62451171875
502.62451171875
433.9599609375
272.8271484375
159.3017578125
25.634765625
-79.65087890625
-171.20361328125
-256.34765625
-297.54638671875
-314.02587890625
-300.29296875
-254.5166015625
-206.9091796875
-169.37255859375
-138.24462890625
-103.45458984375
-71.4111328125
-54.931640625
-54.931640625
-43.02978515625
-43.9453125
-53.1005859375
-49.4384765625
-56.7626953125
-65.91796875
-55.84716796875
-58.59375
-54.931640625
-62.255859375
-63.17138671875
-60.4248046875
-49.4384765625
-54.01611328125
-67.7490234375
-73.2421875
-69.580078125
-67.7490234375
-69.580078125
-60.4248046875
-61.34033203125
-47.607421875
-39.36767578125
-46.69189453125
-42.1142578125
-52.18505859375
-45.7763671875
-49.4384765625
-49.4384765625
-43.9453125
-50.35400390625
-39.36767578125
-42.1142578125
-38.4521484375
-49.4384765625
-42.1142578125
-34.7900390625
-39.36767578125
-43.9453125
-39.36767578125
-28.38134765625
-25.634765625
-19.22607421875
-12.8173828125
-16.4794921875
-21.05712890625
-27.4658203125
-36.62109375
-14.6484375
-26.55029296875
-21.05712890625
-32.04345703125
-20.1416015625
-7.32421875
0.91552734375
0.91552734375
-16.4794921875
-22.88818359375
-5.4931640625
-4.57763671875
0
5.4931640625
13.73291015625
10.07080078125
7.32421875
4.57763671875
11.90185546875
27.4658203125
33.87451171875
38.4521484375
44.86083984375
32.958984375
30.21240234375
33.87451171875
43.9453125
54.931640625
52.18505859375
54.01611328125
67.7490234375
64.0869140625
65.91796875
85.14404296875
84.228515625
76.904296875
92.46826171875
91.552734375
78.7353515625
95.21484375
109.86328125
110.77880859375
105.28564453125
126.3427734375
126.3427734375
134.58251953125
130.92041015625
131.8359375
130.92041015625
146.484375
151.9775390625
140.9912109375
153.80859375
162.04833984375
159.3017578125
152.89306640625
154.72412109375
169.37255859375
163.87939453125
167.54150390625
144.6533203125
150.146484375
138.24462890625
151.06201171875
141.90673828125
142.822265625
140.07568359375
117.1875
108.0322265625
79.65087890625
83.31298828125
78.7353515625
64.0869140625
50.35400390625
47.607421875
37.53662109375
35.70556640625
15.56396484375
8.23974609375
0.91552734375
-5.4931640625
-11.90185546875
-15.56396484375
-25.634765625
-35.70556640625
-43.02978515625
-45.7763671875
-46.69189453125
-51.26953125
-62.255859375
-56.7626953125
-61.34033203125
-65.91796875
-65.91796875
-72.32666015625
-69.580078125
-75.0732421875
-71.4111328125
-77.81982421875
-65.00244140625
-59.50927734375
-77.81982421875
-76.904296875
-68.66455078125
-73.2421875
-89.7216796875
-91.552734375
-85.14404296875
-98.876953125
-84.228515625
-96.13037109375
-88.80615234375
-75.0732421875
-85.14404296875
-86.97509765625
-69.580078125
-69.580078125
-73.2421875
-77.81982421875
-83.31298828125
-75.0732421875
-73.2421875
-73.2421875
-74.15771484375
-63.17138671875
-73.2421875
-83.31298828125
-83.31298828125
-74.15771484375
-73.2421875
-75.0732421875
-65.91796875
-63.17138671875
-66.83349609375
-67.7490234375
-61.34033203125
-60.4248046875
-49.4384765625
-55.84716796875
-61.34033203125
-65.00244140625
-66.83349609375
-55.84716796875
-59.50927734375
-62.255859375
-58.59375
-53.1005859375
-50.35400390625
-63.17138671875
-71.4111328125
-55.84716796875
-55.84716796875
-65.00244140625
-66.83349609375
-51.26953125
-44.86083984375
-43.02978515625
-45.7763671875
-56.7626953125
-59.50927734375
-66.83349609375
-59.50927734375
-59.50927734375
-71.4111328125
-64.0869140625
-78.7353515625
-54.01611328125
-54.01611328125
-56.7626953125
-57.67822265625
-51.26953125
-47.607421875
-54.01611328125
-56.7626953125
-67.7490234375
-54.01611328125
-55.84716796875
-73.2421875
-67.7490234375
-70.49560546875
-61.34033203125
-52.18505859375
-61.34033203125
-70.49560546875
-66.83349609375
-65.91796875
-64.0869140625
-65.91796875
-76.904296875
-73.2421875
-75.98876953125
-79.65087890625
-85.14404296875
-86.0595703125
-75.98876953125
-66.83349609375
-76.904296875
-97.96142578125
-91.552734375
-76.904296875
-86.0595703125
-85.14404296875
-89.7216796875
-75.98876953125
-78.7353515625
-92.46826171875
-97.0458984375
-87.890625
-74.15771484375
-66.83349609375
-65.91796875
-74.15771484375
-76.904296875
-57.67822265625
-54.931640625
-46.69189453125
-39.36767578125
-23.8037109375
-35.70556640625
-37.53662109375
-45.7763671875
-31.1279296875
-26.55029296875
-13.73291015625
-4.57763671875
7.32421875
18.310546875
9.1552734375
17.39501953125
16.4794921875
20.1416015625
22.88818359375
23.8037109375
9.1552734375
29.296875
45.7763671875
23.8037109375
10.07080078125
14.6484375
11.90185546875
-9.1552734375
-21.97265625
-25.634765625
-43.9453125
-49.4384765625
-52.18505859375
-54.931640625
-57.67822265625
-53.1005859375
-57.67822265625
-65.00244140625
-72.32666015625
-83.31298828125
-76.904296875
-91.552734375
-78.7353515625
-87.890625
-87.890625
-81.48193359375
-79.65087890625
-75.98876953125
-86.97509765625
-88.80615234375
-88.80615234375
-97.0458984375
-86.0595703125
-86.97509765625
-95.21484375
-100.7080078125
-98.876953125
-90.63720703125
-96.13037109375
-97.0458984375
-107.11669921875
-100.7080078125
-97.0458984375
-85.14404296875
-105.28564453125
-112.60986328125
-101.62353515625
-97.0458984375
-90.63720703125
-83.31298828125
-75.98876953125
-48.52294921875
-27.4658203125
33.87451171875
78.7353515625
136.41357421875
207.82470703125
291.1376953125
375.3662109375
449.52392578125
493.46923828125
509.94873046875
455.01708984375
295.71533203125
165.71044921875
36.62109375
-57.67822265625
-158.38623046875
-249.93896484375
-296.630859375
-304.87060546875
-303.03955078125
-272.8271484375
-205.078125
-185.85205078125
-151.06201171875
-119.93408203125
-102.5390625
-55.84716796875
-51.26953125
-58.59375
-58.59375
-58.59375
-72.32666015625
-68.66455078125
-58.59375
-61.34033203125
-57.67822265625
-61.34033203125
-76.904296875
-65.91796875
-62.255859375
-57.67822265625
-58.59375
-62.255859375
-57.67822265625
-62.255859375
-67.7490234375
-57.67822265625
-63.17138671875
-72.32666015625
-61.34033203125
-61.34033203125
-46.69189453125
-57.67822265625
-59.50927734375
-62.255859375
-54.931640625
-51.26953125
-54.931640625
-57.67822265625
-50.35400390625
-45.7763671875
-39.36767578125
-50.35400390625
-50.35400390625
-44.86083984375
-41.19873046875
-48.52294921875
-46.69189453125
-41.19873046875
-37.53662109375
-32.04345703125
-33.87451171875
-34.7900390625
-26.55029296875
-34.7900390625
-28.38134765625
-21.97265625
-32.04345703125
-33.87451171875
-43.9453125
-37.53662109375
-30.21240234375
-18.310546875
-5.4931640625
-21.05712890625
-15.56396484375
-7.32421875
2.74658203125
8.23974609375
10.07080078125
9.1552734375
4.57763671875
12.8173828125
15.56396484375
21.05712890625
20.1416015625
24.71923828125
18.310546875
11.90185546875
19.22607421875
25.634765625
39.36767578125
45.7763671875
37.53662109375
42.1142578125
63.17138671875
61.34033203125
68.66455078125
61.34033203125
71.4111328125
70.49560546875
67.7490234375
88.80615234375
95.21484375
87.890625
104.3701171875
114.44091796875
104.3701171875
96.13037109375
108.94775390625
113.525390625
129.08935546875
130.92041015625
123.59619140625
141.90673828125
143.73779296875
140.9912109375
140.9912109375
140.9912109375
148.3154296875
160.21728515625
171.20361328125
175.78125
172.119140625
183.10546875
179.443359375
157.470703125
162.9638671875
157.470703125
151.9775390625
148.3154296875
143.73779296875
145.56884765625
125.42724609375
114.44091796875
109.86328125
103.45458984375
82.3974609375
65.00244140625
62.255859375
56.7626953125
32.958984375
26.55029296875
33.87451171875
13.73291015625
-17.39501953125
-11.90185546875
-6.40869140625
-15.56396484375
-25.634765625
-32.04345703125
-40.283203125
-43.02978515625
-53.1005859375
-40.283203125
-42.1142578125
-55.84716796875
-65.00244140625
-60.4248046875
-55.84716796875
-65.00244140625
-62.255859375
-65.00244140625
-71.4111328125
-77.81982421875
-76.904296875
-56.7626953125
-66.83349609375
-62.255859375
-62.255859375
-66.83349609375
-67.7490234375
-70.49560546875
-67.7490234375
-69.580078125
-75.98876953125
-63.17138671875
-65.91796875
-82.3974609375
-72.32666015625
-64.0869140625
-69.580078125
-83.31298828125
-69.580078125
-58.59375
-65.00244140625
-57.67822265625
-66.83349609375
-68.66455078125
-59.50927734375
-63.17138671875
-47.607421875
-60.4248046875
-52.18505859375
-58.59375
-60.4248046875
-48.52294921875
-62.255859375
-54.931640625
-55.84716796875
-43.9453125
-55.84716796875
-61.34033203125
-66.83349609375
-58.59375
-50.35400390625
-48.52294921875
-54.931640625
-40.283203125
-32.958984375
-41.19873046875
-48.52294921875
-44.86083984375
-32.958984375
-37.53662109375
-37.53662109375
-56.7626953125
-47.607421875
-30.21240234375
-36.62109375
-20.1416015625
-43.9453125
-56.7626953125
-43.02978515625
-43.9453125
-40.283203125
-38.4521484375
-39.36767578125
-33.87451171875
-29.296875
-28.38134765625
-33.87451171875
-36.62109375
-40.283203125
-33.87451171875
-38.4521484375
-31.1279296875
-32.958984375
-38.4521484375
-41.19873046875
-33.87451171875
-37.53662109375
-38.4521484375
-53.1005859375
-43.02978515625
-32.958984375
-26.55029296875
-38.4521484375
-50.35400390625
-43.9453125
-57.67822265625
-54.01611328125
-51.26953125
-48.52294921875
-41.19873046875
-42.1142578125
-47.607421875
-52.18505859375
-57.67822265625
-43.9453125
-44.86083984375
-48.52294921875
-44.86083984375
-65.00244140625
-53.1005859375
-61.34033203125
-67.7490234375
-74.15771484375
-68.66455078125
-62.255859375
-44.86083984375
-45.7763671875
-46.69189453125
-43.02978515625
-56.7626953125
-63.17138671875
-67.7490234375
-77.81982421875
-68.66455078125
-70.49560546875
-65.91796875
-70.49560546875
-75.0732421875
-79.65087890625
-67.7490234375
-66.83349609375
-70.49560546875
-74.15771484375
-64.0869140625
-58.59375
-56.7626953125
-47.607421875
-39.36767578125
-32.04345703125
-33.87451171875
-37.53662109375
-32.04345703125
-36.62109375
-16.4794921875
-10.986328125
-1.8310546875
0
9.1552734375
11.90185546875
15.56396484375
26.55029296875
24.71923828125
22.88818359375
21.05712890625
26.55029296875
34.7900390625
43.02978515625
25.634765625
34.7900390625
32.958984375
28.38134765625
26.55029296875
19.22607421875
-2.74658203125
-13.73291015625
-16.4794921875
-27.4658203125
-51.26953125
-47.607421875
-55.84716796875
-60.4248046875
-47.607421875
-54.01611328125
-59.50927734375
-51.26953125
-74.15771484375
-83.31298828125
-86.0595703125
-99.79248046875
-112.60986328125
-99.79248046875
-95.21484375
-96.13037109375
-92.46826171875
-86.0595703125
-83.31298828125
-78.7353515625
-94.29931640625
-105.28564453125
-94.29931640625
-86.97509765625
-79.65087890625
-92.46826171875
-96.13037109375
-73.2421875
-76.904296875
-84.228515625
-88.80615234375
-84.228515625
-84.228515625
-94.29931640625
-97.0458984375
-86.97509765625
-86.0595703125
-75.98876953125
-57.67822265625
-25.634765625
-12.8173828125
26.55029296875
79.65087890625
139.16015625
193.17626953125
262.75634765625
326.84326171875
418.39599609375
482.48291015625
507.2021484375
506.28662109375
364.3798828125
214.2333984375
89.7216796875
-4.57763671875
-87.890625
-185.85205078125
-265.5029296875
-289.306640625
-282.89794921875
-263.671875
-231.62841796875
-184.02099609375
-147.39990234375
-112.60986328125
-92.46826171875
-70.49560546875
-65.91796875
-75.0732421875
-61.34033203125
-53.1005859375
-65.91796875
-67.7490234375
-64.0869140625
-58.59375
-59.50927734375
-61.34033203125
-65.00244140625
-67.7490234375
-60.4248046875
-61.34033203125
-63.17138671875
-72.32666015625
-61.34033203125
-50.35400390625
-63.17138671875
-72.32666015625
-58.59375
-54.01611328125
-43.02978515625
-43.9453125
-50.35400390625
-53.1005859375
-44.86083984375
-33.87451171875
-44.86083984375
-53.1005859375
-47.607421875
-32.04345703125
-31.1279296875
-45.7763671875
-55.84716796875
-43.02978515625
-48.52294921875
-48.52294921875
-43.9453125
-41.19873046875
-50.35400390625
-36.62109375
-16.4794921875
-17.39501953125
-4.57763671875
-12.8173828125
-21.97265625
-28.38134765625
-35.70556640625
-43.02978515625
-41.19873046875
-37.53662109375
-31.1279296875
-32.958984375
-19.22607421875
-20.1416015625
-14.6484375
-2.74658203125
6.40869140625
-20.1416015625
-4.57763671875
-6.40869140625
1.8310546875
10.986328125
18.310546875
10.07080078125
15.56396484375
26.55029296875
10.07080078125
25.634765625
44.86083984375
49.4384765625
46.69189453125
47.607421875
54.931640625
61.34033203125
63.17138671875
61.34033203125
56.7626953125
56.7626953125
71.4111328125
77.81982421875
73.2421875
81.48193359375
84.228515625
82.3974609375
106.201171875
108.94775390625
99.79248046875
105.28564453125
106.201171875
107.11669921875
124.51171875
138.24462890625
131.8359375
130.92041015625
140.9912109375
140.9912109375
160.21728515625
160.21728515625
169.37255859375
168.45703125
163.87939453125
173.03466796875
171.20361328125
166.6259765625
174.86572265625
180.35888671875
180.35888671875
179.443359375
182.18994140625
170.2880859375
151.9775390625
162.04833984375
150.146484375
145.56884765625
138.24462890625
121.76513671875
110.77880859375
106.201171875
102.5390625
99.79248046875
86.0595703125
63.17138671875
54.931640625
54.931640625
42.1142578125
46.69189453125
32.04345703125
19.22607421875
2.74658203125
-12.8173828125
-21.97265625
-19.22607421875
-19.22607421875
-24.71923828125
-27.4658203125
-52.18505859375
-54.931640625
-52.18505859375
-54.931640625
-49.4384765625
-55.84716796875
-56.7626953125
-54.01611328125
-63.17138671875
-66.83349609375
-68.66455078125
-74.15771484375
-73.2421875
-77.81982421875
-65.91796875
-59.50927734375
-64.0869140625
-70.49560546875
-75.0732421875
-75.98876953125
-84.228515625
-75.98876953125
-81.48193359375
-76.904296875
-68.66455078125
-77.81982421875
-78.7353515625
-74.15771484375
-68.66455078125
-75.98876953125
-72.32666015625
-81.48193359375
-82.3974609375
-73.2421875
-54.931640625
-57.67822265625
-79.65087890625
-75.98876953125
-70.49560546875
-75.98876953125
-74.15771484375
-56.7626953125
-62.255859375
-65.00244140625
-68.66455078125
-67.7490234375
-49.4384765625
-52.18505859375
-57.67822265625
-55.84716796875
-77.81982421875
-86.97509765625
-54.01611328125
-52.18505859375
-54.931640625
-52.18505859375
-57.67822265625
-58.59375
-61.34033203125
-52.18505859375
-42.1142578125
-39.36767578125
-54.931640625
-49.4384765625
-38.4521484375
-54.01611328125
-59.50927734375
-57.67822265625
-58.59375
-51.26953125
-52.18505859375
-64.0869140625
-52.18505859375
-41.19873046875
-46.69189453125
-52.18505859375
-48.52294921875
-38.4521484375
-51.26953125
-51.26953125
-49.4384765625
-48.52294921875
-36.62109375
-43.9453125
-47.607421875
-30.21240234375
-25.634765625
-36.62109375
-49.4384765625
-40.283203125
-48.52294921875
-59.50927734375
-55.84716796875
-54.931640625
-56.7626953125
-54.931640625
-50.35400390625
-38.4521484375
-56.7626953125
-61.34033203125
-65.00244140625
-58.59375
-63.17138671875
-58.59375
-54.01611328125
-69.580078125
-59.50927734375
-39.36767578125
-50.35400390625
-48.52294921875
-48.52294921875
-53.1005859375
-65.00244140625
-67.7490234375
-58.59375
-58.59375
-70.49560546875
-56.7626953125
-60.4248046875
-68.66455078125
-70.49560546875
-69.580078125
-66.83349609375
-66.83349609375
-59.50927734375
-45.7763671875
-53.1005859375
-57.67822265625
-55.84716796875
-57.67822265625
-65.91796875
-81.48193359375
-86.0595703125
-73.2421875
-54.01611328125
-67.7490234375
-72.32666015625
-77.81982421875
-78.7353515625
-65.00244140625
-51.26953125
-49.4384765625
-55.84716796875
-52.18505859375
-60.4248046875
-74.15771484375
-66.83349609375
-75.0732421875
-71.4111328125
-59.50927734375
-61.34033203125
-61.34033203125
-44.86083984375
-33.87451171875
-32.958984375
-38.4521484375
-30.21240234375
-30.21240234375
-21.97265625
-11.90185546875
-11.90185546875
-22.88818359375
-19.22607421875
-8.23974609375
21.97265625
22.88818359375
21.97265625
8.23974609375
9.1552734375
17.39501953125
10.986328125
10.986328125
34.7900390625
28.38134765625
16.4794921875
32.958984375
36.62109375
20.1416015625
14.6484375
18.310546875
15.56396484375
0.91552734375
-3.662109375
-30.21240234375
-37.53662109375
-43.9453125
-72.32666015625
-47.607421875
-50.35400390625
-58.59375
-57.67822265625
-65.91796875
-80.56640625
-60.4248046875
-68.66455078125
-80.56640625
-70.49560546875
-80.56640625
-83.31298828125
-78.7353515625
-41.19873046875
-54.01611328125
-69.580078125
-79.65087890625
-78.7353515625
-87.890625
-80.56640625
-74.15771484375
-61.34033203125
-71.4111328125
-83.31298828125
-89.7216796875
-84.228515625
-78.7353515625
-90.63720703125
-93.3837890625
-70.49560546875
-80.56640625
-86.0595703125
-79.65087890625
-71.4111328125
-74.15771484375
-80.56640625
-54.931640625
-30.21240234375
0
51.26953125
97.96142578125
148.3154296875
212.40234375
285.64453125
365.29541015625
450.439453125
499.8779296875
536.4990234375
470.5810546875
303.03955078125
175.78125
38.4521484375
-51.26953125
-150.146484375
-190.4296875
-266.41845703125
-297.54638671875
-281.06689453125
-251.77001953125
-182.18994140625
-157.470703125
-139.16015625
-111.6943359375
-75.98876953125
-56.7626953125
-50.35400390625
-39.36767578125
-41.19873046875
-34.7900390625
-48.52294921875
-65.91796875
-52.18505859375
-48.52294921875
-46.69189453125
-57.67822265625
-62.255859375
-72.32666015625
-58.59375
-36.62109375
-54.01611328125
-50.35400390625
-45.7763671875
-37.53662109375
-43.02978515625
-43.9453125
-41.19873046875
-57.67822265625
-58.59375
-40.283203125
-40.283203125
-56.7626953125
-51.26953125
-46.69189453125
-40.283203125
-36.62109375
-41.19873046875
-30.21240234375
-46.69189453125
-43.02978515625
-52.18505859375
-67.7490234375
-62.255859375
-51.26953125
-27.4658203125
-25.634765625
-43.02978515625
-38.4521484375
-25.634765625
-10.07080078125
-30.21240234375
-30.21240234375
-22.88818359375
-32.958984375
-25.634765625
-27.4658203125
-36.62109375
-22.88818359375
-19.22607421875
-8.23974609375
-9.1552734375
-17.39501953125
-8.23974609375
6.40869140625
10.07080078125
10.986328125
19.22607421875
10.986328125
-1.8310546875
20.1416015625
21.05712890625
21.05712890625
24.71923828125
36.62109375
24.71923828125
25.634765625
28.38134765625
27.4658203125
27.4658203125
32.04345703125
44.86083984375
57.67822265625
58.59375
58.59375
53.1005859375
54.01611328125
55.84716796875
75.0732421875
73.2421875
81.48193359375
86.97509765625
94.29931640625
96.13037109375
105.28564453125
114.44091796875
112.60986328125
108.94775390625
117.1875
123.59619140625
130.92041015625
129.08935546875
147.39990234375
139.16015625
150.146484375
160.21728515625
162.04833984375
164.794921875
151.9775390625
165.71044921875
173.03466796875
171.20361328125
167.54150390625
184.02099609375
186.767578125
176.69677734375
177.6123046875
179.443359375
172.119140625
190.4296875
189.51416015625
162.04833984375
140.9912109375
122.6806640625
141.90673828125
141.90673828125
130.0048828125
115.3564453125
96.13037109375
79.65087890625
77.81982421875
79.65087890625
61.34033203125
45.7763671875
41.19873046875
19.22607421875
0
-6.40869140625
-17.39501953125
-24.71923828125
-10.986328125
-19.22607421875
-34.7900390625
-45.7763671875
-45.7763671875
-42.1142578125
-42.1142578125
-44.86083984375
-40.283203125
-43.9453125
-47.607421875
-61.34033203125
-75.98876953125
-68.66455078125
-71.4111328125
-63.17138671875
-60.4248046875
-58.59375
-65.91796875
-65.00244140625
-76.904296875
-59.50927734375
-65.91796875
-82.3974609375
-73.2421875
-66.83349609375
-74.15771484375
-70.49560546875
-75.98876953125
-63.17138671875
-68.66455078125
-63.17138671875
-66.83349609375
-72.32666015625
-82.3974609375
-83.31298828125
-70.49560546875
-61.34033203125
-67.7490234375
-73.2421875
-86.0595703125
-69.580078125
-75.98876953125
-65.00244140625
-65.91796875
-60.4248046875
-66.83349609375
-67.7490234375
-59.50927734375
-64.0869140625
-70.49560546875
-65.00244140625
-50.35400390625
-71.4111328125
-66.83349609375
-61.34033203125
-76.904296875
-69.580078125
-50.35400390625
-50.35400390625
-44.86083984375
-44.86083984375
-47.607421875
-48.52294921875
-52.18505859375
-65.00244140625
-62.255859375
-70.49560546875
-71.4111328125
-75.98876953125
-74.15771484375
-55.84716796875
-58.59375
-53.1005859375
-45.7763671875
-54.01611328125
-54.931640625
-52.18505859375
-34.7900390625
-52.18505859375
-48.52294921875
-50.35400390625
-40.283203125
-44.86083984375
-64.0869140625
-69.580078125
-62.255859375
-53.1005859375
-52.18505859375
-50.35400390625
-43.9453125
-58.59375
-50.35400390625
-48.52294921875
-50.35400390625
-51.26953125
-54.01611328125
-64.0869140625
-59.50927734375
-57.67822265625
-60.4248046875
-62.255859375
-54.931640625
-53.1005859375
-51.26953125
-61.34033203125
-72.32666015625
-59.50927734375
-53.1005859375
-61.34033203125
-75.0732421875
-74.15771484375
-86.97509765625
-75.98876953125
-61.34033203125
-45.7763671875
-63.17138671875
-62.255859375
-71.4111328125
-73.2421875
-74.15771484375
-62.255859375
-66.83349609375
-86.0595703125
-80.56640625
-65.00244140625
-81.48193359375
-83.31298828125
-57.67822265625
-53.1005859375
-71.4111328125
-70.49560546875
-68.66455078125
-71.4111328125
-77.81982421875
-71.4111328125
-81.48193359375
-87.890625
-69.580078125
-77.81982421875
-91.552734375
-90.63720703125
-89.7216796875
-73.2421875
-85.14404296875
-100.7080078125
-97.0458984375
-85.14404296875
-79.65087890625
-62.255859375
-56.7626953125
-83.31298828125
-79.65087890625
-75.98876953125
-73.2421875
-81.48193359375
-75.98876953125
-77.81982421875
-69.580078125
-66.83349609375
-75.98876953125
-84.228515625
-71.4111328125
-86.0595703125
-86.0595703125
-86.97509765625
-90.63720703125
-79.65087890625
-82.3974609375
-90.63720703125
-75.0732421875
-74.15771484375
-86.97509765625
-88.80615234375
-96.13037109375
-80.56640625
-55.84716796875
-62.255859375
-32.958984375
-19.22607421875
-37.53662109375
-33.87451171875
-36.62109375
-43.02978515625
-45.7763671875
-40.283203125
-37.53662109375
-19.22607421875
-10.07080078125
2.74658203125
2.74658203125
11.90185546875
4.57763671875
7.32421875
9.1552734375
26.55029296875
21.05712890625
8.23974609375
21.97265625
10.07080078125
9.1552734375
-10.07080078125
11.90185546875
0
-15.56396484375
-24.71923828125
-48.52294921875
-52.18505859375
-62.255859375
-58.59375
-54.931640625
-65.91796875
-80.56640625
-77.81982421875
-79.65087890625
-88.80615234375
-93.3837890625
-85.14404296875
-84.228515625
-83.31298828125
-91.552734375
-90.63720703125
-98.876953125
-100.7080078125
-82.3974609375
-102.5390625
-111.6943359375
-116.27197265625
-101.62353515625
-89.7216796875
-88.80615234375
-87.890625
-85.14404296875
-88.80615234375
-72.32666015625
-86.0595703125
-101.62353515625
-107.11669921875
-98.876953125
-99.79248046875
-108.94775390625
-112.60986328125
-87.890625
-86.0595703125
-88.80615234375
-65.00244140625
-47.607421875
-26.55029296875
12.8173828125
72.32666015625
121.76513671875
180.35888671875
270.99609375
352.47802734375
442.19970703125
504.45556640625
531.005859375
522.76611328125
393.6767578125
231.62841796875
114.44091796875
-18.310546875
-104.3701171875
-182.18994140625
-272.8271484375
-312.19482421875
-304.87060546875
-279.23583984375
-236.2060546875
-202.33154296875
-165.71044921875
-130.92041015625
-96.13037109375
-79.65087890625
-60.4248046875
-54.931640625
-49.4384765625
-43.02978515625
-51.26953125
-54.931640625
-61.34033203125
-76.904296875
-66.83349609375
-56.7626953125
-61.34033203125
-54.01611328125
-57.67822265625
-69.580078125
-66.83349609375
-58.59375
-65.00244140625
-62.255859375
-63.17138671875
-58.59375
-54.931640625
-68.66455078125
-69.580078125
-55.84716796875
-51.26953125
-52.18505859375
-59.50927734375
-54.01611328125
-67.7490234375
-65.91796875
-45.7763671875
-41.19873046875
-43.02978515625
-52.18505859375
-43.9453125
-42.1142578125
-55.84716796875
-44.86083984375
-37.53662109375
-37.53662109375
-39.36767578125
-55.84716796875
-41.19873046875
-23.8037109375
-27.4658203125
-31.1279296875
-42.1142578125
-31.1279296875
-30.21240234375
-17.39501953125
-21.97265625
-32.04345703125
-27.4658203125
-15.56396484375
-16.4794921875
-4.57763671875
-14.6484375
-7.32421875
-11.90185546875
-7.32421875
-9.1552734375
-0.91552734375
2.74658203125
3.662109375
7.32421875
0
9.1552734375
5.4931640625
17.39501953125
22.88818359375
15.56396484375
15.56396484375
26.55029296875
24.71923828125
21.97265625
36.62109375
32.04345703125
56.7626953125
49.4384765625
49.4384765625
68.66455078125
71.4111328125
73.2421875
89.7216796875
84.228515625
92.46826171875
102.5390625
106.201171875
89.7216796875
94.29931640625
108.0322265625
130.0048828125
122.6806640625
128.173828125
127.25830078125
139.16015625
140.07568359375
143.73779296875
151.06201171875
153.80859375
159.3017578125
154.72412109375
153.80859375
168.45703125
172.119140625
179.443359375
184.9365234375
178.52783203125
187.68310546875
204.16259765625
194.091796875
174.86572265625
181.2744140625
181.2744140625
168.45703125
170.2880859375
163.87939453125
133.6669921875
136.41357421875
124.51171875
118.10302734375
105.28564453125
101.62353515625
86.97509765625
71.4111328125
53.1005859375
45.7763671875
32.04345703125
25.634765625
20.1416015625
0.91552734375
-7.32421875
-6.40869140625
-19.22607421875
-16.4794921875
-32.04345703125
-32.958984375
-27.4658203125
-29.296875
-39.36767578125
-39.36767578125
-53.1005859375
-58.59375
-59.50927734375
-54.931640625
-59.50927734375
-68.66455078125
-75.98876953125
-73.2421875
-71.4111328125
-84.228515625
-86.97509765625
-71.4111328125
-84.228515625
-79.65087890625
-76.904296875
-82.3974609375
-86.0595703125
-75.0732421875
-69.580078125
-68.66455078125
-67.7490234375
-70.49560546875
-70.49560546875
-66.83349609375
-84.228515625
-82.3974609375
-87.890625
-83.31298828125
-88.80615234375
-94.29931640625
-75.98876953125
-86.0595703125
-86.97509765625
-72.32666015625
-80.56640625
-84.228515625
-77.81982421875
-75.0732421875
-81.48193359375
-66.83349609375
-82.3974609375
-72.32666015625
-65.91796875
-74.15771484375
-76.904296875
-77.81982421875
-77.81982421875
-83.31298828125
-88.80615234375
-79.65087890625
-70.49560546875
-64.0869140625
-75.0732421875
-72.32666015625
-89.7216796875
-75.0732421875
-72.32666015625
-72.32666015625
-74.15771484375
-63.17138671875
-60.4248046875
-64.0869140625
-54.01611328125
-62.255859375
-62.255859375
-54.01611328125
-63.17138671875
-65.00244140625
-64.0869140625
-67.7490234375
-71.4111328125
-56.7626953125
-49.4384765625
-50.35400390625
-52.18505859375
-56.7626953125
-51.26953125
-54.01611328125
-52.18505859375
-61.34033203125
-71.4111328125
-75.0732421875
-74.15771484375
-67.7490234375
-68.66455078125
-65.00244140625
-71.4111328125
-74.15771484375
-66.83349609375
-63.17138671875
-67.7490234375
-69.580078125
-61.34033203125
-57.67822265625
-58.59375
-72.32666015625
-81.48193359375
-68.66455078125
-67.7490234375
-79.65087890625
-69.580078125
-66.83349609375
-76.904296875
-69.580078125
-64.0869140625
-76.904296875
-70.49560546875
-74.15771484375
-72.32666015625
-73.2421875
-75.98876953125
-87.890625
-79.65087890625
-75.98876953125
-72.32666015625
-78.7353515625
-86.0595703125
-80.56640625
-84.228515625
-86.0595703125
-88.80615234375
-88.80615234375
-76.904296875
-70.49560546875
-79.65087890625
-74.15771484375
-81.48193359375
-88.80615234375
-82.3974609375
-84.228515625
-94.29931640625
-89.7216796875
-84.228515625
-94.29931640625
-95.21484375
-76.904296875
-82.3974609375
-93.3837890625
-86.0595703125
-94.29931640625
-91.552734375
-88.80615234375
-100.7080078125
-93.3837890625
-78.7353515625
-103.45458984375
-100.7080078125
-95.21484375
-85.14404296875
-84.228515625
-86.0595703125
-82.3974609375
-86.0595703125
-86.0595703125
-95.21484375
-84.228515625
-87.890625
-92.46826171875
-86.0595703125
-94.29931640625
-88.80615234375
-106.201171875
-93.3837890625
-86.97509765625
-104.3701171875
-97.0458984375
-98.876953125
-102.5390625
-85.14404296875
-86.97509765625
-98.876953125
-104.3701171875
-105.28564453125
-103.45458984375
-100.7080078125
-97.0458984375
-97.0458984375
-90.63720703125
-91.552734375
-97.0458984375
-111.6943359375
-108.94775390625
-86.0595703125
-63.17138671875
-60.4248046875
-61.34033203125
-54.01611328125
-50.35400390625
-64.0869140625
-65.00244140625
-48.52294921875
-55.84716796875
-56.7626953125
-51.26953125
-40.283203125
-30.21240234375
-23.8037109375
-11.90185546875
-8.23974609375
-14.6484375
-15.56396484375
-10.986328125
-14.6484375
-13.73291015625
0
-5.4931640625
-4.57763671875
-9.1552734375
-11.90185546875
-22.88818359375
-27.4658203125
-49.4384765625
-56.7626953125
-70.49560546875
-65.91796875
-75.0732421875
-85.14404296875
-84.228515625
-88.80615234375
-103.45458984375
-95.21484375
-89.7216796875
-99.79248046875
-99.79248046875
-87.890625
-96.13037109375
-105.28564453125
-110.77880859375
-106.201171875
-105.28564453125
-108.94775390625
-113.525390625
-108.94775390625
-108.94775390625
-116.27197265625
-122.6806640625
-125.42724609375
-130.0048828125
-113.525390625
-107.11669921875
-119.0185546875
-115.3564453125
-112.60986328125
-110.77880859375
-96.13037109375
-96.13037109375
-107.11669921875
-119.93408203125
-127.25830078125
-116.27197265625
-112.60986328125
-109.86328125
-77.81982421875
-52.18505859375
-24.71923828125
8.23974609375
50.35400390625
99.79248046875
179.443359375
261.8408203125
333.251953125
417.48046875
470.5810546875
507.2021484375
502.62451171875
346.0693359375
194.091796875
71.4111328125
-32.04345703125
-125.42724609375
-225.2197265625
-282.89794921875
-305.7861328125
-312.19482421875
-292.96875
-247.1923828125
-212.40234375
-183.10546875
-153.80859375
-119.93408203125
-94.29931640625
-77.81982421875
-73.2421875
-80.56640625
-73.2421875
-82.3974609375
-88.80615234375
-86.0595703125
-90.63720703125
-84.228515625
-73.2421875
-80.56640625
-90.63720703125
-78.7353515625
-76.904296875
-74.15771484375
-79.65087890625
-76.904296875
-75.98876953125
-75.98876953125
-70.49560546875
-75.0732421875
-67.7490234375
-68.66455078125
-75.98876953125
-81.48193359375
-76.904296875
-85.14404296875
-81.48193359375
-66.83349609375
-75.0732421875
-82.3974609375
-73.2421875
-81.48193359375
-75.98876953125
-53.1005859375
-61.34033203125
-64.0869140625
-65.00244140625
-66.83349609375
-62.255859375
-51.26953125
-39.36767578125
-44.86083984375
-48.52294921875
-47.607421875
-52.18505859375
-42.1142578125
-49.4384765625
-49.4384765625
-33.87451171875
-33.87451171875
-41.19873046875
-32.04345703125
-27.4658203125
-33.87451171875
-34.7900390625
-40.283203125
-37.53662109375
-27.4658203125
-31.1279296875
-24.71923828125
-21.05712890625
-21.97265625
-18.310546875
-12.8173828125
-19.22607421875
-2.74658203125
1.8310546875
4.57763671875
5.4931640625
12.8173828125
7.32421875
19.22607421875
12.8173828125
13.73291015625
18.310546875
21.97265625
26.55029296875
35.70556640625
44.86083984375
49.4384765625
57.67822265625
68.66455078125
68.66455078125
71.4111328125
72.32666015625
84.228515625
75.98876953125
78.7353515625
81.48193359375
98.876953125
123.59619140625
105.28564453125
105.28564453125
108.94775390625
119.0185546875
138.24462890625
136.41357421875
128.173828125
130.92041015625
143.73779296875
150.146484375
158.38623046875
159.3017578125
157.470703125
145.56884765625
154.72412109375
162.9638671875
173.03466796875
182.18994140625
178.52783203125
181.2744140625
174.86572265625
169.37255859375
168.45703125
166.6259765625
159.3017578125
155.6396484375
144.6533203125
121.76513671875
119.93408203125
102.5390625
95.21484375
84.228515625
79.65087890625
59.50927734375
47.607421875
37.53662109375
22.88818359375
11.90185546875
8.23974609375
10.07080078125
-4.57763671875
-15.56396484375
-25.634765625
-40.283203125
-41.19873046875
-44.86083984375
-41.19873046875
-59.50927734375
-60.4248046875
-48.52294921875
-45.7763671875
-56.7626953125
-71.4111328125
-67.7490234375
-67.7490234375
-73.2421875
-73.2421875
-73.2421875
-69.580078125
-80.56640625
-72.32666015625
-77.81982421875
-84.228515625
-80.56640625
-92.46826171875
-89.7216796875
-78.7353515625
-94.29931640625
-96.13037109375
-83.31298828125
-84.228515625
-86.97509765625
-81.48193359375
-91.552734375
-87.890625
-89.7216796875
-89.7216796875
-75.98876953125
-68.66455078125
-63.17138671875
-71.4111328125
-96.13037109375
-82.3974609375
-75.0732421875
-82.3974609375
-75.98876953125
-75.98876953125
-87.890625
-78.7353515625
-77.81982421875
-72.32666015625
-78.7353515625
-74.15771484375
-114.44091796875
-85.14404296875
-74.15771484375
-82.3974609375
-98.876953125
-88.80615234375
-84.228515625
-79.65087890625
-72.32666015625
-64.0869140625
-88.80615234375
-83.31298828125
-86.97509765625
-84.228515625
-87.890625
-75.98876953125
-69.580078125
-77.81982421875
-78.7353515625
-81.48193359375
-73.2421875
-71.4111328125
-67.7490234375
-62.255859375
-64.0869140625
-71.4111328125
-70.49560546875
-80.56640625
-70.49560546875
-69.580078125
-89.7216796875
-89.7216796875
-92.46826171875
-75.0732421875
-81.48193359375
-85.14404296875
-79.65087890625
-59.50927734375
-64.0869140625
-86.0595703125
-82.3974609375
-73.2421875
-80.56640625
-69.580078125
-66.83349609375
-80.56640625
-74.15771484375
-80.56640625
-86.0595703125
-88.80615234375
-88.80615234375
-78.7353515625
-80.56640625
-97.0458984375
-77.81982421875
-92.46826171875
-107.11669921875
-97.0458984375
-97.96142578125
-83.31298828125
-84.228515625
-86.0595703125
-101.62353515625
-102.5390625
-91.552734375
-98.876953125
-93.3837890625
-87.890625
-91.552734375
-107.11669921875
-101.62353515625
-90.63720703125
-86.97509765625
-90.63720703125
-86.97509765625
-86.0595703125
-86.0595703125
-86.0595703125
-95.21484375
-110.77880859375
-107.11669921875
-92.46826171875
-104.3701171875
-100.7080078125
-85.14404296875
-95.21484375
-96.13037109375
-105.28564453125
-105.28564453125
-95.21484375
-108.94775390625
-103.45458984375
-91.552734375
-114.44091796875
-114.44091796875
-105.28564453125
-113.525390625
-113.525390625
-97.0458984375
-104.3701171875
-110.77880859375
-118.10302734375
-98.876953125
-110.77880859375
-114.44091796875
-117.1875
-105.28564453125
-103.45458984375
-97.0458984375
-110.77880859375
-111.6943359375
-110.77880859375
-108.94775390625
-118.10302734375
-129.08935546875
-116.27197265625
-126.3427734375
-97.96142578125
-109.86328125
-123.59619140625
-115.3564453125
-115.3564453125
-114.44091796875
-106.201171875
-95.21484375
-109.86328125
-108.94775390625
-110.77880859375
-108.0322265625
-108.0322265625
-99.79248046875
-94.29931640625
-89.7216796875
-80.56640625
-83.31298828125
-82.3974609375
-79.65087890625
-66.83349609375
-72.32666015625
-66.83349609375
-70.49560546875
-75.0732421875
-75.98876953125
-64.0869140625
-47.607421875
-55.84716796875
-46.69189453125
-32.958984375
-35.70556640625
-39.36767578125
-29.296875
-22.88818359375
-3.662109375
-5.4931640625
-20.1416015625
-8.23974609375
0
-10.986328125
-3.662109375
-3.662109375
-21.97265625
-37.53662109375
-62.255859375
-84.228515625
-67.7490234375
-80.56640625
-86.97509765625
-89.7216796875
-89.7216796875
-96.13037109375
-105.28564453125
-102.5390625
-99.79248046875
-93.3837890625
-125.42724609375
-125.42724609375
-119.93408203125
-112.60986328125
-138.24462890625
-125.42724609375
-116.27197265625
-121.76513671875
-108.0322265625
-100.7080078125
-112.60986328125
-94.29931640625
-101.62353515625
-110.77880859375
-114.44091796875
-119.93408203125
-109.86328125
-106.201171875
-119.0185546875
-128.173828125
-131.8359375
-128.173828125
-105.28564453125
-116.27197265625
-133.6669921875
-140.9912109375
-120.849609375
-110.77880859375
-116.27197265625
-91.552734375
-63.17138671875
-46.69189453125
5.4931640625
49.4384765625
97.0458984375
177.6123046875
253.60107421875
311.279296875
390.0146484375
434.87548828125
463.2568359375
396.42333984375
249.0234375
139.16015625
2.74658203125
-88.80615234375
-162.9638671875
-247.1923828125
-267.333984375
-289.306640625
-275.57373046875
-274.658203125
-256.34765625
-215.14892578125
-183.10546875
-164.794921875
-124.51171875
-103.45458984375
-98.876953125
-94.29931640625
-67.7490234375
-83.31298828125
-74.15771484375
-87.890625
-91.552734375
-72.32666015625
-86.0595703125
-86.0595703125
-85.14404296875
-98.876953125
-105.28564453125
-97.0458984375
-93.3837890625
-84.228515625
-87.890625
-79.65087890625
-69.580078125
-85.14404296875
-88.80615234375
-89.7216796875
-69.580078125
-84.228515625
-82.3974609375
-83.31298828125
-79.65087890625
-77.81982421875
-64.0869140625
-56.7626953125
-60.4248046875
-65.00244140625
-61.34033203125
-66.83349609375
-74.15771484375
-71.4111328125
-70.49560546875
-55.84716796875
-43.02978515625
-36.62109375
-36.62109375
-40.283203125
-55.84716796875
-44.86083984375
-46.69189453125
-43.02978515625
-54.01611328125
-58.59375
-43.9453125
-42.1142578125
-36.62109375
-35.70556640625
-50.35400390625
-32.958984375
-17.39501953125
-21.97265625
-35.70556640625
-34.7900390625
-29.296875
-29.296875
-21.05712890625
-23.8037109375
-25.634765625
-13.73291015625
-4.57763671875
-13.73291015625
-6.40869140625
-13.73291015625
1.8310546875
13.73291015625
7.32421875
8.23974609375
17.39501953125
19.22607421875
15.56396484375
35.70556640625
22.88818359375
32.958984375
21.97265625
34.7900390625
43.9453125
49.4384765625
50.35400390625
52.18505859375
56.7626953125
79.65087890625
82.3974609375
62.255859375
82.3974609375
94.29931640625
99.79248046875
97.96142578125
97.96142578125
101.62353515625
98.876953125
110.77880859375
127.25830078125
132.75146484375
130.0048828125
125.42724609375
138.24462890625
142.822265625
143.73779296875
144.6533203125
151.06201171875
162.04833984375
158.38623046875
172.119140625
165.71044921875
168.45703125
173.03466796875
166.6259765625
171.20361328125
170.2880859375
171.20361328125
151.9775390625
155.6396484375
149.23095703125
124.51171875
108.0322265625
119.93408203125
112.60986328125
86.0595703125
70.49560546875
69.580078125
78.7353515625
57.67822265625
29.296875
21.97265625
22.88818359375
16.4794921875
-15.56396484375
-40.283203125
-18.310546875
-16.4794921875
-20.1416015625
-32.958984375
-41.19873046875
-42.1142578125
-41.19873046875
-50.35400390625
-53.1005859375
-61.34033203125
-69.580078125
-75.0732421875
-74.15771484375
-67.7490234375
-69.580078125
-80.56640625
-65.00244140625
-76.904296875
-81.48193359375
-79.65087890625
-84.228515625
-76.904296875
-65.00244140625
-60.4248046875
-85.14404296875
-80.56640625
-86.97509765625
-93.3837890625
-86.97509765625
-93.3837890625
-74.15771484375
-72.32666015625
-81.48193359375
-78.7353515625
-83.31298828125
-89.7216796875
-81.48193359375
-65.91796875
-73.2421875
-82.3974609375
-84.228515625
-72.32666015625
-69.580078125
-65.91796875
-76.904296875
-74.15771484375
-75.0732421875
-77.81982421875
-85.14404296875
-96.13037109375
-77.81982421875
-77.81982421875
-70.49560546875
-81.48193359375
-83.31298828125
-76.904296875
-69.580078125
-73.2421875
-79.65087890625
-75.98876953125
-61.34033203125
-76.904296875
-69.580078125
-68.66455078125
-66.83349609375
-70.49560546875
-55.84716796875
-65.00244140625
-50.35400390625
-51.26953125
-49.4384765625
-65.91796875
-68.66455078125
-62.255859375
-64.0869140625
-70.49560546875
-60.4248046875
-61.34033203125
-63.17138671875
-73.2421875
-70.49560546875
-55.84716796875
-33.87451171875
-54.01611328125
-73.2421875
-71.4111328125
-69.580078125
-63.17138671875
-64.0869140625
-76.904296875
-71.4111328125
-72.32666015625
-65.00244140625
-63.17138671875
-55.84716796875
-62.255859375
-51.26953125
-53.1005859375
-63.17138671875
-84.228515625
-68.66455078125
-67.7490234375
-75.98876953125
-70.49560546875
-70.49560546875
-80.56640625
-78.7353515625
-87.890625
-75.98876953125
-71.4111328125
-79.65087890625
-74.15771484375
-82.3974609375
-65.00244140625
-74.15771484375
-87.890625
-75.98876953125
-71.4111328125
-73.2421875
-96.13037109375
-79.65087890625
-72.32666015625
-87.890625
-70.49560546875
-67.7490234375
-75.98876953125
-86.0595703125
-83.31298828125
-79.65087890625
-77.81982421875
-88.80615234375
-71.4111328125
-65.91796875
-65.00244140625
-74.15771484375
-73.2421875
-80.56640625
-75.98876953125
-78.7353515625
-81.48193359375
-95.21484375
-84.228515625
-81.48193359375
-83.31298828125
-100.7080078125
-94.29931640625
-74.15771484375
-78.7353515625
-73.2421875
-77.81982421875
-74.15771484375
-80.56640625
-76.904296875
-74.15771484375
-91.552734375
-82.3974609375
-61.34033203125
-51.26953125
-39.36767578125
-42.1142578125
-40.283203125
-34.7900390625
-47.607421875
-38.4521484375
-34.7900390625
-22.88818359375
-21.97265625
-16.4794921875
-21.97265625
-23.8037109375
-0.91552734375
-1.8310546875
-2.74658203125
0
0
20.1416015625
14.6484375
7.32421875
17.39501953125
19.22607421875
9.1552734375
21.05712890625
-2.74658203125
-10.986328125
-16.4794921875
-37.53662109375
-39.36767578125
-54.931640625
-58.59375
-51.26953125
-64.0869140625
-76.904296875
-81.48193359375
-69.580078125
-75.98876953125
-84.228515625
-78.7353515625
-73.2421875
-69.580078125
-81.48193359375
-86.97509765625
-91.552734375
-76.904296875
-86.97509765625
-97.96142578125
-89.7216796875
-97.96142578125
-92.46826171875
-95.21484375
-91.552734375
-103.45458984375
-98.876953125
-90.63720703125
-105.28564453125
-106.201171875
-91.552734375
-97.0458984375
-98.876953125
-108.0322265625
-122.6806640625
-108.0322265625
-105.28564453125
-106.201171875
-99.79248046875
-108.94775390625
-99.79248046875
-66.83349609375
-36.62109375
-17.39501953125
32.958984375
84.228515625
150.146484375
236.2060546875
312.19482421875
384.521484375
457.763671875
480.65185546875
511.77978515625
455.01708984375
274.658203125
151.06201171875
16.4794921875
-56.7626953125
-131.8359375
-216.064453125
-270.08056640625
-290.22216796875
-278.3203125
-282.89794921875
-260.009765625
-206.9091796875
-175.78125
-148.3154296875
-110.77880859375
-93.3837890625
-69.580078125
-54.01611328125
-65.91796875
-66.83349609375
-68.66455078125
-69.580078125
-82.3974609375
-79.65087890625
-68.66455078125
-68.66455078125
-66.83349609375
-68.66455078125
-76.904296875
-79.65087890625
-73.2421875
-75.98876953125
-62.255859375
-45.7763671875
-47.607421875
-63.17138671875
-74.15771484375
-63.17138671875
-43.02978515625
-57.67822265625
-59.50927734375
-58.59375
-55.84716796875
-43.9453125
-43.9453125
-55.84716796875
-54.01611328125
-50.35400390625
-52.18505859375
-54.931640625
-50.35400390625
-54.01611328125
-54.931640625
-47.607421875
-34.7900390625
-58.59375
-47.607421875
-28.38134765625
-23.8037109375
-28.38134765625
-30.21240234375
-43.02978515625
-32.958984375
-42.1142578125
-36.62109375
-34.7900390625
-41.19873046875
-39.36767578125
-42.1142578125
-43.02978515625
-29.296875
-13.73291015625
0.91552734375
-15.56396484375
-8.23974609375
-9.1552734375
-12.8173828125
-6.40869140625
7.32421875
-7.32421875
6.40869140625
12.8173828125
18.310546875
21.05712890625
13.73291015625
13.73291015625
18.310546875
26.55029296875
21.97265625
36.62109375
35.70556640625
42.1142578125
45.7763671875
46.69189453125
44.86083984375
58.59375
45.7763671875
65.00244140625
73.2421875
72.32666015625
86.0595703125
91.552734375
95.21484375
97.0458984375
101.62353515625
106.201171875
99.79248046875
82.3974609375
113.525390625
112.60986328125
125.42724609375
123.59619140625
148.3154296875
147.39990234375
130.0048828125
130.0048828125
141.90673828125
157.470703125
149.23095703125
154.72412109375
177.6123046875
184.9365234375
188.5986328125
184.9365234375
184.9365234375
189.51416015625
190.4296875
173.9501953125
176.69677734375
178.52783203125
170.2880859375
170.2880859375
159.3017578125
156.55517578125
151.9775390625
144.6533203125
124.51171875
99.79248046875
88.80615234375
75.98876953125
75.98876953125
74.15771484375
62.255859375
43.02978515625
37.53662109375
26.55029296875
18.310546875
7.32421875
-4.57763671875
-2.74658203125
-16.4794921875
-25.634765625
-26.55029296875
-35.70556640625
-44.86083984375
-45.7763671875
-54.01611328125
-43.9453125
-49.4384765625
-59.50927734375
-64.0869140625
-62.255859375
-68.66455078125
-73.2421875
-61.34033203125
-64.0869140625
-54.01611328125
-66.83349609375
-75.98876953125
-71.4111328125
-87.890625
-86.0595703125
-70.49560546875
-70.49560546875
-65.91796875
-85.14404296875
-86.97509765625
-74.15771484375
-77.81982421875
-97.96142578125
-88.80615234375
-69.580078125
-67.7490234375
-82.3974609375
-82.3974609375
-76.904296875
-75.0732421875
-84.228515625
-81.48193359375
-62.255859375
-52.18505859375
-63.17138671875
-66.83349609375
-65.91796875
-82.3974609375
-88.80615234375
-77.81982421875
-71.4111328125
-63.17138671875
-70.49560546875
-72.32666015625
-69.580078125
-60.4248046875
-67.7490234375
-75.0732421875
-68.66455078125
-71.4111328125
-70.49560546875
-59.50927734375
-65.91796875
-65.91796875
-60.4248046875
-62.255859375
-69.580078125
-70.49560546875
-67.7490234375
-67.7490234375
-65.91796875
-70.49560546875
-54.931640625
-58.59375
-59.50927734375
-55.84716796875
-45.7763671875
-49.4384765625
-51.26953125
-46.69189453125
-43.9453125
-43.9453125
-46.69189453125
-49.4384765625
-56.7626953125
-52.18505859375
-54.01611328125
-65.91796875
-65.91796875
-54.01611328125
-40.283203125
-51.26953125
-75.98876953125
-70.49560546875
-54.01611328125
-49.4384765625
-56.7626953125
-47.607421875
-44.86083984375
-50.35400390625
-44.86083984375
-36.62109375
-48.52294921875
-43.02978515625
-50.35400390625
-42.1142578125
-44.86083984375
-50.35400390625
-54.01611328125
-67.7490234375
-37.53662109375
-50.35400390625
-61.34033203125
-63.17138671875
-58.59375
-61.34033203125
-62.255859375
-53.1005859375
-64.0869140625
-65.91796875
-58.59375
-65.00244140625
-75.0732421875
-76.904296875
-65.91796875
-69.580078125
-55.84716796875
-63.17138671875
-73.2421875
-63.17138671875
-65.00244140625
-71.4111328125
-68.66455078125
-62.255859375
-74.15771484375
-56.7626953125
-49.4384765625
-54.931640625
-58.59375
-70.49560546875
-71.4111328125
-65.00244140625
-69.580078125
-73.2421875
-73.2421875
-83.31298828125
-81.48193359375
-78.7353515625
-60.4248046875
-53.1005859375
-68.66455078125
-65.00244140625
-65.91796875
-74.15771484375
-70.49560546875
-61.34033203125
-52.18505859375
-56.7626953125
-65.91796875
-64.0869140625
-54.931640625
-68.66455078125
-74.15771484375
-74.15771484375
-76.904296875
-83.31298828125
-75.0732421875
-77.81982421875
-65.00244140625
-72.32666015625
-86.97509765625
-73.2421875
-73.2421875
-78.7353515625
-52.18505859375
-51.26953125
-46.69189453125
-37.53662109375
-25.634765625
-31.1279296875
-22.88818359375
-15.56396484375
-25.634765625
-32.958984375
-23.8037109375
0.91552734375
7.32421875
-0.91552734375
1.8310546875
10.986328125
5.4931640625
16.4794921875
13.73291015625
6.40869140625
18.310546875
36.62109375
37.53662109375
25.634765625
25.634765625
33.87451171875
26.55029296875
10.07080078125
5.4931640625
5.4931640625
-19.22607421875
-29.296875
-25.634765625
-54.01611328125
-58.59375
-58.59375
-65.00244140625
-68.66455078125
-79.65087890625
-71.4111328125
-58.59375
-61.34033203125
-62.255859375
-65.00244140625
-65.00244140625
-60.4248046875
-72.32666015625
-77.81982421875
-82.3974609375
-76.904296875
-75.98876953125
-77.81982421875
-86.97509765625
-70.49560546875
-65.91796875
-68.66455078125
-65.00244140625
-63.17138671875
-70.49560546875
-74.15771484375
-75.98876953125
-82.3974609375
-89.7216796875
-97.96142578125
-82.3974609375
-89.7216796875
-79.65087890625
-70.49560546875
-78.7353515625
-70.49560546875
-48.52294921875
-21.97265625
4.57763671875
65.91796875
108.0322265625
162.04833984375
244.44580078125
329.58984375
409.24072265625
487.060546875
541.9921875
555.72509765625
551.1474609375
373.53515625
229.79736328125
104.3701171875
-10.07080078125
-87.890625
-169.37255859375
-246.27685546875
-271.91162109375
-265.5029296875
-243.5302734375
-216.97998046875
-183.10546875
-140.07568359375
-108.0322265625
-93.3837890625
-69.580078125
-43.02978515625
-37.53662109375
-43.9453125
-41.19873046875
-41.19873046875
-48.52294921875
-43.02978515625
-45.7763671875
-33.87451171875
-62.255859375
-71.4111328125
-63.17138671875
-49.4384765625
-43.02978515625
-26.55029296875
-35.70556640625
-32.04345703125
-32.958984375
-34.7900390625
-26.55029296875
-39.36767578125
-28.38134765625
-27.4658203125
-46.69189453125
-64.0869140625
-43.9453125
-26.55029296875
-33.87451171875
-46.69189453125
-52.18505859375
-32.958984375
-21.97265625
-22.88818359375
-10.986328125
-15.56396484375
-20.1416015625
-8.23974609375
0
-5.4931640625
-11.90185546875
-6.40869140625
-5.4931640625
-4.57763671875
-5.4931640625
-0.91552734375
-0.91552734375
-0.91552734375
20.1416015625
14.6484375
15.56396484375
14.6484375
9.1552734375
19.22607421875
15.56396484375
1.8310546875
2.74658203125
16.4794921875
24.71923828125
31.1279296875
28.38134765625
32.04345703125
36.62109375
43.9453125
54.01611328125
42.1142578125
25.634765625
39.36767578125
35.70556640625
47.607421875
53.1005859375
54.01611328125
59.50927734375
65.00244140625
82.3974609375
69.580078125
52.18505859375
71.4111328125
78.7353515625
99.79248046875
93.3837890625
86.97509765625
100.7080078125
110.77880859375
106.201171875
105.28564453125
130.0048828125
132.75146484375
130.92041015625
138.24462890625
134.58251953125
135.498046875
148.3154296875
142.822265625
145.56884765625
140.07568359375
168.45703125
169.37255859375
168.45703125
174.86572265625
183.10546875
177.6123046875
182.18994140625
183.10546875
185.85205078125
188.5986328125
198.66943359375
197.75390625
216.97998046875
233.45947265625
230.712890625
229.79736328125
227.05078125
212.40234375
211.48681640625
208.740234375
204.16259765625
200.50048828125
192.2607421875
194.091796875
194.091796875
178.52783203125
158.38623046875
153.80859375
155.6396484375
135.498046875
115.3564453125
105.28564453125
81.48193359375
73.2421875
63.17138671875
43.02978515625
48.52294921875
43.02978515625
43.02978515625
34.7900390625
21.05712890625
16.4794921875
15.56396484375
8.23974609375
-13.73291015625
-14.6484375
-5.4931640625
-9.1552734375
-21.05712890625
-17.39501953125
-20.1416015625
-18.310546875
-29.296875
-39.36767578125
-35.70556640625
-35.70556640625
-39.36767578125
-38.4521484375
-29.296875
-34.7900390625
-39.36767578125
-38.4521484375
-43.02978515625
-47.607421875
-47.607421875
-53.1005859375
-30.21240234375
-36.62109375
-50.35400390625
-45.7763671875
-46.69189453125
-43.02978515625
-47.607421875
-45.7763671875
-54.01611328125
-45.7763671875
-56.7626953125
-57.67822265625
-43.9453125
-44.86083984375
-43.02978515625
-36.62109375
-30.21240234375
-36.62109375
-38.4521484375
-32.958984375
-35.70556640625
-33.87451171875
-25.634765625
-31.1279296875
-44.86083984375
-38.4521484375
-33.87451171875
-35.70556640625
-30.21240234375
-42.1142578125
-32.04345703125
-34.7900390625
-44.86083984375
-61.34033203125
-47.607421875
-44.86083984375
-40.283203125
-47.607421875
-42.1142578125
-40.283203125
-53.1005859375
-59.50927734375
-43.02978515625
-36.62109375
-40.283203125
-42.1142578125
-35.70556640625
-48.52294921875
-51.26953125
-51.26953125
-41.19873046875
-32.04345703125
-32.958984375
-41.19873046875
-39.36767578125
-41.19873046875
-42.1142578125
-40.283203125
-31.1279296875
-38.4521484375
-41.19873046875
-35.70556640625
-35.70556640625
-33.87451171875
-36.62109375
-39.36767578125
-57.67822265625
-43.9453125
-43.02978515625
-50.35400390625
-40.283203125
-37.53662109375
-37.53662109375
-43.9453125
-50.35400390625
-44.86083984375
-33.87451171875
-44.86083984375
-45.7763671875
-38.4521484375
-48.52294921875
-55.84716796875
-63.17138671875
-62.255859375
-59.50927734375
-58.59375
-57.67822265625
-48.52294921875
-43.9453125
-41.19873046875
-45.7763671875
-39.36767578125
-49.4384765625
-60.4248046875
-50.35400390625
-33.87451171875
-35.70556640625
-22.88818359375
-48.52294921875
-53.1005859375
-48.52294921875
-66.83349609375
-53.1005859375
-41.19873046875
-38.4521484375
-43.9453125
-50.35400390625
-61.34033203125
-62.255859375
-67.7490234375
-68.66455078125
-56.7626953125
-54.01611328125
-52.18505859375
-54.01611328125
-58.59375
-44.86083984375
-31.1279296875
-42.1142578125
-62.255859375
-57.67822265625
-41.19873046875
-54.931640625
-52.18505859375
-56.7626953125
-64.0869140625
-65.91796875
-65.91796875
-43.02978515625
-57.67822265625
-57.67822265625
-70.49560546875
-62.255859375
-65.00244140625
-64.0869140625
-52.18505859375
-45.7763671875
-58.59375
-72.32666015625
-77.81982421875
-77.81982421875
-53.1005859375
-59.50927734375
-71.4111328125
-61.34033203125
-51.26953125
-62.255859375
-44.86083984375
-29.296875
-36.62109375
-30.21240234375
-31.1279296875
-19.22607421875
-31.1279296875
-18.310546875
-32.04345703125
-39.36767578125
-17.39501953125
-14.6484375
-14.6484375
8.23974609375
23.8037109375
25.634765625
0.91552734375
-16.4794921875
19.22607421875
6.40869140625
11.90185546875
19.22607421875
17.39501953125
5.4931640625
19.22607421875
13.73291015625
11.90185546875
14.6484375
7.32421875
-2.74658203125
-7.32421875
-23.8037109375
-20.1416015625
-31.1279296875
-30.21240234375
-36.62109375
-46.69189453125
-53.1005859375
-64.0869140625
-67.7490234375
-62.255859375
-72.32666015625
-66.83349609375
-66.83349609375
-67.7490234375
-80.56640625
-66.83349609375
-74.15771484375
-67.7490234375
-80.56640625
-85.14404296875
-96.13037109375
-98.876953125
-97.0458984375
-73.2421875
-59.50927734375
-82.3974609375
-95.21484375
-96.13037109375
-91.552734375
-98.876953125
-87.890625
-101.62353515625
-94.29931640625
-92.46826171875
-96.13037109375
-87.890625
-91.552734375
-97.96142578125
-92.46826171875
-76.904296875
-66.83349609375
-36.62109375
-17.39501953125
28.38134765625
57.67822265625
117.1875
170.2880859375
245.361328125
326.84326171875
420.22705078125
498.96240234375
521.8505859375
545.654296875
418.39599609375
269.1650390625
131.8359375
8.23974609375
-57.67822265625
-157.470703125
-212.40234375
-247.1923828125
-280.1513671875
-270.99609375
-245.361328125
-225.2197265625
-189.51416015625
-169.37255859375
-136.41357421875
-102.5390625
-77.81982421875
-73.2421875
-57.67822265625
-49.4384765625
-51.26953125
-43.9453125
-58.59375
-83.31298828125
-82.3974609375
-85.14404296875
-74.15771484375
-75.0732421875
-58.59375
-51.26953125
-66.83349609375
-75.98876953125
-84.228515625
-74.15771484375
-60.4248046875
-57.67822265625
-66.83349609375
-42.1142578125
-48.52294921875
-56.7626953125
-61.34033203125
-44.86083984375
-43.02978515625
-58.59375
-63.17138671875
-45.7763671875
-61.34033203125
-71.4111328125
-58.59375
-52.18505859375
-47.607421875
-40.283203125
-42.1142578125
-46.69189453125
-52.18505859375
-56.7626953125
-48.52294921875
-47.607421875
-57.67822265625
-50.35400390625
-40.283203125
-43.9453125
-39.36767578125
-34.7900390625
-27.4658203125
-28.38134765625
-21.97265625
-35.70556640625
-28.38134765625
-35.70556640625
-26.55029296875
-29.296875
-5.4931640625
10.07080078125
-4.57763671875
-5.4931640625
-14.6484375
-6.40869140625
0
9.1552734375
14.6484375
0.91552734375
2.74658203125
12.8173828125
18.310546875
9.1552734375
22.88818359375
21.97265625
28.38134765625
34.7900390625
33.87451171875
57.67822265625
50.35400390625
50.35400390625
54.01611328125
56.7626953125
43.9453125
54.01611328125
62.255859375
76.904296875
69.580078125
72.32666015625
89.7216796875
106.201171875
97.96142578125
97.96142578125
111.6943359375
101.62353515625
103.45458984375
119.0185546875
124.51171875
121.76513671875
136.41357421875
131.8359375
139.16015625
154.72412109375
153.80859375
139.16015625
151.06201171875
165.71044921875
170.2880859375
181.2744140625
169.37255859375
180.35888671875
187.68310546875
167.54150390625
184.9365234375
181.2744140625
195.9228515625
198.66943359375
181.2744140625
181.2744140625
165.71044921875
162.04833984375
150.146484375
164.794921875
147.39990234375
148.3154296875
122.6806640625
98.876953125
119.0185546875
106.201171875
86.97509765625
85.14404296875
73.2421875
63.17138671875
49.4384765625
10.986328125
5.4931640625
16.4794921875
10.986328125
-5.4931640625
0.91552734375
-5.4931640625
-18.310546875
-24.71923828125
-30.21240234375
-43.02978515625
-43.02978515625
-35.70556640625
-37.53662109375
-45.7763671875
-49.4384765625
-31.1279296875
-55.84716796875
-55.84716796875
-57.67822265625
-56.7626953125
-54.931640625
-78.7353515625
-78.7353515625
-65.91796875
-72.32666015625
-83.31298828125
-78.7353515625
-81.48193359375
-79.65087890625
-79.65087890625
-64.0869140625
-95.21484375
-94.29931640625
-64.0869140625
-64.0869140625
-75.98876953125
-82.3974609375
-81.48193359375
-86.97509765625
-96.13037109375
-70.49560546875
-67.7490234375
-79.65087890625
-86.0595703125
-71.4111328125
-65.00244140625
-55.84716796875
-72.32666015625
-72.32666015625
-77.81982421875
-83.31298828125
-73.2421875
-72.32666015625
-73.2421875
-69.580078125
-67.7490234375
-56.7626953125
-67.7490234375
-67.7490234375
-68.66455078125
-54.931640625
-57.67822265625
-55.84716796875
-66.83349609375
-75.0732421875
-71.4111328125
-57.67822265625
-51.26953125
-54.931640625
-62.255859375
-73.2421875
-70.49560546875
-65.91796875
-60.4248046875
-67.7490234375
-70.49560546875
-64.0869140625
-64.0869140625
-69.580078125
-65.91796875
-55.84716796875
-49.4384765625
-63.17138671875
-65.91796875
-77.81982421875
-67.7490234375
-58.59375
-48.52294921875
-50.35400390625
-59.50927734375
-55.84716796875
-47.607421875
-53.1005859375
-54.931640625
-60.4248046875
-65.91796875
-60.4248046875
-59.50927734375
-63.17138671875
-58.59375
-68.66455078125
-60.4248046875
-62.255859375
-54.931640625
-68.66455078125
-75.98876953125
-73.2421875
-65.91796875
-59.50927734375
-69.580078125
-73.2421875
-70.49560546875
-62.255859375
-61.34033203125
-86.97509765625
-75.98876953125
-78.7353515625
-79.65087890625
-61.34033203125
-65.00244140625
-73.2421875
-55.84716796875
-70.49560546875
-67.7490234375
-70.49560546875
-80.56640625
-69.580078125
-70.49560546875
-84.228515625
-86.97509765625
-80.56640625
-71.4111328125
-78.7353515625
-64.0869140625
-72.32666015625
-65.91796875
-55.84716796875
-70.49560546875
-67.7490234375
-48.52294921875
-31.1279296875
-43.02978515625
-33.87451171875
-46.69189453125
-43.02978515625
-42.1142578125
-25.634765625
-14.6484375
-10.07080078125
-11.90185546875
-3.662109375
17.39501953125
19.22607421875
11.90185546875
6.40869140625
-0.91552734375
8.23974609375
14.6484375
23.8037109375
19.22607421875
27.4658203125
31.1279296875
21.05712890625
3.662109375
8.23974609375
13.73291015625
-10.07080078125
-42.1142578125
-38.4521484375
-40.283203125
-54.01611328125
-66.83349609375
-53.1005859375
-69.580078125
-81.48193359375
-77.81982421875
-59.50927734375
-64.0869140625
-72.32666015625
-80.56640625
-79.65087890625
-80.56640625
-68.66455078125
-47.607421875
-65.00244140625
-65.91796875
-79.65087890625
-68.66455078125
-73.2421875
-65.91796875
-67.7490234375
-69.580078125
-70.49560546875
-73.2421875
-71.4111328125
-75.98876953125
-77.81982421875
-86.97509765625
-83.31298828125
-66.83349609375
-86.0595703125
-79.65087890625
-79.65087890625
-86.0595703125
-83.31298828125
-81.48193359375
-49.4384765625
-59.50927734375
-45.7763671875
-18.310546875
28.38134765625
75.0732421875
116.27197265625
205.99365234375
279.23583984375
363.46435546875
448.6083984375
474.2431640625
518.1884765625
503.5400390625
335.99853515625
195.00732421875
51.26953125
-32.958984375
-79.65087890625
-177.6123046875
-225.2197265625
-219.7265625
-222.47314453125
-234.375
-215.14892578125
-181.2744140625
-174.86572265625
-148.3154296875
-118.10302734375
-78.7353515625
-57.67822265625
-52.18505859375
-45.7763671875
-34.7900390625
-57.67822265625
-59.50927734375
-36.62109375
-35.70556640625
-32.958984375
-47.607421875
-43.02978515625
-43.02978515625
-49.4384765625
-48.52294921875
-46.69189453125
-49.4384765625
-32.04345703125
-40.283203125
-44.86083984375
-44.86083984375
-49.4384765625
-51.26953125
