ECG
74.15771484375
75.98876953125
74.15771484375
83.31298828125
89.7216796875
89.7216796875
91.552734375
101.62353515625
107.11669921875
108.94775390625
124.51171875
129.08935546875
130.92041015625
132.75146484375
123.59619140625
130.92041015625
136.41357421875
135.498046875
147.39990234375
152.89306640625
149.23095703125
158.38623046875
165.71044921875
170.2880859375
171.20361328125
172.119140625
176.69677734375
175.78125
180.35888671875
191.34521484375
189.51416015625
194.091796875
190.4296875
194.091796875
202.33154296875
201.416015625
201.416015625
214.2333984375
218.81103515625
216.064453125
227.96630859375
239.8681640625
229.79736328125
233.45947265625
232.5439453125
226.13525390625
229.79736328125
225.2197265625
211.48681640625
210.5712890625
205.99365234375
187.68310546875
184.9365234375
173.03466796875
171.20361328125
151.06201171875
133.6669921875
131.8359375
127.25830078125
120.849609375
107.11669921875
94.29931640625
82.3974609375
82.3974609375
73.2421875
57.67822265625
40.283203125
43.9453125
37.53662109375
21.97265625
17.39501953125
17.39501953125
12.8173828125
12.8173828125
7.32421875
9.1552734375
-3.662109375
-4.57763671875
-17.39501953125
-12.8173828125
-0.91552734375
-13.73291015625
-13.73291015625
-10.07080078125
-16.4794921875
-19.22607421875
-12.8173828125
-11.90185546875
-3.662109375
-4.57763671875
-11.90185546875
-3.662109375
-8.23974609375
-8.23974609375
-7.32421875
-11.90185546875
-4.57763671875
-11.90185546875
-9.1552734375
-11.90185546875
-21.05712890625
-21.05712890625
-4.57763671875
-0.91552734375
-10.07080078125
-10.986328125
-9.1552734375
-4.57763671875
-2.74658203125
-4.57763671875
-14.6484375
-5.4931640625
-6.40869140625
-5.4931640625
-6.40869140625
-10.07080078125
-13.73291015625
-6.40869140625
-6.40869140625
-9.1552734375
-8.23974609375
0.91552734375
-3.662109375
10.07080078125
2.74658203125
-10.07080078125
-1.8310546875
6.40869140625
6.40869140625
4.57763671875
-0.91552734375
3.662109375
1.8310546875
4.57763671875
8.23974609375
1.8310546875
6.40869140625
10.07080078125
11.90185546875
14.6484375
8.23974609375
7.32421875
6.40869140625
-4.57763671875
8.23974609375
9.1552734375
7.32421875
13.73291015625
3.662109375
3.662109375
5.4931640625
0.91552734375
3.662109375
10.986328125
10.07080078125
0.91552734375
-10.07080078125
-6.40869140625
-10.986328125
6.40869140625
13.73291015625
-3.662109375
0
-0.91552734375
-5.4931640625
-5.4931640625
1.8310546875
-1.8310546875
-3.662109375
0.91552734375
8.23974609375
-2.74658203125
-4.57763671875
4.57763671875
-2.74658203125
-14.6484375
-4.57763671875
-6.40869140625
-6.40869140625
-5.4931640625
-10.07080078125
-10.07080078125
-8.23974609375
-13.73291015625
-10.07080078125
-8.23974609375
-9.1552734375
-14.6484375
-13.73291015625
-6.40869140625
-6.40869140625
-18.310546875
-25.634765625
-12.8173828125
-15.56396484375
-12.8173828125
-11.90185546875
-7.32421875
-11.90185546875
-15.56396484375
-25.634765625
-26.55029296875
-19.22607421875
-20.1416015625
-21.97265625
-19.22607421875
-12.8173828125
-8.23974609375
-16.4794921875
-13.73291015625
-9.1552734375
-2.74658203125
17.39501953125
36.62109375
39.36767578125
32.958984375
31.1279296875
32.04345703125
36.62109375
43.9453125
42.1142578125
43.9453125
49.4384765625
63.17138671875
61.34033203125
71.4111328125
70.49560546875
74.15771484375
73.2421875
75.0732421875
63.17138671875
77.81982421875
88.80615234375
83.31298828125
86.0595703125
73.2421875
58.59375
48.52294921875
52.18505859375
40.283203125
18.310546875
4.57763671875
-7.32421875
-11.90185546875
-12.8173828125
-16.4794921875
-16.4794921875
-15.56396484375
-25.634765625
-27.4658203125
-31.1279296875
-37.53662109375
-32.958984375
-37.53662109375
-35.70556640625
-38.4521484375
-18.310546875
-24.71923828125
-33.87451171875
-33.87451171875
-36.62109375
-48.52294921875
-43.02978515625
-47.607421875
-62.255859375
-43.02978515625
-43.9453125
-54.01611328125
-54.01611328125
-42.1142578125
-37.53662109375
-38.4521484375
-41.19873046875
-52.18505859375
-51.26953125
-54.931640625
-41.19873046875
-30.21240234375
-31.1279296875
-32.04345703125
-10.07080078125
7.32421875
33.87451171875
84.228515625
131.8359375
182.18994140625
253.60107421875
341.49169921875
410.15625
498.046875
566.71142578125
589.599609375
553.89404296875
379.94384765625
257.26318359375
136.41357421875
15.56396484375
-68.66455078125
-163.87939453125
-234.375
-252.685546875
-231.62841796875
-199.5849609375
-155.6396484375
-127.25830078125
-96.13037109375
-54.931640625
-32.958984375
-15.56396484375
-8.23974609375
-17.39501953125
-1.8310546875
2.74658203125
0
-2.74658203125
-6.40869140625
-9.1552734375
-6.40869140625
-17.39501953125
0
5.4931640625
-0.91552734375
-8.23974609375
-2.74658203125
-5.4931640625
-10.986328125
-8.23974609375
-7.32421875
0
4.57763671875
5.4931640625
-2.74658203125
0.91552734375
22.88818359375
13.73291015625
10.07080078125
2.74658203125
-3.662109375
8.23974609375
0
4.57763671875
4.57763671875
21.05712890625
19.22607421875
13.73291015625
18.310546875
16.4794921875
24.71923828125
26.55029296875
23.8037109375
25.634765625
21.05712890625
26.55029296875
33.87451171875
36.62109375
34.7900390625
24.71923828125
26.55029296875
37.53662109375
39.36767578125
39.36767578125
50.35400390625
46.69189453125
51.26953125
49.4384765625
44.86083984375
51.26953125
60.4248046875
71.4111328125
65.91796875
62.255859375
54.931640625
64.0869140625
65.91796875
64.0869140625
81.48193359375
82.3974609375
79.65087890625
86.97509765625
97.0458984375
93.3837890625
85.14404296875
93.3837890625
97.0458984375
97.0458984375
104.3701171875
112.60986328125
124.51171875
130.0048828125
130.92041015625
135.498046875
134.58251953125
132.75146484375
147.39990234375
160.21728515625
158.38623046875
162.04833984375
162.04833984375
174.86572265625
178.52783203125
178.52783203125
180.35888671875
191.34521484375
198.66943359375
191.34521484375
198.66943359375
199.5849609375
200.50048828125
204.16259765625
211.48681640625
221.5576171875
228.8818359375
226.13525390625
226.13525390625
236.2060546875
227.05078125
248.10791015625
238.95263671875
234.375
225.2197265625
217.8955078125
220.64208984375
219.7265625
210.5712890625
205.99365234375
184.9365234375
175.78125
158.38623046875
151.9775390625
140.9912109375
124.51171875
112.60986328125
106.201171875
101.62353515625
86.97509765625
82.3974609375
76.904296875
58.59375
55.84716796875
43.02978515625
32.04345703125
22.88818359375
25.634765625
23.8037109375
7.32421875
10.986328125
2.74658203125
1.8310546875
11.90185546875
10.07080078125
-3.662109375
-9.1552734375
-16.4794921875
-16.4794921875
-5.4931640625
-6.40869140625
-6.40869140625
-15.56396484375
-20.1416015625
-18.310546875
-9.1552734375
-14.6484375
-13.73291015625
-3.662109375
-13.73291015625
-19.22607421875
-13.73291015625
-21.97265625
-19.22607421875
-17.39501953125
-22.88818359375
-18.310546875
-28.38134765625
-25.634765625
-17.39501953125
-15.56396484375
-16.4794921875
-10.07080078125
-14.6484375
-13.73291015625
-12.8173828125
-12.8173828125
-9.1552734375
-9.1552734375
-12.8173828125
-11.90185546875
-11.90185546875
-8.23974609375
-11.90185546875
-6.40869140625
-10.986328125
-7.32421875
-10.07080078125
-2.74658203125
2.74658203125
-1.8310546875
-3.662109375
-2.74658203125
3.662109375
0.91552734375
-6.40869140625
5.4931640625
-1.8310546875
2.74658203125
2.74658203125
2.74658203125
1.8310546875
8.23974609375
-1.8310546875
-4.57763671875
6.40869140625
4.57763671875
2.74658203125
0.91552734375
-3.662109375
1.8310546875
8.23974609375
1.8310546875
6.40869140625
8.23974609375
3.662109375
4.57763671875
10.07080078125
0
0.91552734375
-1.8310546875
0
6.40869140625
5.4931640625
0
-7.32421875
0.91552734375
0.91552734375
7.32421875
0.91552734375
6.40869140625
10.986328125
1.8310546875
-0.91552734375
2.74658203125
-0.91552734375
-4.57763671875
-12.8173828125
-2.74658203125
-4.57763671875
-10.986328125
-5.4931640625
-3.662109375
-4.57763671875
-10.986328125
-12.8173828125
-6.40869140625
-18.310546875
-3.662109375
-11.90185546875
-21.05712890625
-8.23974609375
-5.4931640625
-11.90185546875
-18.310546875
-16.4794921875
-4.57763671875
-10.986328125
-10.986328125
-17.39501953125
-21.97265625
-17.39501953125
-18.310546875
-18.310546875
-20.1416015625
-25.634765625
-10.07080078125
-11.90185546875
-17.39501953125
-14.6484375
-10.07080078125
-20.1416015625
-13.73291015625
-21.05712890625
-22.88818359375
-23.8037109375
-22.88818359375
-15.56396484375
-15.56396484375
-16.4794921875
-31.1279296875
-27.4658203125
-19.22607421875
-19.22607421875
-16.4794921875
-13.73291015625
-9.1552734375
7.32421875
0
18.310546875
17.39501953125
10.07080078125
11.90185546875
29.296875
23.8037109375
20.1416015625
28.38134765625
42.1142578125
59.50927734375
54.931640625
52.18505859375
58.59375
62.255859375
65.91796875
75.0732421875
74.15771484375
77.81982421875
68.66455078125
73.2421875
81.48193359375
82.3974609375
65.91796875
58.59375
49.4384765625
38.4521484375
29.296875
15.56396484375
-5.4931640625
-2.74658203125
-7.32421875
-17.39501953125
-17.39501953125
-23.8037109375
-12.8173828125
-18.310546875
-30.21240234375
-32.04345703125
-21.97265625
-9.1552734375
-26.55029296875
-51.26953125
-33.87451171875
-28.38134765625
-34.7900390625
-33.87451171875
-39.36767578125
-43.02978515625
-42.1142578125
-39.36767578125
-51.26953125
-49.4384765625
-40.283203125
-43.9453125
-46.69189453125
-43.02978515625
-39.36767578125
-38.4521484375
-48.52294921875
-51.26953125
-45.7763671875
-39.36767578125
-45.7763671875
-50.35400390625
-44.86083984375
-32.958984375
-35.70556640625
-13.73291015625
8.23974609375
26.55029296875
55.84716796875
105.28564453125
163.87939453125
232.5439453125
318.603515625
402.83203125
482.48291015625
546.56982421875
578.61328125
569.4580078125
406.494140625
269.1650390625
146.484375
35.70556640625
-53.1005859375
-145.56884765625
-222.47314453125
-252.685546875
-247.1923828125
-215.14892578125
-164.794921875
-126.3427734375
-96.13037109375
-60.4248046875
-40.283203125
-15.56396484375
-12.8173828125
-9.1552734375
-0.91552734375
-9.1552734375
-12.8173828125
-9.1552734375
-19.22607421875
-14.6484375
-15.56396484375
-10.986328125
-14.6484375
-20.1416015625
-18.310546875
-14.6484375
-16.4794921875
-11.90185546875
-10.07080078125
-11.90185546875
-4.57763671875
-13.73291015625
-15.56396484375
-2.74658203125
0
-9.1552734375
-16.4794921875
-18.310546875
-0.91552734375
-11.90185546875
-8.23974609375
-15.56396484375
-18.310546875
-11.90185546875
-3.662109375
-2.74658203125
-9.1552734375
0.91552734375
2.74658203125
-7.32421875
2.74658203125
2.74658203125
-8.23974609375
-2.74658203125
6.40869140625
10.07080078125
15.56396484375
21.05712890625
11.90185546875
16.4794921875
21.05712890625
10.07080078125
21.97265625
36.62109375
19.22607421875
29.296875
28.38134765625
29.296875
36.62109375
32.04345703125
32.04345703125
31.1279296875
37.53662109375
39.36767578125
35.70556640625
47.607421875
41.19873046875
51.26953125
59.50927734375
59.50927734375
61.34033203125
64.0869140625
65.91796875
66.83349609375
69.580078125
67.7490234375
78.7353515625
75.98876953125
89.7216796875
86.0595703125
91.552734375
103.45458984375
94.29931640625
107.11669921875
117.1875
117.1875
126.3427734375
131.8359375
131.8359375
138.24462890625
135.498046875
144.6533203125
147.39990234375
155.6396484375
163.87939453125
179.443359375
165.71044921875
174.86572265625
176.69677734375
180.35888671875
173.03466796875
187.68310546875
193.17626953125
194.091796875
189.51416015625
195.9228515625
203.2470703125
194.091796875
200.50048828125
215.14892578125
206.9091796875
208.740234375
214.2333984375
192.2607421875
189.51416015625
193.17626953125
186.767578125
183.10546875
167.54150390625
151.9775390625
141.90673828125
124.51171875
120.849609375
112.60986328125
98.876953125
97.96142578125
96.13037109375
70.49560546875
50.35400390625
44.86083984375
43.02978515625
32.04345703125
21.05712890625
6.40869140625
-6.40869140625
-1.8310546875
-0.91552734375
-9.1552734375
-17.39501953125
-18.310546875
-5.4931640625
-21.97265625
-31.1279296875
-28.38134765625
-24.71923828125
-32.04345703125
-36.62109375
-36.62109375
-31.1279296875
-35.70556640625
-39.36767578125
-52.18505859375
-38.4521484375
-44.86083984375
-50.35400390625
-44.86083984375
-45.7763671875
-38.4521484375
-43.02978515625
-43.02978515625
-47.607421875
-49.4384765625
-50.35400390625
-52.18505859375
-50.35400390625
-36.62109375
-37.53662109375
-56.7626953125
-60.4248046875
-49.4384765625
-42.1142578125
-47.607421875
-43.02978515625
-56.7626953125
-42.1142578125
-34.7900390625
-40.283203125
-34.7900390625
-37.53662109375
-36.62109375
-42.1142578125
-54.931640625
-38.4521484375
-36.62109375
-54.931640625
-32.958984375
-33.87451171875
-43.02978515625
-37.53662109375
-29.296875
-24.71923828125
-36.62109375
-43.02978515625
-45.7763671875
-31.1279296875
-36.62109375
-21.97265625
-23.8037109375
-27.4658203125
-24.71923828125
-32.958984375
-36.62109375
-32.04345703125
-28.38134765625
-21.97265625
-31.1279296875
-32.958984375
-24.71923828125
-28.38134765625
-31.1279296875
-38.4521484375
-31.1279296875
-45.7763671875
-35.70556640625
-35.70556640625
-39.36767578125
-27.4658203125
-33.87451171875
-31.1279296875
-20.1416015625
-12.8173828125
-30.21240234375
-34.7900390625
-29.296875
-21.97265625
-32.958984375
-33.87451171875
-38.4521484375
-39.36767578125
-44.86083984375
-35.70556640625
-32.04345703125
-25.634765625
-50.35400390625
-40.283203125
-42.1142578125
-53.1005859375
-54.01611328125
-43.02978515625
-41.19873046875
-43.9453125
-46.69189453125
-47.607421875
-40.283203125
-32.04345703125
-58.59375
-62.255859375
-55.84716796875
-54.01611328125
-65.91796875
-55.84716796875
-51.26953125
-59.50927734375
-54.931640625
-52.18505859375
-53.1005859375
-71.4111328125
-68.66455078125
-73.2421875
-64.0869140625
-63.17138671875
-56.7626953125
-65.91796875
-51.26953125
-61.34033203125
-64.0869140625
-61.34033203125
-69.580078125
-72.32666015625
-58.59375
-54.01611328125
-62.255859375
-60.4248046875
-64.0869140625
-66.83349609375
-56.7626953125
-56.7626953125
-65.91796875
-46.69189453125
-45.7763671875
-34.7900390625
-27.4658203125
-21.05712890625
-26.55029296875
-28.38134765625
-34.7900390625
-32.04345703125
-26.55029296875
-21.05712890625
-8.23974609375
-5.4931640625
4.57763671875
0.91552734375
-4.57763671875
16.4794921875
12.8173828125
19.22607421875
22.88818359375
25.634765625
24.71923828125
33.87451171875
23.8037109375
12.8173828125
13.73291015625
15.56396484375
4.57763671875
2.74658203125
-12.8173828125
-26.55029296875
-35.70556640625
-43.9453125
-50.35400390625
-62.255859375
-64.0869140625
-67.7490234375
-60.4248046875
-64.0869140625
-74.15771484375
-80.56640625
-80.56640625
-87.890625
-84.228515625
-79.65087890625
-87.890625
-88.80615234375
-85.14404296875
-89.7216796875
-97.96142578125
-95.21484375
-86.0595703125
-90.63720703125
-91.552734375
-93.3837890625
-103.45458984375
-95.21484375
-90.63720703125
-87.890625
-96.13037109375
-93.3837890625
-89.7216796875
-89.7216796875
-100.7080078125
-109.86328125
-109.86328125
-97.96142578125
-96.13037109375
-83.31298828125
-78.7353515625
-84.228515625
-69.580078125
-42.1142578125
-13.73291015625
21.05712890625
81.48193359375
129.08935546875
196.83837890625
281.982421875
357.97119140625
433.04443359375
481.5673828125
516.357421875
450.439453125
271.91162109375
163.87939453125
40.283203125
-46.69189453125
-130.92041015625
-216.064453125
-249.93896484375
-271.91162109375
-261.8408203125
-259.09423828125
-224.30419921875
-188.5986328125
-161.1328125
-135.498046875
-114.44091796875
-89.7216796875
-64.0869140625
-59.50927734375
-59.50927734375
-58.59375
-54.931640625
-64.0869140625
-64.0869140625
-61.34033203125
-56.7626953125
-58.59375
-67.7490234375
-63.17138671875
-52.18505859375
-61.34033203125
-60.4248046875
-62.255859375
-60.4248046875
-59.50927734375
-58.59375
-54.931640625
-56.7626953125
-54.01611328125
-51.26953125
-51.26953125
-47.607421875
-51.26953125
-54.931640625
-47.607421875
-51.26953125
-56.7626953125
-53.1005859375
-44.86083984375
-50.35400390625
-45.7763671875
-49.4384765625
-41.19873046875
-28.38134765625
-32.958984375
-35.70556640625
-35.70556640625
-35.70556640625
-31.1279296875
-36.62109375
-30.21240234375
-36.62109375
-30.21240234375
-24.71923828125
-24.71923828125
-26.55029296875
-24.71923828125
-16.4794921875
-13.73291015625
-20.1416015625
-13.73291015625
-21.05712890625
-14.6484375
-0.91552734375
4.57763671875
4.57763671875
1.8310546875
-2.74658203125
1.8310546875
8.23974609375
15.56396484375
11.90185546875
9.1552734375
17.39501953125
32.958984375
23.8037109375
23.8037109375
27.4658203125
32.958984375
26.55029296875
32.04345703125
46.69189453125
46.69189453125
53.1005859375
57.67822265625
66.83349609375
72.32666015625
75.98876953125
71.4111328125
76.904296875
77.81982421875
87.890625
88.80615234375
108.0322265625
120.849609375
115.3564453125
122.6806640625
121.76513671875
132.75146484375
129.08935546875
120.849609375
127.25830078125
134.58251953125
141.90673828125
139.16015625
153.80859375
162.04833984375
162.04833984375
165.71044921875
171.20361328125
168.45703125
165.71044921875
170.2880859375
173.9501953125
173.9501953125
173.9501953125
168.45703125
171.20361328125
166.6259765625
160.21728515625
148.3154296875
137.3291015625
131.8359375
123.59619140625
119.93408203125
106.201171875
88.80615234375
70.49560546875
71.4111328125
65.00244140625
52.18505859375
34.7900390625
25.634765625
22.88818359375
11.90185546875
8.23974609375
-5.4931640625
-10.07080078125
-19.22607421875
-30.21240234375
-30.21240234375
-37.53662109375
-41.19873046875
-44.86083984375
-43.9453125
-52.18505859375
-50.35400390625
-54.01611328125
-52.18505859375
-40.283203125
-49.4384765625
-50.35400390625
-54.01611328125
-55.84716796875
-68.66455078125
-75.98876953125
-75.0732421875
-62.255859375
-62.255859375
-64.0869140625
-58.59375
-62.255859375
-71.4111328125
-65.91796875
-71.4111328125
-75.0732421875
-74.15771484375
-71.4111328125
-70.49560546875
-77.81982421875
-77.81982421875
-72.32666015625
-75.0732421875
-72.32666015625
-68.66455078125
-71.4111328125
-69.580078125
-68.66455078125
-62.255859375
-60.4248046875
-48.52294921875
-57.67822265625
-56.7626953125
-68.66455078125
-53.1005859375
-49.4384765625
-59.50927734375
-61.34033203125
-64.0869140625
-62.255859375
-53.1005859375
-54.931640625
-58.59375
-52.18505859375
-50.35400390625
-53.1005859375
-47.607421875
-41.19873046875
-44.86083984375
-45.7763671875
-45.7763671875
-51.26953125
-53.1005859375
-46.69189453125
-32.04345703125
-40.283203125
-44.86083984375
-46.69189453125
-49.4384765625
-43.9453125
-48.52294921875
-44.86083984375
-39.36767578125
-43.9453125
-33.87451171875
-41.19873046875
-38.4521484375
-37.53662109375
-33.87451171875
-40.283203125
-39.36767578125
-38.4521484375
-33.87451171875
-34.7900390625
-33.87451171875
-34.7900390625
-43.02978515625
-45.7763671875
-45.7763671875
-43.9453125
-33.87451171875
-36.62109375
-43.9453125
-48.52294921875
-41.19873046875
-45.7763671875
-42.1142578125
-44.86083984375
-47.607421875
-48.52294921875
-58.59375
-65.91796875
-54.931640625
-58.59375
-52.18505859375
-53.1005859375
-65.91796875
-64.0869140625
-52.18505859375
-57.67822265625
-58.59375
-43.9453125
-45.7763671875
-63.17138671875
-59.50927734375
-52.18505859375
-58.59375
-70.49560546875
-50.35400390625
-55.84716796875
-60.4248046875
-65.00244140625
-55.84716796875
-57.67822265625
-64.0869140625
-58.59375
-61.34033203125
-53.1005859375
-57.67822265625
-59.50927734375
-54.01611328125
-55.84716796875
-60.4248046875
-60.4248046875
-61.34033203125
-57.67822265625
-60.4248046875
-57.67822265625
-58.59375
-54.01611328125
-56.7626953125
-57.67822265625
-62.255859375
-54.01611328125
-55.84716796875
-50.35400390625
-46.69189453125
-36.62109375
-33.87451171875
-34.7900390625
-51.26953125
-30.21240234375
-22.88818359375
-25.634765625
-14.6484375
-18.310546875
-13.73291015625
-13.73291015625
1.8310546875
14.6484375
26.55029296875
21.97265625
20.1416015625
29.296875
29.296875
20.1416015625
42.1142578125
43.9453125
35.70556640625
48.52294921875
49.4384765625
37.53662109375
38.4521484375
38.4521484375
44.86083984375
18.310546875
-4.57763671875
21.05712890625
-10.07080078125
-32.04345703125
-36.62109375
-35.70556640625
-44.86083984375
-43.02978515625
-48.52294921875
-53.1005859375
-52.18505859375
-65.00244140625
-65.00244140625
-50.35400390625
-62.255859375
-57.67822265625
-62.255859375
-65.00244140625
-75.98876953125
-63.17138671875
-71.4111328125
-73.2421875
-73.2421875
-71.4111328125
-67.7490234375
-67.7490234375
-65.91796875
-65.91796875
-72.32666015625
-66.83349609375
-67.7490234375
-64.0869140625
-70.49560546875
-70.49560546875
-74.15771484375
-86.0595703125
-80.56640625
-75.0732421875
-75.98876953125
-71.4111328125
-62.255859375
-51.26953125
-43.9453125
-26.55029296875
3.662109375
39.36767578125
68.66455078125
132.75146484375
195.9228515625
283.8134765625
358.88671875
429.38232421875
511.77978515625
548.40087890625
545.654296875
404.6630859375
260.92529296875
139.16015625
23.8037109375
-68.66455078125
-170.2880859375
-249.0234375
-274.658203125
-283.8134765625
-245.361328125
-179.443359375
-167.54150390625
-127.25830078125
-87.890625
-66.83349609375
-53.1005859375
-37.53662109375
-34.7900390625
-39.36767578125
-36.62109375
-32.04345703125
-34.7900390625
-31.1279296875
-32.958984375
-32.04345703125
-34.7900390625
-34.7900390625
-42.1142578125
-33.87451171875
-25.634765625
-44.86083984375
-34.7900390625
-30.21240234375
-19.22607421875
-21.97265625
-27.4658203125
-29.296875
-27.4658203125
-21.05712890625
-28.38134765625
-26.55029296875
-23.8037109375
-22.88818359375
-14.6484375
-13.73291015625
-21.97265625
-23.8037109375
-17.39501953125
-30.21240234375
-22.88818359375
-19.22607421875
-20.1416015625
-16.4794921875
-14.6484375
-16.4794921875
-12.8173828125
-2.74658203125
0
0
-6.40869140625
-5.4931640625
-9.1552734375
8.23974609375
13.73291015625
10.07080078125
13.73291015625
10.986328125
7.32421875
21.97265625
14.6484375
7.32421875
11.90185546875
29.296875
21.97265625
28.38134765625
32.04345703125
32.04345703125
30.21240234375
36.62109375
32.04345703125
42.1142578125
32.04345703125
30.21240234375
51.26953125
54.01611328125
54.01611328125
61.34033203125
59.50927734375
65.00244140625
74.15771484375
74.15771484375
87.890625
90.63720703125
88.80615234375
95.21484375
97.96142578125
97.96142578125
106.201171875
106.201171875
111.6943359375
108.94775390625
119.0185546875
133.6669921875
149.23095703125
142.822265625
144.6533203125
156.55517578125
156.55517578125
149.23095703125
151.06201171875
151.06201171875
166.6259765625
183.10546875
183.10546875
188.5986328125
173.03466796875
179.443359375
193.17626953125
200.50048828125
200.50048828125
204.16259765625
208.740234375
212.40234375
216.97998046875
214.2333984375
215.14892578125
216.064453125
216.064453125
205.078125
196.83837890625
182.18994140625
173.03466796875
168.45703125
150.146484375
140.07568359375
138.24462890625
132.75146484375
118.10302734375
109.86328125
102.5390625
84.228515625
74.15771484375
70.49560546875
55.84716796875
36.62109375
29.296875
16.4794921875
10.986328125
18.310546875
4.57763671875
-9.1552734375
-5.4931640625
-1.8310546875
-22.88818359375
-13.73291015625
-22.88818359375
-35.70556640625
-43.02978515625
-41.19873046875
-43.9453125
-41.19873046875
-36.62109375
-37.53662109375
-44.86083984375
-42.1142578125
-46.69189453125
-52.18505859375
-50.35400390625
-46.69189453125
-52.18505859375
-53.1005859375
-36.62109375
-21.05712890625
-33.87451171875
-31.1279296875
-31.1279296875
-31.1279296875
-26.55029296875
-27.4658203125
-34.7900390625
-42.1142578125
-41.19873046875
-35.70556640625
-24.71923828125
-14.6484375
-19.22607421875
-22.88818359375
-17.39501953125
-17.39501953125
-21.97265625
-14.6484375
-19.22607421875
-27.4658203125
-26.55029296875
-32.958984375
-28.38134765625
-23.8037109375
-32.958984375
-25.634765625
-22.88818359375
-24.71923828125
-25.634765625
-11.90185546875
-8.23974609375
-6.40869140625
-16.4794921875
-14.6484375
0
-4.57763671875
-13.73291015625
-6.40869140625
-10.07080078125
-4.57763671875
1.8310546875
-10.986328125
-10.07080078125
-20.1416015625
-13.73291015625
-10.07080078125
-7.32421875
-0.91552734375
-4.57763671875
-0.91552734375
-6.40869140625
-3.662109375
-3.662109375
1.8310546875
2.74658203125
1.8310546875
0
-1.8310546875
-2.74658203125
5.4931640625
10.986328125
5.4931640625
1.8310546875
0.91552734375
7.32421875
6.40869140625
0
1.8310546875
1.8310546875
-3.662109375
-3.662109375
1.8310546875
-15.56396484375
-6.40869140625
-0.91552734375
-1.8310546875
2.74658203125
-10.07080078125
3.662109375
0.91552734375
0.91552734375
-5.4931640625
-15.56396484375
-11.90185546875
-2.74658203125
-10.986328125
1.8310546875
0
1.8310546875
0.91552734375
-8.23974609375
-10.986328125
-14.6484375
-10.07080078125
-10.07080078125
6.40869140625
-1.8310546875
-10.986328125
-17.39501953125
-21.05712890625
-23.8037109375
-24.71923828125
-27.4658203125
-33.87451171875
-31.1279296875
-38.4521484375
-28.38134765625
-10.986328125
-3.662109375
-0.91552734375
-12.8173828125
-14.6484375
-12.8173828125
-26.55029296875
-21.97265625
-24.71923828125
-32.958984375
-37.53662109375
-32.04345703125
-25.634765625
-19.22607421875
-11.90185546875
-10.07080078125
-25.634765625
-30.21240234375
-31.1279296875
-36.62109375
-41.19873046875
-48.52294921875
-58.59375
-55.84716796875
-23.8037109375
-27.4658203125
-32.04345703125
-29.296875
-28.38134765625
-17.39501953125
-10.07080078125
-27.4658203125
-17.39501953125
-21.97265625
-21.97265625
-21.05712890625
-1.8310546875
1.8310546875
-2.74658203125
-10.986328125
-1.8310546875
3.662109375
6.40869140625
16.4794921875
-8.23974609375
-13.73291015625
-0.91552734375
25.634765625
52.18505859375
44.86083984375
43.02978515625
39.36767578125
54.01611328125
59.50927734375
54.01611328125
55.84716796875
61.34033203125
86.97509765625
82.3974609375
79.65087890625
70.49560546875
63.17138671875
84.228515625
81.48193359375
72.32666015625
55.84716796875
54.01611328125
57.67822265625
40.283203125
19.22607421875
2.74658203125
-21.97265625
-29.296875
-32.958984375
-29.296875
-21.05712890625
-12.8173828125
-18.310546875
-32.958984375
-14.6484375
-11.90185546875
-16.4794921875
-17.39501953125
-15.56396484375
-13.73291015625
-23.8037109375
-30.21240234375
-36.62109375
-29.296875
-41.19873046875
-46.69189453125
-46.69189453125
-58.59375
-59.50927734375
-40.283203125
-44.86083984375
-50.35400390625
-56.7626953125
-38.4521484375
-34.7900390625
-42.1142578125
-35.70556640625
-52.18505859375
-65.00244140625
-77.81982421875
-89.7216796875
-90.63720703125
-98.876953125
-101.62353515625
-78.7353515625
-11.90185546875
98.876953125
117.1875
136.41357421875
173.03466796875
249.0234375
354.30908203125
433.04443359375
496.2158203125
567.626953125
585.02197265625
565.7958984375
413.818359375
277.40478515625
157.470703125
43.02978515625
-61.34033203125
-160.21728515625
-237.12158203125
-270.99609375
-265.5029296875
-227.96630859375
-191.34521484375
-148.3154296875
-133.6669921875
-112.60986328125
-114.44091796875
-99.79248046875
-71.4111328125
-38.4521484375
2.74658203125
16.4794921875
-16.4794921875
-18.310546875
-20.1416015625
-14.6484375
-8.23974609375
6.40869140625
-1.8310546875
-42.1142578125
-66.83349609375
-90.63720703125
-75.98876953125
-20.1416015625
29.296875
13.73291015625
31.1279296875
5.4931640625
-15.56396484375
3.662109375
3.662109375
1.8310546875
1.8310546875
0.91552734375
7.32421875
-10.07080078125
-4.57763671875
-20.1416015625
-32.04345703125
-27.4658203125
-34.7900390625
-37.53662109375
-39.36767578125
-28.38134765625
-8.23974609375
10.07080078125
20.1416015625
20.1416015625
21.97265625
42.1142578125
30.21240234375
1.8310546875
-12.8173828125
0
-5.4931640625
-8.23974609375
-11.90185546875
22.88818359375
38.4521484375
1.8310546875
0
23.8037109375
63.17138671875
69.580078125
52.18505859375
28.38134765625
15.56396484375
9.1552734375
-0.91552734375
3.662109375
-3.662109375
20.1416015625
97.96142578125
87.890625
80.56640625
54.931640625
31.1279296875
0.91552734375
-7.32421875
5.4931640625
32.958984375
115.3564453125
119.93408203125
108.0322265625
122.6806640625
139.16015625
134.58251953125
120.849609375
116.27197265625
88.80615234375
93.3837890625
114.44091796875
99.79248046875
126.3427734375
91.552734375
56.7626953125
70.49560546875
36.62109375
41.19873046875
68.66455078125
119.93408203125
232.5439453125
260.009765625
176.69677734375
173.03466796875
203.2470703125
189.51416015625
199.5849609375
187.68310546875
214.2333984375
204.16259765625
197.75390625
188.5986328125
188.5986328125
199.5849609375
216.97998046875
226.13525390625
205.078125
179.443359375
166.6259765625
148.3154296875
110.77880859375
133.6669921875
76.904296875
14.6484375
22.88818359375
172.119140625
316.7724609375
284.72900390625
185.85205078125
155.6396484375
113.525390625
88.80615234375
97.0458984375
83.31298828125
68.66455078125
57.67822265625
43.9453125
28.38134765625
10.07080078125
1.8310546875
7.32421875
-5.4931640625
-16.4794921875
-21.97265625
-10.986328125
-29.296875
-36.62109375
-53.1005859375
-68.66455078125
-86.97509765625
-97.0458984375
-98.876953125
-63.17138671875
-22.88818359375
10.986328125
-33.87451171875
-51.26953125
-55.84716796875
-25.634765625
-40.283203125
-53.1005859375
-51.26953125
-65.91796875
-62.255859375
-42.1142578125
-38.4521484375
-46.69189453125
-41.19873046875
-43.9453125
-50.35400390625
-58.59375
-49.4384765625
-61.34033203125
-70.49560546875
-80.56640625
-70.49560546875
-78.7353515625
-81.48193359375
-76.904296875
-84.228515625
-76.904296875
-62.255859375
-26.55029296875
-44.86083984375
-57.67822265625
-64.0869140625
-57.67822265625
-62.255859375
-55.84716796875
-26.55029296875
-19.22607421875
-49.4384765625
-35.70556640625
-67.7490234375
-92.46826171875
-114.44091796875
-123.59619140625
-85.14404296875
-33.87451171875
-5.4931640625
-5.4931640625
-35.70556640625
-56.7626953125
-57.67822265625
-23.8037109375
-38.4521484375
-44.86083984375
-40.283203125
-30.21240234375
-35.70556640625
-49.4384765625
-50.35400390625
-71.4111328125
-75.0732421875
-66.83349609375
-57.67822265625
-24.71923828125
-38.4521484375
-31.1279296875
-36.62109375
-34.7900390625
-44.86083984375
-57.67822265625
-45.7763671875
-56.7626953125
-65.91796875
-98.876953125
-114.44091796875
-160.21728515625
-122.6806640625
63.17138671875
92.46826171875
15.56396484375
-3.662109375
-33.87451171875
-45.7763671875
-32.04345703125
-64.0869140625
-92.46826171875
-86.0595703125
-78.7353515625
-91.552734375
-65.00244140625
-55.84716796875
-67.7490234375
-52.18505859375
-37.53662109375
-38.4521484375
-49.4384765625
-74.15771484375
-75.98876953125
-63.17138671875
-20.1416015625
-34.7900390625
-46.69189453125
-43.9453125
-48.52294921875
-54.931640625
-65.00244140625
-38.4521484375
-44.86083984375
-37.53662109375
-34.7900390625
-56.7626953125
-65.91796875
-80.56640625
-104.3701171875
-94.29931640625
-79.65087890625
-96.13037109375
-84.228515625
-84.228515625
-65.91796875
-49.4384765625
-24.71923828125
-47.607421875
-55.84716796875
-67.7490234375
-88.80615234375
-108.94775390625
-116.27197265625
-95.21484375
-71.4111328125
-42.1142578125
-56.7626953125
-67.7490234375
-55.84716796875
-64.0869140625
-90.63720703125
-100.7080078125
-100.7080078125
-86.0595703125
-67.7490234375
-42.1142578125
-32.958984375
-42.1142578125
-68.66455078125
-71.4111328125
-86.97509765625
-102.5390625
-102.5390625
-73.2421875
-84.228515625
-97.96142578125
-63.17138671875
-24.71923828125
-49.4384765625
-82.3974609375
-89.7216796875
-53.1005859375
-65.00244140625
-78.7353515625
-90.63720703125
-86.0595703125
-89.7216796875
-96.13037109375
-71.4111328125
-65.91796875
-89.7216796875
-72.32666015625
-59.50927734375
-47.607421875
-49.4384765625
-49.4384765625
-68.66455078125
-43.02978515625
-11.90185546875
-48.52294921875
-73.2421875
-42.1142578125
-18.310546875
-9.1552734375
13.73291015625
6.40869140625
-8.23974609375
12.8173828125
2.74658203125
-18.310546875
-1.8310546875
24.71923828125
31.1279296875
16.4794921875
9.1552734375
4.57763671875
3.662109375
10.07080078125
0.91552734375
-24.71923828125
-21.05712890625
-44.86083984375
-74.15771484375
-89.7216796875
-75.98876953125
-77.81982421875
-84.228515625
-41.19873046875
-44.86083984375
-57.67822265625
-91.552734375
-112.60986328125
-94.29931640625
-76.904296875
-99.79248046875
-86.97509765625
-97.96142578125
-95.21484375
-86.97509765625
-88.80615234375
-81.48193359375
-84.228515625
-114.44091796875
-111.6943359375
-98.876953125
-104.3701171875
-103.45458984375
-105.28564453125
-118.10302734375
-128.173828125
-132.75146484375
-123.59619140625
-102.5390625
-107.11669921875
-101.62353515625
-91.552734375
-83.31298828125
-82.3974609375
-86.97509765625
-94.29931640625
-86.0595703125
-88.80615234375
-62.255859375
-42.1142578125
-7.32421875
55.84716796875
117.1875
191.34521484375
266.41845703125
348.81591796875
413.818359375
481.5673828125
531.005859375
516.357421875
361.63330078125
210.5712890625
69.580078125
-54.01611328125
-127.25830078125
-207.82470703125
-297.54638671875
-319.51904296875
-312.19482421875
-312.19482421875
-253.60107421875
-176.69677734375
-143.73779296875
-127.25830078125
-123.59619140625
-116.27197265625
-98.876953125
-54.01611328125
-23.8037109375
-52.18505859375
-60.4248046875
-49.4384765625
-80.56640625
-62.255859375
-63.17138671875
-78.7353515625
-86.97509765625
-90.63720703125
-67.7490234375
-79.65087890625
-85.14404296875
-66.83349609375
-77.81982421875
-93.3837890625
-88.80615234375
-84.228515625
-78.7353515625
-97.96142578125
-105.28564453125
-82.3974609375
-80.56640625
-64.0869140625
-78.7353515625
-96.13037109375
-84.228515625
-90.63720703125
-117.1875
-112.60986328125
-45.7763671875
2.74658203125
-31.1279296875
-45.7763671875
-48.52294921875
-69.580078125
-72.32666015625
-82.3974609375
-90.63720703125
-70.49560546875
-38.4521484375
-38.4521484375
-76.904296875
-86.97509765625
-81.48193359375
-65.91796875
-68.66455078125
-32.958984375
-4.57763671875
-16.4794921875
-19.22607421875
-34.7900390625
-28.38134765625
-36.62109375
-53.1005859375
-41.19873046875
-32.958984375
-22.88818359375
-18.310546875
-27.4658203125
-1.8310546875
-18.310546875
-30.21240234375
-32.958984375
-30.21240234375
-21.05712890625
-44.86083984375
-25.634765625
-5.4931640625
-27.4658203125
-21.97265625
2.74658203125
10.07080078125
24.71923828125
-0.91552734375
8.23974609375
21.97265625
39.36767578125
24.71923828125
50.35400390625
76.904296875
56.7626953125
46.69189453125
60.4248046875
56.7626953125
63.17138671875
57.67822265625
62.255859375
82.3974609375
79.65087890625
72.32666015625
66.83349609375
67.7490234375
68.66455078125
49.4384765625
33.87451171875
33.87451171875
97.0458984375
160.21728515625
143.73779296875
115.3564453125
109.86328125
134.58251953125
158.38623046875
115.3564453125
124.51171875
143.73779296875
106.201171875
130.0048828125
105.28564453125
89.7216796875
71.4111328125
108.0322265625
190.4296875
175.78125
127.25830078125
89.7216796875
61.34033203125
32.04345703125
10.986328125
-22.88818359375
-38.4521484375
-26.55029296875
-10.986328125
0.91552734375
-18.310546875
-2.74658203125
0
-8.23974609375
-65.91796875
-101.62353515625
-89.7216796875
-36.62109375
-46.69189453125
-68.66455078125
-97.96142578125
-94.29931640625
-67.7490234375
-97.96142578125
-133.6669921875
-135.498046875
-114.44091796875
-74.15771484375
-71.4111328125
-130.92041015625
-110.77880859375
-112.60986328125
-129.08935546875
-134.58251953125
-134.58251953125
-114.44091796875
-105.28564453125
-121.76513671875
-140.9912109375
-142.822265625
-163.87939453125
-174.86572265625
-140.07568359375
-124.51171875
-188.5986328125
-190.4296875
-124.51171875
-132.75146484375
-137.3291015625
-110.77880859375
-120.849609375
-137.3291015625
-117.1875
-160.21728515625
-167.54150390625
-146.484375
-139.16015625
-138.24462890625
-123.59619140625
-106.201171875
-119.0185546875
-114.44091796875
-139.16015625
-165.71044921875
-161.1328125
-132.75146484375
-140.07568359375
-141.90673828125
-102.5390625
-45.7763671875
-70.49560546875
-83.31298828125
-117.1875
-145.56884765625
-144.6533203125
-159.3017578125
-185.85205078125
-181.2744140625
-131.8359375
-100.7080078125
-93.3837890625
-102.5390625
-116.27197265625
-139.16015625
-159.3017578125
-155.6396484375
-166.6259765625
-129.08935546875
-94.29931640625
-72.32666015625
-80.56640625
-86.97509765625
-111.6943359375
-149.23095703125
-152.89306640625
-154.72412109375
-157.470703125
-175.78125
-135.498046875
-106.201171875
-114.44091796875
-151.06201171875
-161.1328125
-81.48193359375
-83.31298828125
-118.10302734375
-104.3701171875
-143.73779296875
-167.54150390625
-136.41357421875
-130.0048828125
-115.3564453125
-94.29931640625
-111.6943359375
-129.08935546875
-129.08935546875
-147.39990234375
-168.45703125
-117.1875
-98.876953125
-107.11669921875
-129.08935546875
-143.73779296875
-150.146484375
-152.89306640625
-148.3154296875
-125.42724609375
-106.201171875
-108.94775390625
-141.90673828125
-143.73779296875
-146.484375
-180.35888671875
-197.75390625
-172.119140625
-133.6669921875
-169.37255859375
-205.078125
-168.45703125
-151.06201171875
-104.3701171875
-119.93408203125
-138.24462890625
-111.6943359375
-145.56884765625
-195.9228515625
-222.47314453125
-200.50048828125
-209.65576171875
-214.2333984375
-143.73779296875
-134.58251953125
-97.0458984375
-98.876953125
-97.0458984375
-94.29931640625
-122.6806640625
-132.75146484375
-147.39990234375
-175.78125
-173.03466796875
-154.72412109375
-148.3154296875
-153.80859375
-155.6396484375
-195.9228515625
-195.00732421875
-198.66943359375
-172.119140625
-162.9638671875
-188.5986328125
-134.58251953125
-140.9912109375
-156.55517578125
-152.89306640625
-163.87939453125
-166.6259765625
-74.15771484375
-73.2421875
-132.75146484375
-157.470703125
-112.60986328125
-138.24462890625
-112.60986328125
-51.26953125
-51.26953125
-75.98876953125
-98.876953125
-80.56640625
-98.876953125
-130.0048828125
-123.59619140625
-64.0869140625
-72.32666015625
-77.81982421875
-63.17138671875
-32.958984375
-63.17138671875
-45.7763671875
-43.02978515625
-130.0048828125
-175.78125
-180.35888671875
-173.9501953125
-130.92041015625
-83.31298828125
-73.2421875
-66.83349609375
-148.3154296875
-192.2607421875
-205.99365234375
-171.20361328125
-170.2880859375
-195.00732421875
-109.86328125
-85.14404296875
-155.6396484375
-226.13525390625
-222.47314453125
-196.83837890625
-130.92041015625
-106.201171875
-130.0048828125
-124.51171875
-157.470703125
-169.37255859375
-185.85205078125
-174.86572265625
-184.9365234375
-183.10546875
-152.89306640625
-170.2880859375
-178.52783203125
-195.00732421875
-198.66943359375
-202.33154296875
-201.416015625
-221.5576171875
-214.2333984375
-188.5986328125
-186.767578125
-157.470703125
-184.02099609375
-185.85205078125
-171.20361328125
-157.470703125
-164.794921875
-128.173828125
-10.986328125
45.7763671875
78.7353515625
126.3427734375
219.7265625
329.58984375
399.169921875
444.9462890625
398.25439453125
214.2333984375
110.77880859375
7.32421875
-89.7216796875
-187.68310546875
-275.57373046875
-352.47802734375
-384.521484375
-393.6767578125
-358.88671875
-301.20849609375
-311.279296875
-298.4619140625
-259.09423828125
-199.5849609375
-155.6396484375
-135.498046875
-119.93408203125
-120.849609375
-112.60986328125
-132.75146484375
-140.9912109375
-166.6259765625
-176.69677734375
-189.51416015625
-226.13525390625
-212.40234375
-152.89306640625
-126.3427734375
-150.146484375
-117.1875
-133.6669921875
-184.02099609375
-223.388671875
-174.86572265625
-134.58251953125
-108.94775390625
-96.13037109375
-55.84716796875
-91.552734375
-90.63720703125
-108.94775390625
-113.525390625
-105.28564453125
-126.3427734375
-151.06201171875
-165.71044921875
-158.38623046875
-154.72412109375
-177.6123046875
-171.20361328125
-123.59619140625
-76.904296875
-86.0595703125
-108.94775390625
-106.201171875
-99.79248046875
-139.16015625
-173.9501953125
-190.4296875
-214.2333984375
-160.21728515625
-94.29931640625
-99.79248046875
-87.890625
-57.67822265625
-55.84716796875
-117.1875
-163.87939453125
-153.80859375
-105.28564453125
-106.201171875
-130.0048828125
-32.04345703125
-18.310546875
-58.59375
-12.8173828125
-14.6484375
-62.255859375
-80.56640625
-77.81982421875
-75.98876953125
-97.0458984375
-86.97509765625
-44.86083984375
-28.38134765625
-39.36767578125
-72.32666015625
-85.14404296875
-91.552734375
-100.7080078125
-108.0322265625
-77.81982421875
-59.50927734375
-37.53662109375
-24.71923828125
-14.6484375
-8.23974609375
6.40869140625
-13.73291015625
21.97265625
35.70556640625
20.1416015625
-12.8173828125
-14.6484375
-4.57763671875
24.71923828125
17.39501953125
15.56396484375
102.5390625
130.0048828125
89.7216796875
70.49560546875
73.2421875
61.34033203125
47.607421875
97.96142578125
103.45458984375
83.31298828125
101.62353515625
101.62353515625
76.904296875
49.4384765625
39.36767578125
41.19873046875
56.7626953125
87.890625
86.97509765625
72.32666015625
113.525390625
97.96142578125
85.14404296875
58.59375
26.55029296875
14.6484375
32.958984375
21.05712890625
-2.74658203125
-10.986328125
12.8173828125
-6.40869140625
-32.958984375
-65.00244140625
-88.80615234375
-90.63720703125
-96.13037109375
-119.93408203125
-107.11669921875
-86.0595703125
-102.5390625
-107.11669921875
-87.890625
-86.0595703125
-108.94775390625
-125.42724609375
-126.3427734375
-113.525390625
-119.93408203125
-124.51171875
-147.39990234375
-176.69677734375
-175.78125
-202.33154296875
-208.740234375
-138.24462890625
-126.3427734375
-148.3154296875
-161.1328125
-134.58251953125
-148.3154296875
-180.35888671875
-212.40234375
-212.40234375
-197.75390625
-184.9365234375
-96.13037109375
-137.3291015625
-207.82470703125
-211.48681640625
-166.6259765625
-116.27197265625
-112.60986328125
-127.25830078125
-138.24462890625
-148.3154296875
-127.25830078125
-122.6806640625
-137.3291015625
-168.45703125
-162.04833984375
-160.21728515625
-184.9365234375
-188.5986328125
-128.173828125
-146.484375
-164.794921875
-97.96142578125
-117.1875
-172.119140625
-142.822265625
-88.80615234375
-88.80615234375
-99.79248046875
-119.93408203125
-133.6669921875
-126.3427734375
-130.92041015625
-135.498046875
-135.498046875
-162.04833984375
-158.38623046875
-147.39990234375
-149.23095703125
-99.79248046875
-121.76513671875
-153.80859375
-160.21728515625
-131.8359375
-130.92041015625
-130.92041015625
-108.0322265625
-155.6396484375
-146.484375
-128.173828125
-103.45458984375
-61.34033203125
-72.32666015625
-97.96142578125
-80.56640625
-112.60986328125
-127.25830078125
-124.51171875
-137.3291015625
-168.45703125
-161.1328125
-151.06201171875
-164.794921875
-119.0185546875
-126.3427734375
-140.9912109375
-128.173828125
-123.59619140625
-133.6669921875
-119.93408203125
-117.1875
-149.23095703125
-144.6533203125
-153.80859375
-133.6669921875
-88.80615234375
-102.5390625
-83.31298828125
-97.96142578125
-141.90673828125
-158.38623046875
-97.0458984375
-79.65087890625
-118.10302734375
-114.44091796875
-137.3291015625
-130.92041015625
-145.56884765625
-152.89306640625
-147.39990234375
-109.86328125
-103.45458984375
-108.0322265625
-142.822265625
-150.146484375
-161.1328125
-153.80859375
-168.45703125
-161.1328125
-168.45703125
-157.470703125
-125.42724609375
-92.46826171875
-142.822265625
-169.37255859375
-166.6259765625
-176.69677734375
-137.3291015625
-92.46826171875
-86.0595703125
-96.13037109375
-108.94775390625
-123.59619140625
-169.37255859375
-151.9775390625
-149.23095703125
-184.9365234375
-166.6259765625
-117.1875
-105.28564453125
-123.59619140625
-95.21484375
-123.59619140625
-165.71044921875
-157.470703125
-158.38623046875
-133.6669921875
-98.876953125
-142.822265625
-177.6123046875
-167.54150390625
-145.56884765625
-100.7080078125
-75.0732421875
-125.42724609375
-145.56884765625
-152.89306640625
-165.71044921875
-152.89306640625
-145.56884765625
-158.38623046875
-130.92041015625
-180.35888671875
-130.0048828125
-49.4384765625
-65.00244140625
-45.7763671875
-55.84716796875
-77.81982421875
-115.3564453125
-115.3564453125
-86.97509765625
-54.931640625
-49.4384765625
-44.86083984375
-37.53662109375
-35.70556640625
-11.90185546875
-6.40869140625
-28.38134765625
-37.53662109375
-54.931640625
-81.48193359375
-69.580078125
-51.26953125
-53.1005859375
-87.890625
-110.77880859375
-74.15771484375
-95.21484375
-127.25830078125
-32.04345703125
-25.634765625
-99.79248046875
-122.6806640625
-87.890625
-118.10302734375
-141.90673828125
-121.76513671875
-108.94775390625
-112.60986328125
-111.6943359375
-97.0458984375
-104.3701171875
-102.5390625
-125.42724609375
-136.41357421875
-134.58251953125
-148.3154296875
-172.119140625
-170.2880859375
-130.0048828125
-122.6806640625
-170.2880859375
-175.78125
-184.9365234375
-161.1328125
-159.3017578125
-143.73779296875
-111.6943359375
-142.822265625
-144.6533203125
-167.54150390625
-184.9365234375
-179.443359375
-203.2470703125
-185.85205078125
-141.90673828125
-114.44091796875
-108.0322265625
-140.07568359375
-124.51171875
-75.98876953125
-72.32666015625
-87.890625
-62.255859375
-10.986328125
69.580078125
151.9775390625
240.78369140625
330.50537109375
449.52392578125
548.40087890625
531.005859375
484.31396484375
294.7998046875
144.6533203125
21.97265625
-120.849609375
-216.064453125
-252.685546875
-319.51904296875
-359.80224609375
-378.11279296875
-327.7587890625
-275.57373046875
-187.68310546875
-161.1328125
-152.89306640625
-125.42724609375
-126.3427734375
-127.25830078125
-128.173828125
-137.3291015625
-124.51171875
-130.0048828125
-130.92041015625
-107.11669921875
-53.1005859375
-66.83349609375
-118.10302734375
-108.0322265625
-136.41357421875
-146.484375
-135.498046875
-122.6806640625
-129.08935546875
-107.11669921875
-50.35400390625
-84.228515625
-122.6806640625
-117.1875
-78.7353515625
-67.7490234375
-76.904296875
-107.11669921875
-122.6806640625
-118.10302734375
-120.849609375
-124.51171875
-120.849609375
-97.96142578125
-82.3974609375
-102.5390625
-96.13037109375
-69.580078125
-75.98876953125
-82.3974609375
-104.3701171875
-126.3427734375
-121.76513671875
-109.86328125
-66.83349609375
-37.53662109375
-72.32666015625
-99.79248046875
-40.283203125
-77.81982421875
-132.75146484375
-143.73779296875
-86.97509765625
-52.18505859375
-43.9453125
-65.91796875
-54.931640625
-37.53662109375
-59.50927734375
-75.0732421875
-54.931640625
-35.70556640625
-45.7763671875
-28.38134765625
-32.04345703125
-36.62109375
-27.4658203125
-41.19873046875
-34.7900390625
-32.04345703125
-32.958984375
-28.38134765625
-39.36767578125
-59.50927734375
-69.580078125
-41.19873046875
-25.634765625
-16.4794921875
7.32421875
0
32.958984375
35.70556640625
0
-40.283203125
11.90185546875
95.21484375
99.79248046875
43.9453125
60.4248046875
48.52294921875
64.0869140625
71.4111328125
95.21484375
72.32666015625
65.91796875
62.255859375
57.67822265625
75.0732421875
89.7216796875
124.51171875
139.16015625
113.525390625
89.7216796875
75.98876953125
61.34033203125
69.580078125
124.51171875
125.42724609375
130.92041015625
101.62353515625
96.13037109375
148.3154296875
163.87939453125
135.498046875
133.6669921875
132.75146484375
115.3564453125
100.7080078125
103.45458984375
99.79248046875
133.6669921875
122.6806640625
61.34033203125
37.53662109375
37.53662109375
-6.40869140625
-4.57763671875
15.56396484375
3.662109375
13.73291015625
-2.74658203125
-22.88818359375
-40.283203125
-39.36767578125
-40.283203125
-43.02978515625
-53.1005859375
-67.7490234375
-79.65087890625
-99.79248046875
-122.6806640625
-105.28564453125
-100.7080078125
-124.51171875
-106.201171875
-88.80615234375
-83.31298828125
-126.3427734375
-149.23095703125
-139.16015625
-138.24462890625
-167.54150390625
-130.92041015625
-71.4111328125
-103.45458984375
-119.93408203125
-161.1328125
-73.2421875
-72.32666015625
-106.201171875
-117.1875
-134.58251953125
-136.41357421875
-141.90673828125
-154.72412109375
-109.86328125
-72.32666015625
-108.0322265625
-131.8359375
-130.92041015625
-119.0185546875
-98.876953125
-116.27197265625
-145.56884765625
-152.89306640625
-150.146484375
-132.75146484375
-135.498046875
-87.890625
-66.83349609375
-117.1875
-135.498046875
-141.90673828125
-160.21728515625
-142.822265625
-87.890625
-63.17138671875
-92.46826171875
-108.94775390625
-130.92041015625
-168.45703125
-169.37255859375
-139.16015625
-86.97509765625
-119.93408203125
-81.48193359375
-112.60986328125
-142.822265625
-144.6533203125
-81.48193359375
-42.1142578125
-56.7626953125
-56.7626953125
-54.931640625
-56.7626953125
-91.552734375
-123.59619140625
-123.59619140625
-93.3837890625
-74.15771484375
-70.49560546875
-94.29931640625
-104.3701171875
-104.3701171875
-119.93408203125
-142.822265625
-116.27197265625
-114.44091796875
-136.41357421875
-156.55517578125
-184.9365234375
-161.1328125
-50.35400390625
-83.31298828125
-111.6943359375
-105.28564453125
-80.56640625
-42.1142578125
-66.83349609375
-81.48193359375
-105.28564453125
-131.8359375
-111.6943359375
-94.29931640625
-87.890625
-57.67822265625
-60.4248046875
-98.876953125
-115.3564453125
-90.63720703125
-87.890625
-90.63720703125
-75.0732421875
-102.5390625
-119.93408203125
-119.93408203125
-130.0048828125
-130.92041015625
-105.28564453125
-129.08935546875
-162.04833984375
-158.38623046875
-157.470703125
-140.07568359375
-119.93408203125
-82.3974609375
-104.3701171875
-119.0185546875
-130.92041015625
-115.3564453125
-100.7080078125
-96.13037109375
-76.904296875
-129.08935546875
-164.794921875
-138.24462890625
-111.6943359375
-130.0048828125
-121.76513671875
-47.607421875
-82.3974609375
-131.8359375
-152.89306640625
-168.45703125
-153.80859375
-151.9775390625
-142.822265625
-100.7080078125
-78.7353515625
-86.0595703125
-73.2421875
-97.96142578125
-121.76513671875
-119.93408203125
-114.44091796875
-119.93408203125
-93.3837890625
-97.96142578125
-116.27197265625
-138.24462890625
-125.42724609375
-142.822265625
-137.3291015625
-84.228515625
-91.552734375
-130.0048828125
-136.41357421875
-149.23095703125
-152.89306640625
-152.89306640625
-138.24462890625
-144.6533203125
-97.0458984375
-86.97509765625
-130.92041015625
-101.62353515625
-69.580078125
-109.86328125
-114.44091796875
-107.11669921875
-78.7353515625
-88.80615234375
-114.44091796875
-68.66455078125
-89.7216796875
-129.08935546875
-137.3291015625
-151.06201171875
-105.28564453125
-19.22607421875
-48.52294921875
-24.71923828125
5.4931640625
-26.55029296875
-10.986328125
-19.22607421875
-27.4658203125
-34.7900390625
-27.4658203125
-14.6484375
-10.986328125
6.40869140625
-17.39501953125
-38.4521484375
-65.91796875
-80.56640625
-83.31298828125
-78.7353515625
-61.34033203125
-45.7763671875
-65.91796875
-69.580078125
-67.7490234375
-127.25830078125
-165.71044921875
-164.794921875
-161.1328125
-113.525390625
-84.228515625
-75.98876953125
-119.93408203125
-137.3291015625
-138.24462890625
-90.63720703125
-126.3427734375
-148.3154296875
-175.78125
-164.794921875
-149.23095703125
-124.51171875
-80.56640625
-76.904296875
-74.15771484375
-130.0048828125
-145.56884765625
-118.10302734375
-137.3291015625
-159.3017578125
-155.6396484375
-132.75146484375
-125.42724609375
-115.3564453125
-124.51171875
-124.51171875
-138.24462890625
-158.38623046875
-178.52783203125
-188.5986328125
-181.2744140625
-126.3427734375
-44.86083984375
-23.8037109375
10.07080078125
37.53662109375
70.49560546875
159.3017578125
238.037109375
300.29296875
353.3935546875
455.9326171875
536.4990234375
557.55615234375
411.9873046875
239.8681640625
101.62353515625
-11.90185546875
-95.21484375
-189.51416015625
-265.5029296875
-342.4072265625
-354.30908203125
-336.9140625
-296.630859375
-220.64208984375
-167.54150390625
-121.76513671875
-108.0322265625
-66.83349609375
-46.69189453125
-89.7216796875
-108.94775390625
-123.59619140625
-152.89306640625
-178.52783203125
-175.78125
-142.822265625
-128.173828125
-86.97509765625
-63.17138671875
-70.49560546875
-87.890625
-53.1005859375
-32.958984375
-64.0869140625
-90.63720703125
-97.0458984375
-83.31298828125
-78.7353515625
-52.18505859375
-47.607421875
-59.50927734375
-87.890625
-90.63720703125
-79.65087890625
-100.7080078125
-122.6806640625
-138.24462890625
-140.9912109375
-134.58251953125
-153.80859375
-133.6669921875
-131.8359375
-133.6669921875
-10.07080078125
9.1552734375
-7.32421875
-14.6484375
-7.32421875
-27.4658203125
-43.02978515625
-60.4248046875
-80.56640625
-71.4111328125
-65.00244140625
-75.98876953125
-85.14404296875
-78.7353515625
-85.14404296875
-77.81982421875
-88.80615234375
-70.49560546875
-12.8173828125
-55.84716796875
-89.7216796875
-97.96142578125
-97.96142578125
-109.86328125
-62.255859375
18.310546875
9.1552734375
7.32421875
47.607421875
47.607421875
30.21240234375
-12.8173828125
-18.310546875
-11.90185546875
-3.662109375
-3.662109375
-9.1552734375
-18.310546875
-4.57763671875
5.4931640625
30.21240234375
43.9453125
-2.74658203125
-23.8037109375
-32.958984375
-23.8037109375
4.57763671875
17.39501953125
29.296875
66.83349609375
31.1279296875
46.69189453125
52.18505859375
65.00244140625
99.79248046875
107.11669921875
104.3701171875
78.7353515625
73.2421875
98.876953125
124.51171875
102.5390625
99.79248046875
113.525390625
97.96142578125
79.65087890625
55.84716796875
94.29931640625
167.54150390625
185.85205078125
155.6396484375
150.146484375
151.06201171875
129.08935546875
107.11669921875
108.94775390625
120.849609375
144.6533203125
157.470703125
158.38623046875
132.75146484375
94.29931640625
88.80615234375
95.21484375
90.63720703125
95.21484375
76.904296875
59.50927734375
44.86083984375
19.22607421875
10.07080078125
14.6484375
10.986328125
-12.8173828125
-36.62109375
-27.4658203125
-21.05712890625
-20.1416015625
-12.8173828125
-47.607421875
-62.255859375
-87.890625
-99.79248046875
-121.76513671875
-100.7080078125
-79.65087890625
-88.80615234375
-42.1142578125
-62.255859375
-85.14404296875
-90.63720703125
-91.552734375
-94.29931640625
-101.62353515625
-91.552734375
-87.890625
-117.1875
-114.44091796875
-122.6806640625
-124.51171875
-134.58251953125
-133.6669921875
-120.849609375
-107.11669921875
-83.31298828125
-93.3837890625
-108.94775390625
-128.173828125
-132.75146484375
-115.3564453125
-108.0322265625
-107.11669921875
-102.5390625
-110.77880859375
-116.27197265625
-113.525390625
-108.0322265625
-135.498046875
-146.484375
-114.44091796875
-114.44091796875
-123.59619140625
-159.3017578125
-176.69677734375
-194.091796875
-193.17626953125
-131.8359375
-119.0185546875
-132.75146484375
-84.228515625
-40.283203125
-44.86083984375
-66.83349609375
-66.83349609375
-83.31298828125
-91.552734375
-93.3837890625
-95.21484375
-110.77880859375
-117.1875
-106.201171875
-118.10302734375
-102.5390625
-65.91796875
-88.80615234375
-109.86328125
-119.93408203125
-124.51171875
-138.24462890625
-118.10302734375
-119.0185546875
-134.58251953125
-142.822265625
-156.55517578125
-143.73779296875
-103.45458984375
-81.48193359375
-98.876953125
-120.849609375
-110.77880859375
-113.525390625
-117.1875
-130.92041015625
-119.0185546875
-116.27197265625
-111.6943359375
-125.42724609375
-114.44091796875
-107.11669921875
-105.28564453125
-108.94775390625
-110.77880859375
-111.6943359375
-111.6943359375
-109.86328125
-118.10302734375
-127.25830078125
-127.25830078125
-110.77880859375
-108.0322265625
-116.27197265625
-130.92041015625
-131.8359375
-135.498046875
-130.92041015625
-119.0185546875
-115.3564453125
-121.76513671875
-108.0322265625
-128.173828125
-148.3154296875
-127.25830078125
-123.59619140625
-133.6669921875
-121.76513671875
-109.86328125
-117.1875
-120.849609375
-130.0048828125
-130.0048828125
-134.58251953125
-138.24462890625
-140.07568359375
-136.41357421875
-128.173828125
-119.0185546875
-120.849609375
-128.173828125
-121.76513671875
-129.08935546875
-140.07568359375
-143.73779296875
-148.3154296875
-138.24462890625
-133.6669921875
-139.16015625
-141.90673828125
-143.73779296875
-148.3154296875
-141.90673828125
-140.07568359375
-150.146484375
-157.470703125
-159.3017578125
-151.06201171875
-153.80859375
-112.60986328125
-89.7216796875
-97.96142578125
-114.44091796875
-125.42724609375
-136.41357421875
-138.24462890625
-136.41357421875
-136.41357421875
-127.25830078125
-131.8359375
-134.58251953125
-131.8359375
-128.173828125
-132.75146484375
-126.3427734375
-122.6806640625
-115.3564453125
-138.24462890625
-139.16015625
-142.822265625
-134.58251953125
-130.0048828125
-124.51171875
-110.77880859375
-108.0322265625
-101.62353515625
-87.890625
-90.63720703125
-89.7216796875
-90.63720703125
-84.228515625
-82.3974609375
-81.48193359375
-67.7490234375
-64.0869140625
-66.83349609375
-65.00244140625
-57.67822265625
-48.52294921875
-53.1005859375
-52.18505859375
-38.4521484375
-36.62109375
-41.19873046875
-38.4521484375
-27.4658203125
-22.88818359375
-32.04345703125
-32.04345703125
-44.86083984375
-59.50927734375
-67.7490234375
-81.48193359375
-88.80615234375
-106.201171875
-124.51171875
-126.3427734375
-109.86328125
-113.525390625
-113.525390625
-108.0322265625
-119.0185546875
-123.59619140625
-127.25830078125
-130.0048828125
-132.75146484375
-131.8359375
-131.8359375
-136.41357421875
-143.73779296875
-141.90673828125
-141.90673828125
-156.55517578125
-140.9912109375
-146.484375
-152.89306640625
-137.3291015625
-145.56884765625
-142.822265625
-143.73779296875
-138.24462890625
-140.07568359375
-135.498046875
-140.07568359375
-141.90673828125
-144.6533203125
-151.06201171875
-144.6533203125
-140.07568359375
-132.75146484375
-132.75146484375
-125.42724609375
-115.3564453125
-91.552734375
-76.904296875
-39.36767578125
23.8037109375
75.0732421875
129.08935546875
197.75390625
276.4892578125
359.80224609375
422.9736328125
448.6083984375
454.1015625
310.36376953125
174.86572265625
61.34033203125
-35.70556640625
-116.27197265625
-217.8955078125
-290.22216796875
-333.251953125
-349.7314453125
-332.33642578125
-287.4755859375
-262.75634765625
-224.30419921875
-184.9365234375
-151.06201171875
-121.76513671875
-117.1875
-104.3701171875
-95.21484375
-97.96142578125
-97.96142578125
-91.552734375
-112.60986328125
-110.77880859375
-109.86328125
-112.60986328125
-110.77880859375
-106.201171875
-101.62353515625
-112.60986328125
-103.45458984375
-107.11669921875
-100.7080078125
-101.62353515625
-101.62353515625
-108.0322265625
-118.10302734375
-106.201171875
-101.62353515625
-110.77880859375
-95.21484375
-105.28564453125
-101.62353515625
-89.7216796875
-104.3701171875
-109.86328125
-100.7080078125
-98.876953125
-103.45458984375
-100.7080078125
-94.29931640625
-88.80615234375
-85.14404296875
-84.228515625
-83.31298828125
-75.0732421875
-88.80615234375
-88.80615234375
-73.2421875
-71.4111328125
-82.3974609375
-75.0732421875
-77.81982421875
-77.81982421875
-81.48193359375
-75.98876953125
-80.56640625
-79.65087890625
-71.4111328125
-60.4248046875
-72.32666015625
-68.66455078125
-53.1005859375
-38.4521484375
-48.52294921875
-51.26953125
-40.283203125
-40.283203125
-47.607421875
-49.4384765625
-45.7763671875
-43.02978515625
-36.62109375
-49.4384765625
-42.1142578125
-36.62109375
-24.71923828125
-26.55029296875
-27.4658203125
-23.8037109375
-23.8037109375
-20.1416015625
-16.4794921875
-12.8173828125
-11.90185546875
-12.8173828125
1.8310546875
10.07080078125
17.39501953125
12.8173828125
19.22607421875
19.22607421875
17.39501953125
20.1416015625
21.97265625
26.55029296875
50.35400390625
56.7626953125
67.7490234375
56.7626953125
59.50927734375
76.904296875
81.48193359375
84.228515625
87.890625
84.228515625
86.0595703125
87.890625
86.97509765625
86.97509765625
86.97509765625
89.7216796875
95.21484375
109.86328125
100.7080078125
96.13037109375
108.0322265625
98.876953125
95.21484375
93.3837890625
93.3837890625
83.31298828125
76.904296875
69.580078125
54.931640625
50.35400390625
39.36767578125
25.634765625
12.8173828125
-1.8310546875
-4.57763671875
-16.4794921875
-26.55029296875
-34.7900390625
-37.53662109375
-52.18505859375
-60.4248046875
-70.49560546875
-72.32666015625
-95.21484375
-98.876953125
-96.13037109375
-105.28564453125
-122.6806640625
-114.44091796875
-122.6806640625
-118.10302734375
-115.3564453125
-125.42724609375
-132.75146484375
-135.498046875
-130.0048828125
-120.849609375
-133.6669921875
-130.92041015625
-142.822265625
-140.07568359375
-133.6669921875
-155.6396484375
-145.56884765625
-153.80859375
-151.06201171875
-149.23095703125
-143.73779296875
-145.56884765625
-147.39990234375
-150.146484375
-159.3017578125
-150.146484375
-152.89306640625
-151.9775390625
-144.6533203125
-143.73779296875
-142.822265625
-132.75146484375
-143.73779296875
-148.3154296875
-145.56884765625
-138.24462890625
-139.16015625
-146.484375
-145.56884765625
-147.39990234375
-145.56884765625
-145.56884765625
-149.23095703125
-140.9912109375
-137.3291015625
-140.07568359375
-138.24462890625
-145.56884765625
-141.90673828125
-128.173828125
-131.8359375
-139.16015625
-134.58251953125
-130.0048828125
-130.92041015625
-131.8359375
-131.8359375
-134.58251953125
-131.8359375
-129.08935546875
-125.42724609375
-138.24462890625
-143.73779296875
-138.24462890625
-123.59619140625
-134.58251953125
-140.07568359375
-126.3427734375
-128.173828125
-140.07568359375
-124.51171875
-132.75146484375
-132.75146484375
-135.498046875
-143.73779296875
-140.9912109375
-127.25830078125
-115.3564453125
-116.27197265625
-129.08935546875
-122.6806640625
-134.58251953125
-131.8359375
-118.10302734375
-127.25830078125
-122.6806640625
-123.59619140625
-122.6806640625
-130.0048828125
-124.51171875
-135.498046875
-129.08935546875
-138.24462890625
-137.3291015625
-135.498046875
-134.58251953125
-132.75146484375
-130.92041015625
-140.07568359375
-135.498046875
-133.6669921875
-147.39990234375
-148.3154296875
-140.9912109375
-138.24462890625
-130.92041015625
-140.07568359375
-144.6533203125
-140.9912109375
-140.07568359375
-129.08935546875
-138.24462890625
-152.89306640625
-149.23095703125
-147.39990234375
-146.484375
-142.822265625
-147.39990234375
-161.1328125
-161.1328125
-138.24462890625
-145.56884765625
-153.80859375
-145.56884765625
-139.16015625
-142.822265625
-142.822265625
-141.90673828125
-158.38623046875
-151.06201171875
-141.90673828125
-140.07568359375
-143.73779296875
-143.73779296875
-133.6669921875
-132.75146484375
-124.51171875
-102.5390625
-105.28564453125
-113.525390625
-107.11669921875
-92.46826171875
-99.79248046875
-102.5390625
-84.228515625
-83.31298828125
-61.34033203125
-62.255859375
-74.15771484375
-62.255859375
-59.50927734375
-61.34033203125
-60.4248046875
-59.50927734375
-55.84716796875
-57.67822265625
-50.35400390625
-43.02978515625
-47.607421875
-49.4384765625
-65.00244140625
-81.48193359375
-83.31298828125
-90.63720703125
-101.62353515625
-119.93408203125
-132.75146484375
-121.76513671875
-131.8359375
-127.25830078125
-135.498046875
-138.24462890625
-141.90673828125
-147.39990234375
-139.16015625
-143.73779296875
-148.3154296875
-151.9775390625
-152.89306640625
-157.470703125
-148.3154296875
-154.72412109375
-162.9638671875
-161.1328125
-164.794921875
-157.470703125
-156.55517578125
-159.3017578125
-151.9775390625
-149.23095703125
-146.484375
-144.6533203125
-157.470703125
-160.21728515625
-167.54150390625
-162.04833984375
-155.6396484375
-161.1328125
-167.54150390625
-162.9638671875
-162.9638671875
-156.55517578125
-161.1328125
-154.72412109375
-144.6533203125
-120.849609375
-105.28564453125
-73.2421875
-18.310546875
33.87451171875
100.7080078125
184.9365234375
273.74267578125
357.97119140625
411.9873046875
431.21337890625
419.3115234375
256.34765625
124.51171875
-9.1552734375
-97.96142578125
-175.78125
-257.26318359375
-294.7998046875
-318.603515625
-329.58984375
-315.85693359375
-295.71533203125
-267.333984375
-241.69921875
-209.65576171875
-175.78125
-143.73779296875
-132.75146484375
-122.6806640625
-114.44091796875
-108.94775390625
-114.44091796875
-112.60986328125
-119.0185546875
-120.849609375
-121.76513671875
-129.08935546875
-131.8359375
-122.6806640625
-125.42724609375
-129.08935546875
-130.0048828125
-114.44091796875
-112.60986328125
-118.10302734375
-108.0322265625
-100.7080078125
-124.51171875
-123.59619140625
-111.6943359375
-106.201171875
-110.77880859375
-113.525390625
-103.45458984375
-100.7080078125
-108.94775390625
-104.3701171875
-103.45458984375
-109.86328125
-104.3701171875
-91.552734375
-96.13037109375
-88.80615234375
-95.21484375
-93.3837890625
-85.14404296875
-85.14404296875
-84.228515625
-81.48193359375
-79.65087890625
-80.56640625
-75.0732421875
-67.7490234375
-72.32666015625
-65.00244140625
-69.580078125
-81.48193359375
-69.580078125
-70.49560546875
-67.7490234375
-67.7490234375
-69.580078125
-74.15771484375
-56.7626953125
-44.86083984375
-42.1142578125
-54.931640625
-52.18505859375
-45.7763671875
-38.4521484375
-34.7900390625
-36.62109375
-29.296875
-29.296875
-32.958984375
-21.97265625
-14.6484375
-17.39501953125
-10.07080078125
-12.8173828125
-14.6484375
-7.32421875
-0.91552734375
-4.57763671875
9.1552734375
13.73291015625
11.90185546875
21.97265625
24.71923828125
30.21240234375
28.38134765625
33.87451171875
36.62109375
40.283203125
48.52294921875
62.255859375
70.49560546875
76.904296875
77.81982421875
79.65087890625
83.31298828125
84.228515625
100.7080078125
103.45458984375
100.7080078125
106.201171875
108.0322265625
111.6943359375
112.60986328125
118.10302734375
120.849609375
119.93408203125
130.0048828125
139.16015625
138.24462890625
142.822265625
140.07568359375
134.58251953125
136.41357421875
127.25830078125
124.51171875
117.1875
101.62353515625
98.876953125
78.7353515625
81.48193359375
73.2421875
60.4248046875
60.4248046875
47.607421875
33.87451171875
17.39501953125
3.662109375
-5.4931640625
-4.57763671875
-22.88818359375
-33.87451171875
-37.53662109375
-44.86083984375
-49.4384765625
-54.01611328125
-63.17138671875
-74.15771484375
-88.80615234375
-65.91796875
-75.98876953125
-89.7216796875
-95.21484375
-81.48193359375
-87.890625
-85.14404296875
-89.7216796875
-100.7080078125
-99.79248046875
-93.3837890625
-99.79248046875
-95.21484375
-95.21484375
-91.552734375
-103.45458984375
-99.79248046875
-97.96142578125
-104.3701171875
-104.3701171875
-94.29931640625
-101.62353515625
-103.45458984375
-99.79248046875
-100.7080078125
-97.96142578125
-106.201171875
-99.79248046875
-86.97509765625
-93.3837890625
-96.13037109375
-90.63720703125
-100.7080078125
-97.96142578125
-97.0458984375
-102.5390625
-97.96142578125
-97.96142578125
-94.29931640625
-89.7216796875
-97.0458984375
-96.13037109375
-93.3837890625
-93.3837890625
-90.63720703125
-85.14404296875
-86.97509765625
-89.7216796875
-81.48193359375
-75.0732421875
-79.65087890625
-80.56640625
-81.48193359375
-72.32666015625
-83.31298828125
-86.0595703125
-78.7353515625
-82.3974609375
-81.48193359375
-78.7353515625
-77.81982421875
-69.580078125
-74.15771484375
-76.904296875
-76.904296875
-88.80615234375
-72.32666015625
-65.00244140625
-71.4111328125
-66.83349609375
-74.15771484375
-72.32666015625
-65.00244140625
-65.00244140625
-73.2421875
-67.7490234375
-75.0732421875
-75.0732421875
-68.66455078125
-65.00244140625
-67.7490234375
-65.91796875
-65.00244140625
-75.98876953125
-75.98876953125
-71.4111328125
-76.904296875
-78.7353515625
-69.580078125
-58.59375
-66.83349609375
-64.0869140625
-65.91796875
-78.7353515625
-71.4111328125
-69.580078125
-75.0732421875
-79.65087890625
-75.98876953125
-76.904296875
-77.81982421875
-73.2421875
-73.2421875
-77.81982421875
-78.7353515625
-75.98876953125
-74.15771484375
-82.3974609375
-81.48193359375
-84.228515625
-81.48193359375
-79.65087890625
-76.904296875
-79.65087890625
-86.97509765625
-88.80615234375
-75.0732421875
-82.3974609375
-77.81982421875
-78.7353515625
-78.7353515625
-82.3974609375
-91.552734375
-90.63720703125
-83.31298828125
-74.15771484375
-79.65087890625
-83.31298828125
-75.98876953125
-73.2421875
-73.2421875
-77.81982421875
-76.904296875
-70.49560546875
-69.580078125
-69.580078125
-63.17138671875
-62.255859375
-48.52294921875
-43.02978515625
-37.53662109375
-45.7763671875
-41.19873046875
-37.53662109375
-37.53662109375
-34.7900390625
-6.40869140625
-11.90185546875
-0.91552734375
0.91552734375
0.91552734375
8.23974609375
1.8310546875
0.91552734375
12.8173828125
17.39501953125
8.23974609375
10.986328125
20.1416015625
19.22607421875
16.4794921875
5.4931640625
-7.32421875
-17.39501953125
-21.05712890625
-26.55029296875
-42.1142578125
-60.4248046875
-63.17138671875
-68.66455078125
-68.66455078125
-68.66455078125
-69.580078125
-73.2421875
-72.32666015625
-70.49560546875
-84.228515625
-91.552734375
-86.97509765625
-82.3974609375
-74.15771484375
-75.98876953125
-87.890625
-86.97509765625
-82.3974609375
-92.46826171875
-84.228515625
-88.80615234375
-90.63720703125
-92.46826171875
-98.876953125
-102.5390625
-99.79248046875
-95.21484375
-93.3837890625
-89.7216796875
-100.7080078125
-100.7080078125
-92.46826171875
-92.46826171875
-94.29931640625
-98.876953125
-99.79248046875
-81.48193359375
-75.0732421875
-65.00244140625
-56.7626953125
-26.55029296875
16.4794921875
68.66455078125
130.92041015625
198.66943359375
260.92529296875
343.32275390625
416.56494140625
493.46923828125
524.59716796875
541.9921875
433.04443359375
260.92529296875
148.3154296875
20.1416015625
-75.0732421875
-166.6259765625
-259.09423828125
-300.29296875
-301.20849609375
-269.1650390625
-227.05078125
-190.4296875
-155.6396484375
-119.0185546875
-91.552734375
-72.32666015625
-55.84716796875
-49.4384765625
-55.84716796875
-56.7626953125
-54.931640625
-53.1005859375
-49.4384765625
-49.4384765625
-60.4248046875
-55.84716796875
-54.931640625
-57.67822265625
-57.67822265625
-55.84716796875
-49.4384765625
-50.35400390625
-57.67822265625
-50.35400390625
-51.26953125
-41.19873046875
-39.36767578125
-41.19873046875
-44.86083984375
-42.1142578125
-40.283203125
-38.4521484375
-33.87451171875
-34.7900390625
-26.55029296875
-32.958984375
-30.21240234375
-34.7900390625
-30.21240234375
-25.634765625
-30.21240234375
-36.62109375
-35.70556640625
-32.04345703125
-22.88818359375
-21.05712890625
-13.73291015625
-13.73291015625
-16.4794921875
-17.39501953125
-9.1552734375
-14.6484375
-15.56396484375
-17.39501953125
-14.6484375
-19.22607421875
-12.8173828125
-10.986328125
-11.90185546875
-7.32421875
-12.8173828125
1.8310546875
3.662109375
1.8310546875
0.91552734375
9.1552734375
7.32421875
13.73291015625
10.07080078125
14.6484375
15.56396484375
12.8173828125
21.05712890625
32.04345703125
34.7900390625
43.9453125
40.283203125
39.36767578125
47.607421875
46.69189453125
54.931640625
56.7626953125
57.67822265625
60.4248046875
62.255859375
70.49560546875
77.81982421875
83.31298828125
85.14404296875
94.29931640625
100.7080078125
99.79248046875
109.86328125
111.6943359375
115.3564453125
123.59619140625
130.0048828125
135.498046875
131.8359375
131.8359375
133.6669921875
153.80859375
154.72412109375
154.72412109375
159.3017578125
164.794921875
158.38623046875
163.87939453125
165.71044921875
171.20361328125
184.9365234375
178.52783203125
185.85205078125
194.091796875
187.68310546875
196.83837890625
197.75390625
191.34521484375
191.34521484375
188.5986328125
174.86572265625
164.794921875
162.9638671875
161.1328125
144.6533203125
132.75146484375
131.8359375
121.76513671875
109.86328125
89.7216796875
82.3974609375
75.98876953125
61.34033203125
43.02978515625
20.1416015625
28.38134765625
19.22607421875
16.4794921875
5.4931640625
1.8310546875
-2.74658203125
-13.73291015625
-20.1416015625
-21.05712890625
-21.05712890625
-27.4658203125
-33.87451171875
-36.62109375
-40.283203125
-36.62109375
-51.26953125
-53.1005859375
-48.52294921875
-50.35400390625
-54.01611328125
-59.50927734375
-54.931640625
-52.18505859375
-59.50927734375
-53.1005859375
-55.84716796875
-54.931640625
-54.01611328125
-51.26953125
-50.35400390625
-64.0869140625
-57.67822265625
-58.59375
-49.4384765625
-46.69189453125
-53.1005859375
-59.50927734375
-61.34033203125
-53.1005859375
-54.931640625
-47.607421875
-49.4384765625
-47.607421875
-53.1005859375
-43.02978515625
-45.7763671875
-45.7763671875
-45.7763671875
-44.86083984375
-43.9453125
-40.283203125
-47.607421875
-51.26953125
-54.931640625
-54.01611328125
-43.9453125
-40.283203125
-43.02978515625
-43.02978515625
-44.86083984375
-36.62109375
-32.958984375
-34.7900390625
-42.1142578125
-49.4384765625
-40.283203125
-43.9453125
-35.70556640625
-47.607421875
-46.69189453125
-33.87451171875
-35.70556640625
-31.1279296875
-28.38134765625
-31.1279296875
-42.1142578125
-26.55029296875
-30.21240234375
-30.21240234375
-32.04345703125
-22.88818359375
-29.296875
-36.62109375
-37.53662109375
-37.53662109375
-33.87451171875
-31.1279296875
-31.1279296875
-22.88818359375
-29.296875
-37.53662109375
-35.70556640625
-21.05712890625
-27.4658203125
-32.958984375
-33.87451171875
-23.8037109375
-23.8037109375
-35.70556640625
-43.02978515625
-39.36767578125
-35.70556640625
-28.38134765625
-29.296875
-32.958984375
-32.958984375
-31.1279296875
-29.296875
-37.53662109375
-44.86083984375
-42.1142578125
-43.02978515625
-49.4384765625
-45.7763671875
-44.86083984375
-45.7763671875
-46.69189453125
-43.02978515625
-41.19873046875
-42.1142578125
-43.02978515625
-42.1142578125
-50.35400390625
-46.69189453125
-50.35400390625
-51.26953125
-54.931640625
-59.50927734375
-62.255859375
-54.01611328125
-37.53662109375
-43.02978515625
-43.9453125
-54.01611328125
-66.83349609375
-74.15771484375
-71.4111328125
-72.32666015625
-55.84716796875
-54.931640625
-54.01611328125
-51.26953125
-49.4384765625
-45.7763671875
-39.36767578125
-44.86083984375
-49.4384765625
-43.02978515625
-50.35400390625
-43.9453125
-51.26953125
-24.71923828125
17.39501953125
41.19873046875
54.931640625
47.607421875
46.69189453125
33.87451171875
32.04345703125
44.86083984375
48.52294921875
43.02978515625
43.9453125
43.9453125
31.1279296875
33.87451171875
44.86083984375
48.52294921875
42.1142578125
32.04345703125
12.8173828125
6.40869140625
1.8310546875
-5.4931640625
-32.04345703125
-33.87451171875
-40.283203125
-36.62109375
-36.62109375
-38.4521484375
-36.62109375
-36.62109375
-43.9453125
-56.7626953125
-68.66455078125
-65.00244140625
-67.7490234375
-61.34033203125
-62.255859375
-67.7490234375
-68.66455078125
-67.7490234375
-75.98876953125
-66.83349609375
-61.34033203125
-67.7490234375
-69.580078125
-69.580078125
-67.7490234375
-70.49560546875
-65.91796875
-78.7353515625
-59.50927734375
-61.34033203125
-79.65087890625
-71.4111328125
-64.0869140625
-57.67822265625
-64.0869140625
-71.4111328125
-64.0869140625
-59.50927734375
-54.01611328125
-42.1142578125
-31.1279296875
-12.8173828125
21.05712890625
66.83349609375
122.6806640625
179.443359375
249.0234375
325.01220703125
383.60595703125
469.66552734375
550.23193359375
570.37353515625
548.40087890625
385.43701171875
241.69921875
119.0185546875
8.23974609375
-78.7353515625
-180.35888671875
-272.8271484375
-301.20849609375
-291.1376953125
-227.96630859375
-189.51416015625
-166.6259765625
-118.10302734375
-89.7216796875
-63.17138671875
-41.19873046875
-20.1416015625
-33.87451171875
-9.1552734375
-10.986328125
-10.07080078125
-27.4658203125
-36.62109375
-32.958984375
-23.8037109375
-21.05712890625
-19.22607421875
-32.958984375
-19.22607421875
-30.21240234375
-40.283203125
-32.04345703125
-16.4794921875
-27.4658203125
-19.22607421875
-4.57763671875
-27.4658203125
-40.283203125
-36.62109375
-37.53662109375
-42.1142578125
-26.55029296875
-26.55029296875
-33.87451171875
-17.39501953125
-9.1552734375
-11.90185546875
-34.7900390625
-21.97265625
22.88818359375
25.634765625
14.6484375
6.40869140625
1.8310546875
-1.8310546875
-4.57763671875
2.74658203125
15.56396484375
12.8173828125
22.88818359375
21.97265625
10.986328125
3.662109375
11.90185546875
10.986328125
16.4794921875
13.73291015625
9.1552734375
5.4931640625
27.4658203125
30.21240234375
37.53662109375
41.19873046875
42.1142578125
35.70556640625
27.4658203125
21.05712890625
19.22607421875
34.7900390625
46.69189453125
47.607421875
54.931640625
52.18505859375
63.17138671875
50.35400390625
45.7763671875
35.70556640625
42.1142578125
50.35400390625
54.931640625
52.18505859375
65.00244140625
59.50927734375
71.4111328125
88.80615234375
95.21484375
118.10302734375
130.92041015625
123.59619140625
119.93408203125
137.3291015625
125.42724609375
109.86328125
100.7080078125
96.13037109375
121.76513671875
136.41357421875
131.8359375
122.6806640625
171.20361328125
185.85205078125
209.65576171875
201.416015625
172.119140625
170.2880859375
167.54150390625
181.2744140625
182.18994140625
191.34521484375
193.17626953125
194.091796875
199.5849609375
200.50048828125
192.2607421875
180.35888671875
189.51416015625
202.33154296875
206.9091796875
212.40234375
213.31787109375
188.5986328125
171.20361328125
164.794921875
143.73779296875
130.0048828125
142.822265625
131.8359375
108.0322265625
109.86328125
98.876953125
65.91796875
62.255859375
61.34033203125
48.52294921875
22.88818359375
5.4931640625
-2.74658203125
-18.310546875
-32.958984375
-42.1142578125
-27.4658203125
15.56396484375
12.8173828125
-11.90185546875
-39.36767578125
-43.02978515625
-58.59375
-64.0869140625
-52.18505859375
-44.86083984375
-59.50927734375
-72.32666015625
-47.607421875
-45.7763671875
-35.70556640625
-36.62109375
-44.86083984375
-38.4521484375
-47.607421875
-60.4248046875
-70.49560546875
-76.904296875
-58.59375
-48.52294921875
-35.70556640625
-46.69189453125
-67.7490234375
-65.91796875
-70.49560546875
-69.580078125
-75.0732421875
-75.0732421875
-64.0869140625
-72.32666015625
-89.7216796875
-64.0869140625
-58.59375
-56.7626953125
-58.59375
-69.580078125
-72.32666015625
-63.17138671875
-73.2421875
-71.4111328125
-72.32666015625
-63.17138671875
-57.67822265625
-44.86083984375
-54.01611328125
-59.50927734375
-45.7763671875
-46.69189453125
-58.59375
-47.607421875
-48.52294921875
-54.931640625
-57.67822265625
-60.4248046875
-60.4248046875
-60.4248046875
-44.86083984375
-45.7763671875
-41.19873046875
-51.26953125
-54.01611328125
-54.01611328125
-50.35400390625
-48.52294921875
-58.59375
-58.59375
-55.84716796875
-48.52294921875
-43.9453125
-47.607421875
-65.91796875
-58.59375
-56.7626953125
-45.7763671875
-51.26953125
-68.66455078125
-61.34033203125
-67.7490234375
-74.15771484375
-65.00244140625
-56.7626953125
-52.18505859375
-46.69189453125
-59.50927734375
-62.255859375
-71.4111328125
-61.34033203125
-42.1142578125
-43.9453125
-54.931640625
-49.4384765625
-54.01611328125
-64.0869140625
-64.0869140625
-55.84716796875
-63.17138671875
-70.49560546875
-71.4111328125
-72.32666015625
-51.26953125
-38.4521484375
-56.7626953125
-65.00244140625
-64.0869140625
-62.255859375
-74.15771484375
-74.15771484375
-80.56640625
-92.46826171875
-87.890625
-87.890625
-86.97509765625
-100.7080078125
-96.13037109375
-87.890625
-97.0458984375
-110.77880859375
-88.80615234375
-81.48193359375
-98.876953125
-89.7216796875
-79.65087890625
-69.580078125
-61.34033203125
-79.65087890625
-58.59375
-54.01611328125
-55.84716796875
-60.4248046875
-53.1005859375
-47.607421875
-58.59375
-65.00244140625
-54.931640625
-53.1005859375
-52.18505859375
-34.7900390625
-21.97265625
-28.38134765625
-22.88818359375
-15.56396484375
0
0.91552734375
-10.07080078125
-12.8173828125
-15.56396484375
-3.662109375
-7.32421875
1.8310546875
-2.74658203125
-10.986328125
-4.57763671875
-7.32421875
-23.8037109375
-31.1279296875
-44.86083984375
-59.50927734375
-84.228515625
-90.63720703125
-91.552734375
-93.3837890625
-83.31298828125
-80.56640625
-85.14404296875
-91.552734375
-97.0458984375
-93.3837890625
-108.94775390625
-113.525390625
-122.6806640625
-101.62353515625
-109.86328125
-130.92041015625
-138.24462890625
-130.0048828125
-118.10302734375
-123.59619140625
-119.0185546875
-129.08935546875
-124.51171875
-135.498046875
-124.51171875
-134.58251953125
-139.16015625
-141.90673828125
-138.24462890625
-154.72412109375
-139.16015625
-126.3427734375
-133.6669921875
-140.9912109375
-139.16015625
-134.58251953125
-128.173828125
-130.92041015625
-130.92041015625
-112.60986328125
-98.876953125
-81.48193359375
-42.1142578125
14.6484375
70.49560546875
120.849609375
208.740234375
283.8134765625
363.46435546875
428.466796875
462.34130859375
467.83447265625
319.51904296875
185.85205078125
61.34033203125
-56.7626953125
-126.3427734375
-209.65576171875
-260.009765625
-296.630859375
-313.1103515625
-303.955078125
-290.22216796875
-261.8408203125
-227.05078125
-196.83837890625
-184.9365234375
-155.6396484375
-135.498046875
-112.60986328125
-97.0458984375
-94.29931640625
-103.45458984375
-120.849609375
-105.28564453125
-110.77880859375
-112.60986328125
-111.6943359375
-108.94775390625
-105.28564453125
-98.876953125
-117.1875
-118.10302734375
-101.62353515625
-99.79248046875
-105.28564453125
-109.86328125
-100.7080078125
-91.552734375
-80.56640625
-97.0458984375
-106.201171875
-106.201171875
-103.45458984375
-95.21484375
-106.201171875
-105.28564453125
-114.44091796875
-110.77880859375
-97.0458984375
-96.13037109375
-86.97509765625
-92.46826171875
-87.890625
-67.7490234375
-67.7490234375
-76.904296875
-76.904296875
-86.0595703125
-87.890625
-81.48193359375
-82.3974609375
-75.0732421875
-75.98876953125
-78.7353515625
-59.50927734375
-69.580078125
-70.49560546875
-66.83349609375
-67.7490234375
-71.4111328125
-62.255859375
-59.50927734375
-58.59375
-52.18505859375
-56.7626953125
-49.4384765625
-35.70556640625
-35.70556640625
-34.7900390625
-40.283203125
-38.4521484375
-43.02978515625
-43.02978515625
-34.7900390625
-36.62109375
-32.958984375
-37.53662109375
-32.04345703125
-17.39501953125
-27.4658203125
-28.38134765625
6.40869140625
13.73291015625
9.1552734375
-10.07080078125
-0.91552734375
0.91552734375
7.32421875
5.4931640625
16.4794921875
29.296875
35.70556640625
31.1279296875
39.36767578125
47.607421875
51.26953125
40.283203125
54.931640625
73.2421875
78.7353515625
65.00244140625
62.255859375
69.580078125
60.4248046875
66.83349609375
86.97509765625
93.3837890625
94.29931640625
96.13037109375
100.7080078125
109.86328125
108.0322265625
110.77880859375
105.28564453125
110.77880859375
109.86328125
103.45458984375
112.60986328125
119.0185546875
111.6943359375
108.94775390625
93.3837890625
85.14404296875
73.2421875
73.2421875
68.66455078125
52.18505859375
32.04345703125
17.39501953125
10.07080078125
7.32421875
-3.662109375
-21.05712890625
-36.62109375
-43.02978515625
-45.7763671875
-48.52294921875
-69.580078125
-77.81982421875
-72.32666015625
-81.48193359375
-91.552734375
-87.890625
-96.13037109375
-105.28564453125
-111.6943359375
-109.86328125
-108.94775390625
-98.876953125
-100.7080078125
-98.876953125
-101.62353515625
-115.3564453125
-108.94775390625
-119.0185546875
-125.42724609375
-120.849609375
-122.6806640625
-123.59619140625
-125.42724609375
-122.6806640625
-110.77880859375
-120.849609375
-124.51171875
-119.0185546875
-119.93408203125
-115.3564453125
-125.42724609375
-116.27197265625
-115.3564453125
-119.93408203125
-122.6806640625
-117.1875
-118.10302734375
-130.92041015625
-123.59619140625
-118.10302734375
-110.77880859375
-104.3701171875
-111.6943359375
-115.3564453125
-109.86328125
-108.0322265625
-106.201171875
-111.6943359375
-111.6943359375
-112.60986328125
-126.3427734375
-118.10302734375
-99.79248046875
-105.28564453125
-104.3701171875
-107.11669921875
-88.80615234375
-97.96142578125
-101.62353515625
-94.29931640625
-92.46826171875
-94.29931640625
-98.876953125
-98.876953125
-90.63720703125
-93.3837890625
-90.63720703125
-88.80615234375
-95.21484375
-87.890625
-81.48193359375
-89.7216796875
-92.46826171875
-97.0458984375
-91.552734375
-97.0458984375
-85.14404296875
-107.11669921875
-98.876953125
-89.7216796875
-97.96142578125
-92.46826171875
-80.56640625
-86.97509765625
-92.46826171875
-105.28564453125
-97.0458984375
-81.48193359375
-85.14404296875
-95.21484375
-94.29931640625
-88.80615234375
-86.0595703125
-99.79248046875
-92.46826171875
-90.63720703125
-85.14404296875
-80.56640625
-88.80615234375
-95.21484375
-86.97509765625
-84.228515625
-86.97509765625
-87.890625
-99.79248046875
-91.552734375
-79.65087890625
-97.0458984375
-98.876953125
-95.21484375
-95.21484375
-97.0458984375
-101.62353515625
-93.3837890625
-104.3701171875
-101.62353515625
-101.62353515625
-89.7216796875
-97.96142578125
-91.552734375
-98.876953125
-103.45458984375
-97.96142578125
-97.0458984375
-77.81982421875
-81.48193359375
-77.81982421875
-61.34033203125
-54.01611328125
-71.4111328125
-65.00244140625
-59.50927734375
-63.17138671875
-58.59375
-37.53662109375
-21.05712890625
-21.05712890625
-21.97265625
-5.4931640625
-5.4931640625
-15.56396484375
3.662109375
-8.23974609375
-4.57763671875
7.32421875
7.32421875
18.310546875
7.32421875
-13.73291015625
-11.90185546875
-13.73291015625
-14.6484375
-36.62109375
-55.84716796875
-73.2421875
-71.4111328125
-86.97509765625
-97.0458984375
-96.13037109375
-97.96142578125
-86.0595703125
-97.0458984375
-105.28564453125
-101.62353515625
-96.13037109375
-109.86328125
-103.45458984375
-108.0322265625
-113.525390625
-122.6806640625
-122.6806640625
-115.3564453125
-125.42724609375
-122.6806640625
-123.59619140625
-126.3427734375
-122.6806640625
-118.10302734375
-116.27197265625
-127.25830078125
-136.41357421875
-125.42724609375
-129.08935546875
-138.24462890625
-144.6533203125
-135.498046875
-133.6669921875
-127.25830078125
-121.76513671875
-130.0048828125
-115.3564453125
-118.10302734375
-125.42724609375
-124.51171875
-104.3701171875
-80.56640625
-63.17138671875
-18.310546875
48.52294921875
95.21484375
168.45703125
260.009765625
325.927734375
397.3388671875
468.75
498.96240234375
484.31396484375
333.251953125
193.17626953125
48.52294921875
-70.49560546875
-155.6396484375
-236.2060546875
-312.19482421875
-357.97119140625
-356.14013671875
-313.1103515625
-266.41845703125
-230.712890625
-191.34521484375
-161.1328125
-137.3291015625
-104.3701171875
-100.7080078125
-97.96142578125
-75.98876953125
-75.98876953125
-83.31298828125
-89.7216796875
-81.48193359375
-103.45458984375
-92.46826171875
-81.48193359375
-93.3837890625
-91.552734375
-94.29931640625
-94.29931640625
-97.96142578125
-93.3837890625
-90.63720703125
-88.80615234375
-88.80615234375
-83.31298828125
-85.14404296875
-81.48193359375
-82.3974609375
-80.56640625
-76.904296875
-74.15771484375
-78.7353515625
-72.32666015625
-77.81982421875
-77.81982421875
-77.81982421875
-80.56640625
-68.66455078125
-58.59375
-56.7626953125
-49.4384765625
-69.580078125
-82.3974609375
-69.580078125
-67.7490234375
-63.17138671875
-67.7490234375
-50.35400390625
-41.19873046875
-49.4384765625
-54.931640625
-54.931640625
-53.1005859375
-48.52294921875
-54.01611328125
-46.69189453125
-43.02978515625
-43.02978515625
-41.19873046875
-35.70556640625
-48.52294921875
-42.1142578125
-26.55029296875
-31.1279296875
-34.7900390625
-19.22607421875
-16.4794921875
-27.4658203125
-19.22607421875
-9.1552734375
-12.8173828125
-8.23974609375
-1.8310546875
-6.40869140625
0
10.07080078125
20.1416015625
27.4658203125
30.21240234375
27.4658203125
20.1416015625
27.4658203125
42.1142578125
47.607421875
52.18505859375
54.931640625
55.84716796875
57.67822265625
61.34033203125
70.49560546875
65.91796875
73.2421875
78.7353515625
75.98876953125
80.56640625
90.63720703125
103.45458984375
121.76513671875
126.3427734375
127.25830078125
118.10302734375
112.60986328125
130.92041015625
134.58251953125
139.16015625
142.822265625
135.498046875
138.24462890625
150.146484375
156.55517578125
151.9775390625
151.9775390625
165.71044921875
158.38623046875
155.6396484375
146.484375
157.470703125
140.07568359375
128.173828125
117.1875
116.27197265625
124.51171875
115.3564453125
100.7080078125
91.552734375
78.7353515625
58.59375
42.1142578125
32.958984375
15.56396484375
5.4931640625
-9.1552734375
-9.1552734375
-9.1552734375
-28.38134765625
-28.38134765625
-36.62109375
-44.86083984375
-52.18505859375
-65.91796875
-66.83349609375
-72.32666015625
-68.66455078125
-70.49560546875
-77.81982421875
-74.15771484375
-81.48193359375
-95.21484375
-91.552734375
-100.7080078125
-97.96142578125
-90.63720703125
-81.48193359375
-81.48193359375
-72.32666015625
-94.29931640625
-99.79248046875
-91.552734375
-78.7353515625
-85.14404296875
-94.29931640625
-91.552734375
-104.3701171875
-98.876953125
-91.552734375
-97.0458984375
-91.552734375
-85.14404296875
-91.552734375
-91.552734375
-94.29931640625
-87.890625
-76.904296875
-86.0595703125
-95.21484375
-93.3837890625
-94.29931640625
-89.7216796875
-84.228515625
-85.14404296875
-87.890625
-86.97509765625
-77.81982421875
-77.81982421875
-85.14404296875
-90.63720703125
-91.552734375
-81.48193359375
-75.98876953125
-89.7216796875
-104.3701171875
-92.46826171875
-84.228515625
-72.32666015625
-65.00244140625
-70.49560546875
-71.4111328125
-71.4111328125
-75.98876953125
-69.580078125
-65.00244140625
-71.4111328125
-76.904296875
-74.15771484375
-70.49560546875
-57.67822265625
-65.91796875
-66.83349609375
-63.17138671875
-67.7490234375
-75.0732421875
-67.7490234375
-63.17138671875
-62.255859375
-65.91796875
-61.34033203125
-68.66455078125
-56.7626953125
-57.67822265625
-63.17138671875
-69.580078125
-57.67822265625
-53.1005859375
-66.83349609375
-64.0869140625
-67.7490234375
-67.7490234375
-63.17138671875
-66.83349609375
-69.580078125
-59.50927734375
-57.67822265625
-65.91796875
-72.32666015625
-71.4111328125
-67.7490234375
-62.255859375
-69.580078125
-72.32666015625
-75.0732421875
-79.65087890625
-72.32666015625
-65.91796875
-70.49560546875
-66.83349609375
-78.7353515625
-75.98876953125
-75.0732421875
-80.56640625
-82.3974609375
-72.32666015625
-70.49560546875
-64.0869140625
-55.84716796875
-78.7353515625
-89.7216796875
-87.890625
-86.97509765625
-82.3974609375
-73.2421875
-76.904296875
-76.904296875
-90.63720703125
-75.98876953125
-78.7353515625
-78.7353515625
-81.48193359375
-77.81982421875
-83.31298828125
-71.4111328125
-85.14404296875
-63.17138671875
-54.931640625
-48.52294921875
-58.59375
-61.34033203125
-43.9453125
-41.19873046875
-42.1142578125
-32.958984375
-35.70556640625
-31.1279296875
-8.23974609375
1.8310546875
5.4931640625
-10.986328125
-10.07080078125
4.57763671875
2.74658203125
0
9.1552734375
11.90185546875
18.310546875
20.1416015625
16.4794921875
19.22607421875
8.23974609375
-2.74658203125
-7.32421875
-10.07080078125
-4.57763671875
-16.4794921875
-35.70556640625
-38.4521484375
-50.35400390625
-67.7490234375
-70.49560546875
-69.580078125
-63.17138671875
-75.0732421875
-86.97509765625
-87.890625
-81.48193359375
-80.56640625
-83.31298828125
-91.552734375
-85.14404296875
-96.13037109375
-90.63720703125
-91.552734375
-100.7080078125
-96.13037109375
-90.63720703125
-90.63720703125
-100.7080078125
-105.28564453125
-97.96142578125
-100.7080078125
-95.21484375
-86.97509765625
-94.29931640625
-89.7216796875
-90.63720703125
-89.7216796875
-88.80615234375
-94.29931640625
-89.7216796875
-96.13037109375
-103.45458984375
-101.62353515625
-102.5390625
-86.0595703125
-77.81982421875
-61.34033203125
-30.21240234375
1.8310546875
49.4384765625
108.94775390625
168.45703125
242.61474609375
323.18115234375
411.07177734375
487.060546875
520.93505859375
519.10400390625
404.6630859375
245.361328125
129.08935546875
3.662109375
-95.21484375
-181.2744140625
-268.24951171875
-301.20849609375
-301.20849609375
-286.56005859375
-250.8544921875
-212.40234375
-177.6123046875
-144.6533203125
-108.0322265625
-85.14404296875
-63.17138671875
-57.67822265625
-58.59375
-66.83349609375
-60.4248046875
-60.4248046875
-60.4248046875
-65.91796875
-69.580078125
-51.26953125
-69.580078125
-72.32666015625
-66.83349609375
-63.17138671875
-62.255859375
-60.4248046875
-75.0732421875
-65.00244140625
-54.01611328125
-65.00244140625
-62.255859375
-54.931640625
-55.84716796875
-52.18505859375
-53.1005859375
-46.69189453125
-46.69189453125
-50.35400390625
-55.84716796875
-51.26953125
-48.52294921875
-43.9453125
-52.18505859375
-51.26953125
-44.86083984375
-36.62109375
-40.283203125
-39.36767578125
-31.1279296875
-32.958984375
-32.958984375
-30.21240234375
-28.38134765625
-26.55029296875
-24.71923828125
-20.1416015625
-16.4794921875
-25.634765625
-31.1279296875
-31.1279296875
-25.634765625
-16.4794921875
-19.22607421875
-13.73291015625
-26.55029296875
-10.986328125
-14.6484375
-4.57763671875
4.57763671875
-1.8310546875
-6.40869140625
2.74658203125
-0.91552734375
7.32421875
5.4931640625
17.39501953125
12.8173828125
17.39501953125
19.22607421875
31.1279296875
29.296875
39.36767578125
43.9453125
36.62109375
33.87451171875
44.86083984375
51.26953125
60.4248046875
63.17138671875
63.17138671875
70.49560546875
66.83349609375
84.228515625
92.46826171875
88.80615234375
91.552734375
97.0458984375
93.3837890625
95.21484375
113.525390625
110.77880859375
117.1875
122.6806640625
132.75146484375
148.3154296875
150.146484375
146.484375
147.39990234375
143.73779296875
157.470703125
158.38623046875
161.1328125
173.9501953125
174.86572265625
170.2880859375
169.37255859375
170.2880859375
185.85205078125
194.091796875
186.767578125
195.00732421875
190.4296875
174.86572265625
169.37255859375
156.55517578125
150.146484375
147.39990234375
138.24462890625
122.6806640625
108.94775390625
104.3701171875
90.63720703125
79.65087890625
58.59375
49.4384765625
52.18505859375
31.1279296875
10.07080078125
8.23974609375
7.32421875
-3.662109375
-10.07080078125
-13.73291015625
-18.310546875
-31.1279296875
-32.04345703125
-35.70556640625
-39.36767578125
-54.931640625
-47.607421875
-54.931640625
-63.17138671875
-56.7626953125
-63.17138671875
-59.50927734375
-63.17138671875
-62.255859375
-65.91796875
-75.98876953125
-81.48193359375
-78.7353515625
-71.4111328125
-65.91796875
-68.66455078125
-66.83349609375
-74.15771484375
-68.66455078125
-65.00244140625
-63.17138671875
-75.0732421875
-77.81982421875
-74.15771484375
-66.83349609375
-65.00244140625
-68.66455078125
-72.32666015625
-65.00244140625
-65.00244140625
-61.34033203125
-65.91796875
-71.4111328125
-64.0869140625
-59.50927734375
-63.17138671875
-62.255859375
-65.00244140625
-65.91796875
-61.34033203125
-72.32666015625
-73.2421875
-62.255859375
-56.7626953125
-66.83349609375
-70.49560546875
-66.83349609375
-62.255859375
-59.50927734375
-52.18505859375
-48.52294921875
-56.7626953125
-65.91796875
-64.0869140625
-61.34033203125
-49.4384765625
-47.607421875
-56.7626953125
-54.931640625
-60.4248046875
-58.59375
-55.84716796875
-53.1005859375
-50.35400390625
-44.86083984375
-51.26953125
-54.01611328125
-56.7626953125
-44.86083984375
-46.69189453125
-50.35400390625
-51.26953125
-49.4384765625
-38.4521484375
-40.283203125
-42.1142578125
-44.86083984375
-49.4384765625
-50.35400390625
-50.35400390625
-53.1005859375
-54.931640625
-60.4248046875
-56.7626953125
-54.01611328125
-52.18505859375
-54.931640625
-55.84716796875
-50.35400390625
-53.1005859375
-50.35400390625
-54.01611328125
-52.18505859375
-48.52294921875
-49.4384765625
-54.01611328125
-59.50927734375
-54.931640625
-58.59375
-64.0869140625
-70.49560546875
-65.00244140625
-65.00244140625
-63.17138671875
-57.67822265625
-60.4248046875
-58.59375
-56.7626953125
-55.84716796875
-62.255859375
-63.17138671875
-62.255859375
-71.4111328125
-65.00244140625
-61.34033203125
-69.580078125
-70.49560546875
-72.32666015625
-76.904296875
-70.49560546875
-65.91796875
-68.66455078125
-68.66455078125
-66.83349609375
-70.49560546875
-70.49560546875
-78.7353515625
-76.904296875
-76.904296875
-79.65087890625
-77.81982421875
-82.3974609375
-65.00244140625
-72.32666015625
-75.98876953125
-75.98876953125
-85.14404296875
-67.7490234375
-73.2421875
-74.15771484375
-64.0869140625
-77.81982421875
-89.7216796875
-80.56640625
-70.49560546875
-75.98876953125
-71.4111328125
-76.904296875
-75.0732421875
-73.2421875
-72.32666015625
-69.580078125
-65.00244140625
-57.67822265625
-50.35400390625
-41.19873046875
-31.1279296875
-37.53662109375
-41.19873046875
-37.53662109375
-31.1279296875
-32.04345703125
-20.1416015625
-14.6484375
-3.662109375
3.662109375
0.91552734375
-4.57763671875
-8.23974609375
5.4931640625
13.73291015625
20.1416015625
20.1416015625
28.38134765625
15.56396484375
8.23974609375
14.6484375
17.39501953125
8.23974609375
-1.8310546875
-2.74658203125
-16.4794921875
-24.71923828125
-36.62109375
-47.607421875
-58.59375
-56.7626953125
-59.50927734375
-65.91796875
-65.00244140625
-65.00244140625
-68.66455078125
-72.32666015625
-83.31298828125
-80.56640625
-84.228515625
-89.7216796875
-82.3974609375
-85.14404296875
-92.46826171875
-93.3837890625
-91.552734375
-93.3837890625
-96.13037109375
-94.29931640625
-84.228515625
-80.56640625
-97.96142578125
-94.29931640625
-93.3837890625
-101.62353515625
-97.0458984375
-107.11669921875
-96.13037109375
-97.96142578125
-96.13037109375
-97.0458984375
-103.45458984375
-103.45458984375
-107.11669921875
-97.96142578125
-75.98876953125
-76.904296875
-65.00244140625
-36.62109375
-21.97265625
18.310546875
64.0869140625
126.3427734375
193.17626953125
270.99609375
349.7314453125
427.55126953125
492.5537109375
525.5126953125
527.34375
390.93017578125
245.361328125
126.3427734375
-3.662109375
-108.0322265625
-196.83837890625
-287.4755859375
-317.68798828125
-307.6171875
-273.74267578125
-230.712890625
-190.4296875
-157.470703125
-120.849609375
-97.0458984375
-76.904296875
-65.00244140625
-63.17138671875
-52.18505859375
-44.86083984375
-65.00244140625
-66.83349609375
-67.7490234375
-66.83349609375
-65.00244140625
-69.580078125
-74.15771484375
-72.32666015625
-62.255859375
-64.0869140625
-65.91796875
-71.4111328125
-64.0869140625
-65.91796875
-55.84716796875
-55.84716796875
-57.67822265625
-63.17138671875
-62.255859375
-62.255859375
-52.18505859375
-62.255859375
-60.4248046875
-56.7626953125
-51.26953125
-53.1005859375
-53.1005859375
-60.4248046875
-53.1005859375
-53.1005859375
-52.18505859375
-49.4384765625
-46.69189453125
-47.607421875
-43.02978515625
-51.26953125
-48.52294921875
-34.7900390625
-38.4521484375
-36.62109375
-32.958984375
-34.7900390625
-31.1279296875
-32.04345703125
-42.1142578125
-38.4521484375
-23.8037109375
-16.4794921875
-24.71923828125
-23.8037109375
-26.55029296875
-20.1416015625
-17.39501953125
-18.310546875
-9.1552734375
-14.6484375
0
2.74658203125
-1.8310546875
6.40869140625
8.23974609375
-2.74658203125
-6.40869140625
0.91552734375
14.6484375
8.23974609375
13.73291015625
18.310546875
15.56396484375
29.296875
28.38134765625
39.36767578125
41.19873046875
45.7763671875
54.01611328125
54.01611328125
55.84716796875
51.26953125
59.50927734375
71.4111328125
75.98876953125
82.3974609375
84.228515625
90.63720703125
90.63720703125
88.80615234375
100.7080078125
110.77880859375
108.0322265625
114.44091796875
128.173828125
124.51171875
136.41357421875
140.9912109375
140.07568359375
138.24462890625
151.9775390625
158.38623046875
155.6396484375
161.1328125
164.794921875
165.71044921875
162.04833984375
162.04833984375
182.18994140625
174.86572265625
173.03466796875
170.2880859375
161.1328125
162.9638671875
154.72412109375
139.16015625
126.3427734375
122.6806640625
118.10302734375
100.7080078125
90.63720703125
89.7216796875
79.65087890625
57.67822265625
39.36767578125
29.296875
19.22607421875
17.39501953125
0.91552734375
-13.73291015625
-17.39501953125
-18.310546875
-26.55029296875
-30.21240234375
-47.607421875
-52.18505859375
-45.7763671875
-49.4384765625
-54.931640625
-57.67822265625
-67.7490234375
-72.32666015625
-69.580078125
-70.49560546875
-82.3974609375
-69.580078125
-70.49560546875
-79.65087890625
-89.7216796875
-84.228515625
-81.48193359375
-75.0732421875
-77.81982421875
-85.14404296875
-89.7216796875
-78.7353515625
-90.63720703125
-94.29931640625
-96.13037109375
-93.3837890625
-77.81982421875
-81.48193359375
-79.65087890625
-78.7353515625
-74.15771484375
-86.97509765625
-87.890625
-74.15771484375
-80.56640625
-82.3974609375
-73.2421875
-81.48193359375
-79.65087890625
-81.48193359375
-82.3974609375
-75.98876953125
-65.00244140625
-63.17138671875
-68.66455078125
-80.56640625
-82.3974609375
-73.2421875
-64.0869140625
-77.81982421875
-77.81982421875
-93.3837890625
-73.2421875
-96.13037109375
-61.34033203125
-45.7763671875
-70.49560546875
-77.81982421875
-89.7216796875
-61.34033203125
-61.34033203125
-65.00244140625
-56.7626953125
-49.4384765625
-64.0869140625
-63.17138671875
-51.26953125
-47.607421875
-45.7763671875
-48.52294921875
-55.84716796875
-50.35400390625
-53.1005859375
-61.34033203125
-61.34033203125
-61.34033203125
-55.84716796875
-55.84716796875
-53.1005859375
-48.52294921875
-54.01611328125
-57.67822265625
-47.607421875
-56.7626953125
-60.4248046875
-59.50927734375
-60.4248046875
-52.18505859375
-46.69189453125
-46.69189453125
-57.67822265625
-59.50927734375
-64.0869140625
-66.83349609375
-65.91796875
-62.255859375
-58.59375
-58.59375
-61.34033203125
-62.255859375
-62.255859375
-72.32666015625
-79.65087890625
-86.0595703125
-75.98876953125
-70.49560546875
-61.34033203125
-65.00244140625
-56.7626953125
-61.34033203125
-72.32666015625
-72.32666015625
-65.00244140625
-65.00244140625
-65.91796875
-68.66455078125
-62.255859375
-67.7490234375
-75.0732421875
-81.48193359375
-74.15771484375
-74.15771484375
-70.49560546875
-65.91796875
-75.98876953125
-74.15771484375
-68.66455078125
-68.66455078125
-77.81982421875
-76.904296875
-88.80615234375
-86.0595703125
-74.15771484375
-73.2421875
-69.580078125
-75.0732421875
-79.65087890625
-84.228515625
-76.904296875
-76.904296875
-83.31298828125
-82.3974609375
-82.3974609375
-72.32666015625
-92.46826171875
-86.0595703125
-84.228515625
-83.31298828125
-88.80615234375
-70.49560546875
-64.0869140625
-66.83349609375
-66.83349609375
-82.3974609375
-81.48193359375
-75.0732421875
-77.81982421875
-72.32666015625
-77.81982421875
-79.65087890625
-79.65087890625
-75.98876953125
-66.83349609375
-53.1005859375
-56.7626953125
-68.66455078125
-49.4384765625
-32.04345703125
-35.70556640625
-36.62109375
-31.1279296875
-19.22607421875
-18.310546875
-12.8173828125
-10.07080078125
-2.74658203125
4.57763671875
3.662109375
4.57763671875
-4.57763671875
1.8310546875
18.310546875
31.1279296875
22.88818359375
19.22607421875
22.88818359375
14.6484375
10.07080078125
8.23974609375
9.1552734375
3.662109375
-15.56396484375
-20.1416015625
-23.8037109375
-36.62109375
-37.53662109375
-46.69189453125
-69.580078125
-69.580078125
-66.83349609375
-70.49560546875
-68.66455078125
-70.49560546875
-75.98876953125
-74.15771484375
-81.48193359375
-85.14404296875
-80.56640625
-77.81982421875
-91.552734375
-83.31298828125
-92.46826171875
-80.56640625
-86.0595703125
-90.63720703125
-86.97509765625
-81.48193359375
-84.228515625
-96.13037109375
-93.3837890625
-89.7216796875
-88.80615234375
-91.552734375
-94.29931640625
-96.13037109375
-95.21484375
-91.552734375
-88.80615234375
-88.80615234375
-91.552734375
-90.63720703125
-80.56640625
-68.66455078125
-68.66455078125
-63.17138671875
-32.04345703125
-6.40869140625
36.62109375
95.21484375
151.06201171875
213.31787109375
306.70166015625
381.77490234375
469.66552734375
522.76611328125
541.9921875
498.96240234375
325.01220703125
198.66943359375
64.0869140625
-54.931640625
-129.08935546875
-214.2333984375
-273.74267578125
-292.96875
-287.4755859375
-240.78369140625
-195.00732421875
-160.21728515625
-125.42724609375
-105.28564453125
-75.0732421875
-54.01611328125
-45.7763671875
-59.50927734375
-50.35400390625
-43.9453125
-48.52294921875
-50.35400390625
-43.9453125
-35.70556640625
-45.7763671875
-46.69189453125
-43.9453125
-44.86083984375
-48.52294921875
-47.607421875
-44.86083984375
-48.52294921875
-47.607421875
-44.86083984375
-54.01611328125
-61.34033203125
-44.86083984375
-39.36767578125
-40.283203125
-38.4521484375
-40.283203125
-37.53662109375
-23.8037109375
-27.4658203125
-41.19873046875
-38.4521484375
-28.38134765625
-25.634765625
-32.958984375
-33.87451171875
-32.958984375
-34.7900390625
-26.55029296875
-24.71923828125
-14.6484375
-18.310546875
-15.56396484375
-19.22607421875
-21.05712890625
-18.310546875
-10.986328125
-9.1552734375
-7.32421875
-10.07080078125
-10.07080078125
-10.07080078125
-7.32421875
-8.23974609375
-7.32421875
9.1552734375
3.662109375
3.662109375
7.32421875
0.91552734375
0.91552734375
-2.74658203125
13.73291015625
25.634765625
18.310546875
25.634765625
20.1416015625
21.97265625
31.1279296875
39.36767578125
44.86083984375
38.4521484375
45.7763671875
53.1005859375
51.26953125
53.1005859375
61.34033203125
61.34033203125
69.580078125
75.0732421875
70.49560546875
79.65087890625
95.21484375
92.46826171875
93.3837890625
97.0458984375
106.201171875
108.0322265625
108.94775390625
108.94775390625
122.6806640625
130.92041015625
140.07568359375
140.9912109375
154.72412109375
160.21728515625
160.21728515625
158.38623046875
162.04833984375
170.2880859375
174.86572265625
177.6123046875
183.10546875
186.767578125
183.10546875
186.767578125
193.17626953125
203.2470703125
215.14892578125
216.064453125
207.82470703125
211.48681640625
207.82470703125
198.66943359375
196.83837890625
184.02099609375
182.18994140625
175.78125
173.03466796875
162.04833984375
151.06201171875
145.56884765625
133.6669921875
119.0185546875
106.201171875
99.79248046875
91.552734375
76.904296875
58.59375
43.9453125
34.7900390625
39.36767578125
26.55029296875
9.1552734375
11.90185546875
7.32421875
-4.57763671875
-15.56396484375
-12.8173828125
-13.73291015625
-19.22607421875
-20.1416015625
-25.634765625
-32.04345703125
-29.296875
-41.19873046875
-40.283203125
-25.634765625
-35.70556640625
-38.4521484375
-43.02978515625
-35.70556640625
-45.7763671875
-53.1005859375
-54.931640625
-32.958984375
-42.1142578125
-43.9453125
-41.19873046875
-42.1142578125
-40.283203125
-44.86083984375
-42.1142578125
-43.02978515625
-52.18505859375
-43.02978515625
-43.9453125
-40.283203125
-36.62109375
-42.1142578125
-44.86083984375
-47.607421875
-45.7763671875
-39.36767578125
-43.02978515625
-46.69189453125
-46.69189453125
-44.86083984375
-46.69189453125
-35.70556640625
-32.04345703125
-39.36767578125
-27.4658203125
-40.283203125
-43.02978515625
-33.87451171875
-28.38134765625
-21.97265625
-25.634765625
-37.53662109375
-32.958984375
-22.88818359375
-16.4794921875
-32.04345703125
-43.9453125
-38.4521484375
-33.87451171875
-32.04345703125
-36.62109375
-33.87451171875
-27.4658203125
-30.21240234375
-21.97265625
-16.4794921875
-27.4658203125
-29.296875
-26.55029296875
-27.4658203125
-25.634765625
-28.38134765625
-34.7900390625
-34.7900390625
-28.38134765625
-27.4658203125
-20.1416015625
-21.97265625
-20.1416015625
-22.88818359375
-23.8037109375
-37.53662109375
-28.38134765625
-18.310546875
-27.4658203125
-34.7900390625
-21.97265625
-17.39501953125
-27.4658203125
-23.8037109375
-23.8037109375
-27.4658203125
-25.634765625
-15.56396484375
-26.55029296875
-27.4658203125
-27.4658203125
-27.4658203125
-25.634765625
-23.8037109375
-27.4658203125
-29.296875
-24.71923828125
-32.958984375
-16.4794921875
-19.22607421875
-28.38134765625
-34.7900390625
-31.1279296875
-25.634765625
-33.87451171875
-36.62109375
-35.70556640625
-43.9453125
-28.38134765625
-30.21240234375
-39.36767578125
-35.70556640625
-29.296875
-35.70556640625
-56.7626953125
-54.01611328125
-43.9453125
-39.36767578125
-34.7900390625
-43.02978515625
-48.52294921875
-48.52294921875
-46.69189453125
-45.7763671875
-42.1142578125
-47.607421875
-43.9453125
-37.53662109375
-34.7900390625
-51.26953125
-60.4248046875
-48.52294921875
-55.84716796875
-49.4384765625
-47.607421875
-42.1142578125
-48.52294921875
-51.26953125
-61.34033203125
-65.91796875
-54.931640625
-48.52294921875
-54.931640625
-53.1005859375
-51.26953125
-54.931640625
-52.18505859375
-41.19873046875
-49.4384765625
-57.67822265625
-47.607421875
-49.4384765625
-58.59375
-49.4384765625
-39.36767578125
-49.4384765625
-51.26953125
-43.9453125
-54.931640625
-65.00244140625
-54.931640625
-49.4384765625
-44.86083984375
-41.19873046875
-40.283203125
-31.1279296875
-31.1279296875
-12.8173828125
2.74658203125
0.91552734375
-7.32421875
-7.32421875
-1.8310546875
-7.32421875
-0.91552734375
14.6484375
21.97265625
32.04345703125
30.21240234375
27.4658203125
30.21240234375
28.38134765625
33.87451171875
40.283203125
45.7763671875
37.53662109375
37.53662109375
45.7763671875
43.02978515625
47.607421875
42.1142578125
35.70556640625
17.39501953125
8.23974609375
6.40869140625
-16.4794921875
-15.56396484375
-30.21240234375
-34.7900390625
-22.88818359375
-45.7763671875
-49.4384765625
-43.02978515625
-40.283203125
-41.19873046875
-50.35400390625
-56.7626953125
-55.84716796875
-46.69189453125
-48.52294921875
-62.255859375
-54.931640625
-58.59375
-68.66455078125
-67.7490234375
-65.00244140625
-66.83349609375
-73.2421875
-61.34033203125
-67.7490234375
-73.2421875
-64.0869140625
-67.7490234375
-74.15771484375
-77.81982421875
-74.15771484375
-66.83349609375
-63.17138671875
-75.98876953125
-72.32666015625
-80.56640625
-75.0732421875
-72.32666015625
-62.255859375
-50.35400390625
-47.607421875
-30.21240234375
-3.662109375
11.90185546875
65.91796875
127.25830078125
184.02099609375
248.10791015625
345.15380859375
415.6494140625
493.46923828125
540.1611328125
563.96484375
485.2294921875
299.37744140625
179.443359375
64.0869140625
-32.04345703125
-130.92041015625
-211.48681640625
-257.26318359375
-266.41845703125
-258.1787109375
-219.7265625
-183.10546875
-142.822265625
-114.44091796875
-90.63720703125
-65.00244140625
-39.36767578125
-45.7763671875
-39.36767578125
-33.87451171875
-33.87451171875
-41.19873046875
-39.36767578125
-43.9453125
-43.02978515625
-32.958984375
-49.4384765625
-47.607421875
-38.4521484375
-51.26953125
-43.02978515625
-32.04345703125
-43.02978515625
-44.86083984375
-41.19873046875
-45.7763671875
-36.62109375
-34.7900390625
-23.8037109375
-33.87451171875
-47.607421875
-48.52294921875
-43.9453125
-38.4521484375
-29.296875
-36.62109375
-42.1142578125
-37.53662109375
-27.4658203125
-17.39501953125
-27.4658203125
-34.7900390625
-28.38134765625
-14.6484375
-14.6484375
-20.1416015625
-23.8037109375
-17.39501953125
-19.22607421875
-31.1279296875
-15.56396484375
-6.40869140625
-18.310546875
-21.05712890625
-13.73291015625
-15.56396484375
-13.73291015625
-16.4794921875
-17.39501953125
-4.57763671875
-10.986328125
-10.986328125
-2.74658203125
5.4931640625
20.1416015625
6.40869140625
12.8173828125
-1.8310546875
-0.91552734375
10.07080078125
15.56396484375
17.39501953125
13.73291015625
10.986328125
15.56396484375
29.296875
31.1279296875
32.04345703125
28.38134765625
40.283203125
32.958984375
37.53662109375
42.1142578125
52.18505859375
54.931640625
69.580078125
79.65087890625
71.4111328125
72.32666015625
68.66455078125
75.98876953125
83.31298828125
96.13037109375
86.97509765625
97.0458984375
109.86328125
124.51171875
115.3564453125
113.525390625
119.0185546875
132.75146484375
137.3291015625
146.484375
144.6533203125
142.822265625
148.3154296875
143.73779296875
148.3154296875
158.38623046875
166.6259765625
174.86572265625
169.37255859375
163.87939453125
166.6259765625
172.119140625
175.78125
171.20361328125
173.03466796875
171.20361328125
173.03466796875
164.794921875
153.80859375
132.75146484375
135.498046875
144.6533203125
120.849609375
109.86328125
98.876953125
85.14404296875
68.66455078125
64.0869140625
54.931640625
45.7763671875
32.04345703125
21.05712890625
13.73291015625
3.662109375
-0.91552734375
-11.90185546875
-25.634765625
-32.04345703125
-43.02978515625
-47.607421875
-61.34033203125
-54.931640625
-61.34033203125
-51.26953125
-55.84716796875
-68.66455078125
-71.4111328125
-65.00244140625
-62.255859375
-70.49560546875
-72.32666015625
-79.65087890625
-92.46826171875
-81.48193359375
-75.98876953125
-84.228515625
-90.63720703125
-84.228515625
-102.5390625
-86.0595703125
-87.890625
-85.14404296875
-97.0458984375
-89.7216796875
-97.0458984375
-84.228515625
-80.56640625
-90.63720703125
-90.63720703125
-90.63720703125
-90.63720703125
-92.46826171875
-93.3837890625
-86.97509765625
-83.31298828125
-85.14404296875
-81.48193359375
-92.46826171875
-97.0458984375
-90.63720703125
-98.876953125
-89.7216796875
-75.98876953125
-78.7353515625
-85.14404296875
-83.31298828125
-82.3974609375
-76.904296875
-69.580078125
-78.7353515625
-75.0732421875
-75.98876953125
-74.15771484375
-70.49560546875
-74.15771484375
-80.56640625
-79.65087890625
-77.81982421875
-70.49560546875
-75.0732421875
-73.2421875
-75.98876953125
-73.2421875
-66.83349609375
-76.904296875
-83.31298828125
-86.0595703125
-80.56640625
-74.15771484375
-75.98876953125
-75.0732421875
-87.890625
-89.7216796875
-78.7353515625
-76.904296875
-68.66455078125
-76.904296875
-69.580078125
-77.81982421875
-80.56640625
-67.7490234375
-75.0732421875
-82.3974609375
-86.0595703125
-79.65087890625
-75.98876953125
-82.3974609375
-84.228515625
-83.31298828125
-81.48193359375
-84.228515625
-74.15771484375
-79.65087890625
-86.97509765625
-85.14404296875
-89.7216796875
-74.15771484375
-69.580078125
-76.904296875
-85.14404296875
-91.552734375
-88.80615234375
-89.7216796875
-86.0595703125
-86.97509765625
-85.14404296875
-87.890625
-88.80615234375
-87.890625
-94.29931640625
-78.7353515625
-81.48193359375
-83.31298828125
-92.46826171875
-96.13037109375
-89.7216796875
-105.28564453125
-102.5390625
-105.28564453125
-97.96142578125
-100.7080078125
-98.876953125
-96.13037109375
-97.96142578125
-101.62353515625
-98.876953125
-116.27197265625
-107.11669921875
-108.0322265625
-107.11669921875
-106.201171875
-102.5390625
-88.80615234375
-97.96142578125
-97.96142578125
-108.94775390625
-105.28564453125
-107.11669921875
-104.3701171875
-99.79248046875
-108.0322265625
-115.3564453125
-107.11669921875
-110.77880859375
-113.525390625
-108.94775390625
-108.0322265625
-102.5390625
-98.876953125
-91.552734375
-86.0595703125
-66.83349609375
-72.32666015625
-76.904296875
-76.904296875
-66.83349609375
-70.49560546875
-65.00244140625
-62.255859375
-60.4248046875
-42.1142578125
-40.283203125
-33.87451171875
-32.958984375
-34.7900390625
-29.296875
-26.55029296875
-24.71923828125
-15.56396484375
-20.1416015625
-22.88818359375
-16.4794921875
-19.22607421875
-13.73291015625
-20.1416015625
-22.88818359375
-38.4521484375
-52.18505859375
-61.34033203125
-72.32666015625
-79.65087890625
-94.29931640625
-79.65087890625
-96.13037109375
-102.5390625
-98.876953125
-114.44091796875
-110.77880859375
-112.60986328125
-116.27197265625
-123.59619140625
-119.93408203125
-124.51171875
-116.27197265625
-118.10302734375
-126.3427734375
-124.51171875
-131.8359375
-130.0048828125
-135.498046875
-142.822265625
-143.73779296875
-147.39990234375
-130.92041015625
-134.58251953125
-132.75146484375
-126.3427734375
-126.3427734375
-128.173828125
-136.41357421875
-130.92041015625
-128.173828125
-133.6669921875
-138.24462890625
-150.146484375
-148.3154296875
-159.3017578125
-143.73779296875
-130.0048828125
-138.24462890625
-125.42724609375
-114.44091796875
-97.96142578125
-54.931640625
-3.662109375
61.34033203125
123.59619140625
195.9228515625
292.96875
372.61962890625
421.142578125
448.6083984375
459.5947265625
281.06689453125
141.90673828125
11.90185546875
-78.7353515625
-154.72412109375
-257.26318359375
-288.39111328125
-310.36376953125
-319.51904296875
-308.53271484375
-302.1240234375
-276.4892578125
-249.0234375
-220.64208984375
-185.85205078125
-146.484375
-129.08935546875
-121.76513671875
-108.94775390625
-101.62353515625
-93.3837890625
-107.11669921875
-106.201171875
-110.77880859375
-106.201171875
-105.28564453125
-111.6943359375
-123.59619140625
-111.6943359375
-112.60986328125
-104.3701171875
-112.60986328125
-111.6943359375
-103.45458984375
-100.7080078125
-106.201171875
-91.552734375
-100.7080078125
-110.77880859375
-109.86328125
-110.77880859375
-104.3701171875
-95.21484375
-96.13037109375
-91.552734375
-95.21484375
-90.63720703125
-87.890625
-86.97509765625
-85.14404296875
-85.14404296875
-78.7353515625
-82.3974609375
-79.65087890625
-83.31298828125
-75.98876953125
-82.3974609375
-81.48193359375
-79.65087890625
-79.65087890625
-75.98876953125
-70.49560546875
-64.0869140625
-63.17138671875
-71.4111328125
-70.49560546875
-65.00244140625
-52.18505859375
-46.69189453125
-43.02978515625
-48.52294921875
-54.01611328125
-43.9453125
-35.70556640625
-30.21240234375
-27.4658203125
-37.53662109375
-32.958984375
-26.55029296875
-17.39501953125
-22.88818359375
-27.4658203125
-26.55029296875
-25.634765625
-19.22607421875
-10.07080078125
-10.07080078125
-15.56396484375
-8.23974609375
-9.1552734375
18.310546875
13.73291015625
23.8037109375
22.88818359375
38.4521484375
34.7900390625
20.1416015625
44.86083984375
51.26953125
48.52294921875
49.4384765625
43.02978515625
56.7626953125
61.34033203125
67.7490234375
73.2421875
78.7353515625
86.0595703125
101.62353515625
103.45458984375
104.3701171875
104.3701171875
108.0322265625
114.44091796875
108.94775390625
119.93408203125
120.849609375
125.42724609375
131.8359375
149.23095703125
140.07568359375
130.0048828125
142.822265625
151.06201171875
143.73779296875
151.9775390625
139.16015625
143.73779296875
144.6533203125
140.07568359375
130.92041015625
129.08935546875
125.42724609375
121.76513671875
122.6806640625
99.79248046875
76.904296875
60.4248046875
60.4248046875
52.18505859375
39.36767578125
22.88818359375
10.986328125
10.986328125
0.91552734375
-12.8173828125
-24.71923828125
-23.8037109375
-40.283203125
-43.9453125
-48.52294921875
-55.84716796875
-58.59375
-62.255859375
-75.98876953125
-74.15771484375
-76.904296875
-72.32666015625
-74.15771484375
-87.890625
-85.14404296875
-79.65087890625
-85.14404296875
-94.29931640625
-79.65087890625
-94.29931640625
-84.228515625
-78.7353515625
-88.80615234375
-84.228515625
-89.7216796875
-97.96142578125
-85.14404296875
-85.14404296875
-81.48193359375
-86.0595703125
-91.552734375
-89.7216796875
-96.13037109375
-93.3837890625
-85.14404296875
-85.14404296875
-84.228515625
-73.2421875
-84.228515625
-78.7353515625
-88.80615234375
-94.29931640625
-86.97509765625
-78.7353515625
-69.580078125
-75.98876953125
-73.2421875
-71.4111328125
-73.2421875
-68.66455078125
-72.32666015625
-79.65087890625
-82.3974609375
-73.2421875
-70.49560546875
-59.50927734375
-63.17138671875
-64.0869140625
-60.4248046875
-72.32666015625
-75.98876953125
-72.32666015625
-72.32666015625
-57.67822265625
-67.7490234375
-65.91796875
-53.1005859375
-61.34033203125
-59.50927734375
-68.66455078125
-65.00244140625
-52.18505859375
-54.931640625
-56.7626953125
-56.7626953125
-53.1005859375
-59.50927734375
-53.1005859375
-51.26953125
-63.17138671875
-60.4248046875
-58.59375
-55.84716796875
-51.26953125
-53.1005859375
-64.0869140625
-67.7490234375
-50.35400390625
-50.35400390625
-54.931640625
-45.7763671875
-39.36767578125
-54.01611328125
-60.4248046875
-54.01611328125
-62.255859375
-59.50927734375
-46.69189453125
-51.26953125
-55.84716796875
-65.00244140625
-70.49560546875
-66.83349609375
-65.00244140625
-63.17138671875
-63.17138671875
-65.00244140625
-61.34033203125
-49.4384765625
-52.18505859375
-58.59375
-62.255859375
-56.7626953125
-68.66455078125
-59.50927734375
-59.50927734375
-65.00244140625
-56.7626953125
-61.34033203125
-59.50927734375
-61.34033203125
-66.83349609375
-73.2421875
-65.00244140625
-65.00244140625
-71.4111328125
-62.255859375
-56.7626953125
-62.255859375
-68.66455078125
-59.50927734375
-63.17138671875
-75.0732421875
-78.7353515625
-56.7626953125
-68.66455078125
-71.4111328125
-63.17138671875
-69.580078125
-68.66455078125
-57.67822265625
-67.7490234375
-71.4111328125
-70.49560546875
-69.580078125
-67.7490234375
-64.0869140625
-65.91796875
-64.0869140625
-55.84716796875
-62.255859375
-46.69189453125
-25.634765625
-24.71923828125
-20.1416015625
-22.88818359375
-21.05712890625
-17.39501953125
-18.310546875
-22.88818359375
-12.8173828125
-10.986328125
-5.4931640625
15.56396484375
21.97265625
11.90185546875
15.56396484375
14.6484375
16.4794921875
29.296875
38.4521484375
36.62109375
21.05712890625
32.04345703125
36.62109375
33.87451171875
28.38134765625
18.310546875
10.07080078125
2.74658203125
-5.4931640625
-14.6484375
-21.97265625
-41.19873046875
-40.283203125
-42.1142578125
-48.52294921875
-49.4384765625
-56.7626953125
-56.7626953125
-56.7626953125
-65.00244140625
-58.59375
-65.00244140625
-62.255859375
-61.34033203125
-69.580078125
-65.91796875
-58.59375
-58.59375
-67.7490234375
-72.32666015625
-75.0732421875
-80.56640625
-72.32666015625
-76.904296875
-71.4111328125
-71.4111328125
-69.580078125
-68.66455078125
-68.66455078125
-69.580078125
-66.83349609375
-72.32666015625
-75.0732421875
-80.56640625
-81.48193359375
-87.890625
-75.0732421875
-64.0869140625
-63.17138671875
-52.18505859375
-32.958984375
-10.07080078125
11.90185546875
67.7490234375
125.42724609375
180.35888671875
256.34765625
346.0693359375
414.73388671875
483.3984375
536.4990234375
558.4716796875
487.97607421875
302.1240234375
184.9365234375
43.02978515625
-41.19873046875
-121.76513671875
-207.82470703125
-262.75634765625
-260.009765625
-257.26318359375
-236.2060546875
-198.66943359375
-164.794921875
-119.0185546875
-85.14404296875
-75.98876953125
-45.7763671875
-26.55029296875
-19.22607421875
-17.39501953125
-28.38134765625
-18.310546875
-20.1416015625
