ECG
1.8310546875
-3.662109375
-11.90185546875
-18.310546875
-22.88818359375
-25.634765625
-30.21240234375
-29.296875
-18.310546875
-12.8173828125
-6.40869140625
-7.32421875
-18.310546875
-16.4794921875
-4.57763671875
-0.91552734375
16.4794921875
19.22607421875
32.04345703125
32.04345703125
31.1279296875
25.634765625
13.73291015625
12.8173828125
18.310546875
42.1142578125
72.32666015625
88.80615234375
88.80615234375
86.97509765625
90.63720703125
96.13037109375
102.5390625
103.45458984375
113.525390625
116.27197265625
107.11669921875
100.7080078125
118.10302734375
115.3564453125
95.21484375
65.91796875
69.580078125
63.17138671875
52.18505859375
37.53662109375
23.8037109375
14.6484375
25.634765625
23.8037109375
-5.4931640625
-17.39501953125
-11.90185546875
-17.39501953125
-17.39501953125
-21.05712890625
-14.6484375
-23.8037109375
-32.04345703125
-29.296875
-42.1142578125
-53.1005859375
-49.4384765625
-45.7763671875
-43.02978515625
-52.18505859375
-63.17138671875
-62.255859375
-59.50927734375
-64.0869140625
-55.84716796875
-49.4384765625
-51.26953125
-39.36767578125
-49.4384765625
-61.34033203125
-54.931640625
-47.607421875
-51.26953125
-63.17138671875
-58.59375
-75.98876953125
-76.904296875
-68.66455078125
-69.580078125
-73.2421875
-74.15771484375
-74.15771484375
-86.97509765625
-91.552734375
-111.6943359375
-115.3564453125
-95.21484375
-102.5390625
-71.4111328125
-14.6484375
41.19873046875
98.876953125
191.34521484375
274.658203125
382.6904296875
518.1884765625
682.06787109375
814.8193359375
896.30126953125
859.68017578125
716.85791015625
538.330078125
335.0830078125
133.6669921875
-75.98876953125
-218.81103515625
-336.9140625
-423.88916015625
-464.17236328125
-458.67919921875
-455.9326171875
-437.6220703125
-368.0419921875
-305.7861328125
-244.44580078125
-190.4296875
-138.24462890625
-105.28564453125
-71.4111328125
-45.7763671875
-26.55029296875
-13.73291015625
-16.4794921875
-41.19873046875
-34.7900390625
-32.958984375
-16.4794921875
-19.22607421875
-10.07080078125
-6.40869140625
-15.56396484375
-18.310546875
-23.8037109375
-19.22607421875
-32.04345703125
-26.55029296875
-10.986328125
0
3.662109375
17.39501953125
19.22607421875
6.40869140625
-1.8310546875
-0.91552734375
10.986328125
21.05712890625
11.90185546875
32.04345703125
30.21240234375
32.958984375
20.1416015625
24.71923828125
16.4794921875
5.4931640625
16.4794921875
20.1416015625
32.958984375
34.7900390625
32.04345703125
32.04345703125
32.04345703125
34.7900390625
43.02978515625
53.1005859375
48.52294921875
64.0869140625
71.4111328125
68.66455078125
63.17138671875
64.0869140625
72.32666015625
79.65087890625
93.3837890625
96.13037109375
97.96142578125
101.62353515625
97.0458984375
98.876953125
121.76513671875
130.92041015625
127.25830078125
147.39990234375
150.146484375
141.90673828125
135.498046875
164.794921875
175.78125
171.20361328125
176.69677734375
171.20361328125
166.6259765625
180.35888671875
195.9228515625
212.40234375
210.5712890625
216.97998046875
216.97998046875
222.47314453125
229.79736328125
229.79736328125
236.2060546875
226.13525390625
218.81103515625
227.05078125
224.30419921875
221.5576171875
229.79736328125
226.13525390625
226.13525390625
223.388671875
221.5576171875
221.5576171875
227.96630859375
226.13525390625
218.81103515625
206.9091796875
195.00732421875
187.68310546875
172.119140625
171.20361328125
139.16015625
107.11669921875
101.62353515625
102.5390625
102.5390625
91.552734375
94.29931640625
79.65087890625
61.34033203125
68.66455078125
59.50927734375
42.1142578125
42.1142578125
17.39501953125
17.39501953125
4.57763671875
-0.91552734375
-0.91552734375
6.40869140625
3.662109375
-1.8310546875
-18.310546875
-16.4794921875
-2.74658203125
-21.05712890625
-42.1142578125
-29.296875
-22.88818359375
-21.05712890625
-27.4658203125
-17.39501953125
-18.310546875
-26.55029296875
-27.4658203125
-27.4658203125
-29.296875
-39.36767578125
-44.86083984375
-54.931640625
-49.4384765625
-51.26953125
-43.9453125
-41.19873046875
-25.634765625
-26.55029296875
-30.21240234375
-35.70556640625
-30.21240234375
-36.62109375
-48.52294921875
-47.607421875
-41.19873046875
-24.71923828125
-22.88818359375
-23.8037109375
-17.39501953125
-20.1416015625
-27.4658203125
-19.22607421875
-43.02978515625
-48.52294921875
-36.62109375
-32.04345703125
-33.87451171875
-29.296875
-29.296875
-25.634765625
-14.6484375
-8.23974609375
0
-2.74658203125
-3.662109375
-7.32421875
-4.57763671875
-4.57763671875
-9.1552734375
-15.56396484375
-21.05712890625
-7.32421875
-7.32421875
-14.6484375
-21.05712890625
-26.55029296875
-23.8037109375
-28.38134765625
-16.4794921875
-21.05712890625
-36.62109375
-28.38134765625
-24.71923828125
-30.21240234375
-25.634765625
-16.4794921875
-12.8173828125
-14.6484375
-18.310546875
-15.56396484375
-13.73291015625
-16.4794921875
-15.56396484375
-42.1142578125
-43.9453125
-47.607421875
-34.7900390625
-29.296875
-26.55029296875
-33.87451171875
-29.296875
-51.26953125
-41.19873046875
-27.4658203125
-29.296875
-40.283203125
-41.19873046875
-31.1279296875
-32.04345703125
-26.55029296875
-16.4794921875
-32.04345703125
-34.7900390625
-56.7626953125
-50.35400390625
-51.26953125
-60.4248046875
-57.67822265625
-58.59375
-60.4248046875
-52.18505859375
-48.52294921875
-43.9453125
-34.7900390625
-21.05712890625
-11.90185546875
-25.634765625
-15.56396484375
-6.40869140625
10.07080078125
1.8310546875
-4.57763671875
-0.91552734375
0.91552734375
21.05712890625
35.70556640625
62.255859375
66.83349609375
65.91796875
61.34033203125
65.00244140625
59.50927734375
70.49560546875
61.34033203125
57.67822265625
69.580078125
57.67822265625
49.4384765625
49.4384765625
43.9453125
45.7763671875
51.26953125
58.59375
35.70556640625
12.8173828125
-7.32421875
-11.90185546875
-32.04345703125
-51.26953125
-42.1142578125
-60.4248046875
-65.91796875
-49.4384765625
-41.19873046875
-61.34033203125
-65.91796875
-67.7490234375
-55.84716796875
-53.1005859375
-60.4248046875
-58.59375
-86.0595703125
-83.31298828125
-74.15771484375
-75.98876953125
-94.29931640625
-102.5390625
-97.0458984375
-100.7080078125
-116.27197265625
-108.0322265625
-100.7080078125
-101.62353515625
-97.0458984375
-78.7353515625
-80.56640625
-88.80615234375
-82.3974609375
-86.0595703125
-75.0732421875
-73.2421875
-89.7216796875
-91.552734375
-97.0458984375
-103.45458984375
-104.3701171875
-113.525390625
-117.1875
-131.8359375
-135.498046875
-138.24462890625
-137.3291015625
-112.60986328125
-79.65087890625
-28.38134765625
43.02978515625
117.1875
196.83837890625
275.57373046875
410.15625
578.61328125
738.83056640625
846.86279296875
858.7646484375
769.95849609375
584.1064453125
397.3388671875
173.9501953125
-18.310546875
-165.71044921875
-270.99609375
-377.197265625
-431.21337890625
-465.087890625
-482.48291015625
-483.3984375
-477.9052734375
-429.38232421875
-362.548828125
-289.306640625
-233.45947265625
-170.2880859375
-128.173828125
-112.60986328125
-99.79248046875
-75.98876953125
-83.31298828125
-86.0595703125
-84.228515625
-71.4111328125
-64.0869140625
-72.32666015625
-58.59375
-25.634765625
-39.36767578125
-38.4521484375
-28.38134765625
-20.1416015625
-22.88818359375
-30.21240234375
-32.958984375
-37.53662109375
-54.01611328125
-64.0869140625
-55.84716796875
-37.53662109375
-37.53662109375
-46.69189453125
-44.86083984375
-35.70556640625
-37.53662109375
-21.05712890625
-18.310546875
-0.91552734375
-10.07080078125
-21.05712890625
-5.4931640625
-32.04345703125
-42.1142578125
-25.634765625
-15.56396484375
-9.1552734375
-17.39501953125
-7.32421875
-5.4931640625
-1.8310546875
9.1552734375
3.662109375
-6.40869140625
12.8173828125
12.8173828125
17.39501953125
16.4794921875
12.8173828125
30.21240234375
46.69189453125
36.62109375
27.4658203125
41.19873046875
46.69189453125
36.62109375
41.19873046875
57.67822265625
65.91796875
73.2421875
74.15771484375
78.7353515625
89.7216796875
86.97509765625
84.228515625
80.56640625
86.97509765625
113.525390625
121.76513671875
124.51171875
132.75146484375
136.41357421875
144.6533203125
141.90673828125
141.90673828125
140.9912109375
123.59619140625
129.08935546875
130.92041015625
138.24462890625
149.23095703125
145.56884765625
144.6533203125
144.6533203125
156.55517578125
160.21728515625
156.55517578125
149.23095703125
147.39990234375
152.89306640625
154.72412109375
156.55517578125
138.24462890625
134.58251953125
134.58251953125
122.6806640625
118.10302734375
98.876953125
90.63720703125
86.97509765625
85.14404296875
97.0458984375
102.5390625
92.46826171875
68.66455078125
42.1142578125
18.310546875
11.90185546875
0
-14.6484375
-10.986328125
-16.4794921875
-12.8173828125
-12.8173828125
-26.55029296875
-27.4658203125
-30.21240234375
-47.607421875
-48.52294921875
-55.84716796875
-54.01611328125
-54.01611328125
-57.67822265625
-54.931640625
-43.9453125
-59.50927734375
-75.0732421875
-75.0732421875
-78.7353515625
-88.80615234375
-94.29931640625
-83.31298828125
-75.98876953125
-83.31298828125
-67.7490234375
-77.81982421875
-84.228515625
-90.63720703125
-91.552734375
-79.65087890625
-75.0732421875
-73.2421875
-71.4111328125
-82.3974609375
-83.31298828125
-75.0732421875
-72.32666015625
-70.49560546875
-61.34033203125
-70.49560546875
-76.904296875
-63.17138671875
-72.32666015625
-91.552734375
-89.7216796875
-85.14404296875
-73.2421875
-88.80615234375
-85.14404296875
-70.49560546875
-68.66455078125
-77.81982421875
-72.32666015625
-52.18505859375
-55.84716796875
-58.59375
-45.7763671875
-62.255859375
-68.66455078125
-66.83349609375
-74.15771484375
-67.7490234375
-53.1005859375
-65.91796875
-62.255859375
-54.931640625
-68.66455078125
-48.52294921875
-56.7626953125
-62.255859375
-61.34033203125
-63.17138671875
-63.17138671875
-66.83349609375
-61.34033203125
-69.580078125
-84.228515625
-88.80615234375
-76.904296875
-75.98876953125
-74.15771484375
-65.00244140625
-75.98876953125
-78.7353515625
-66.83349609375
-67.7490234375
-62.255859375
-57.67822265625
-58.59375
-54.01611328125
-62.255859375
-64.0869140625
-65.00244140625
-85.14404296875
-93.3837890625
-77.81982421875
-76.904296875
-69.580078125
-70.49560546875
-62.255859375
-51.26953125
-44.86083984375
-40.283203125
-37.53662109375
-50.35400390625
-56.7626953125
-53.1005859375
-37.53662109375
-41.19873046875
-52.18505859375
-36.62109375
-14.6484375
18.310546875
23.8037109375
25.634765625
38.4521484375
25.634765625
29.296875
44.86083984375
58.59375
63.17138671875
55.84716796875
53.1005859375
46.69189453125
44.86083984375
31.1279296875
24.71923828125
25.634765625
33.87451171875
29.296875
23.8037109375
21.05712890625
6.40869140625
-7.32421875
-20.1416015625
-54.931640625
-65.00244140625
-57.67822265625
-63.17138671875
-73.2421875
-61.34033203125
-69.580078125
-81.48193359375
-66.83349609375
-66.83349609375
-66.83349609375
-73.2421875
-82.3974609375
-82.3974609375
-89.7216796875
-106.201171875
-115.3564453125
-111.6943359375
-122.6806640625
-116.27197265625
-112.60986328125
-103.45458984375
-104.3701171875
-126.3427734375
-126.3427734375
-109.86328125
-119.0185546875
-118.10302734375
-109.86328125
-112.60986328125
-112.60986328125
-120.849609375
-129.08935546875
-128.173828125
-126.3427734375
-130.0048828125
-133.6669921875
-108.94775390625
-102.5390625
-100.7080078125
-108.94775390625
-119.93408203125
-122.6806640625
-144.6533203125
-155.6396484375
-153.80859375
-112.60986328125
-62.255859375
17.39501953125
78.7353515625
147.39990234375
205.99365234375
316.7724609375
480.65185546875
630.79833984375
759.8876953125
803.8330078125
734.2529296875
588.68408203125
407.40966796875
205.99365234375
19.22607421875
-134.58251953125
-254.5166015625
-370.78857421875
-433.9599609375
-457.763671875
-458.67919921875
-476.98974609375
-475.15869140625
-449.52392578125
-388.18359375
-324.0966796875
-265.5029296875
-195.9228515625
-143.73779296875
-124.51171875
-101.62353515625
-75.98876953125
-62.255859375
-54.01611328125
-44.86083984375
-45.7763671875
-45.7763671875
-38.4521484375
-53.1005859375
-46.69189453125
-33.87451171875
-72.32666015625
-77.81982421875
-65.91796875
-70.49560546875
-55.84716796875
-43.9453125
-37.53662109375
-37.53662109375
-41.19873046875
-28.38134765625
-17.39501953125
-26.55029296875
-32.958984375
-15.56396484375
-1.8310546875
-20.1416015625
-23.8037109375
-27.4658203125
-20.1416015625
-10.07080078125
-16.4794921875
-21.05712890625
-25.634765625
-29.296875
-17.39501953125
-28.38134765625
-12.8173828125
-6.40869140625
-8.23974609375
-4.57763671875
5.4931640625
6.40869140625
5.4931640625
6.40869140625
13.73291015625
21.05712890625
25.634765625
36.62109375
54.931640625
63.17138671875
71.4111328125
65.00244140625
54.931640625
43.9453125
54.01611328125
63.17138671875
73.2421875
69.580078125
71.4111328125
75.0732421875
80.56640625
110.77880859375
101.62353515625
90.63720703125
108.0322265625
106.201171875
116.27197265625
137.3291015625
139.16015625
143.73779296875
142.822265625
140.07568359375
141.90673828125
143.73779296875
149.23095703125
148.3154296875
151.06201171875
151.06201171875
159.3017578125
166.6259765625
168.45703125
164.794921875
160.21728515625
169.37255859375
169.37255859375
151.9775390625
152.89306640625
158.38623046875
148.3154296875
149.23095703125
150.146484375
153.80859375
144.6533203125
136.41357421875
132.75146484375
130.92041015625
120.849609375
119.93408203125
115.3564453125
115.3564453125
103.45458984375
98.876953125
86.97509765625
74.15771484375
81.48193359375
72.32666015625
53.1005859375
36.62109375
22.88818359375
14.6484375
7.32421875
-0.91552734375
24.71923828125
19.22607421875
-0.91552734375
-15.56396484375
-21.97265625
-20.1416015625
-26.55029296875
-34.7900390625
-38.4521484375
-32.04345703125
-19.22607421875
-21.05712890625
-24.71923828125
-29.296875
-29.296875
-44.86083984375
-57.67822265625
-62.255859375
-54.931640625
-50.35400390625
-50.35400390625
-38.4521484375
-37.53662109375
-41.19873046875
-32.958984375
-49.4384765625
-52.18505859375
-55.84716796875
-55.84716796875
-34.7900390625
-33.87451171875
-44.86083984375
-51.26953125
-59.50927734375
-68.66455078125
-65.00244140625
-63.17138671875
-52.18505859375
-34.7900390625
-39.36767578125
-34.7900390625
-38.4521484375
-52.18505859375
-49.4384765625
-42.1142578125
-38.4521484375
-30.21240234375
-25.634765625
-36.62109375
-31.1279296875
-38.4521484375
-38.4521484375
-30.21240234375
-18.310546875
-13.73291015625
-12.8173828125
-15.56396484375
-20.1416015625
-24.71923828125
-11.90185546875
-9.1552734375
-15.56396484375
-23.8037109375
-11.90185546875
-6.40869140625
-23.8037109375
-25.634765625
-21.97265625
-13.73291015625
-15.56396484375
-23.8037109375
-12.8173828125
-11.90185546875
-6.40869140625
-6.40869140625
-16.4794921875
-12.8173828125
-20.1416015625
-13.73291015625
-33.87451171875
-41.19873046875
-45.7763671875
-31.1279296875
-36.62109375
-35.70556640625
-39.36767578125
-32.04345703125
-27.4658203125
-15.56396484375
-12.8173828125
-4.57763671875
-0.91552734375
-7.32421875
-18.310546875
-42.1142578125
-44.86083984375
-27.4658203125
-24.71923828125
-28.38134765625
-34.7900390625
-30.21240234375
-32.04345703125
-34.7900390625
-32.04345703125
-38.4521484375
-21.97265625
-16.4794921875
-8.23974609375
7.32421875
7.32421875
20.1416015625
19.22607421875
22.88818359375
37.53662109375
42.1142578125
30.21240234375
17.39501953125
17.39501953125
32.04345703125
64.0869140625
86.97509765625
90.63720703125
99.79248046875
97.96142578125
87.890625
99.79248046875
110.77880859375
112.60986328125
99.79248046875
91.552734375
105.28564453125
106.201171875
115.3564453125
92.46826171875
86.97509765625
92.46826171875
86.97509765625
70.49560546875
54.01611328125
45.7763671875
34.7900390625
26.55029296875
21.97265625
12.8173828125
10.986328125
-15.56396484375
-10.986328125
-0.91552734375
-4.57763671875
-19.22607421875
-22.88818359375
-19.22607421875
-36.62109375
-30.21240234375
-32.04345703125
-42.1142578125
-65.00244140625
-65.00244140625
-62.255859375
-59.50927734375
-72.32666015625
-74.15771484375
-69.580078125
-56.7626953125
-58.59375
-66.83349609375
-47.607421875
-49.4384765625
-44.86083984375
-40.283203125
-51.26953125
-40.283203125
-37.53662109375
-52.18505859375
-65.91796875
-65.91796875
-72.32666015625
-75.0732421875
-75.98876953125
-93.3837890625
-88.80615234375
-87.890625
-86.97509765625
-98.876953125
-101.62353515625
-95.21484375
-81.48193359375
-52.18505859375
-11.90185546875
22.88818359375
72.32666015625
149.23095703125
231.62841796875
303.03955078125
431.21337890625
600.5859375
772.705078125
870.66650390625
891.7236328125
791.015625
627.13623046875
448.6083984375
247.1923828125
15.56396484375
-173.9501953125
-296.630859375
-397.3388671875
-459.5947265625
-472.412109375
-447.69287109375
-432.12890625
-392.76123046875
-325.01220703125
-259.09423828125
-195.9228515625
-129.08935546875
-92.46826171875
-65.91796875
-51.26953125
-34.7900390625
-27.4658203125
-16.4794921875
-7.32421875
-16.4794921875
-7.32421875
-14.6484375
-10.986328125
-14.6484375
-5.4931640625
-10.986328125
-14.6484375
1.8310546875
2.74658203125
4.57763671875
18.310546875
30.21240234375
19.22607421875
15.56396484375
16.4794921875
-9.1552734375
-21.97265625
-16.4794921875
-11.90185546875
-9.1552734375
10.986328125
14.6484375
21.97265625
28.38134765625
32.04345703125
32.04345703125
36.62109375
26.55029296875
30.21240234375
42.1142578125
41.19873046875
40.283203125
42.1142578125
45.7763671875
54.01611328125
43.9453125
50.35400390625
42.1142578125
43.9453125
36.62109375
33.87451171875
53.1005859375
64.0869140625
61.34033203125
64.0869140625
74.15771484375
74.15771484375
90.63720703125
108.0322265625
119.93408203125
125.42724609375
137.3291015625
129.08935546875
127.25830078125
122.6806640625
131.8359375
135.498046875
143.73779296875
140.9912109375
142.822265625
159.3017578125
170.2880859375
176.69677734375
182.18994140625
205.99365234375
224.30419921875
215.14892578125
221.5576171875
220.64208984375
203.2470703125
195.9228515625
199.5849609375
212.40234375
216.064453125
208.740234375
215.14892578125
222.47314453125
219.7265625
221.5576171875
239.8681640625
228.8818359375
221.5576171875
239.8681640625
259.09423828125
253.60107421875
238.037109375
229.79736328125
221.5576171875
227.05078125
214.2333984375
209.65576171875
208.740234375
186.767578125
164.794921875
162.9638671875
144.6533203125
130.0048828125
123.59619140625
124.51171875
112.60986328125
105.28564453125
101.62353515625
94.29931640625
95.21484375
88.80615234375
75.0732421875
74.15771484375
81.48193359375
55.84716796875
39.36767578125
32.04345703125
25.634765625
14.6484375
8.23974609375
10.07080078125
11.90185546875
12.8173828125
5.4931640625
-1.8310546875
-27.4658203125
-26.55029296875
-16.4794921875
-13.73291015625
-26.55029296875
-25.634765625
-12.8173828125
-12.8173828125
-23.8037109375
-30.21240234375
-19.22607421875
-20.1416015625
-32.04345703125
-36.62109375
-37.53662109375
-32.04345703125
-35.70556640625
-19.22607421875
-19.22607421875
-11.90185546875
-12.8173828125
-4.57763671875
-26.55029296875
-27.4658203125
-10.07080078125
-12.8173828125
-11.90185546875
-16.4794921875
-37.53662109375
-36.62109375
-23.8037109375
-28.38134765625
-16.4794921875
-12.8173828125
-23.8037109375
-17.39501953125
-1.8310546875
-14.6484375
-11.90185546875
-1.8310546875
-10.986328125
-13.73291015625
-9.1552734375
11.90185546875
4.57763671875
6.40869140625
-6.40869140625
-6.40869140625
-10.986328125
-3.662109375
2.74658203125
2.74658203125
3.662109375
12.8173828125
0.91552734375
-6.40869140625
1.8310546875
9.1552734375
15.56396484375
4.57763671875
2.74658203125
-2.74658203125
-5.4931640625
-5.4931640625
-2.74658203125
-4.57763671875
1.8310546875
3.662109375
0
0
18.310546875
4.57763671875
2.74658203125
5.4931640625
-6.40869140625
-11.90185546875
-23.8037109375
-43.02978515625
-32.04345703125
-32.04345703125
-32.04345703125
-21.05712890625
-22.88818359375
-21.05712890625
-2.74658203125
-11.90185546875
-21.97265625
-33.87451171875
-27.4658203125
-25.634765625
-24.71923828125
-28.38134765625
-17.39501953125
-2.74658203125
5.4931640625
8.23974609375
-10.07080078125
-2.74658203125
12.8173828125
12.8173828125
11.90185546875
19.22607421875
34.7900390625
66.83349609375
73.2421875
71.4111328125
87.890625
97.96142578125
91.552734375
86.0595703125
95.21484375
105.28564453125
93.3837890625
97.0458984375
105.28564453125
105.28564453125
111.6943359375
108.94775390625
113.525390625
111.6943359375
114.44091796875
109.86328125
109.86328125
97.0458984375
51.26953125
9.1552734375
10.986328125
16.4794921875
-8.23974609375
-15.56396484375
-17.39501953125
-26.55029296875
-35.70556640625
-32.958984375
-30.21240234375
-41.19873046875
-49.4384765625
-54.01611328125
-44.86083984375
-47.607421875
-62.255859375
-65.91796875
-64.0869140625
-47.607421875
-55.84716796875
-56.7626953125
-54.01611328125
-59.50927734375
-67.7490234375
-82.3974609375
-77.81982421875
-75.98876953125
-72.32666015625
-74.15771484375
-76.904296875
-69.580078125
-66.83349609375
-76.904296875
-69.580078125
-65.91796875
-78.7353515625
-81.48193359375
-75.98876953125
-71.4111328125
-68.66455078125
-65.91796875
-71.4111328125
-84.228515625
-72.32666015625
-86.97509765625
-112.60986328125
-129.08935546875
-114.44091796875
-78.7353515625
-25.634765625
48.52294921875
118.10302734375
221.5576171875
293.88427734375
418.39599609375
575.86669921875
742.49267578125
851.4404296875
869.7509765625
809.326171875
656.43310546875
476.07421875
300.29296875
98.876953125
-113.525390625
-234.375
-334.16748046875
-422.9736328125
-470.5810546875
-479.736328125
-465.087890625
-433.04443359375
-379.94384765625
-308.53271484375
-232.5439453125
-170.2880859375
-122.6806640625
-103.45458984375
-71.4111328125
-54.01611328125
-44.86083984375
-41.19873046875
-42.1142578125
-36.62109375
-22.88818359375
-16.4794921875
-27.4658203125
-33.87451171875
-35.70556640625
-29.296875
-15.56396484375
-10.986328125
-15.56396484375
-6.40869140625
-30.21240234375
-52.18505859375
-42.1142578125
-35.70556640625
-18.310546875
-22.88818359375
-29.296875
-11.90185546875
-19.22607421875
-18.310546875
-8.23974609375
-15.56396484375
-8.23974609375
-2.74658203125
-0.91552734375
4.57763671875
5.4931640625
9.1552734375
6.40869140625
8.23974609375
0
9.1552734375
17.39501953125
10.07080078125
23.8037109375
25.634765625
25.634765625
2.74658203125
14.6484375
31.1279296875
41.19873046875
53.1005859375
50.35400390625
56.7626953125
64.0869140625
56.7626953125
44.86083984375
45.7763671875
65.00244140625
59.50927734375
63.17138671875
63.17138671875
73.2421875
82.3974609375
90.63720703125
107.11669921875
105.28564453125
125.42724609375
132.75146484375
136.41357421875
127.25830078125
146.484375
138.24462890625
134.58251953125
129.08935546875
140.9912109375
156.55517578125
156.55517578125
167.54150390625
184.02099609375
199.5849609375
198.66943359375
205.078125
225.2197265625
225.2197265625
216.064453125
210.5712890625
213.31787109375
193.17626953125
178.52783203125
180.35888671875
176.69677734375
184.9365234375
193.17626953125
195.00732421875
197.75390625
195.9228515625
184.9365234375
178.52783203125
173.03466796875
167.54150390625
168.45703125
164.794921875
148.3154296875
139.16015625
130.92041015625
130.92041015625
113.525390625
100.7080078125
89.7216796875
59.50927734375
67.7490234375
71.4111328125
41.19873046875
27.4658203125
15.56396484375
5.4931640625
-8.23974609375
-18.310546875
-21.05712890625
-6.40869140625
-7.32421875
-9.1552734375
-26.55029296875
-50.35400390625
-68.66455078125
-42.1142578125
-33.87451171875
-54.01611328125
-66.83349609375
-61.34033203125
-40.283203125
-32.958984375
-30.21240234375
-49.4384765625
-56.7626953125
-59.50927734375
-69.580078125
-62.255859375
-54.931640625
-36.62109375
-48.52294921875
-60.4248046875
-75.98876953125
-52.18505859375
-56.7626953125
-54.931640625
-55.84716796875
-69.580078125
-76.904296875
-80.56640625
-102.5390625
-103.45458984375
-88.80615234375
-84.228515625
-73.2421875
-69.580078125
-72.32666015625
-71.4111328125
-76.904296875
-75.98876953125
-74.15771484375
-71.4111328125
-55.84716796875
-65.00244140625
-65.00244140625
-65.00244140625
-72.32666015625
-66.83349609375
-52.18505859375
-51.26953125
-60.4248046875
-63.17138671875
-83.31298828125
-88.80615234375
-71.4111328125
-67.7490234375
-55.84716796875
-55.84716796875
-49.4384765625
-47.607421875
-37.53662109375
-39.36767578125
-41.19873046875
-38.4521484375
-40.283203125
-37.53662109375
-50.35400390625
-56.7626953125
-54.931640625
-57.67822265625
-58.59375
-58.59375
-45.7763671875
-39.36767578125
-54.01611328125
-73.2421875
-79.65087890625
-64.0869140625
-67.7490234375
-77.81982421875
-73.2421875
-77.81982421875
-70.49560546875
-67.7490234375
-48.52294921875
-46.69189453125
-44.86083984375
-58.59375
-54.931640625
-60.4248046875
-72.32666015625
-93.3837890625
-75.0732421875
-82.3974609375
-96.13037109375
-78.7353515625
-91.552734375
-84.228515625
-63.17138671875
-63.17138671875
-65.91796875
-68.66455078125
-79.65087890625
-87.890625
-70.49560546875
-68.66455078125
-45.7763671875
-51.26953125
-43.9453125
-33.87451171875
-40.283203125
-52.18505859375
-59.50927734375
-50.35400390625
-35.70556640625
-11.90185546875
9.1552734375
23.8037109375
26.55029296875
29.296875
19.22607421875
29.296875
13.73291015625
28.38134765625
34.7900390625
21.05712890625
31.1279296875
29.296875
23.8037109375
32.958984375
34.7900390625
34.7900390625
21.97265625
20.1416015625
-6.40869140625
0
-24.71923828125
-44.86083984375
-40.283203125
-54.931640625
-54.01611328125
-61.34033203125
-75.98876953125
-79.65087890625
-90.63720703125
-105.28564453125
-105.28564453125
-108.94775390625
-117.1875
-124.51171875
-114.44091796875
-139.16015625
-137.3291015625
-133.6669921875
-132.75146484375
-125.42724609375
-123.59619140625
-126.3427734375
-131.8359375
-125.42724609375
-115.3564453125
-147.39990234375
-153.80859375
-144.6533203125
-151.06201171875
-140.9912109375
-139.16015625
-133.6669921875
-143.73779296875
-154.72412109375
-144.6533203125
-144.6533203125
-139.16015625
-139.16015625
-128.173828125
-140.9912109375
-154.72412109375
-158.38623046875
-174.86572265625
-196.83837890625
-204.16259765625
-195.9228515625
-208.740234375
-205.99365234375
-182.18994140625
-133.6669921875
-65.91796875
10.986328125
78.7353515625
147.39990234375
239.8681640625
389.09912109375
553.89404296875
714.111328125
811.1572265625
805.6640625
704.9560546875
535.58349609375
314.94140625
120.849609375
-68.66455078125
-220.64208984375
-340.576171875
-456.84814453125
-504.45556640625
-531.005859375
-549.31640625
-550.23193359375
-527.34375
-487.060546875
-414.73388671875
-332.33642578125
-265.5029296875
-234.375
-227.05078125
-196.83837890625
-181.2744140625
-160.21728515625
-155.6396484375
-148.3154296875
-145.56884765625
-159.3017578125
-160.21728515625
-157.470703125
-160.21728515625
-146.484375
-134.58251953125
-135.498046875
-125.42724609375
-129.08935546875
-123.59619140625
-127.25830078125
-119.0185546875
-147.39990234375
-142.822265625
-136.41357421875
-129.08935546875
-131.8359375
-122.6806640625
-114.44091796875
-120.849609375
-108.0322265625
-102.5390625
-93.3837890625
-118.10302734375
-110.77880859375
-109.86328125
-111.6943359375
-108.94775390625
-113.525390625
-115.3564453125
-114.44091796875
-105.28564453125
-100.7080078125
-99.79248046875
-94.29931640625
-94.29931640625
-86.97509765625
-77.81982421875
-87.890625
-75.98876953125
-68.66455078125
-65.00244140625
-66.83349609375
-79.65087890625
-71.4111328125
-65.91796875
-52.18505859375
-57.67822265625
-57.67822265625
-56.7626953125
-57.67822265625
-43.02978515625
-40.283203125
-29.296875
-29.296875
-32.04345703125
-20.1416015625
-1.8310546875
-1.8310546875
6.40869140625
-5.4931640625
6.40869140625
26.55029296875
30.21240234375
35.70556640625
37.53662109375
33.87451171875
45.7763671875
53.1005859375
59.50927734375
67.7490234375
62.255859375
58.59375
65.91796875
56.7626953125
61.34033203125
84.228515625
70.49560546875
58.59375
54.01611328125
69.580078125
68.66455078125
57.67822265625
57.67822265625
54.931640625
56.7626953125
54.931640625
48.52294921875
46.69189453125
50.35400390625
45.7763671875
45.7763671875
44.86083984375
30.21240234375
9.1552734375
-8.23974609375
-21.97265625
-46.69189453125
-56.7626953125
-57.67822265625
-59.50927734375
-68.66455078125
-78.7353515625
-73.2421875
-68.66455078125
-77.81982421875
-90.63720703125
-108.94775390625
-104.3701171875
-108.0322265625
-114.44091796875
-120.849609375
-122.6806640625
-130.0048828125
-130.92041015625
-153.80859375
-167.54150390625
-165.71044921875
-162.9638671875
-163.87939453125
-150.146484375
-166.6259765625
-167.54150390625
-160.21728515625
-160.21728515625
-183.10546875
-178.52783203125
-172.119140625
-205.99365234375
-198.66943359375
-178.52783203125
-164.794921875
-180.35888671875
-185.85205078125
-184.9365234375
-186.767578125
-193.17626953125
-197.75390625
-182.18994140625
-170.2880859375
-164.794921875
-173.03466796875
-172.119140625
-166.6259765625
-173.9501953125
-178.52783203125
-183.10546875
-173.9501953125
-170.2880859375
-182.18994140625
-187.68310546875
-173.03466796875
-183.10546875
-196.83837890625
-182.18994140625
-159.3017578125
-161.1328125
-174.86572265625
-169.37255859375
-160.21728515625
-162.9638671875
-162.9638671875
-162.04833984375
-157.470703125
-151.06201171875
-158.38623046875
-156.55517578125
-152.89306640625
-149.23095703125
-160.21728515625
-157.470703125
-164.794921875
-158.38623046875
-153.80859375
-162.9638671875
-159.3017578125
-161.1328125
-165.71044921875
-167.54150390625
-153.80859375
-153.80859375
-149.23095703125
-163.87939453125
-149.23095703125
-155.6396484375
-176.69677734375
-189.51416015625
-173.03466796875
-170.2880859375
-171.20361328125
-155.6396484375
-143.73779296875
-158.38623046875
-141.90673828125
-130.92041015625
-162.04833984375
-179.443359375
-183.10546875
-158.38623046875
-135.498046875
-126.3427734375
-121.76513671875
-125.42724609375
-127.25830078125
-140.9912109375
-140.9912109375
-145.56884765625
-142.822265625
-140.9912109375
-137.3291015625
-114.44091796875
-89.7216796875
-80.56640625
-75.98876953125
-84.228515625
-85.14404296875
-59.50927734375
-48.52294921875
-51.26953125
-43.9453125
-52.18505859375
-50.35400390625
-44.86083984375
-43.9453125
-58.59375
-59.50927734375
-71.4111328125
-86.0595703125
-96.13037109375
-99.79248046875
-90.63720703125
-89.7216796875
-97.96142578125
-103.45458984375
-117.1875
-130.0048828125
-144.6533203125
-137.3291015625
-146.484375
-142.822265625
-151.9775390625
-168.45703125
-184.9365234375
-185.85205078125
-184.02099609375
-186.767578125
-176.69677734375
-185.85205078125
-211.48681640625
-200.50048828125
-200.50048828125
-203.2470703125
-191.34521484375
-203.2470703125
-202.33154296875
-204.16259765625
-205.99365234375
-218.81103515625
-213.31787109375
-205.078125
-206.9091796875
-208.740234375
-199.5849609375
-195.9228515625
-199.5849609375
-201.416015625
-209.65576171875
-209.65576171875
-209.65576171875
-214.2333984375
-216.97998046875
-207.82470703125
-222.47314453125
-216.97998046875
-222.47314453125
-226.13525390625
-238.037109375
-232.5439453125
-230.712890625
-227.05078125
-188.5986328125
-136.41357421875
-78.7353515625
5.4931640625
80.56640625
141.90673828125
300.29296875
464.17236328125
627.13623046875
728.759765625
710.44921875
608.82568359375
438.53759765625
244.44580078125
45.7763671875
-139.16015625
-278.3203125
-401.91650390625
-498.96240234375
-550.23193359375
-565.7958984375
-568.54248046875
-571.2890625
-560.302734375
-509.033203125
-457.763671875
-387.26806640625
-329.58984375
-272.8271484375
-239.8681640625
-210.5712890625
-196.83837890625
-182.18994140625
-179.443359375
-189.51416015625
-190.4296875
-191.34521484375
-199.5849609375
-182.18994140625
-179.443359375
-174.86572265625
-164.794921875
-160.21728515625
-161.1328125
-162.04833984375
-156.55517578125
-146.484375
-148.3154296875
-140.9912109375
-141.90673828125
-133.6669921875
-131.8359375
-134.58251953125
-132.75146484375
-135.498046875
-128.173828125
-142.822265625
-150.146484375
-137.3291015625
-140.07568359375
-142.822265625
-141.90673828125
-138.24462890625
-142.822265625
-143.73779296875
-134.58251953125
-138.24462890625
-130.0048828125
-119.0185546875
-124.51171875
-119.93408203125
-112.60986328125
-101.62353515625
-114.44091796875
-108.0322265625
-97.0458984375
-105.28564453125
-97.96142578125
-84.228515625
-91.552734375
-87.890625
-82.3974609375
-86.0595703125
-76.904296875
-57.67822265625
-47.607421875
-61.34033203125
-55.84716796875
-50.35400390625
-47.607421875
-45.7763671875
-46.69189453125
-32.04345703125
-21.97265625
-7.32421875
18.310546875
19.22607421875
5.4931640625
1.8310546875
15.56396484375
18.310546875
19.22607421875
33.87451171875
47.607421875
35.70556640625
32.958984375
40.283203125
46.69189453125
46.69189453125
52.18505859375
65.00244140625
47.607421875
38.4521484375
56.7626953125
49.4384765625
59.50927734375
63.17138671875
59.50927734375
54.01611328125
49.4384765625
43.02978515625
34.7900390625
40.283203125
35.70556640625
30.21240234375
36.62109375
19.22607421875
13.73291015625
5.4931640625
-0.91552734375
-10.07080078125
-15.56396484375
-30.21240234375
-33.87451171875
-55.84716796875
-51.26953125
-56.7626953125
-67.7490234375
-86.97509765625
-90.63720703125
-105.28564453125
-115.3564453125
-121.76513671875
-122.6806640625
-131.8359375
-126.3427734375
-135.498046875
-131.8359375
-133.6669921875
-151.9775390625
-144.6533203125
-151.06201171875
-167.54150390625
-184.02099609375
-186.767578125
-185.85205078125
-190.4296875
-180.35888671875
-178.52783203125
-172.119140625
-174.86572265625
-187.68310546875
-184.9365234375
-181.2744140625
-184.02099609375
-187.68310546875
-190.4296875
-184.9365234375
-184.9365234375
-193.17626953125
-186.767578125
-189.51416015625
-193.17626953125
-180.35888671875
-184.02099609375
-188.5986328125
-177.6123046875
-190.4296875
-155.6396484375
-154.72412109375
-178.52783203125
-179.443359375
-177.6123046875
-180.35888671875
-195.9228515625
-200.50048828125
-192.2607421875
-197.75390625
-185.85205078125
-176.69677734375
-173.03466796875
-175.78125
-162.04833984375
-159.3017578125
-166.6259765625
-161.1328125
-159.3017578125
-157.470703125
-154.72412109375
-167.54150390625
-175.78125
-169.37255859375
-171.20361328125
-179.443359375
-159.3017578125
-162.9638671875
-161.1328125
-157.470703125
-166.6259765625
-154.72412109375
-139.16015625
-156.55517578125
-161.1328125
-160.21728515625
-165.71044921875
-162.9638671875
-164.794921875
-167.54150390625
-166.6259765625
-184.02099609375
-175.78125
-163.87939453125
-174.86572265625
-173.03466796875
-165.71044921875
-157.470703125
-163.87939453125
-150.146484375
-139.16015625
-136.41357421875
-120.849609375
-111.6943359375
-108.94775390625
-117.1875
-124.51171875
-129.08935546875
-130.92041015625
-120.849609375
-108.0322265625
-96.13037109375
-80.56640625
-50.35400390625
-51.26953125
-49.4384765625
-33.87451171875
-35.70556640625
-41.19873046875
-48.52294921875
-57.67822265625
-79.65087890625
-84.228515625
-72.32666015625
-72.32666015625
-69.580078125
-67.7490234375
-66.83349609375
-75.98876953125
-66.83349609375
-92.46826171875
-108.94775390625
-124.51171875
-123.59619140625
-130.0048828125
-136.41357421875
-154.72412109375
-157.470703125
-162.9638671875
-171.20361328125
-172.119140625
-191.34521484375
-188.5986328125
-191.34521484375
-190.4296875
-201.416015625
-195.9228515625
-178.52783203125
-191.34521484375
-192.2607421875
-199.5849609375
-215.14892578125
-225.2197265625
-218.81103515625
-220.64208984375
-238.95263671875
-224.30419921875
-214.2333984375
-204.16259765625
-199.5849609375
-208.740234375
-206.9091796875
-208.740234375
-232.5439453125
-228.8818359375
-221.5576171875
-216.97998046875
-220.64208984375
-214.2333984375
-213.31787109375
-208.740234375
-213.31787109375
-218.81103515625
-216.064453125
-218.81103515625
-218.81103515625
-227.05078125
-235.29052734375
-230.712890625
-215.14892578125
-184.02099609375
-143.73779296875
-66.83349609375
-3.662109375
60.4248046875
124.51171875
254.5166015625
415.6494140625
560.302734375
678.40576171875
723.2666015625
632.62939453125
476.07421875
280.1513671875
80.56640625
-84.228515625
-268.24951171875
-389.09912109375
-506.28662109375
-566.71142578125
-605.16357421875
-602.4169921875
-599.67041015625
-575.86669921875
-528.25927734375
-471.49658203125
-388.18359375
-338.7451171875
-290.22216796875
-238.95263671875
-232.5439453125
-215.14892578125
-194.091796875
-175.78125
-162.9638671875
-152.89306640625
-154.72412109375
-141.90673828125
-154.72412109375
-162.04833984375
-151.06201171875
-156.55517578125
-173.9501953125
-170.2880859375
-149.23095703125
-149.23095703125
-135.498046875
-133.6669921875
-138.24462890625
-142.822265625
-157.470703125
-160.21728515625
-138.24462890625
-136.41357421875
-130.0048828125
-120.849609375
-111.6943359375
-103.45458984375
-118.10302734375
-131.8359375
-147.39990234375
-137.3291015625
-107.11669921875
-108.0322265625
-121.76513671875
-124.51171875
-130.92041015625
-128.173828125
-108.94775390625
-94.29931640625
-102.5390625
-92.46826171875
-93.3837890625
-86.97509765625
-92.46826171875
-93.3837890625
-103.45458984375
-82.3974609375
-89.7216796875
-79.65087890625
-60.4248046875
-42.1142578125
-45.7763671875
-33.87451171875
-35.70556640625
-42.1142578125
-49.4384765625
-54.01611328125
-34.7900390625
-32.04345703125
-32.958984375
-37.53662109375
-17.39501953125
-6.40869140625
5.4931640625
5.4931640625
14.6484375
4.57763671875
1.8310546875
10.07080078125
32.04345703125
38.4521484375
42.1142578125
49.4384765625
62.255859375
61.34033203125
62.255859375
72.32666015625
68.66455078125
76.904296875
76.904296875
84.228515625
96.13037109375
82.3974609375
82.3974609375
72.32666015625
75.0732421875
74.15771484375
78.7353515625
77.81982421875
80.56640625
85.14404296875
79.65087890625
55.84716796875
59.50927734375
59.50927734375
65.91796875
61.34033203125
49.4384765625
41.19873046875
30.21240234375
25.634765625
-4.57763671875
-15.56396484375
-14.6484375
-17.39501953125
-32.04345703125
-46.69189453125
-47.607421875
-61.34033203125
-83.31298828125
-81.48193359375
-80.56640625
-104.3701171875
-106.201171875
-108.0322265625
-106.201171875
-112.60986328125
-119.93408203125
-113.525390625
-123.59619140625
-131.8359375
-132.75146484375
-134.58251953125
-131.8359375
-126.3427734375
-126.3427734375
-119.93408203125
-135.498046875
-147.39990234375
-149.23095703125
-151.06201171875
-154.72412109375
-164.794921875
-170.2880859375
-168.45703125
-160.21728515625
-158.38623046875
-162.04833984375
-161.1328125
-162.04833984375
-157.470703125
-167.54150390625
-160.21728515625
-151.9775390625
-153.80859375
-151.9775390625
-144.6533203125
-140.07568359375
-122.6806640625
-137.3291015625
-129.08935546875
-148.3154296875
-160.21728515625
-147.39990234375
-140.9912109375
-137.3291015625
-140.9912109375
-137.3291015625
-144.6533203125
-137.3291015625
-140.9912109375
-139.16015625
-129.08935546875
-128.173828125
-134.58251953125
-137.3291015625
-137.3291015625
-133.6669921875
-124.51171875
-131.8359375
-119.0185546875
-112.60986328125
-114.44091796875
-109.86328125
-107.11669921875
-101.62353515625
-120.849609375
-133.6669921875
-131.8359375
-137.3291015625
-136.41357421875
-135.498046875
-130.92041015625
-135.498046875
-119.93408203125
-124.51171875
-123.59619140625
-108.0322265625
-117.1875
-124.51171875
-123.59619140625
-129.08935546875
-116.27197265625
-111.6943359375
-117.1875
-107.11669921875
-94.29931640625
-79.65087890625
-85.14404296875
-79.65087890625
-75.0732421875
-75.0732421875
-63.17138671875
-70.49560546875
-89.7216796875
-81.48193359375
-89.7216796875
-81.48193359375
-64.0869140625
-42.1142578125
-37.53662109375
-31.1279296875
-24.71923828125
-10.07080078125
0.91552734375
-1.8310546875
11.90185546875
23.8037109375
2.74658203125
-4.57763671875
5.4931640625
-6.40869140625
-7.32421875
0
-10.07080078125
-27.4658203125
-45.7763671875
-51.26953125
-63.17138671875
-47.607421875
-21.97265625
-54.01611328125
-77.81982421875
-87.890625
-107.11669921875
-112.60986328125
-123.59619140625
-115.3564453125
-113.525390625
-119.93408203125
-130.92041015625
-137.3291015625
-136.41357421875
-143.73779296875
-142.822265625
-151.9775390625
-165.71044921875
-157.470703125
-148.3154296875
-151.06201171875
-148.3154296875
-140.07568359375
-140.9912109375
-133.6669921875
-149.23095703125
-162.04833984375
-158.38623046875
-152.89306640625
-146.484375
-152.89306640625
-162.9638671875
-174.86572265625
-182.18994140625
-184.02099609375
-168.45703125
-163.87939453125
-161.1328125
-156.55517578125
-160.21728515625
-162.9638671875
-162.04833984375
-164.794921875
-184.9365234375
-188.5986328125
-207.82470703125
-197.75390625
-193.17626953125
-184.02099609375
-159.3017578125
-121.76513671875
-46.69189453125
5.4931640625
85.14404296875
164.794921875
234.375
374.45068359375
520.93505859375
686.6455078125
783.69140625
773.62060546875
664.6728515625
480.65185546875
282.89794921875
80.56640625
-118.10302734375
-285.64453125
-395.5078125
-485.2294921875
-526.42822265625
-559.38720703125
-545.654296875
-543.8232421875
-510.8642578125
-438.53759765625
-378.11279296875
-304.87060546875
-236.2060546875
-193.17626953125
-164.794921875
-140.07568359375
-137.3291015625
-131.8359375
-144.6533203125
-118.10302734375
-94.29931640625
-97.96142578125
-94.29931640625
-91.552734375
-82.3974609375
-85.14404296875
-83.31298828125
-84.228515625
-96.13037109375
-100.7080078125
-100.7080078125
-108.0322265625
-94.29931640625
-91.552734375
-90.63720703125
-98.876953125
-91.552734375
-85.14404296875
-81.48193359375
-71.4111328125
-69.580078125
-68.66455078125
-75.98876953125
-63.17138671875
-56.7626953125
-57.67822265625
-59.50927734375
-63.17138671875
-57.67822265625
-51.26953125
-58.59375
-57.67822265625
-50.35400390625
-50.35400390625
-54.01611328125
-41.19873046875
-29.296875
-26.55029296875
-33.87451171875
-35.70556640625
-32.958984375
-7.32421875
-5.4931640625
-12.8173828125
-10.07080078125
-12.8173828125
-7.32421875
3.662109375
-4.57763671875
0.91552734375
24.71923828125
23.8037109375
33.87451171875
52.18505859375
52.18505859375
49.4384765625
55.84716796875
57.67822265625
61.34033203125
74.15771484375
62.255859375
81.48193359375
70.49560546875
83.31298828125
107.11669921875
113.525390625
109.86328125
120.849609375
130.92041015625
140.07568359375
132.75146484375
142.822265625
139.16015625
143.73779296875
150.146484375
151.9775390625
168.45703125
168.45703125
152.89306640625
161.1328125
165.71044921875
162.9638671875
157.470703125
150.146484375
155.6396484375
161.1328125
162.04833984375
146.484375
149.23095703125
155.6396484375
154.72412109375
139.16015625
125.42724609375
114.44091796875
94.29931640625
89.7216796875
80.56640625
74.15771484375
54.931640625
41.19873046875
29.296875
14.6484375
-0.91552734375
-10.986328125
-16.4794921875
-24.71923828125
-25.634765625
-25.634765625
-35.70556640625
-40.283203125
-41.19873046875
-52.18505859375
-43.02978515625
-46.69189453125
-61.34033203125
-75.98876953125
-65.91796875
-55.84716796875
-56.7626953125
-65.91796875
-81.48193359375
-68.66455078125
-71.4111328125
-83.31298828125
-90.63720703125
-85.14404296875
-77.81982421875
-90.63720703125
-93.3837890625
-93.3837890625
-114.44091796875
-111.6943359375
-108.0322265625
-108.94775390625
-101.62353515625
-108.0322265625
-107.11669921875
-107.11669921875
-105.28564453125
-90.63720703125
-90.63720703125
-95.21484375
-91.552734375
-70.49560546875
-78.7353515625
-82.3974609375
-92.46826171875
-86.0595703125
-88.80615234375
-94.29931640625
-82.3974609375
-86.97509765625
-66.83349609375
-54.931640625
-66.83349609375
-85.14404296875
-85.14404296875
-89.7216796875
-98.876953125
-96.13037109375
-84.228515625
-59.50927734375
-51.26953125
-65.91796875
-66.83349609375
-63.17138671875
-81.48193359375
-97.0458984375
-85.14404296875
-75.0732421875
-79.65087890625
-70.49560546875
-70.49560546875
-54.931640625
-60.4248046875
-68.66455078125
-65.00244140625
-54.01611328125
-49.4384765625
-54.01611328125
-50.35400390625
-51.26953125
-50.35400390625
-35.70556640625
-21.97265625
-33.87451171875
-53.1005859375
-60.4248046875
-66.83349609375
-80.56640625
-61.34033203125
-45.7763671875
-51.26953125
-73.2421875
-83.31298828125
-77.81982421875
-69.580078125
-70.49560546875
-62.255859375
-48.52294921875
-40.283203125
-37.53662109375
-31.1279296875
-21.05712890625
-21.97265625
-12.8173828125
-6.40869140625
-7.32421875
3.662109375
15.56396484375
33.87451171875
52.18505859375
54.01611328125
63.17138671875
61.34033203125
65.00244140625
65.91796875
54.01611328125
73.2421875
69.580078125
72.32666015625
58.59375
53.1005859375
53.1005859375
18.310546875
30.21240234375
26.55029296875
31.1279296875
45.7763671875
24.71923828125
19.22607421875
-3.662109375
-15.56396484375
-21.97265625
-30.21240234375
-21.97265625
-34.7900390625
-37.53662109375
-43.02978515625
-61.34033203125
-77.81982421875
-83.31298828125
-75.0732421875
-91.552734375
-94.29931640625
-106.201171875
-106.201171875
-111.6943359375
-129.08935546875
-119.0185546875
-106.201171875
-95.21484375
-79.65087890625
-84.228515625
-95.21484375
-105.28564453125
-101.62353515625
-120.849609375
-118.10302734375
-118.10302734375
-108.94775390625
-100.7080078125
-119.93408203125
-109.86328125
-115.3564453125
-119.93408203125
-141.90673828125
-140.9912109375
-133.6669921875
-113.525390625
-105.28564453125
-119.93408203125
-140.07568359375
-167.54150390625
-177.6123046875
-177.6123046875
-178.52783203125
-181.2744140625
-182.18994140625
-161.1328125
-108.94775390625
-43.9453125
31.1279296875
119.0185546875
220.64208984375
289.306640625
400.08544921875
540.1611328125
712.2802734375
832.21435546875
847.7783203125
737.9150390625
586.85302734375
401.91650390625
186.767578125
-23.8037109375
-216.97998046875
-344.23828125
-465.087890625
-527.34375
-550.23193359375
-562.1337890625
-548.40087890625
-480.65185546875
-410.15625
-325.927734375
-262.75634765625
-205.99365234375
-162.04833984375
-136.41357421875
-112.60986328125
-111.6943359375
-106.201171875
-98.876953125
-92.46826171875
-84.228515625
-98.876953125
-97.96142578125
-95.21484375
-83.31298828125
-86.97509765625
-97.96142578125
-96.13037109375
-79.65087890625
-75.98876953125
-78.7353515625
-98.876953125
-113.525390625
-113.525390625
-108.94775390625
-104.3701171875
-105.28564453125
-86.97509765625
-76.904296875
-86.97509765625
-76.904296875
-89.7216796875
-89.7216796875
-97.0458984375
-107.11669921875
-95.21484375
-86.97509765625
-97.96142578125
-108.94775390625
-104.3701171875
-116.27197265625
-109.86328125
-99.79248046875
-99.79248046875
-94.29931640625
-75.0732421875
-81.48193359375
-79.65087890625
-92.46826171875
-98.876953125
-86.97509765625
-85.14404296875
-84.228515625
-72.32666015625
-79.65087890625
-90.63720703125
-51.26953125
-67.7490234375
-92.46826171875
-60.4248046875
-42.1142578125
-43.9453125
-50.35400390625
-42.1142578125
-24.71923828125
-20.1416015625
-16.4794921875
-19.22607421875
-25.634765625
-22.88818359375
-18.310546875
-7.32421875
-0.91552734375
12.8173828125
19.22607421875
30.21240234375
31.1279296875
43.9453125
38.4521484375
29.296875
35.70556640625
36.62109375
52.18505859375
63.17138671875
65.91796875
47.607421875
43.9453125
53.1005859375
52.18505859375
54.01611328125
55.84716796875
61.34033203125
54.931640625
54.01611328125
51.26953125
77.81982421875
54.931640625
47.607421875
37.53662109375
35.70556640625
32.958984375
18.310546875
2.74658203125
1.8310546875
-5.4931640625
-8.23974609375
-26.55029296875
-41.19873046875
-33.87451171875
-64.0869140625
-65.91796875
-73.2421875
-89.7216796875
-95.21484375
-103.45458984375
-108.94775390625
-106.201171875
-113.525390625
-121.76513671875
-127.25830078125
-132.75146484375
-125.42724609375
-137.3291015625
-141.90673828125
-150.146484375
-151.06201171875
-169.37255859375
-218.81103515625
-220.64208984375
-203.2470703125
-208.740234375
-214.2333984375
-216.064453125
-209.65576171875
-219.7265625
-224.30419921875
-215.14892578125
-227.96630859375
-243.5302734375
-244.44580078125
-236.2060546875
-220.64208984375
-205.078125
-194.091796875
-184.9365234375
-193.17626953125
-213.31787109375
-195.9228515625
-193.17626953125
-195.00732421875
-183.10546875
-197.75390625
-209.65576171875
-215.14892578125
-221.5576171875
-220.64208984375
-189.51416015625
-172.119140625
-180.35888671875
-174.86572265625
-178.52783203125
-198.66943359375
-195.9228515625
-193.17626953125
-216.064453125
-224.30419921875
-208.740234375
-195.00732421875
-175.78125
-174.86572265625
-173.9501953125
-175.78125
-171.20361328125
-191.34521484375
-192.2607421875
-184.9365234375
-203.2470703125
-201.416015625
-188.5986328125
-188.5986328125
-184.02099609375
-184.02099609375
-179.443359375
-205.078125
-199.5849609375
-195.9228515625
-191.34521484375
-189.51416015625
-184.9365234375
-189.51416015625
-190.4296875
-187.68310546875
-188.5986328125
-179.443359375
-195.9228515625
-194.091796875
-189.51416015625
-197.75390625
-197.75390625
-206.9091796875
-184.02099609375
-172.119140625
-168.45703125
-168.45703125
-162.9638671875
-182.18994140625
-187.68310546875
-175.78125
-196.83837890625
-205.99365234375
-207.82470703125
-215.14892578125
-205.078125
-193.17626953125
-180.35888671875
-173.9501953125
-174.86572265625
-179.443359375
-184.02099609375
-219.7265625
-230.712890625
-203.2470703125
-183.10546875
-171.20361328125
-140.9912109375
-130.0048828125
-118.10302734375
-142.822265625
-140.07568359375
-132.75146484375
-133.6669921875
-140.9912109375
-143.73779296875
-142.822265625
-117.1875
-102.5390625
-88.80615234375
-81.48193359375
-75.98876953125
-64.0869140625
-54.01611328125
-43.9453125
-47.607421875
-45.7763671875
-46.69189453125
-49.4384765625
-34.7900390625
-50.35400390625
-64.0869140625
-86.0595703125
-107.11669921875
-112.60986328125
-118.10302734375
-113.525390625
-130.0048828125
-143.73779296875
-141.90673828125
-145.56884765625
-169.37255859375
-179.443359375
-173.9501953125
-173.03466796875
-178.52783203125
-180.35888671875
-181.2744140625
-179.443359375
-202.33154296875
-207.82470703125
-222.47314453125
-231.62841796875
-233.45947265625
-228.8818359375
-226.13525390625
-221.5576171875
-201.416015625
-198.66943359375
-201.416015625
-205.99365234375
-210.5712890625
-229.79736328125
-232.5439453125
-230.712890625
-233.45947265625
-218.81103515625
-214.2333984375
-218.81103515625
-241.69921875
-248.10791015625
-250.8544921875
-257.26318359375
-254.5166015625
-262.75634765625
-270.08056640625
-263.671875
-259.09423828125
-266.41845703125
-266.41845703125
-254.5166015625
-244.44580078125
-253.60107421875
-280.1513671875
-284.72900390625
-287.4755859375
-266.41845703125
-233.45947265625
-170.2880859375
-91.552734375
-22.88818359375
66.83349609375
149.23095703125
288.39111328125
461.42578125
636.29150390625
751.64794921875
791.015625
696.71630859375
510.8642578125
320.4345703125
99.79248046875
-162.9638671875
-391.845703125
-523.681640625
-619.81201171875
-681.15234375
-695.80078125
-674.74365234375
-650.93994140625
-606.0791015625
-543.8232421875
-458.67919921875
-375.3662109375
-320.4345703125
-290.22216796875
-255.43212890625
-207.82470703125
-176.69677734375
-173.03466796875
-182.18994140625
-187.68310546875
-191.34521484375
-212.40234375
-223.388671875
-222.47314453125
-212.40234375
-218.81103515625
-205.99365234375
-193.17626953125
-196.83837890625
-204.16259765625
-206.9091796875
-199.5849609375
-195.00732421875
-186.767578125
-185.85205078125
-180.35888671875
-162.9638671875
-158.38623046875
-179.443359375
-200.50048828125
-186.767578125
-184.02099609375
-192.2607421875
-196.83837890625
-193.17626953125
-169.37255859375
-167.54150390625
-166.6259765625
-159.3017578125
-146.484375
-137.3291015625
-135.498046875
-126.3427734375
-122.6806640625
-121.76513671875
-122.6806640625
-145.56884765625
-159.3017578125
-151.9775390625
-144.6533203125
-140.07568359375
-143.73779296875
-140.07568359375
-137.3291015625
-134.58251953125
-122.6806640625
-119.0185546875
-115.3564453125
-102.5390625
-101.62353515625
-108.0322265625
-101.62353515625
-97.96142578125
-88.80615234375
-80.56640625
-82.3974609375
-76.904296875
-58.59375
-68.66455078125
-72.32666015625
-60.4248046875
-53.1005859375
-35.70556640625
-21.97265625
-12.8173828125
-0.91552734375
0.91552734375
7.32421875
8.23974609375
20.1416015625
13.73291015625
21.05712890625
26.55029296875
25.634765625
32.04345703125
23.8037109375
33.87451171875
21.97265625
18.310546875
18.310546875
21.05712890625
25.634765625
48.52294921875
59.50927734375
53.1005859375
55.84716796875
46.69189453125
30.21240234375
21.05712890625
13.73291015625
15.56396484375
14.6484375
6.40869140625
0
-29.296875
-46.69189453125
-46.69189453125
-42.1142578125
-52.18505859375
-57.67822265625
-55.84716796875
-66.83349609375
-96.13037109375
-99.79248046875
-101.62353515625
-101.62353515625
-122.6806640625
-138.24462890625
-134.58251953125
-161.1328125
-191.34521484375
-188.5986328125
-184.9365234375
-188.5986328125
-189.51416015625
-196.83837890625
-195.9228515625
-184.02099609375
-195.9228515625
-188.5986328125
-182.18994140625
-182.18994140625
-183.10546875
-211.48681640625
-198.66943359375
-205.078125
-216.97998046875
-216.064453125
-210.5712890625
-190.4296875
-205.99365234375
-184.9365234375
-192.2607421875
-206.9091796875
-200.50048828125
-232.5439453125
-238.037109375
-219.7265625
-212.40234375
-211.48681640625
-216.064453125
-209.65576171875
-200.50048828125
-210.5712890625
-215.14892578125
-209.65576171875
-210.5712890625
-212.40234375
-210.5712890625
-210.5712890625
-205.078125
-210.5712890625
-218.81103515625
-214.2333984375
-206.9091796875
-206.9091796875
-197.75390625
-202.33154296875
-195.9228515625
-188.5986328125
-197.75390625
-208.740234375
-207.82470703125
-208.740234375
-210.5712890625
-187.68310546875
-181.2744140625
-186.767578125
-186.767578125
-185.85205078125
-191.34521484375
-189.51416015625
-189.51416015625
-195.9228515625
-188.5986328125
-177.6123046875
-182.18994140625
-186.767578125
-199.5849609375
-196.83837890625
-199.5849609375
-195.00732421875
-185.85205078125
-196.83837890625
-196.83837890625
-198.66943359375
-203.2470703125
-204.16259765625
-202.33154296875
-203.2470703125
-192.2607421875
-187.68310546875
-202.33154296875
-196.83837890625
-195.00732421875
-212.40234375
-213.31787109375
-211.48681640625
-205.99365234375
-210.5712890625
-195.00732421875
-214.2333984375
-214.2333984375
-207.82470703125
-203.2470703125
-208.740234375
-201.416015625
-208.740234375
-196.83837890625
-170.2880859375
-170.2880859375
-162.9638671875
-165.71044921875
-165.71044921875
-176.69677734375
-172.119140625
-160.21728515625
-151.06201171875
-137.3291015625
-140.9912109375
-130.92041015625
-133.6669921875
-133.6669921875
-97.0458984375
-84.228515625
-89.7216796875
-85.14404296875
-77.81982421875
-90.63720703125
-105.28564453125
-120.849609375
-118.10302734375
-100.7080078125
-85.14404296875
-82.3974609375
-94.29931640625
-97.0458984375
-103.45458984375
-103.45458984375
-108.94775390625
-133.6669921875
-143.73779296875
-147.39990234375
-155.6396484375
-171.20361328125
-181.2744140625
-190.4296875
-201.416015625
-215.14892578125
-216.064453125
-205.99365234375
-200.50048828125
-211.48681640625
-218.81103515625
-223.388671875
-224.30419921875
-234.375
-245.361328125
-255.43212890625
-259.09423828125
-262.75634765625
-267.333984375
-258.1787109375
-255.43212890625
-227.05078125
-226.13525390625
-238.037109375
-254.5166015625
-249.0234375
-261.8408203125
-270.08056640625
-269.1650390625
-257.26318359375
-255.43212890625
-264.58740234375
-247.1923828125
-245.361328125
-266.41845703125
-271.91162109375
-263.671875
-265.5029296875
-288.39111328125
-298.4619140625
-289.306640625
-292.05322265625
-310.36376953125
-305.7861328125
-301.20849609375
-299.37744140625
-284.72900390625
-256.34765625
-226.13525390625
-182.18994140625
-105.28564453125
-12.8173828125
93.3837890625
227.96630859375
406.494140625
534.66796875
646.3623046875
692.138671875
607.91015625
415.6494140625
200.50048828125
-29.296875
-220.64208984375
-373.53515625
-498.046875
-580.4443359375
-621.64306640625
-647.27783203125
-636.29150390625
-624.3896484375
-606.99462890625
-585.02197265625
-520.01953125
-456.84814453125
-394.59228515625
-337.82958984375
-303.03955078125
-274.658203125
-256.34765625
-229.79736328125
-228.8818359375
-225.2197265625
-216.064453125
-219.7265625
-227.96630859375
-230.712890625
-218.81103515625
-211.48681640625
-215.14892578125
-218.81103515625
-218.81103515625
-206.9091796875
-203.2470703125
-196.83837890625
-201.416015625
-193.17626953125
-197.75390625
-190.4296875
-195.9228515625
-199.5849609375
-195.9228515625
-188.5986328125
-184.02099609375
-186.767578125
-174.86572265625
-191.34521484375
-182.18994140625
-184.9365234375
-172.119140625
-175.78125
-165.71044921875
-160.21728515625
-142.822265625
-141.90673828125
-148.3154296875
-151.9775390625
-143.73779296875
-134.58251953125
-132.75146484375
-133.6669921875
-126.3427734375
-128.173828125
-124.51171875
-111.6943359375
-104.3701171875
-98.876953125
-92.46826171875
-92.46826171875
-111.6943359375
-104.3701171875
-100.7080078125
-103.45458984375
-93.3837890625
-86.0595703125
-74.15771484375
-68.66455078125
-54.931640625
-30.21240234375
-1.8310546875
10.07080078125
16.4794921875
20.1416015625
34.7900390625
49.4384765625
59.50927734375
63.17138671875
58.59375
63.17138671875
79.65087890625
87.890625
86.0595703125
93.3837890625
97.96142578125
104.3701171875
98.876953125
106.201171875
114.44091796875
119.0185546875
121.76513671875
125.42724609375
123.59619140625
119.0185546875
129.08935546875
123.59619140625
125.42724609375
120.849609375
118.10302734375
114.44091796875
123.59619140625
130.92041015625
125.42724609375
111.6943359375
108.94775390625
107.11669921875
110.77880859375
113.525390625
104.3701171875
84.228515625
55.84716796875
44.86083984375
48.52294921875
53.1005859375
40.283203125
14.6484375
1.8310546875
-0.91552734375
-3.662109375
-11.90185546875
-9.1552734375
-24.71923828125
-26.55029296875
-27.4658203125
-32.958984375
-35.70556640625
-30.21240234375
-35.70556640625
-38.4521484375
-45.7763671875
-43.02978515625
-51.26953125
-57.67822265625
-57.67822265625
-67.7490234375
-74.15771484375
-70.49560546875
-65.91796875
-74.15771484375
-74.15771484375
-72.32666015625
-62.255859375
-65.91796875
-63.17138671875
-54.931640625
-39.36767578125
-42.1142578125
-58.59375
-54.01611328125
-68.66455078125
-72.32666015625
-75.0732421875
-56.7626953125
-51.26953125
-55.84716796875
-65.00244140625
-64.0869140625
-61.34033203125
-38.4521484375
-43.02978515625
-43.9453125
-75.98876953125
-91.552734375
-80.56640625
-70.49560546875
-62.255859375
-54.931640625
-52.18505859375
-54.01611328125
-37.53662109375
-54.01611328125
-47.607421875
-32.958984375
-43.02978515625
-51.26953125
-54.01611328125
-43.9453125
-50.35400390625
-40.283203125
-35.70556640625
-33.87451171875
-25.634765625
-12.8173828125
-10.986328125
-20.1416015625
-9.1552734375
-25.634765625
-23.8037109375
-22.88818359375
-11.90185546875
-26.55029296875
-22.88818359375
-20.1416015625
-29.296875
-30.21240234375
-34.7900390625
-35.70556640625
-36.62109375
-41.19873046875
-42.1142578125
-30.21240234375
-31.1279296875
-28.38134765625
-17.39501953125
-21.97265625
-18.310546875
-20.1416015625
-42.1142578125
-64.0869140625
-56.7626953125
-33.87451171875
-21.05712890625
-5.4931640625
3.662109375
-3.662109375
-2.74658203125
6.40869140625
6.40869140625
16.4794921875
11.90185546875
13.73291015625
30.21240234375
52.18505859375
65.00244140625
79.65087890625
89.7216796875
70.49560546875
52.18505859375
59.50927734375
71.4111328125
76.904296875
86.97509765625
77.81982421875
82.3974609375
107.11669921875
107.11669921875
103.45458984375
105.28564453125
85.14404296875
61.34033203125
68.66455078125
56.7626953125
32.958984375
21.05712890625
21.97265625
3.662109375
2.74658203125
-1.8310546875
-7.32421875
-11.90185546875
-14.6484375
-8.23974609375
-23.8037109375
-38.4521484375
-43.02978515625
-34.7900390625
-42.1142578125
-47.607421875
-58.59375
-59.50927734375
-60.4248046875
-51.26953125
-79.65087890625
-88.80615234375
-76.904296875
-71.4111328125
-70.49560546875
-70.49560546875
-79.65087890625
-86.97509765625
-81.48193359375
-77.81982421875
-86.0595703125
-88.80615234375
-80.56640625
-66.83349609375
-67.7490234375
-76.904296875
-91.552734375
-108.0322265625
-97.0458984375
-86.0595703125
-81.48193359375
-76.904296875
-62.255859375
-81.48193359375
-106.201171875
-102.5390625
-130.0048828125
-139.16015625
-131.8359375
-105.28564453125
-72.32666015625
-13.73291015625
76.904296875
151.9775390625
227.96630859375
298.4619140625
425.72021484375
585.02197265625
734.2529296875
823.05908203125
829.4677734375
715.02685546875
520.01953125
293.88427734375
71.4111328125
-95.21484375
-242.61474609375
-349.7314453125
-447.69287109375
-482.48291015625
-490.72265625
-504.45556640625
-492.5537109375
-463.2568359375
-410.15625
-330.50537109375
-248.10791015625
-170.2880859375
-121.76513671875
-90.63720703125
-59.50927734375
-65.00244140625
-60.4248046875
-46.69189453125
-35.70556640625
-32.04345703125
-31.1279296875
-26.55029296875
-27.4658203125
-32.958984375
-26.55029296875
-25.634765625
-32.958984375
-44.86083984375
-10.07080078125
-14.6484375
-36.62109375
-33.87451171875
-17.39501953125
-7.32421875
-21.05712890625
-10.986328125
-17.39501953125
-6.40869140625
3.662109375
-8.23974609375
-5.4931640625
-9.1552734375
-4.57763671875
4.57763671875
7.32421875
-5.4931640625
-4.57763671875
3.662109375
5.4931640625
-2.74658203125
8.23974609375
14.6484375
20.1416015625
24.71923828125
30.21240234375
42.1142578125
52.18505859375
54.931640625
51.26953125
30.21240234375
21.97265625
43.02978515625
69.580078125
91.552734375
88.80615234375
80.56640625
67.7490234375
54.931640625
49.4384765625
72.32666015625
82.3974609375
86.0595703125
92.46826171875
97.0458984375
103.45458984375
112.60986328125
119.93408203125
114.44091796875
125.42724609375
131.8359375
129.08935546875
131.8359375
134.58251953125
147.39990234375
162.04833984375
174.86572265625
182.18994140625
175.78125
171.20361328125
175.78125
173.03466796875
182.18994140625
180.35888671875
179.443359375
188.5986328125
186.767578125
192.2607421875
169.37255859375
173.03466796875
165.71044921875
165.71044921875
175.78125
173.9501953125
159.3017578125
148.3154296875
146.484375
150.146484375
152.89306640625
153.80859375
157.470703125
145.56884765625
149.23095703125
154.72412109375
144.6533203125
130.92041015625
119.93408203125
124.51171875
119.0185546875
107.11669921875
94.29931640625
86.0595703125
90.63720703125
75.98876953125
55.84716796875
45.7763671875
49.4384765625
33.87451171875
28.38134765625
19.22607421875
15.56396484375
23.8037109375
12.8173828125
0.91552734375
12.8173828125
-3.662109375
-40.283203125
-20.1416015625
-13.73291015625
-11.90185546875
-5.4931640625
-0.91552734375
-5.4931640625
-3.662109375
-22.88818359375
-37.53662109375
-29.296875
-18.310546875
-22.88818359375
-29.296875
-28.38134765625
-26.55029296875
-23.8037109375
-31.1279296875
-28.38134765625
-30.21240234375
-31.1279296875
-32.04345703125
-32.04345703125
-32.04345703125
-23.8037109375
-13.73291015625
-2.74658203125
12.8173828125
0
-16.4794921875
-30.21240234375
-11.90185546875
0
0
5.4931640625
9.1552734375
17.39501953125
20.1416015625
-10.986328125
-48.52294921875
-21.97265625
-12.8173828125
0.91552734375
4.57763671875
6.40869140625
13.73291015625
6.40869140625
0.91552734375
1.8310546875
7.32421875
-8.23974609375
-8.23974609375
4.57763671875
4.57763671875
19.22607421875
23.8037109375
15.56396484375
12.8173828125
8.23974609375
7.32421875
11.90185546875
23.8037109375
26.55029296875
32.04345703125
28.38134765625
18.310546875
-4.57763671875
-10.986328125
-19.22607421875
-13.73291015625
3.662109375
8.23974609375
18.310546875
10.986328125
8.23974609375
0.91552734375
-1.8310546875
10.07080078125
11.90185546875
15.56396484375
20.1416015625
33.87451171875
43.9453125
44.86083984375
49.4384765625
58.59375
43.9453125
44.86083984375
54.931640625
57.67822265625
61.34033203125
70.49560546875
97.0458984375
95.21484375
110.77880859375
118.10302734375
108.94775390625
119.0185546875
148.3154296875
149.23095703125
136.41357421875
129.08935546875
130.92041015625
134.58251953125
145.56884765625
135.498046875
132.75146484375
133.6669921875
119.0185546875
123.59619140625
123.59619140625
106.201171875
84.228515625
71.4111328125
77.81982421875
78.7353515625
67.7490234375
54.931640625
51.26953125
33.87451171875
27.4658203125
22.88818359375
0
-3.662109375
-19.22607421875
-19.22607421875
-25.634765625
-19.22607421875
-18.310546875
-37.53662109375
-26.55029296875
-2.74658203125
14.6484375
13.73291015625
3.662109375
-7.32421875
-41.19873046875
-46.69189453125
-47.607421875
-52.18505859375
-62.255859375
-55.84716796875
-48.52294921875
-52.18505859375
-54.01611328125
-48.52294921875
-45.7763671875
-60.4248046875
-54.931640625
-37.53662109375
-50.35400390625
-44.86083984375
-35.70556640625
-38.4521484375
-44.86083984375
-52.18505859375
-65.91796875
-87.890625
-97.96142578125
-107.11669921875
-80.56640625
-42.1142578125
6.40869140625
69.580078125
132.75146484375
207.82470703125
286.56005859375
365.29541015625
495.30029296875
646.3623046875
797.42431640625
886.23046875
871.58203125
742.49267578125
572.20458984375
385.43701171875
159.3017578125
-68.66455078125
-225.2197265625
-325.927734375
-418.39599609375
-443.115234375
-460.51025390625
-452.2705078125
-436.70654296875
-391.845703125
-327.7587890625
-254.5166015625
-172.119140625
-114.44091796875
-68.66455078125
-26.55029296875
-6.40869140625
15.56396484375
14.6484375
23.8037109375
19.22607421875
-10.07080078125
-8.23974609375
0
1.8310546875
14.6484375
16.4794921875
20.1416015625
21.05712890625
19.22607421875
27.4658203125
24.71923828125
14.6484375
10.986328125
24.71923828125
42.1142578125
45.7763671875
46.69189453125
46.69189453125
47.607421875
24.71923828125
1.8310546875
2.74658203125
19.22607421875
22.88818359375
27.4658203125
36.62109375
54.931640625
73.2421875
70.49560546875
65.00244140625
61.34033203125
54.931640625
76.904296875
86.0595703125
82.3974609375
77.81982421875
77.81982421875
93.3837890625
83.31298828125
81.48193359375
86.0595703125
88.80615234375
62.255859375
69.580078125
77.81982421875
98.876953125
102.5390625
103.45458984375
116.27197265625
125.42724609375
131.8359375
139.16015625
162.9638671875
189.51416015625
194.091796875
158.38623046875
133.6669921875
113.525390625
130.92041015625
152.89306640625
164.794921875
175.78125
178.52783203125
205.99365234375
230.712890625
216.97998046875
227.05078125
218.81103515625
221.5576171875
232.5439453125
222.47314453125
222.47314453125
223.388671875
210.5712890625
220.64208984375
221.5576171875
238.95263671875
245.361328125
249.93896484375
255.43212890625
239.8681640625
247.1923828125
256.34765625
235.29052734375
212.40234375
205.99365234375
226.13525390625
227.05078125
204.16259765625
214.2333984375
204.16259765625
204.16259765625
199.5849609375
200.50048828125
203.2470703125
199.5849609375
172.119140625
175.78125
166.6259765625
166.6259765625
151.06201171875
151.9775390625
137.3291015625
118.10302734375
97.0458984375
92.46826171875
89.7216796875
95.21484375
82.3974609375
62.255859375
55.84716796875
44.86083984375
41.19873046875
20.1416015625
21.97265625
25.634765625
25.634765625
26.55029296875
32.04345703125
32.958984375
21.05712890625
21.05712890625
32.958984375
33.87451171875
17.39501953125
17.39501953125
18.310546875
12.8173828125
12.8173828125
9.1552734375
2.74658203125
30.21240234375
27.4658203125
23.8037109375
32.958984375
27.4658203125
12.8173828125
16.4794921875
33.87451171875
40.283203125
18.310546875
20.1416015625
19.22607421875
14.6484375
16.4794921875
26.55029296875
36.62109375
34.7900390625
50.35400390625
44.86083984375
33.87451171875
38.4521484375
25.634765625
34.7900390625
54.931640625
54.01611328125
52.18505859375
46.69189453125
41.19873046875
48.52294921875
37.53662109375
22.88818359375
37.53662109375
32.04345703125
25.634765625
38.4521484375
43.9453125
46.69189453125
43.9453125
49.4384765625
44.86083984375
42.1142578125
33.87451171875
36.62109375
47.607421875
65.91796875
64.0869140625
56.7626953125
39.36767578125
45.7763671875
46.69189453125
30.21240234375
18.310546875
21.05712890625
24.71923828125
32.958984375
43.02978515625
58.59375
61.34033203125
75.0732421875
65.00244140625
30.21240234375
15.56396484375
24.71923828125
26.55029296875
10.07080078125
3.662109375
18.310546875
36.62109375
54.01611328125
84.228515625
85.14404296875
77.81982421875
81.48193359375
77.81982421875
70.49560546875
63.17138671875
72.32666015625
88.80615234375
89.7216796875
109.86328125
114.44091796875
120.849609375
135.498046875
142.822265625
160.21728515625
160.21728515625
162.04833984375
156.55517578125
151.9775390625
169.37255859375
170.2880859375
163.87939453125
163.87939453125
168.45703125
164.794921875
177.6123046875
164.794921875
133.6669921875
82.3974609375
72.32666015625
87.890625
86.0595703125
86.0595703125
61.34033203125
32.04345703125
28.38134765625
35.70556640625
20.1416015625
11.90185546875
12.8173828125
11.90185546875
6.40869140625
-1.8310546875
-4.57763671875
-21.05712890625
-35.70556640625
-19.22607421875
-11.90185546875
-19.22607421875
-14.6484375
-13.73291015625
-20.1416015625
-32.958984375
-29.296875
-33.87451171875
-31.1279296875
-36.62109375
-36.62109375
-28.38134765625
-21.97265625
-16.4794921875
-21.05712890625
-13.73291015625
-14.6484375
-18.310546875
-30.21240234375
-43.9453125
-39.36767578125
-48.52294921875
-45.7763671875
-43.9453125
-37.53662109375
-44.86083984375
-73.2421875
-86.97509765625
-86.0595703125
-91.552734375
-90.63720703125
-40.283203125
26.55029296875
87.890625
154.72412109375
254.5166015625
323.18115234375
446.77734375
606.99462890625
761.71875
863.34228515625
896.30126953125
828.55224609375
674.74365234375
491.63818359375
283.8134765625
67.7490234375
-136.41357421875
-265.5029296875
-380.859375
-430.2978515625
-434.87548828125
-440.36865234375
-433.9599609375
-414.73388671875
-360.7177734375
-290.22216796875
-209.65576171875
-130.0048828125
-72.32666015625
-31.1279296875
2.74658203125
5.4931640625
-5.4931640625
-23.8037109375
-30.21240234375
-27.4658203125
0
9.1552734375
10.07080078125
23.8037109375
33.87451171875
40.283203125
32.958984375
10.986328125
18.310546875
16.4794921875
4.57763671875
20.1416015625
15.56396484375
18.310546875
32.04345703125
27.4658203125
32.04345703125
34.7900390625
38.4521484375
33.87451171875
26.55029296875
35.70556640625
28.38134765625
27.4658203125
46.69189453125
43.02978515625
43.9453125
57.67822265625
66.83349609375
75.98876953125
85.14404296875
86.0595703125
58.59375
54.931640625
71.4111328125
66.83349609375
60.4248046875
55.84716796875
67.7490234375
83.31298828125
89.7216796875
102.5390625
102.5390625
108.94775390625
96.13037109375
74.15771484375
82.3974609375
95.21484375
106.201171875
108.94775390625
96.13037109375
107.11669921875
119.93408203125
129.08935546875
137.3291015625
140.07568359375
163.87939453125
166.6259765625
173.9501953125
184.9365234375
184.9365234375
183.10546875
177.6123046875
184.02099609375
176.69677734375
183.10546875
192.2607421875
195.9228515625
201.416015625
205.078125
211.48681640625
226.13525390625
226.13525390625
228.8818359375
228.8818359375
221.5576171875
225.2197265625
224.30419921875
220.64208984375
225.2197265625
223.388671875
221.5576171875
210.5712890625
206.9091796875
207.82470703125
199.5849609375
199.5849609375
194.091796875
195.00732421875
193.17626953125
184.9365234375
187.68310546875
194.091796875
183.10546875
191.34521484375
191.34521484375
186.767578125
162.04833984375
135.498046875
97.96142578125
77.81982421875
82.3974609375
83.31298828125
75.98876953125
66.83349609375
65.00244140625
57.67822265625
54.01611328125
49.4384765625
48.52294921875
43.02978515625
36.62109375
13.73291015625
6.40869140625
-3.662109375
-3.662109375
-8.23974609375
-4.57763671875
0.91552734375
2.74658203125
0
0
0
0.91552734375
-3.662109375
-22.88818359375
-21.05712890625
-19.22607421875
-18.310546875
-2.74658203125
-1.8310546875
-7.32421875
-14.6484375
-18.310546875
-22.88818359375
-13.73291015625
9.1552734375
19.22607421875
21.05712890625
9.1552734375
-4.57763671875
9.1552734375
10.986328125
11.90185546875
18.310546875
7.32421875
-7.32421875
-5.4931640625
-17.39501953125
-18.310546875
-2.74658203125
-0.91552734375
4.57763671875
-0.91552734375
-7.32421875
5.4931640625
6.40869140625
2.74658203125
10.986328125
20.1416015625
17.39501953125
19.22607421875
11.90185546875
5.4931640625
9.1552734375
6.40869140625
4.57763671875
5.4931640625
14.6484375
19.22607421875
21.05712890625
5.4931640625
5.4931640625
2.74658203125
3.662109375
7.32421875
12.8173828125
17.39501953125
26.55029296875
32.958984375
30.21240234375
13.73291015625
-23.8037109375
-22.88818359375
0
10.986328125
16.4794921875
18.310546875
14.6484375
4.57763671875
-15.56396484375
-13.73291015625
-12.8173828125
-15.56396484375
-10.07080078125
-7.32421875
-3.662109375
0.91552734375
17.39501953125
20.1416015625
32.04345703125
35.70556640625
30.21240234375
30.21240234375
31.1279296875
39.36767578125
38.4521484375
34.7900390625
43.9453125
62.255859375
79.65087890625
84.228515625
116.27197265625
119.0185546875
116.27197265625
125.42724609375
103.45458984375
89.7216796875
102.5390625
109.86328125
124.51171875
118.10302734375
117.1875
117.1875
129.08935546875
131.8359375
113.525390625
109.86328125
106.201171875
50.35400390625
34.7900390625
23.8037109375
12.8173828125
6.40869140625
-2.74658203125
-5.4931640625
-10.07080078125
-23.8037109375
-32.958984375
-37.53662109375
-31.1279296875
-22.88818359375
-24.71923828125
-21.97265625
-28.38134765625
-48.52294921875
-47.607421875
-45.7763671875
-51.26953125
-47.607421875
-54.01611328125
-48.52294921875
-38.4521484375
-56.7626953125
-50.35400390625
-37.53662109375
-37.53662109375
-52.18505859375
-59.50927734375
-57.67822265625
-65.00244140625
-83.31298828125
-72.32666015625
-62.255859375
-53.1005859375
-58.59375
-49.4384765625
-55.84716796875
-54.931640625
-71.4111328125
-85.14404296875
-104.3701171875
-120.849609375
-110.77880859375
-101.62353515625
-99.79248046875
-99.79248046875
-105.28564453125
-86.97509765625
-67.7490234375
-22.88818359375
48.52294921875
129.08935546875
205.078125
274.658203125
397.3388671875
559.38720703125
718.68896484375
831.298828125
892.63916015625
815.73486328125
641.78466796875
421.142578125
211.48681640625
26.55029296875
-135.498046875
-255.43212890625
-372.61962890625
-418.39599609375
-414.73388671875
-426.6357421875
-439.453125
-418.39599609375
-376.28173828125
-306.70166015625
-259.09423828125
-206.9091796875
-132.75146484375
-100.7080078125
-82.3974609375
-66.83349609375
-40.283203125
-40.283203125
-47.607421875
-31.1279296875
-30.21240234375
-24.71923828125
-28.38134765625
-29.296875
-19.22607421875
-16.4794921875
-8.23974609375
-2.74658203125
-3.662109375
-11.90185546875
-12.8173828125
-25.634765625
-34.7900390625
-21.05712890625
-2.74658203125
-16.4794921875
-6.40869140625
-10.986328125
-12.8173828125
-4.57763671875
-9.1552734375
-10.986328125
-10.986328125
-10.986328125
0
4.57763671875
18.310546875
27.4658203125
21.05712890625
22.88818359375
32.958984375
32.04345703125
15.56396484375
9.1552734375
15.56396484375
20.1416015625
8.23974609375
27.4658203125
43.02978515625
41.19873046875
42.1142578125
50.35400390625
49.4384765625
47.607421875
51.26953125
66.83349609375
71.4111328125
68.66455078125
72.32666015625
63.17138671875
59.50927734375
65.91796875
80.56640625
86.0595703125
94.29931640625
98.876953125
108.0322265625
102.5390625
114.44091796875
117.1875
128.173828125
140.07568359375
143.73779296875
146.484375
149.23095703125
145.56884765625
133.6669921875
127.25830078125
140.9912109375
143.73779296875
152.89306640625
164.794921875
157.470703125
167.54150390625
172.119140625
170.2880859375
177.6123046875
183.10546875
182.18994140625
179.443359375
173.9501953125
180.35888671875
170.2880859375
152.89306640625
147.39990234375
156.55517578125
143.73779296875
139.16015625
142.822265625
133.6669921875
120.849609375
119.0185546875
108.0322265625
97.0458984375
91.552734375
86.97509765625
80.56640625
69.580078125
61.34033203125
68.66455078125
65.91796875
61.34033203125
54.931640625
58.59375
48.52294921875
33.87451171875
11.90185546875
28.38134765625
11.90185546875
1.8310546875
-5.4931640625
-20.1416015625
-12.8173828125
-13.73291015625
-11.90185546875
-13.73291015625
-17.39501953125
-15.56396484375
-15.56396484375
-14.6484375
0.91552734375
4.57763671875
-12.8173828125
-21.05712890625
-17.39501953125
-43.02978515625
-70.49560546875
-73.2421875
-82.3974609375
-79.65087890625
-64.0869140625
-46.69189453125
-43.9453125
-59.50927734375
-54.931640625
-57.67822265625
-52.18505859375
-45.7763671875
-46.69189453125
-62.255859375
-66.83349609375
-54.931640625
-32.958984375
-22.88818359375
-28.38134765625
-28.38134765625
-31.1279296875
-35.70556640625
-36.62109375
-24.71923828125
-23.8037109375
-32.04345703125
-22.88818359375
-11.90185546875
-18.310546875
-34.7900390625
-39.36767578125
-42.1142578125
-29.296875
-30.21240234375
-25.634765625
-19.22607421875
-9.1552734375
-4.57763671875
-5.4931640625
2.74658203125
-1.8310546875
-29.296875
-43.9453125
-53.1005859375
-49.4384765625
-43.9453125
-24.71923828125
-31.1279296875
-32.958984375
-28.38134765625
-39.36767578125
-22.88818359375
-23.8037109375
-23.8037109375
-39.36767578125
-33.87451171875
-26.55029296875
-32.958984375
-35.70556640625
-40.283203125
-37.53662109375
-40.283203125
-32.04345703125
-30.21240234375
-32.04345703125
-21.05712890625
-9.1552734375
9.1552734375
5.4931640625
-3.662109375
5.4931640625
15.56396484375
9.1552734375
29.296875
46.69189453125
60.4248046875
69.580078125
79.65087890625
70.49560546875
85.14404296875
86.0595703125
81.48193359375
83.31298828125
72.32666015625
85.14404296875
86.97509765625
103.45458984375
97.0458984375
95.21484375
86.0595703125
70.49560546875
71.4111328125
54.01611328125
35.70556640625
24.71923828125
16.4794921875
8.23974609375
6.40869140625
-15.56396484375
-37.53662109375
-16.4794921875
-20.1416015625
-27.4658203125
-32.958984375
-32.958984375
-33.87451171875
-43.9453125
-48.52294921875
-54.01611328125
-60.4248046875
-72.32666015625
-80.56640625
-86.97509765625
-75.98876953125
-82.3974609375
-75.98876953125
-61.34033203125
-61.34033203125
-65.91796875
-74.15771484375
-84.228515625
-78.7353515625
-76.904296875
-87.890625
-86.97509765625
-93.3837890625
-108.94775390625
-116.27197265625
-95.21484375
-90.63720703125
-84.228515625
-74.15771484375
-67.7490234375
-76.904296875
-82.3974609375
-84.228515625
-94.29931640625
-106.201171875
-123.59619140625
-130.0048828125
-140.07568359375
-140.9912109375
-130.92041015625
-96.13037109375
-49.4384765625
19.22607421875
93.3837890625
187.68310546875
265.5029296875
359.80224609375
503.5400390625
644.53125
771.78955078125
819.39697265625
799.25537109375
674.74365234375
491.63818359375
266.41845703125
45.7763671875
-119.93408203125
-223.388671875
-352.47802734375
-421.142578125
-455.9326171875
-466.00341796875
-457.763671875
-433.04443359375
-400.08544921875
-372.61962890625
-302.1240234375
-216.97998046875
-157.470703125
-124.51171875
-99.79248046875
-73.2421875
-63.17138671875
-49.4384765625
-43.9453125
-46.69189453125
-65.91796875
-43.9453125
-45.7763671875
-35.70556640625
-35.70556640625
-31.1279296875
-34.7900390625
-35.70556640625
-31.1279296875
-33.87451171875
-27.4658203125
-25.634765625
-30.21240234375
-22.88818359375
-11.90185546875
-14.6484375
-2.74658203125
-2.74658203125
-6.40869140625
-13.73291015625
-11.90185546875
-2.74658203125
5.4931640625
-1.8310546875
-1.8310546875
-8.23974609375
3.662109375
8.23974609375
10.07080078125
26.55029296875
39.36767578125
42.1142578125
43.02978515625
32.958984375
4.57763671875
-11.90185546875
7.32421875
-0.91552734375
-1.8310546875
-7.32421875
4.57763671875
37.53662109375
43.02978515625
48.52294921875
57.67822265625
64.0869140625
61.34033203125
73.2421875
76.904296875
84.228515625
91.552734375
97.0458984375
96.13037109375
90.63720703125
95.21484375
99.79248046875
101.62353515625
110.77880859375
119.93408203125
118.10302734375
119.0185546875
137.3291015625
144.6533203125
148.3154296875
153.80859375
150.146484375
163.87939453125
180.35888671875
188.5986328125
198.66943359375
191.34521484375
177.6123046875
171.20361328125
156.55517578125
137.3291015625
122.6806640625
143.73779296875
162.04833984375
156.55517578125
126.3427734375
138.24462890625
150.146484375
142.822265625
145.56884765625
147.39990234375
157.470703125
151.06201171875
147.39990234375
142.822265625
150.146484375
137.3291015625
136.41357421875
134.58251953125
123.59619140625
114.44091796875
105.28564453125
96.13037109375
97.96142578125
83.31298828125
80.56640625
70.49560546875
75.98876953125
54.01611328125
50.35400390625
43.02978515625
39.36767578125
44.86083984375
46.69189453125
37.53662109375
32.04345703125
47.607421875
34.7900390625
11.90185546875
10.07080078125
3.662109375
-2.74658203125
-17.39501953125
-13.73291015625
-11.90185546875
-10.07080078125
-14.6484375
-19.22607421875
-20.1416015625
-22.88818359375
-21.05712890625
-15.56396484375
-10.07080078125
-12.8173828125
-15.56396484375
-13.73291015625
-23.8037109375
-20.1416015625
-29.296875
-39.36767578125
-32.958984375
-23.8037109375
-33.87451171875
-34.7900390625
-21.97265625
-14.6484375
-18.310546875
-16.4794921875
-7.32421875
-14.6484375
-8.23974609375
4.57763671875
0
-0.91552734375
-8.23974609375
-8.23974609375
10.07080078125
12.8173828125
0.91552734375
-6.40869140625
-6.40869140625
-3.662109375
5.4931640625
-1.8310546875
-11.90185546875
-15.56396484375
-11.90185546875
0
0.91552734375
9.1552734375
30.21240234375
43.02978515625
47.607421875
52.18505859375
32.958984375
10.986328125
1.8310546875
5.4931640625
13.73291015625
19.22607421875
7.32421875
-4.57763671875
-10.07080078125
-10.07080078125
-5.4931640625
-15.56396484375
-8.23974609375
1.8310546875
2.74658203125
-4.57763671875
-10.07080078125
0.91552734375
-6.40869140625
2.74658203125
1.8310546875
-1.8310546875
6.40869140625
-6.40869140625
-8.23974609375
-2.74658203125
-1.8310546875
20.1416015625
6.40869140625
23.8037109375
36.62109375
36.62109375
47.607421875
54.01611328125
61.34033203125
53.1005859375
45.7763671875
54.931640625
58.59375
79.65087890625
104.3701171875
114.44091796875
132.75146484375
135.498046875
142.822265625
131.8359375
129.08935546875
128.173828125
115.3564453125
99.79248046875
100.7080078125
115.3564453125
126.3427734375
139.16015625
127.25830078125
144.6533203125
145.56884765625
115.3564453125
105.28564453125
83.31298828125
59.50927734375
53.1005859375
49.4384765625
30.21240234375
13.73291015625
-4.57763671875
-7.32421875
-15.56396484375
-11.90185546875
-21.05712890625
-21.97265625
-25.634765625
-16.4794921875
-15.56396484375
-29.296875
-34.7900390625
-37.53662109375
-34.7900390625
-37.53662109375
-33.87451171875
-47.607421875
-45.7763671875
-46.69189453125
-41.19873046875
-41.19873046875
-48.52294921875
-57.67822265625
-43.02978515625
-46.69189453125
-53.1005859375
-58.59375
-50.35400390625
-50.35400390625
-55.84716796875
-52.18505859375
-53.1005859375
-49.4384765625
-48.52294921875
-50.35400390625
-46.69189453125
-44.86083984375
-48.52294921875
-43.9453125
-58.59375
-70.49560546875
-96.13037109375
-114.44091796875
-91.552734375
-76.904296875
-39.36767578125
18.310546875
91.552734375
164.794921875
242.61474609375
316.7724609375
449.52392578125
613.4033203125
765.380859375
860.595703125
865.17333984375
766.29638671875
586.85302734375
379.0283203125
157.470703125
-66.83349609375
-240.78369140625
-340.576171875
-422.05810546875
-466.00341796875
-476.98974609375
-461.42578125
-447.69287109375
-399.169921875
-338.7451171875
-263.671875
-181.2744140625
-140.9912109375
-108.0322265625
-72.32666015625
-40.283203125
-24.71923828125
-24.71923828125
-10.07080078125
-1.8310546875
-4.57763671875
1.8310546875
-0.91552734375
-7.32421875
-26.55029296875
-32.04345703125
-7.32421875
-15.56396484375
-19.22607421875
-2.74658203125
9.1552734375
14.6484375
19.22607421875
12.8173828125
13.73291015625
14.6484375
16.4794921875
27.4658203125
32.958984375
43.02978515625
56.7626953125
65.91796875
47.607421875
57.67822265625
51.26953125
50.35400390625
38.4521484375
21.97265625
31.1279296875
39.36767578125
32.04345703125
30.21240234375
43.9453125
43.9453125
53.1005859375
63.17138671875
62.255859375
59.50927734375
57.67822265625
54.931640625
44.86083984375
51.26953125
68.66455078125
75.0732421875
81.48193359375
103.45458984375
96.13037109375
90.63720703125
92.46826171875
98.876953125
96.13037109375
97.96142578125
112.60986328125
105.28564453125
109.86328125
123.59619140625
132.75146484375
139.16015625
150.146484375
162.04833984375
167.54150390625
166.6259765625
170.2880859375
182.18994140625
191.34521484375
182.18994140625
184.02099609375
193.17626953125
207.82470703125
209.65576171875
211.48681640625
216.064453125
219.7265625
225.2197265625
222.47314453125
217.8955078125
213.31787109375
215.14892578125
223.388671875
220.64208984375
216.064453125
222.47314453125
219.7265625
216.064453125
210.5712890625
204.16259765625
219.7265625
209.65576171875
191.34521484375
198.66943359375
190.4296875
179.443359375
173.9501953125
165.71044921875
153.80859375
143.73779296875
138.24462890625
152.89306640625
146.484375
148.3154296875
144.6533203125
138.24462890625
122.6806640625
118.10302734375
97.96142578125
80.56640625
66.83349609375
74.15771484375
57.67822265625
32.958984375
21.97265625
10.986328125
13.73291015625
11.90185546875
10.986328125
20.1416015625
0.91552734375
3.662109375
5.4931640625
8.23974609375
-1.8310546875
-20.1416015625
-27.4658203125
-6.40869140625
-5.4931640625
0.91552734375
3.662109375
-16.4794921875
-21.97265625
-15.56396484375
-11.90185546875
-14.6484375
-13.73291015625
-14.6484375
-27.4658203125
-32.04345703125
-21.97265625
-6.40869140625
-1.8310546875
5.4931640625
6.40869140625
9.1552734375
-1.8310546875
6.40869140625
17.39501953125
21.05712890625
11.90185546875
6.40869140625
5.4931640625
7.32421875
2.74658203125
10.07080078125
5.4931640625
6.40869140625
3.662109375
14.6484375
25.634765625
19.22607421875
18.310546875
17.39501953125
13.73291015625
-9.1552734375
-17.39501953125
-18.310546875
4.57763671875
9.1552734375
9.1552734375
19.22607421875
21.05712890625
10.986328125
7.32421875
18.310546875
21.97265625
15.56396484375
2.74658203125
13.73291015625
15.56396484375
15.56396484375
11.90185546875
21.97265625
29.296875
28.38134765625
27.4658203125
14.6484375
0.91552734375
4.57763671875
11.90185546875
27.4658203125
49.4384765625
54.01611328125
49.4384765625
55.84716796875
35.70556640625
-2.74658203125
-33.87451171875
-22.88818359375
-10.986328125
1.8310546875
1.8310546875
14.6484375
28.38134765625
32.958984375
45.7763671875
50.35400390625
45.7763671875
51.26953125
58.59375
68.66455078125
75.0732421875
78.7353515625
98.876953125
97.0458984375
113.525390625
118.10302734375
123.59619140625
135.498046875
132.75146484375
136.41357421875
139.16015625
138.24462890625
145.56884765625
149.23095703125
143.73779296875
138.24462890625
136.41357421875
116.27197265625
108.94775390625
112.60986328125
115.3564453125
116.27197265625
83.31298828125
59.50927734375
52.18505859375
26.55029296875
-11.90185546875
-8.23974609375
4.57763671875
7.32421875
2.74658203125
4.57763671875
-9.1552734375
-36.62109375
-28.38134765625
-38.4521484375
-44.86083984375
-34.7900390625
-28.38134765625
-30.21240234375
-14.6484375
-18.310546875
-16.4794921875
-19.22607421875
-31.1279296875
-41.19873046875
-47.607421875
-48.52294921875
-52.18505859375
-45.7763671875
-46.69189453125
-47.607421875
-54.01611328125
-60.4248046875
-63.17138671875
-53.1005859375
-56.7626953125
-54.931640625
-54.931640625
-57.67822265625
-55.84716796875
-57.67822265625
-55.84716796875
-54.931640625
-60.4248046875
-72.32666015625
-79.65087890625
-81.48193359375
-85.14404296875
-76.904296875
-43.9453125
-8.23974609375
50.35400390625
102.5390625
166.6259765625
227.05078125
317.68798828125
471.49658203125
632.62939453125
783.69140625
896.30126953125
885.31494140625
769.04296875
601.50146484375
402.83203125
186.767578125
-44.86083984375
-207.82470703125
-332.33642578125
-420.22705078125
-459.5947265625
-467.83447265625
-464.17236328125
-457.763671875
-403.74755859375
-324.0966796875
-246.27685546875
-182.18994140625
-124.51171875
-88.80615234375
-54.931640625
-30.21240234375
-18.310546875
-7.32421875
-5.4931640625
-11.90185546875
-16.4794921875
-10.986328125
13.73291015625
10.986328125
18.310546875
25.634765625
15.56396484375
14.6484375
23.8037109375
3.662109375
-10.986328125
-12.8173828125
-5.4931640625
0
8.23974609375
2.74658203125
-4.57763671875
7.32421875
-2.74658203125
1.8310546875
9.1552734375
23.8037109375
25.634765625
40.283203125
45.7763671875
32.04345703125
36.62109375
46.69189453125
43.02978515625
40.283203125
34.7900390625
40.283203125
41.19873046875
35.70556640625
39.36767578125
49.4384765625
64.0869140625
70.49560546875
84.228515625
86.0595703125
93.3837890625
90.63720703125
65.00244140625
68.66455078125
71.4111328125
83.31298828125
97.96142578125
107.11669921875
98.876953125
109.86328125
101.62353515625
97.96142578125
97.96142578125
113.525390625
113.525390625
118.10302734375
121.76513671875
130.92041015625
150.146484375
160.21728515625
162.04833984375
173.03466796875
177.6123046875
167.54150390625
174.86572265625
188.5986328125
193.17626953125
201.416015625
209.65576171875
209.65576171875
228.8818359375
223.388671875
229.79736328125
248.10791015625
240.78369140625
244.44580078125
246.27685546875
235.29052734375
231.62841796875
205.078125
212.40234375
220.64208984375
228.8818359375
231.62841796875
211.48681640625
198.66943359375
196.83837890625
201.416015625
203.2470703125
199.5849609375
198.66943359375
183.10546875
172.119140625
169.37255859375
158.38623046875
146.484375
143.73779296875
135.498046875
122.6806640625
116.27197265625
110.77880859375
93.3837890625
85.14404296875
75.0732421875
61.34033203125
63.17138671875
53.1005859375
51.26953125
53.1005859375
42.1142578125
24.71923828125
22.88818359375
31.1279296875
35.70556640625
36.62109375
31.1279296875
22.88818359375
12.8173828125
-17.39501953125
-23.8037109375
-13.73291015625
-9.1552734375
-13.73291015625
-6.40869140625
-18.310546875
-21.97265625
-19.22607421875
-28.38134765625
-44.86083984375
-30.21240234375
-25.634765625
-28.38134765625
-26.55029296875
-29.296875
-29.296875
-21.97265625
-15.56396484375
-23.8037109375
-20.1416015625
-19.22607421875
-29.296875
-26.55029296875
-20.1416015625
-26.55029296875
-23.8037109375
-19.22607421875
-25.634765625
-20.1416015625
-14.6484375
-17.39501953125
-7.32421875
-8.23974609375
-10.986328125
-9.1552734375
-2.74658203125
-10.986328125
-1.8310546875
0.91552734375
7.32421875
3.662109375
-6.40869140625
3.662109375
12.8173828125
18.310546875
25.634765625
11.90185546875
12.8173828125
14.6484375
9.1552734375
8.23974609375
6.40869140625
13.73291015625
15.56396484375
14.6484375
21.97265625
25.634765625
14.6484375
9.1552734375
10.986328125
9.1552734375
0
-1.8310546875
-6.40869140625
0
2.74658203125
-4.57763671875
-10.986328125
-7.32421875
-3.662109375
2.74658203125
1.8310546875
-7.32421875
-9.1552734375
-24.71923828125
-7.32421875
10.986328125
-0.91552734375
-6.40869140625
-23.8037109375
-23.8037109375
-18.310546875
-9.1552734375
-7.32421875
-19.22607421875
-36.62109375
-10.07080078125
2.74658203125
-13.73291015625
-18.310546875
-31.1279296875
-20.1416015625
-9.1552734375
0
10.986328125
26.55029296875
26.55029296875
23.8037109375
20.1416015625
14.6484375
-3.662109375
7.32421875
8.23974609375
14.6484375
37.53662109375
49.4384765625
74.15771484375
86.0595703125
94.29931640625
87.890625
93.3837890625
103.45458984375
103.45458984375
110.77880859375
105.28564453125
90.63720703125
90.63720703125
103.45458984375
97.96142578125
109.86328125
111.6943359375
97.0458984375
81.48193359375
76.904296875
65.00244140625
45.7763671875
35.70556640625
30.21240234375
32.958984375
35.70556640625
20.1416015625
-1.8310546875
-11.90185546875
-25.634765625
-31.1279296875
-32.04345703125
-42.1142578125
-49.4384765625
-48.52294921875
-49.4384765625
-39.36767578125
-44.86083984375
-56.7626953125
-72.32666015625
-75.98876953125
-70.49560546875
-62.255859375
-78.7353515625
-73.2421875
-69.580078125
-66.83349609375
-68.66455078125
-69.580078125
-74.15771484375
-65.00244140625
-67.7490234375
-72.32666015625
-60.4248046875
-65.00244140625
-57.67822265625
-54.931640625
-54.01611328125
-56.7626953125
-63.17138671875
-56.7626953125
-65.91796875
-85.14404296875
-93.3837890625
-108.0322265625
-123.59619140625
-137.3291015625
-141.90673828125
-130.92041015625
-112.60986328125
-65.00244140625
-0.91552734375
59.50927734375
135.498046875
235.29052734375
296.630859375
401.91650390625
544.73876953125
715.02685546875
835.87646484375
895.3857421875
820.3125
656.43310546875
458.67919921875
249.0234375
37.53662109375
-142.822265625
-263.671875
-360.7177734375
-428.466796875
-453.18603515625
-463.2568359375
-453.18603515625
-435.791015625
-400.08544921875
-326.84326171875
-254.5166015625
-205.078125
-141.90673828125
-87.890625
-68.66455078125
-50.35400390625
-44.86083984375
-57.67822265625
-59.50927734375
-41.19873046875
-43.02978515625
-38.4521484375
-32.04345703125
-42.1142578125
-23.8037109375
-19.22607421875
-14.6484375
-13.73291015625
-20.1416015625
-10.07080078125
-35.70556640625
-35.70556640625
-29.296875
-25.634765625
-33.87451171875
-29.296875
-29.296875
-16.4794921875
-7.32421875
-4.57763671875
-10.07080078125
-2.74658203125
13.73291015625
7.32421875
4.57763671875
6.40869140625
-3.662109375
-9.1552734375
-4.57763671875
0.91552734375
20.1416015625
23.8037109375
17.39501953125
12.8173828125
2.74658203125
4.57763671875
3.662109375
23.8037109375
51.26953125
34.7900390625
29.296875
36.62109375
32.958984375
26.55029296875
34.7900390625
41.19873046875
37.53662109375
44.86083984375
45.7763671875
63.17138671875
68.66455078125
65.91796875
69.580078125
85.14404296875
91.552734375
98.876953125
108.0322265625
119.0185546875
126.3427734375
123.59619140625
129.08935546875
131.8359375
140.07568359375
141.90673828125
154.72412109375
151.9775390625
155.6396484375
156.55517578125
145.56884765625
169.37255859375
178.52783203125
175.78125
176.69677734375
183.10546875
182.18994140625
165.71044921875
172.119140625
162.9638671875
164.794921875
188.5986328125
182.18994140625
191.34521484375
189.51416015625
185.85205078125
185.85205078125
177.6123046875
178.52783203125
175.78125
162.9638671875
162.04833984375
144.6533203125
127.25830078125
119.0185546875
118.10302734375
112.60986328125
104.3701171875
107.11669921875
109.86328125
100.7080078125
75.98876953125
66.83349609375
58.59375
60.4248046875
46.69189453125
29.296875
36.62109375
17.39501953125
-10.07080078125
-12.8173828125
-10.07080078125
-10.07080078125
-11.90185546875
-2.74658203125
-14.6484375
-17.39501953125
-25.634765625
-21.05712890625
-26.55029296875
-27.4658203125
-36.62109375
-45.7763671875
-45.7763671875
-40.283203125
-49.4384765625
-45.7763671875
-39.36767578125
-44.86083984375
-55.84716796875
-48.52294921875
-56.7626953125
-54.01611328125
-40.283203125
-47.607421875
-49.4384765625
-56.7626953125
-61.34033203125
-59.50927734375
-53.1005859375
-54.01611328125
-64.0869140625
-56.7626953125
-54.01611328125
-54.931640625
-63.17138671875
-62.255859375
-49.4384765625
-43.02978515625
-37.53662109375
-44.86083984375
-43.02978515625
-45.7763671875
-42.1142578125
-28.38134765625
-32.958984375
-30.21240234375
-37.53662109375
-36.62109375
-42.1142578125
-55.84716796875
-46.69189453125
-40.283203125
-25.634765625
-26.55029296875
-37.53662109375
-33.87451171875
-34.7900390625
-33.87451171875
-37.53662109375
-34.7900390625
-31.1279296875
-26.55029296875
-32.04345703125
-21.05712890625
-24.71923828125
-22.88818359375
-24.71923828125
-27.4658203125
-23.8037109375
-18.310546875
-28.38134765625
-24.71923828125
-25.634765625
-21.97265625
-28.38134765625
-32.04345703125
-31.1279296875
-39.36767578125
-43.02978515625
-47.607421875
-40.283203125
-33.87451171875
-33.87451171875
-41.19873046875
-49.4384765625
-57.67822265625
-56.7626953125
-31.1279296875
-48.52294921875
-46.69189453125
-30.21240234375
-29.296875
-34.7900390625
-38.4521484375
-35.70556640625
-33.87451171875
-20.1416015625
-17.39501953125
-13.73291015625
-16.4794921875
-9.1552734375
-14.6484375
-24.71923828125
-19.22607421875
-16.4794921875
-11.90185546875
-10.986328125
11.90185546875
28.38134765625
46.69189453125
67.7490234375
71.4111328125
88.80615234375
86.0595703125
77.81982421875
74.15771484375
78.7353515625
83.31298828125
81.48193359375
75.98876953125
81.48193359375
77.81982421875
81.48193359375
66.83349609375
67.7490234375
58.59375
41.19873046875
29.296875
12.8173828125
2.74658203125
-16.4794921875
-23.8037109375
-24.71923828125
-39.36767578125
-43.9453125
-46.69189453125
-45.7763671875
-43.9453125
-47.607421875
-53.1005859375
-56.7626953125
-61.34033203125
-66.83349609375
-71.4111328125
-85.14404296875
-86.97509765625
-82.3974609375
-76.904296875
-81.48193359375
-91.552734375
-87.890625
-80.56640625
-75.98876953125
-83.31298828125
-95.21484375
-96.13037109375
-91.552734375
-90.63720703125
-89.7216796875
-108.94775390625
-119.93408203125
-94.29931640625
-86.97509765625
-88.80615234375
-86.0595703125
-88.80615234375
-93.3837890625
-102.5390625
-106.201171875
-108.0322265625
-104.3701171875
-121.76513671875
-129.08935546875
-133.6669921875
-146.484375
-150.146484375
-134.58251953125
-113.525390625
-48.52294921875
21.97265625
99.79248046875
180.35888671875
251.77001953125
387.26806640625
553.89404296875
703.125
823.05908203125
867.919921875
775.45166015625
611.572265625
408.3251953125
190.4296875
1.8310546875
-158.38623046875
-276.4892578125
-379.0283203125
-432.12890625
-434.87548828125
-438.53759765625
-451.35498046875
-444.03076171875
-420.22705078125
-356.14013671875
-298.4619140625
-219.7265625
-151.9775390625
-138.24462890625
-114.44091796875
-92.46826171875
-75.0732421875
-59.50927734375
-58.59375
-49.4384765625
-36.62109375
-43.02978515625
-37.53662109375
-36.62109375
-36.62109375
-36.62109375
-45.7763671875
-51.26953125
-73.2421875
-81.48193359375
-75.0732421875
-65.91796875
-58.59375
-53.1005859375
-41.19873046875
-27.4658203125
-22.88818359375
-28.38134765625
-20.1416015625
-6.40869140625
-15.56396484375
-23.8037109375
-20.1416015625
-4.57763671875
-3.662109375
-14.6484375
-7.32421875
-4.57763671875
-14.6484375
-15.56396484375
-7.32421875
-15.56396484375
2.74658203125
16.4794921875
15.56396484375
18.310546875
22.88818359375
19.22607421875
23.8037109375
23.8037109375
16.4794921875
23.8037109375
27.4658203125
34.7900390625
49.4384765625
40.283203125
36.62109375
37.53662109375
44.86083984375
55.84716796875
56.7626953125
53.1005859375
56.7626953125
64.0869140625
65.00244140625
78.7353515625
82.3974609375
89.7216796875
89.7216796875
99.79248046875
106.201171875
111.6943359375
117.1875
127.25830078125
130.0048828125
124.51171875
124.51171875
129.08935546875
129.08935546875
134.58251953125
132.75146484375
153.80859375
157.470703125
159.3017578125
160.21728515625
159.3017578125
150.146484375
159.3017578125
162.04833984375
154.72412109375
162.04833984375
162.04833984375
171.20361328125
175.78125
176.69677734375
176.69677734375
177.6123046875
172.119140625
154.72412109375
158.38623046875
156.55517578125
157.470703125
139.16015625
137.3291015625
130.0048828125
123.59619140625
90.63720703125
60.4248046875
54.01611328125
54.931640625
54.01611328125
52.18505859375
43.02978515625
33.87451171875
30.21240234375
33.87451171875
32.04345703125
21.05712890625
24.71923828125
17.39501953125
9.1552734375
6.40869140625
-10.986328125
-23.8037109375
-37.53662109375
-50.35400390625
-38.4521484375
-28.38134765625
-30.21240234375
-27.4658203125
-32.04345703125
-35.70556640625
-42.1142578125
-42.1142578125
-42.1142578125
-39.36767578125
-53.1005859375
-59.50927734375
-47.607421875
-58.59375
-65.00244140625
-50.35400390625
-43.02978515625
-40.283203125
-33.87451171875
-32.04345703125
-33.87451171875
-33.87451171875
-32.04345703125
-43.9453125
-40.283203125
-35.70556640625
-30.21240234375
-29.296875
-32.04345703125
-37.53662109375
-53.1005859375
-69.580078125
-71.4111328125
-52.18505859375
-37.53662109375
-46.69189453125
-48.52294921875
-38.4521484375
-21.97265625
-34.7900390625
-29.296875
-34.7900390625
-24.71923828125
-21.05712890625
-27.4658203125
-28.38134765625
-31.1279296875
-22.88818359375
-19.22607421875
-31.1279296875
-21.97265625
-28.38134765625
-24.71923828125
-20.1416015625
-21.97265625
-25.634765625
-28.38134765625
-27.4658203125
-21.97265625
-20.1416015625
-23.8037109375
-26.55029296875
-15.56396484375
-17.39501953125
0.91552734375
10.07080078125
20.1416015625
10.986328125
-8.23974609375
10.986328125
0
-24.71923828125
-32.04345703125
-36.62109375
-33.87451171875
-37.53662109375
-37.53662109375
-30.21240234375
-22.88818359375
-23.8037109375
-21.97265625
-21.05712890625
-24.71923828125
-29.296875
-25.634765625
-20.1416015625
-21.97265625
-25.634765625
-25.634765625
-26.55029296875
-26.55029296875
-33.87451171875
-29.296875
-30.21240234375
-22.88818359375
-26.55029296875
-28.38134765625
-10.07080078125
-10.07080078125
2.74658203125
3.662109375
4.57763671875
14.6484375
19.22607421875
23.8037109375
26.55029296875
19.22607421875
26.55029296875
38.4521484375
67.7490234375
77.81982421875
99.79248046875
108.94775390625
89.7216796875
88.80615234375
95.21484375
102.5390625
95.21484375
101.62353515625
106.201171875
108.0322265625
107.11669921875
96.13037109375
93.3837890625
92.46826171875
94.29931640625
94.29931640625
82.3974609375
63.17138671875
52.18505859375
36.62109375
31.1279296875
39.36767578125
23.8037109375
9.1552734375
-12.8173828125
-11.90185546875
-16.4794921875
-25.634765625
-40.283203125
-49.4384765625
-44.86083984375
-43.9453125
-52.18505859375
-48.52294921875
-46.69189453125
-45.7763671875
-51.26953125
-56.7626953125
-57.67822265625
-55.84716796875
-66.83349609375
-61.34033203125
-46.69189453125
-55.84716796875
-54.01611328125
-55.84716796875
-47.607421875
-42.1142578125
-57.67822265625
-67.7490234375
-54.931640625
-52.18505859375
-64.0869140625
-65.00244140625
-53.1005859375
-70.49560546875
-75.0732421875
-54.01611328125
-54.01611328125
-62.255859375
-64.0869140625
-84.228515625
-94.29931640625
-102.5390625
-104.3701171875
-100.7080078125
-85.14404296875
-42.1142578125
11.90185546875
78.7353515625
160.21728515625
236.2060546875
323.18115234375
462.34130859375
614.31884765625
758.056640625
884.3994140625
887.14599609375
780.94482421875
582.275390625
376.28173828125
153.80859375
-52.18505859375
-222.47314453125
-326.84326171875
-415.6494140625
-449.52392578125
-466.00341796875
-455.01708984375
-454.1015625
-417.48046875
-344.23828125
-281.06689453125
-197.75390625
-134.58251953125
-86.0595703125
-65.00244140625
-43.02978515625
-25.634765625
-22.88818359375
-18.310546875
-21.05712890625
-18.310546875
-10.986328125
-3.662109375
-19.22607421875
-12.8173828125
-9.1552734375
-19.22607421875
-21.97265625
-10.07080078125
-5.4931640625
-11.90185546875
-10.986328125
-6.40869140625
0.91552734375
-0.91552734375
3.662109375
0
-1.8310546875
12.8173828125
5.4931640625
8.23974609375
10.986328125
15.56396484375
17.39501953125
33.87451171875
36.62109375
23.8037109375
18.310546875
24.71923828125
21.97265625
16.4794921875
22.88818359375
30.21240234375
29.296875
42.1142578125
45.7763671875
51.26953125
46.69189453125
32.04345703125
37.53662109375
53.1005859375
66.83349609375
73.2421875
66.83349609375
63.17138671875
65.00244140625
78.7353515625
91.552734375
95.21484375
105.28564453125
114.44091796875
122.6806640625
109.86328125
105.28564453125
115.3564453125
100.7080078125
110.77880859375
129.08935546875
136.41357421875
156.55517578125
155.6396484375
157.470703125
168.45703125
164.794921875
169.37255859375
184.02099609375
195.9228515625
197.75390625
193.17626953125
203.2470703125
206.9091796875
205.078125
208.740234375
229.79736328125
226.13525390625
223.388671875
229.79736328125
207.82470703125
199.5849609375
213.31787109375
222.47314453125
216.97998046875
227.05078125
227.96630859375
221.5576171875
225.2197265625
229.79736328125
222.47314453125
215.14892578125
200.50048828125
184.9365234375
184.9365234375
179.443359375
178.52783203125
178.52783203125
172.119140625
154.72412109375
119.93408203125
111.6943359375
98.876953125
95.21484375
94.29931640625
88.80615234375
84.228515625
79.65087890625
78.7353515625
64.0869140625
56.7626953125
65.00244140625
73.2421875
70.49560546875
63.17138671875
46.69189453125
13.73291015625
0
-10.986328125
-15.56396484375
-5.4931640625
-11.90185546875
-20.1416015625
-18.310546875
-11.90185546875
0
-8.23974609375
-3.662109375
-12.8173828125
-10.07080078125
-10.986328125
-16.4794921875
-25.634765625
-26.55029296875
-27.4658203125
-21.97265625
-21.05712890625
-19.22607421875
-12.8173828125
-11.90185546875
-15.56396484375
-19.22607421875
-21.05712890625
-22.88818359375
-20.1416015625
-7.32421875
-8.23974609375
-15.56396484375
-10.07080078125
-19.22607421875
-21.97265625
-19.22607421875
-4.57763671875
-3.662109375
-3.662109375
10.07080078125
15.56396484375
20.1416015625
-22.88818359375
-25.634765625
-29.296875
-28.38134765625
-18.310546875
-7.32421875
-0.91552734375
-0.91552734375
5.4931640625
11.90185546875
3.662109375
-1.8310546875
3.662109375
-1.8310546875
-7.32421875
0.91552734375
15.56396484375
27.4658203125
21.97265625
31.1279296875
25.634765625
29.296875
31.1279296875
42.1142578125
25.634765625
10.986328125
7.32421875
16.4794921875
21.97265625
35.70556640625
31.1279296875
28.38134765625
32.958984375
32.958984375
42.1142578125
21.05712890625
8.23974609375
10.07080078125
-15.56396484375
-7.32421875
1.8310546875
8.23974609375
-6.40869140625
-17.39501953125
-19.22607421875
-10.986328125
-5.4931640625
-0.91552734375
13.73291015625
14.6484375
-3.662109375
4.57763671875
2.74658203125
0.91552734375
16.4794921875
3.662109375
-9.1552734375
-10.986328125
-10.986328125
0.91552734375
12.8173828125
20.1416015625
17.39501953125
8.23974609375
-4.57763671875
3.662109375
17.39501953125
22.88818359375
51.26953125
53.1005859375
65.91796875
62.255859375
58.59375
60.4248046875
58.59375
57.67822265625
93.3837890625
108.94775390625
102.5390625
99.79248046875
101.62353515625
104.3701171875
112.60986328125
113.525390625
120.849609375
124.51171875
116.27197265625
117.1875
131.8359375
132.75146484375
132.75146484375
141.90673828125
137.3291015625
120.849609375
87.890625
82.3974609375
78.7353515625
61.34033203125
72.32666015625
65.00244140625
59.50927734375
51.26953125
38.4521484375
28.38134765625
18.310546875
11.90185546875
-0.91552734375
-15.56396484375
-1.8310546875
12.8173828125
11.90185546875
4.57763671875
-16.4794921875
-24.71923828125
-21.97265625
-32.04345703125
-53.1005859375
-55.84716796875
-44.86083984375
-36.62109375
-52.18505859375
-52.18505859375
-44.86083984375
-35.70556640625
-23.8037109375
-10.986328125
-11.90185546875
-25.634765625
-23.8037109375
-41.19873046875
-54.931640625
-40.283203125
-36.62109375
-39.36767578125
-37.53662109375
-43.02978515625
-49.4384765625
-53.1005859375
-51.26953125
-40.283203125
-50.35400390625
-60.4248046875
-64.0869140625
-97.0458984375
-86.0595703125
-59.50927734375
-7.32421875
64.0869140625
122.6806640625
191.34521484375
264.58740234375
349.7314453125
501.708984375
670.166015625
817.56591796875
928.3447265625
920.10498046875
799.25537109375
603.33251953125
400.08544921875
195.00732421875
-32.958984375
-190.4296875
-303.955078125
-401.0009765625
-443.115234375
-453.18603515625
-452.2705078125
-432.12890625
-368.95751953125
-292.05322265625
-212.40234375
-145.56884765625
-137.3291015625
-99.79248046875
-58.59375
-48.52294921875
-35.70556640625
-17.39501953125
-11.90185546875
-8.23974609375
-4.57763671875
2.74658203125
14.6484375
21.05712890625
17.39501953125
11.90185546875
35.70556640625
45.7763671875
12.8173828125
16.4794921875
7.32421875
4.57763671875
0.91552734375
10.986328125
21.05712890625
27.4658203125
21.97265625
21.05712890625
19.22607421875
18.310546875
31.1279296875
28.38134765625
33.87451171875
41.19873046875
33.87451171875
58.59375
39.36767578125
40.283203125
48.52294921875
57.67822265625
61.34033203125
72.32666015625
49.4384765625
32.958984375
18.310546875
32.04345703125
37.53662109375
39.36767578125
50.35400390625
54.01611328125
56.7626953125
69.580078125
76.904296875
85.14404296875
97.96142578125
96.13037109375
97.0458984375
106.201171875
100.7080078125
110.77880859375
133.6669921875
134.58251953125
141.90673828125
140.07568359375
127.25830078125
131.8359375
150.146484375
165.71044921875
171.20361328125
177.6123046875
171.20361328125
195.00732421875
203.2470703125
196.83837890625
215.14892578125
223.388671875
202.33154296875
187.68310546875
211.48681640625
208.740234375
201.416015625
218.81103515625
243.5302734375
255.43212890625
257.26318359375
258.1787109375
260.92529296875
260.009765625
261.8408203125
269.1650390625
268.24951171875
254.5166015625
268.24951171875
251.77001953125
238.037109375
231.62841796875
230.712890625
223.388671875
217.8955078125
223.388671875
224.30419921875
209.65576171875
217.8955078125
202.33154296875
211.48681640625
191.34521484375
164.794921875
155.6396484375
153.80859375
143.73779296875
138.24462890625
162.04833984375
152.89306640625
128.173828125
109.86328125
102.5390625
85.14404296875
58.59375
41.19873046875
37.53662109375
40.283203125
23.8037109375
0.91552734375
-3.662109375
0.91552734375
12.8173828125
5.4931640625
4.57763671875
19.22607421875
33.87451171875
31.1279296875
9.1552734375
5.4931640625
-9.1552734375
-24.71923828125
-7.32421875
-6.40869140625
-8.23974609375
-17.39501953125
-21.97265625
-22.88818359375
-30.21240234375
-27.4658203125
-32.04345703125
-24.71923828125
-7.32421875
13.73291015625
0.91552734375
-1.8310546875
0
-12.8173828125
-16.4794921875
-5.4931640625
5.4931640625
-10.986328125
-2.74658203125
14.6484375
20.1416015625
31.1279296875
23.8037109375
-13.73291015625
-47.607421875
-31.1279296875
-30.21240234375
-37.53662109375
-21.97265625
-10.07080078125
4.57763671875
15.56396484375
21.05712890625
18.310546875
9.1552734375
-1.8310546875
-5.4931640625
12.8173828125
12.8173828125
1.8310546875
-8.23974609375
-2.74658203125
6.40869140625
0
0.91552734375
17.39501953125
28.38134765625
21.05712890625
5.4931640625
10.986328125
28.38134765625
41.19873046875
45.7763671875
25.634765625
17.39501953125
0.91552734375
-21.05712890625
-50.35400390625
-27.4658203125
-21.05712890625
-10.07080078125
-9.1552734375
-17.39501953125
-12.8173828125
-14.6484375
-6.40869140625
0
-5.4931640625
-12.8173828125
-10.986328125
-6.40869140625
-8.23974609375
-15.56396484375
0
-2.74658203125
-13.73291015625
-10.986328125
-12.8173828125
-28.38134765625
-33.87451171875
-32.04345703125
-36.62109375
-32.958984375
-21.97265625
-23.8037109375
-21.97265625
-22.88818359375
-15.56396484375
-7.32421875
-4.57763671875
4.57763671875
0
-5.4931640625
-1.8310546875
-12.8173828125
-26.55029296875
-65.91796875
-62.255859375
-32.958984375
-21.05712890625
6.40869140625
14.6484375
7.32421875
22.88818359375
28.38134765625
21.97265625
18.310546875
21.05712890625
-2.74658203125
29.296875
43.9453125
56.7626953125
74.15771484375
94.29931640625
93.3837890625
108.0322265625
119.93408203125
119.0185546875
114.44091796875
108.0322265625
108.94775390625
116.27197265625
101.62353515625
108.0322265625
99.79248046875
87.890625
75.0732421875
81.48193359375
75.0732421875
60.4248046875
54.931640625
48.52294921875
30.21240234375
10.07080078125
-10.986328125
-38.4521484375
-41.19873046875
-25.634765625
-21.05712890625
-25.634765625
-19.22607421875
-20.1416015625
-24.71923828125
-31.1279296875
-32.04345703125
-33.87451171875
-43.02978515625
-51.26953125
-72.32666015625
-55.84716796875
-48.52294921875
-53.1005859375
-63.17138671875
-53.1005859375
-49.4384765625
-53.1005859375
-65.00244140625
-60.4248046875
-51.26953125
-72.32666015625
-67.7490234375
-65.00244140625
-62.255859375
-64.0869140625
-77.81982421875
-64.0869140625
-72.32666015625
-75.0732421875
-90.63720703125
-81.48193359375
-72.32666015625
-91.552734375
-90.63720703125
-108.0322265625
-118.10302734375
-132.75146484375
-122.6806640625
-95.21484375
-63.17138671875
-10.986328125
64.0869140625
150.146484375
224.30419921875
292.96875
428.466796875
596.923828125
753.47900390625
868.83544921875
908.203125
823.974609375
655.517578125
458.67919921875
236.2060546875
21.05712890625
-141.90673828125
-253.60107421875
-367.12646484375
-427.55126953125
-446.77734375
-446.77734375
-437.6220703125
-422.9736328125
-396.42333984375
-339.66064453125
-265.5029296875
-183.10546875
-132.75146484375
-108.0322265625
-95.21484375
-66.83349609375
-57.67822265625
-45.7763671875
-35.70556640625
-33.87451171875
-38.4521484375
-55.84716796875
-52.18505859375
-40.283203125
-45.7763671875
-45.7763671875
-33.87451171875
-39.36767578125
-15.56396484375
-2.74658203125
9.1552734375
-3.662109375
-12.8173828125
-2.74658203125
-15.56396484375
-21.97265625
3.662109375
19.22607421875
-0.91552734375
3.662109375
9.1552734375
12.8173828125
1.8310546875
-8.23974609375
-10.986328125
-7.32421875
4.57763671875
10.986328125
23.8037109375
19.22607421875
21.97265625
18.310546875
9.1552734375
12.8173828125
20.1416015625
23.8037109375
37.53662109375
35.70556640625
39.36767578125
53.1005859375
54.01611328125
37.53662109375
19.22607421875
22.88818359375
37.53662109375
26.55029296875
20.1416015625
23.8037109375
33.87451171875
51.26953125
68.66455078125
77.81982421875
99.79248046875
108.94775390625
101.62353515625
109.86328125
117.1875
112.60986328125
141.90673828125
135.498046875
129.08935546875
129.08935546875
135.498046875
122.6806640625
128.173828125
148.3154296875
172.119140625
193.17626953125
185.85205078125
188.5986328125
203.2470703125
205.99365234375
208.740234375
204.16259765625
208.740234375
198.66943359375
197.75390625
195.9228515625
187.68310546875
201.416015625
211.48681640625
215.14892578125
193.17626953125
203.2470703125
212.40234375
205.078125
196.83837890625
175.78125
175.78125
163.87939453125
141.90673828125
139.16015625
145.56884765625
145.56884765625
133.6669921875
138.24462890625
131.8359375
127.25830078125
105.28564453125
94.29931640625
75.0732421875
65.00244140625
52.18505859375
52.18505859375
36.62109375
38.4521484375
27.4658203125
36.62109375
38.4521484375
29.296875
20.1416015625
5.4931640625
10.07080078125
17.39501953125
3.662109375
-8.23974609375
-16.4794921875
-14.6484375
-22.88818359375
-24.71923828125
-7.32421875
-35.70556640625
-42.1142578125
-38.4521484375
-46.69189453125
-45.7763671875
-39.36767578125
-37.53662109375
-41.19873046875
-38.4521484375
-33.87451171875
-27.4658203125
-32.958984375
-28.38134765625
-50.35400390625
-66.83349609375
-58.59375
-63.17138671875
-59.50927734375
-54.01611328125
-46.69189453125
-45.7763671875
-38.4521484375
-29.296875
-34.7900390625
-37.53662109375
-56.7626953125
-43.02978515625
-42.1142578125
-42.1142578125
-41.19873046875
-40.283203125
-31.1279296875
-38.4521484375
-22.88818359375
-9.1552734375
-21.05712890625
-43.9453125
-42.1142578125
-36.62109375
-34.7900390625
-35.70556640625
-22.88818359375
-6.40869140625
-32.04345703125
-35.70556640625
-39.36767578125
-37.53662109375
-40.283203125
-22.88818359375
-23.8037109375
-38.4521484375
-42.1142578125
-32.04345703125
-23.8037109375
-10.986328125
-23.8037109375
-15.56396484375
-14.6484375
-12.8173828125
-14.6484375
-4.57763671875
4.57763671875
-10.986328125
-14.6484375
-19.22607421875
-10.07080078125
-17.39501953125
-21.97265625
-27.4658203125
-33.87451171875
-43.9453125
-31.1279296875
-23.8037109375
-37.53662109375
-43.02978515625
-25.634765625
-24.71923828125
-18.310546875
-14.6484375
-7.32421875
3.662109375
-17.39501953125
-11.90185546875
-18.310546875
-14.6484375
-17.39501953125
-34.7900390625
-31.1279296875
-14.6484375
-11.90185546875
-6.40869140625
-10.986328125
-2.74658203125
-10.07080078125
7.32421875
5.4931640625
13.73291015625
36.62109375
58.59375
61.34033203125
71.4111328125
81.48193359375
81.48193359375
90.63720703125
94.29931640625
99.79248046875
99.79248046875
80.56640625
97.96142578125
106.201171875
108.0322265625
104.3701171875
107.11669921875
80.56640625
75.0732421875
77.81982421875
63.17138671875
57.67822265625
31.1279296875
28.38134765625
34.7900390625
32.04345703125
11.90185546875
-4.57763671875
-12.8173828125
-8.23974609375
-10.986328125
-22.88818359375
-32.958984375
-25.634765625
-10.986328125
-9.1552734375
-40.283203125
-56.7626953125
-44.86083984375
-47.607421875
-47.607421875
-71.4111328125
-86.97509765625
-86.97509765625
-78.7353515625
-74.15771484375
-75.0732421875
-73.2421875
-75.98876953125
-62.255859375
-58.59375
-58.59375
-59.50927734375
-50.35400390625
-51.26953125
-86.0595703125
-88.80615234375
-96.13037109375
-81.48193359375
-75.0732421875
-79.65087890625
-83.31298828125
-74.15771484375
-77.81982421875
-97.0458984375
-98.876953125
-97.96142578125
-100.7080078125
-119.93408203125
-134.58251953125
-124.51171875
-103.45458984375
-56.7626953125
1.8310546875
75.0732421875
166.6259765625
242.61474609375
330.50537109375
489.80712890625
639.0380859375
766.29638671875
853.271484375
824.89013671875
707.70263671875
521.8505859375
311.279296875
99.79248046875
-81.48193359375
-216.064453125
-328.67431640625
-422.05810546875
-453.18603515625
-460.51025390625
-458.67919921875
-450.439453125
-433.04443359375
-392.76123046875
-321.35009765625
-243.5302734375
-185.85205078125
-133.6669921875
-97.0458984375
-84.228515625
-71.4111328125
-56.7626953125
-38.4521484375
-40.283203125
-34.7900390625
-32.04345703125
-13.73291015625
-3.662109375
-10.986328125
-3.662109375
-17.39501953125
-26.55029296875
-32.04345703125
-30.21240234375
-27.4658203125
-15.56396484375
-24.71923828125
-14.6484375
4.57763671875
-1.8310546875
6.40869140625
0.91552734375
-10.986328125
-8.23974609375
-4.57763671875
3.662109375
-1.8310546875
2.74658203125
-6.40869140625
-9.1552734375
9.1552734375
21.97265625
38.4521484375
28.38134765625
32.958984375
31.1279296875
26.55029296875
20.1416015625
15.56396484375
8.23974609375
28.38134765625
36.62109375
44.86083984375
50.35400390625
52.18505859375
42.1142578125
46.69189453125
57.67822265625
56.7626953125
54.931640625
62.255859375
73.2421875
88.80615234375
82.3974609375
87.890625
100.7080078125
100.7080078125
89.7216796875
114.44091796875
115.3564453125
93.3837890625
108.0322265625
129.08935546875
150.146484375
154.72412109375
152.89306640625
153.80859375
173.03466796875
161.1328125
164.794921875
169.37255859375
187.68310546875
191.34521484375
195.9228515625
203.2470703125
198.66943359375
184.9365234375
181.2744140625
180.35888671875
174.86572265625
187.68310546875
195.00732421875
202.33154296875
192.2607421875
199.5849609375
201.416015625
206.9091796875
218.81103515625
227.05078125
218.81103515625
220.64208984375
215.14892578125
205.078125
198.66943359375
183.10546875
174.86572265625
171.20361328125
148.3154296875
129.08935546875
124.51171875
126.3427734375
130.92041015625
131.8359375
134.58251953125
127.25830078125
64.0869140625
48.52294921875
65.91796875
49.4384765625
60.4248046875
58.59375
47.607421875
55.84716796875
43.02978515625
36.62109375
43.9453125
30.21240234375
21.05712890625
13.73291015625
-3.662109375
-9.1552734375
-3.662109375
-10.986328125
-15.56396484375
-13.73291015625
-16.4794921875
-24.71923828125
-27.4658203125
-15.56396484375
-19.22607421875
-7.32421875
-13.73291015625
-17.39501953125
-16.4794921875
-21.05712890625
-27.4658203125
-23.8037109375
-7.32421875
-11.90185546875
-31.1279296875
-33.87451171875
-31.1279296875
-26.55029296875
-27.4658203125
-34.7900390625
-31.1279296875
-31.1279296875
-26.55029296875
-32.04345703125
-42.1142578125
-39.36767578125
-32.958984375
-21.97265625
5.4931640625
6.40869140625
10.07080078125
27.4658203125
32.04345703125
14.6484375
-4.57763671875
-9.1552734375
-16.4794921875
-11.90185546875
-7.32421875
-6.40869140625
-4.57763671875
0
0.91552734375
1.8310546875
-11.90185546875
-10.986328125
-12.8173828125
-12.8173828125
-8.23974609375
-0.91552734375
0
3.662109375
4.57763671875
4.57763671875
3.662109375
10.986328125
8.23974609375
4.57763671875
19.22607421875
18.310546875
14.6484375
18.310546875
25.634765625
30.21240234375
14.6484375
8.23974609375
-4.57763671875
-10.07080078125
-21.97265625
-37.53662109375
-38.4521484375
-15.56396484375
-12.8173828125
-10.986328125
-9.1552734375
3.662109375
-6.40869140625
-1.8310546875
0
-5.4931640625
-2.74658203125
9.1552734375
2.74658203125
10.986328125
-1.8310546875
-9.1552734375
-6.40869140625
2.74658203125
9.1552734375
-12.8173828125
-7.32421875
-21.97265625
-22.88818359375
-7.32421875
-5.4931640625
-11.90185546875
8.23974609375
24.71923828125
22.88818359375
19.22607421875
31.1279296875
39.36767578125
38.4521484375
38.4521484375
44.86083984375
52.18505859375
62.255859375
78.7353515625
