ECG
-469.66552734375
-411.07177734375
-336.9140625
-267.333984375
-205.078125
-174.86572265625
-155.6396484375
-125.42724609375
-107.11669921875
-97.96142578125
-107.11669921875
-117.1875
-125.42724609375
-95.21484375
-101.62353515625
-94.29931640625
-101.62353515625
-96.13037109375
-86.97509765625
-85.14404296875
-90.63720703125
-98.876953125
-95.21484375
-88.80615234375
-88.80615234375
-82.3974609375
-91.552734375
-79.65087890625
-63.17138671875
-60.4248046875
-68.66455078125
-74.15771484375
-80.56640625
-77.81982421875
-75.0732421875
-77.81982421875
-86.97509765625
-66.83349609375
-63.17138671875
-57.67822265625
-61.34033203125
-64.0869140625
-57.67822265625
-46.69189453125
-38.4521484375
-43.02978515625
-21.97265625
-20.1416015625
-9.1552734375
-23.8037109375
-36.62109375
-23.8037109375
-21.97265625
-24.71923828125
-4.57763671875
-20.1416015625
1.8310546875
0
4.57763671875
2.74658203125
-3.662109375
4.57763671875
-5.4931640625
3.662109375
9.1552734375
28.38134765625
26.55029296875
33.87451171875
35.70556640625
35.70556640625
57.67822265625
65.91796875
72.32666015625
62.255859375
54.931640625
56.7626953125
62.255859375
66.83349609375
87.890625
89.7216796875
92.46826171875
100.7080078125
99.79248046875
84.228515625
97.96142578125
89.7216796875
103.45458984375
100.7080078125
102.5390625
100.7080078125
92.46826171875
88.80615234375
96.13037109375
111.6943359375
90.63720703125
85.14404296875
86.0595703125
94.29931640625
65.91796875
69.580078125
70.49560546875
75.98876953125
37.53662109375
55.84716796875
44.86083984375
48.52294921875
45.7763671875
34.7900390625
41.19873046875
16.4794921875
-13.73291015625
-23.8037109375
-32.04345703125
-31.1279296875
-31.1279296875
-51.26953125
-67.7490234375
-58.59375
-63.17138671875
-71.4111328125
-76.904296875
-74.15771484375
-89.7216796875
-88.80615234375
-99.79248046875
-108.0322265625
-106.201171875
-97.0458984375
-98.876953125
-94.29931640625
-96.13037109375
-92.46826171875
-113.525390625
-115.3564453125
-116.27197265625
-128.173828125
-123.59619140625
-135.498046875
-135.498046875
-135.498046875
-130.92041015625
-134.58251953125
-129.08935546875
-115.3564453125
-121.76513671875
-130.92041015625
-122.6806640625
-123.59619140625
-119.93408203125
-115.3564453125
-97.96142578125
-109.86328125
-120.849609375
-119.0185546875
-108.0322265625
-99.79248046875
-103.45458984375
-99.79248046875
-102.5390625
-116.27197265625
-119.93408203125
-130.0048828125
-114.44091796875
-101.62353515625
-112.60986328125
-128.173828125
-112.60986328125
-101.62353515625
-119.0185546875
-110.77880859375
-101.62353515625
-100.7080078125
-97.0458984375
-86.97509765625
-91.552734375
-86.0595703125
-90.63720703125
-109.86328125
-105.28564453125
-112.60986328125
-112.60986328125
-108.0322265625
-115.3564453125
-109.86328125
-115.3564453125
-104.3701171875
-104.3701171875
-103.45458984375
-100.7080078125
-97.96142578125
-110.77880859375
-98.876953125
-98.876953125
-92.46826171875
-97.0458984375
-100.7080078125
-110.77880859375
-117.1875
-133.6669921875
-110.77880859375
-98.876953125
-109.86328125
-109.86328125
-103.45458984375
-112.60986328125
-111.6943359375
-114.44091796875
-102.5390625
-103.45458984375
-113.525390625
-112.60986328125
-116.27197265625
-116.27197265625
-109.86328125
-125.42724609375
-93.3837890625
-108.94775390625
-118.10302734375
-124.51171875
-119.0185546875
-114.44091796875
-102.5390625
-86.0595703125
-89.7216796875
-86.0595703125
-81.48193359375
-87.890625
-82.3974609375
-75.98876953125
-60.4248046875
-41.19873046875
-16.4794921875
-15.56396484375
-8.23974609375
-14.6484375
4.57763671875
16.4794921875
21.97265625
20.1416015625
23.8037109375
15.56396484375
2.74658203125
3.662109375
1.8310546875
13.73291015625
4.57763671875
-2.74658203125
-2.74658203125
-15.56396484375
-20.1416015625
-43.02978515625
-54.931640625
-66.83349609375
-71.4111328125
-88.80615234375
-97.0458984375
-107.11669921875
-111.6943359375
-109.86328125
-119.93408203125
-108.94775390625
-123.59619140625
-137.3291015625
-120.849609375
-132.75146484375
-131.8359375
-155.6396484375
-165.71044921875
-165.71044921875
-161.1328125
-157.470703125
-164.794921875
-162.04833984375
-159.3017578125
-172.119140625
-154.72412109375
-164.794921875
-168.45703125
-170.2880859375
-167.54150390625
-151.9775390625
-132.75146484375
-141.90673828125
-146.484375
-161.1328125
-171.20361328125
-169.37255859375
-183.10546875
-182.18994140625
-180.35888671875
-175.78125
-184.9365234375
-196.83837890625
-206.9091796875
-198.66943359375
-203.2470703125
-199.5849609375
-184.02099609375
-143.73779296875
-101.62353515625
-41.19873046875
23.8037109375
108.94775390625
176.69677734375
303.955078125
486.14501953125
641.78466796875
735.16845703125
743.408203125
631.7138671875
443.115234375
235.29052734375
17.39501953125
-175.78125
-329.58984375
-428.466796875
-541.9921875
-580.4443359375
-572.20458984375
-573.1201171875
-577.69775390625
-548.40087890625
-495.30029296875
-410.15625
-322.265625
-273.74267578125
-232.5439453125
-191.34521484375
-164.794921875
-147.39990234375
-132.75146484375
-131.8359375
-139.16015625
-129.08935546875
-116.27197265625
-108.0322265625
-114.44091796875
-115.3564453125
-96.13037109375
-99.79248046875
-114.44091796875
-120.849609375
-116.27197265625
-95.21484375
-80.56640625
-86.0595703125
-86.97509765625
-88.80615234375
-94.29931640625
-106.201171875
-97.96142578125
-83.31298828125
-90.63720703125
-96.13037109375
-98.876953125
-84.228515625
-88.80615234375
-73.2421875
-66.83349609375
-75.98876953125
-73.2421875
-73.2421875
-67.7490234375
-57.67822265625
-51.26953125
-54.931640625
-52.18505859375
-54.01611328125
-49.4384765625
-34.7900390625
-32.04345703125
-52.18505859375
-51.26953125
-45.7763671875
-38.4521484375
-37.53662109375
-43.9453125
-25.634765625
-18.310546875
-19.22607421875
-19.22607421875
-30.21240234375
-40.283203125
-31.1279296875
-15.56396484375
10.07080078125
24.71923828125
29.296875
22.88818359375
48.52294921875
46.69189453125
39.36767578125
25.634765625
51.26953125
79.65087890625
72.32666015625
82.3974609375
88.80615234375
90.63720703125
93.3837890625
90.63720703125
86.97509765625
85.14404296875
95.21484375
96.13037109375
97.0458984375
93.3837890625
100.7080078125
108.0322265625
119.0185546875
116.27197265625
106.201171875
103.45458984375
92.46826171875
85.14404296875
73.2421875
78.7353515625
94.29931640625
90.63720703125
87.890625
70.49560546875
79.65087890625
82.3974609375
74.15771484375
78.7353515625
63.17138671875
54.01611328125
54.931640625
58.59375
50.35400390625
37.53662109375
20.1416015625
-10.07080078125
-15.56396484375
-20.1416015625
-27.4658203125
-21.05712890625
-17.39501953125
-34.7900390625
-16.4794921875
-31.1279296875
-35.70556640625
-44.86083984375
-82.3974609375
-85.14404296875
-86.97509765625
-97.96142578125
-109.86328125
-114.44091796875
-120.849609375
-117.1875
-117.1875
-119.93408203125
-130.0048828125
-140.9912109375
-126.3427734375
-118.10302734375
-118.10302734375
-124.51171875
-127.25830078125
-122.6806640625
-132.75146484375
-132.75146484375
-134.58251953125
-119.93408203125
-114.44091796875
-128.173828125
-121.76513671875
-135.498046875
-137.3291015625
-132.75146484375
-141.90673828125
-126.3427734375
-124.51171875
-120.849609375
-126.3427734375
-126.3427734375
-122.6806640625
-119.93408203125
-117.1875
-118.10302734375
-128.173828125
-101.62353515625
-104.3701171875
-108.94775390625
-107.11669921875
-128.173828125
-133.6669921875
-112.60986328125
-118.10302734375
-101.62353515625
-88.80615234375
-92.46826171875
-107.11669921875
-97.96142578125
-99.79248046875
-93.3837890625
-76.904296875
-88.80615234375
-67.7490234375
-68.66455078125
-65.00244140625
-59.50927734375
-70.49560546875
-90.63720703125
-96.13037109375
-89.7216796875
-92.46826171875
-92.46826171875
-93.3837890625
-96.13037109375
-94.29931640625
-112.60986328125
-117.1875
-105.28564453125
-107.11669921875
-104.3701171875
-100.7080078125
-90.63720703125
-88.80615234375
-103.45458984375
-102.5390625
-97.0458984375
-100.7080078125
-87.890625
-101.62353515625
-110.77880859375
-111.6943359375
-123.59619140625
-121.76513671875
-117.1875
-119.93408203125
-119.0185546875
-101.62353515625
-97.96142578125
-95.21484375
-99.79248046875
-104.3701171875
-106.201171875
-108.94775390625
-93.3837890625
-69.580078125
-64.0869140625
-51.26953125
-25.634765625
-39.36767578125
-43.9453125
-40.283203125
-34.7900390625
-40.283203125
-44.86083984375
-28.38134765625
-16.4794921875
3.662109375
7.32421875
4.57763671875
17.39501953125
24.71923828125
17.39501953125
29.296875
22.88818359375
30.21240234375
28.38134765625
22.88818359375
24.71923828125
3.662109375
-10.07080078125
-11.90185546875
-21.05712890625
-13.73291015625
-16.4794921875
-16.4794921875
-32.958984375
-45.7763671875
-62.255859375
-74.15771484375
-92.46826171875
-105.28564453125
-103.45458984375
-111.6943359375
-128.173828125
-126.3427734375
-127.25830078125
-127.25830078125
-123.59619140625
-115.3564453125
-115.3564453125
-113.525390625
-110.77880859375
-120.849609375
-133.6669921875
-138.24462890625
-145.56884765625
-143.73779296875
-144.6533203125
-141.90673828125
-158.38623046875
-162.9638671875
-162.04833984375
-167.54150390625
-156.55517578125
-161.1328125
-167.54150390625
-151.9775390625
-150.146484375
-133.6669921875
-120.849609375
-121.76513671875
-121.76513671875
-128.173828125
-152.89306640625
-150.146484375
-149.23095703125
-166.6259765625
-162.04833984375
-155.6396484375
-169.37255859375
-169.37255859375
-139.16015625
-86.0595703125
-28.38134765625
53.1005859375
158.38623046875
209.65576171875
332.33642578125
492.5537109375
657.3486328125
749.81689453125
752.5634765625
658.26416015625
479.736328125
259.09423828125
37.53662109375
-173.03466796875
-354.30908203125
-443.115234375
-538.330078125
-572.20458984375
-578.61328125
-572.20458984375
-552.06298828125
-515.44189453125
-449.52392578125
-359.80224609375
-280.1513671875
-217.8955078125
-185.85205078125
-160.21728515625
-140.9912109375
-120.849609375
-127.25830078125
-109.86328125
-101.62353515625
-100.7080078125
-107.11669921875
-100.7080078125
-102.5390625
-109.86328125
-99.79248046875
-86.0595703125
-78.7353515625
-68.66455078125
-64.0869140625
-65.00244140625
-73.2421875
-74.15771484375
-71.4111328125
-68.66455078125
-76.904296875
-63.17138671875
-60.4248046875
-52.18505859375
-42.1142578125
-38.4521484375
-28.38134765625
-41.19873046875
-40.283203125
-32.958984375
-67.7490234375
-60.4248046875
-36.62109375
-54.01611328125
-40.283203125
-34.7900390625
-24.71923828125
-21.05712890625
-32.958984375
-40.283203125
-31.1279296875
-27.4658203125
-17.39501953125
-13.73291015625
-13.73291015625
-12.8173828125
-4.57763671875
11.90185546875
21.97265625
13.73291015625
11.90185546875
10.07080078125
14.6484375
9.1552734375
7.32421875
23.8037109375
38.4521484375
48.52294921875
70.49560546875
93.3837890625
87.890625
87.890625
79.65087890625
73.2421875
47.607421875
58.59375
68.66455078125
82.3974609375
84.228515625
100.7080078125
123.59619140625
122.6806640625
122.6806640625
127.25830078125
124.51171875
119.93408203125
134.58251953125
146.484375
141.90673828125
140.9912109375
149.23095703125
142.822265625
148.3154296875
152.89306640625
147.39990234375
147.39990234375
148.3154296875
150.146484375
130.92041015625
128.173828125
139.16015625
157.470703125
162.04833984375
165.71044921875
163.87939453125
151.06201171875
137.3291015625
130.0048828125
99.79248046875
87.890625
74.15771484375
67.7490234375
51.26953125
62.255859375
67.7490234375
68.66455078125
67.7490234375
60.4248046875
24.71923828125
1.8310546875
-2.74658203125
-16.4794921875
-22.88818359375
-29.296875
-26.55029296875
-26.55029296875
-27.4658203125
-29.296875
-52.18505859375
-52.18505859375
-57.67822265625
-58.59375
-76.904296875
-72.32666015625
-66.83349609375
-74.15771484375
-79.65087890625
-74.15771484375
-73.2421875
-76.904296875
-52.18505859375
-46.69189453125
-58.59375
-69.580078125
-71.4111328125
-80.56640625
-94.29931640625
-104.3701171875
-99.79248046875
-90.63720703125
-72.32666015625
-71.4111328125
-75.0732421875
-77.81982421875
-73.2421875
-72.32666015625
-66.83349609375
-60.4248046875
-54.01611328125
-33.87451171875
-22.88818359375
-41.19873046875
-43.02978515625
-63.17138671875
-70.49560546875
-65.91796875
-61.34033203125
-57.67822265625
-69.580078125
-65.00244140625
-55.84716796875
-54.931640625
-59.50927734375
-56.7626953125
-52.18505859375
-49.4384765625
-32.958984375
-33.87451171875
-39.36767578125
-29.296875
-42.1142578125
-50.35400390625
-43.02978515625
-40.283203125
-36.62109375
-33.87451171875
-40.283203125
-30.21240234375
-16.4794921875
-19.22607421875
-19.22607421875
-17.39501953125
-21.97265625
-43.9453125
-41.19873046875
-37.53662109375
-45.7763671875
-53.1005859375
-43.02978515625
-59.50927734375
-65.91796875
-49.4384765625
-67.7490234375
-66.83349609375
-60.4248046875
-58.59375
-53.1005859375
-52.18505859375
-50.35400390625
-48.52294921875
-46.69189453125
-57.67822265625
-74.15771484375
-68.66455078125
-69.580078125
-70.49560546875
-47.607421875
-38.4521484375
-24.71923828125
-6.40869140625
9.1552734375
20.1416015625
10.986328125
9.1552734375
4.57763671875
8.23974609375
30.21240234375
8.23974609375
-0.91552734375
26.55029296875
42.1142578125
50.35400390625
38.4521484375
62.255859375
73.2421875
72.32666015625
72.32666015625
87.890625
82.3974609375
87.890625
68.66455078125
78.7353515625
101.62353515625
92.46826171875
86.0595703125
82.3974609375
76.904296875
70.49560546875
61.34033203125
50.35400390625
33.87451171875
20.1416015625
11.90185546875
-2.74658203125
-6.40869140625
7.32421875
0
-0.91552734375
-12.8173828125
-3.662109375
-2.74658203125
-20.1416015625
-60.4248046875
-42.1142578125
-55.84716796875
-76.904296875
-72.32666015625
-64.0869140625
-56.7626953125
-79.65087890625
-87.890625
-85.14404296875
-78.7353515625
-73.2421875
-79.65087890625
-67.7490234375
-69.580078125
-75.98876953125
-77.81982421875
-86.97509765625
-75.0732421875
-75.0732421875
-95.21484375
-108.94775390625
-82.3974609375
-64.0869140625
-72.32666015625
-60.4248046875
-62.255859375
-74.15771484375
-85.14404296875
-106.201171875
-120.849609375
-120.849609375
-134.58251953125
-135.498046875
-118.10302734375
-91.552734375
-63.17138671875
-18.310546875
55.84716796875
141.90673828125
227.96630859375
295.71533203125
424.8046875
607.91015625
756.2255859375
848.69384765625
847.7783203125
734.2529296875
560.302734375
330.50537109375
108.94775390625
-101.62353515625
-271.91162109375
-379.94384765625
-463.2568359375
-488.8916015625
-497.13134765625
-498.046875
-486.14501953125
-447.69287109375
-390.93017578125
-326.84326171875
-236.2060546875
-159.3017578125
-109.86328125
-69.580078125
-59.50927734375
-37.53662109375
-22.88818359375
-42.1142578125
-54.931640625
-60.4248046875
-62.255859375
-52.18505859375
-49.4384765625
-40.283203125
-25.634765625
-15.56396484375
-12.8173828125
-7.32421875
4.57763671875
-5.4931640625
-21.05712890625
-10.07080078125
-5.4931640625
-17.39501953125
-8.23974609375
0.91552734375
14.6484375
17.39501953125
29.296875
19.22607421875
5.4931640625
7.32421875
6.40869140625
10.986328125
8.23974609375
17.39501953125
17.39501953125
12.8173828125
24.71923828125
44.86083984375
48.52294921875
53.1005859375
61.34033203125
67.7490234375
60.4248046875
44.86083984375
44.86083984375
33.87451171875
47.607421875
42.1142578125
53.1005859375
57.67822265625
55.84716796875
70.49560546875
70.49560546875
71.4111328125
76.904296875
100.7080078125
109.86328125
119.0185546875
109.86328125
113.525390625
108.0322265625
112.60986328125
133.6669921875
140.07568359375
145.56884765625
128.173828125
162.04833984375
168.45703125
172.119140625
184.9365234375
192.2607421875
190.4296875
184.02099609375
185.85205078125
195.9228515625
177.6123046875
158.38623046875
172.119140625
188.5986328125
209.65576171875
216.97998046875
208.740234375
205.078125
205.99365234375
215.14892578125
227.05078125
217.8955078125
212.40234375
209.65576171875
213.31787109375
207.82470703125
209.65576171875
207.82470703125
200.50048828125
206.9091796875
201.416015625
191.34521484375
179.443359375
175.78125
168.45703125
157.470703125
140.9912109375
131.8359375
121.76513671875
110.77880859375
114.44091796875
116.27197265625
111.6943359375
107.11669921875
97.0458984375
77.81982421875
52.18505859375
41.19873046875
43.9453125
42.1142578125
41.19873046875
31.1279296875
25.634765625
5.4931640625
-4.57763671875
-17.39501953125
-14.6484375
-20.1416015625
-31.1279296875
-25.634765625
-29.296875
-36.62109375
-27.4658203125
-20.1416015625
-15.56396484375
-4.57763671875
-10.07080078125
-11.90185546875
-26.55029296875
-37.53662109375
-42.1142578125
-30.21240234375
-21.97265625
-29.296875
-32.958984375
-14.6484375
1.8310546875
16.4794921875
36.62109375
35.70556640625
16.4794921875
-17.39501953125
-55.84716796875
-83.31298828125
-90.63720703125
-66.83349609375
-24.71923828125
-11.90185546875
-9.1552734375
2.74658203125
1.8310546875
13.73291015625
-19.22607421875
-30.21240234375
-28.38134765625
-41.19873046875
-43.9453125
-36.62109375
-49.4384765625
-20.1416015625
-24.71923828125
-23.8037109375
-12.8173828125
-3.662109375
-9.1552734375
-8.23974609375
0
-5.4931640625
-13.73291015625
-15.56396484375
-10.07080078125
-14.6484375
-22.88818359375
-9.1552734375
-8.23974609375
-1.8310546875
-2.74658203125
-2.74658203125
-2.74658203125
-14.6484375
-11.90185546875
-12.8173828125
-18.310546875
-25.634765625
-28.38134765625
-28.38134765625
-21.97265625
-28.38134765625
-24.71923828125
-15.56396484375
-6.40869140625
-8.23974609375
16.4794921875
6.40869140625
-1.8310546875
-16.4794921875
-10.07080078125
-17.39501953125
-15.56396484375
-9.1552734375
-29.296875
-28.38134765625
-29.296875
-11.90185546875
-4.57763671875
13.73291015625
16.4794921875
41.19873046875
29.296875
43.02978515625
55.84716796875
54.01611328125
47.607421875
31.1279296875
47.607421875
66.83349609375
90.63720703125
86.97509765625
82.3974609375
83.31298828125
76.904296875
76.904296875
81.48193359375
71.4111328125
62.255859375
92.46826171875
114.44091796875
114.44091796875
109.86328125
89.7216796875
75.0732421875
83.31298828125
82.3974609375
66.83349609375
45.7763671875
28.38134765625
26.55029296875
20.1416015625
3.662109375
11.90185546875
-10.07080078125
-31.1279296875
-36.62109375
-31.1279296875
-25.634765625
-19.22607421875
-23.8037109375
-29.296875
-20.1416015625
-47.607421875
-67.7490234375
-59.50927734375
-53.1005859375
-59.50927734375
-56.7626953125
-68.66455078125
-78.7353515625
-101.62353515625
-107.11669921875
-91.552734375
-82.3974609375
-69.580078125
-65.91796875
-62.255859375
-57.67822265625
-62.255859375
-70.49560546875
-68.66455078125
-69.580078125
-77.81982421875
-81.48193359375
-74.15771484375
-75.0732421875
-81.48193359375
-71.4111328125
-73.2421875
-92.46826171875
-118.10302734375
-136.41357421875
-150.146484375
-120.849609375
-96.13037109375
-41.19873046875
31.1279296875
102.5390625
180.35888671875
253.60107421875
350.64697265625
509.033203125
698.54736328125
822.1435546875
879.82177734375
835.87646484375
684.814453125
460.51025390625
240.78369140625
21.05712890625
-168.45703125
-301.20849609375
-417.48046875
-493.46923828125
-484.31396484375
-471.49658203125
-442.19970703125
-441.2841796875
-406.494140625
-349.7314453125
-288.39111328125
-235.29052734375
-181.2744140625
-123.59619140625
-96.13037109375
-73.2421875
-71.4111328125
-69.580078125
-55.84716796875
-13.73291015625
-2.74658203125
9.1552734375
19.22607421875
2.74658203125
-23.8037109375
-43.02978515625
-38.4521484375
-39.36767578125
-51.26953125
-32.958984375
-26.55029296875
-33.87451171875
-36.62109375
-29.296875
-35.70556640625
-26.55029296875
-13.73291015625
-14.6484375
-10.07080078125
0.91552734375
5.4931640625
-7.32421875
-19.22607421875
-15.56396484375
-2.74658203125
14.6484375
12.8173828125
21.97265625
28.38134765625
43.9453125
30.21240234375
44.86083984375
44.86083984375
39.36767578125
25.634765625
20.1416015625
25.634765625
27.4658203125
33.87451171875
31.1279296875
38.4521484375
43.9453125
44.86083984375
60.4248046875
54.931640625
55.84716796875
60.4248046875
71.4111328125
81.48193359375
81.48193359375
97.0458984375
104.3701171875
110.77880859375
105.28564453125
105.28564453125
113.525390625
115.3564453125
120.849609375
141.90673828125
150.146484375
150.146484375
148.3154296875
173.03466796875
158.38623046875
156.55517578125
159.3017578125
173.9501953125
190.4296875
186.767578125
199.5849609375
217.8955078125
208.740234375
204.16259765625
193.17626953125
200.50048828125
187.68310546875
180.35888671875
188.5986328125
200.50048828125
201.416015625
208.740234375
210.5712890625
208.740234375
200.50048828125
188.5986328125
182.18994140625
173.9501953125
168.45703125
160.21728515625
162.04833984375
164.794921875
151.9775390625
154.72412109375
158.38623046875
130.92041015625
116.27197265625
116.27197265625
112.60986328125
96.13037109375
90.63720703125
86.0595703125
71.4111328125
62.255859375
65.00244140625
62.255859375
49.4384765625
22.88818359375
8.23974609375
2.74658203125
7.32421875
1.8310546875
-6.40869140625
-10.986328125
-13.73291015625
-12.8173828125
-18.310546875
-15.56396484375
-4.57763671875
8.23974609375
4.57763671875
10.986328125
-6.40869140625
-3.662109375
-9.1552734375
-39.36767578125
-55.84716796875
-58.59375
-62.255859375
-65.00244140625
-64.0869140625
-49.4384765625
-37.53662109375
-35.70556640625
-19.22607421875
-38.4521484375
-47.607421875
-42.1142578125
-39.36767578125
-30.21240234375
-28.38134765625
-31.1279296875
-32.04345703125
-23.8037109375
-20.1416015625
-15.56396484375
-17.39501953125
-10.986328125
-14.6484375
-19.22607421875
-23.8037109375
-19.22607421875
-4.57763671875
-1.8310546875
-26.55029296875
-13.73291015625
-18.310546875
-22.88818359375
-16.4794921875
-12.8173828125
-18.310546875
-19.22607421875
-20.1416015625
-24.71923828125
-9.1552734375
-1.8310546875
-4.57763671875
-5.4931640625
-12.8173828125
-0.91552734375
1.8310546875
7.32421875
-7.32421875
-11.90185546875
-0.91552734375
0
-5.4931640625
5.4931640625
10.07080078125
6.40869140625
-4.57763671875
-11.90185546875
-20.1416015625
-21.05712890625
-8.23974609375
-20.1416015625
-16.4794921875
-1.8310546875
-5.4931640625
-3.662109375
-2.74658203125
5.4931640625
16.4794921875
12.8173828125
27.4658203125
29.296875
13.73291015625
19.22607421875
26.55029296875
28.38134765625
46.69189453125
67.7490234375
79.65087890625
86.0595703125
96.13037109375
102.5390625
108.94775390625
101.62353515625
88.80615234375
84.228515625
99.79248046875
88.80615234375
85.14404296875
93.3837890625
95.21484375
103.45458984375
92.46826171875
95.21484375
95.21484375
80.56640625
73.2421875
52.18505859375
28.38134765625
18.310546875
21.97265625
21.97265625
8.23974609375
6.40869140625
0
-12.8173828125
-18.310546875
-44.86083984375
-46.69189453125
-43.9453125
-50.35400390625
-58.59375
-59.50927734375
-66.83349609375
-74.15771484375
-65.91796875
-69.580078125
-60.4248046875
-52.18505859375
-55.84716796875
-51.26953125
-54.931640625
-67.7490234375
-82.3974609375
-81.48193359375
-73.2421875
-61.34033203125
-69.580078125
-82.3974609375
-83.31298828125
-74.15771484375
-57.67822265625
-72.32666015625
-81.48193359375
-84.228515625
-84.228515625
-67.7490234375
-78.7353515625
-86.97509765625
-74.15771484375
-80.56640625
-94.29931640625
-108.94775390625
-111.6943359375
-101.62353515625
-58.59375
0
71.4111328125
140.9912109375
216.97998046875
272.8271484375
371.7041015625
531.92138671875
682.9833984375
803.8330078125
829.4677734375
727.84423828125
574.03564453125
354.30908203125
140.07568359375
-27.4658203125
-174.86572265625
-298.4619140625
-414.73388671875
-465.087890625
-458.67919921875
-457.763671875
-448.6083984375
-446.77734375
-393.6767578125
-319.51904296875
-248.10791015625
-189.51416015625
-141.90673828125
-105.28564453125
-83.31298828125
-72.32666015625
-55.84716796875
-43.9453125
-32.04345703125
-52.18505859375
-53.1005859375
-40.283203125
-41.19873046875
-35.70556640625
-42.1142578125
-31.1279296875
-40.283203125
-48.52294921875
-41.19873046875
-41.19873046875
-32.04345703125
-33.87451171875
-29.296875
-15.56396484375
-10.07080078125
-3.662109375
-7.32421875
-10.986328125
-4.57763671875
-2.74658203125
-8.23974609375
-12.8173828125
-18.310546875
-2.74658203125
2.74658203125
1.8310546875
4.57763671875
8.23974609375
15.56396484375
11.90185546875
7.32421875
7.32421875
22.88818359375
25.634765625
13.73291015625
11.90185546875
14.6484375
13.73291015625
27.4658203125
24.71923828125
26.55029296875
21.05712890625
27.4658203125
36.62109375
49.4384765625
53.1005859375
54.01611328125
58.59375
57.67822265625
74.15771484375
83.31298828125
71.4111328125
89.7216796875
93.3837890625
79.65087890625
76.904296875
97.0458984375
102.5390625
89.7216796875
95.21484375
103.45458984375
118.10302734375
136.41357421875
142.822265625
151.06201171875
160.21728515625
161.1328125
162.9638671875
149.23095703125
166.6259765625
167.54150390625
172.119140625
167.54150390625
162.04833984375
156.55517578125
151.06201171875
143.73779296875
145.56884765625
136.41357421875
151.06201171875
151.06201171875
142.822265625
140.9912109375
150.146484375
151.06201171875
135.498046875
141.90673828125
132.75146484375
125.42724609375
131.8359375
117.1875
104.3701171875
95.21484375
79.65087890625
72.32666015625
72.32666015625
68.66455078125
54.931640625
37.53662109375
21.97265625
16.4794921875
22.88818359375
21.05712890625
21.05712890625
16.4794921875
6.40869140625
-0.91552734375
6.40869140625
6.40869140625
-25.634765625
-24.71923828125
-23.8037109375
-28.38134765625
-29.296875
-30.21240234375
-35.70556640625
-59.50927734375
-76.904296875
-56.7626953125
-46.69189453125
-47.607421875
-74.15771484375
-80.56640625
-82.3974609375
-74.15771484375
-70.49560546875
-77.81982421875
-73.2421875
-70.49560546875
-65.91796875
-76.904296875
-75.98876953125
-65.91796875
-78.7353515625
-65.91796875
-65.91796875
-74.15771484375
-93.3837890625
-83.31298828125
-77.81982421875
-73.2421875
-68.66455078125
-63.17138671875
-62.255859375
-74.15771484375
-73.2421875
-62.255859375
-56.7626953125
-65.91796875
-58.59375
-54.931640625
-55.84716796875
-44.86083984375
-45.7763671875
-38.4521484375
-50.35400390625
-41.19873046875
-36.62109375
-33.87451171875
-27.4658203125
-42.1142578125
-62.255859375
-62.255859375
-67.7490234375
-53.1005859375
-42.1142578125
-43.9453125
-51.26953125
-34.7900390625
-36.62109375
-50.35400390625
-54.01611328125
-52.18505859375
-49.4384765625
-54.01611328125
-60.4248046875
-64.0869140625
-51.26953125
-46.69189453125
-44.86083984375
-42.1142578125
-45.7763671875
-42.1142578125
-49.4384765625
-44.86083984375
-51.26953125
-57.67822265625
-53.1005859375
-37.53662109375
-43.02978515625
-44.86083984375
-59.50927734375
-56.7626953125
-43.9453125
-45.7763671875
-47.607421875
-30.21240234375
-19.22607421875
-16.4794921875
-28.38134765625
-25.634765625
2.74658203125
12.8173828125
0
-13.73291015625
-16.4794921875
-17.39501953125
-10.986328125
14.6484375
26.55029296875
41.19873046875
48.52294921875
54.01611328125
68.66455078125
80.56640625
67.7490234375
57.67822265625
59.50927734375
58.59375
62.255859375
61.34033203125
63.17138671875
54.931640625
55.84716796875
46.69189453125
38.4521484375
28.38134765625
0.91552734375
0
9.1552734375
-3.662109375
-14.6484375
-23.8037109375
-36.62109375
-54.01611328125
-51.26953125
-48.52294921875
-66.83349609375
-57.67822265625
-65.00244140625
-68.66455078125
-84.228515625
-90.63720703125
-89.7216796875
-96.13037109375
-83.31298828125
-90.63720703125
-85.14404296875
-79.65087890625
-98.876953125
-103.45458984375
-91.552734375
-99.79248046875
-102.5390625
-111.6943359375
-96.13037109375
-97.96142578125
-98.876953125
-114.44091796875
-115.3564453125
-105.28564453125
-102.5390625
-119.93408203125
-117.1875
-114.44091796875
-117.1875
-112.60986328125
-108.94775390625
-93.3837890625
-93.3837890625
-139.16015625
-131.8359375
-135.498046875
-147.39990234375
-129.08935546875
-86.97509765625
-29.296875
44.86083984375
123.59619140625
209.65576171875
303.03955078125
429.38232421875
579.52880859375
734.2529296875
814.8193359375
824.89013671875
680.23681640625
470.5810546875
258.1787109375
31.1279296875
-166.6259765625
-314.94140625
-379.0283203125
-447.69287109375
-496.2158203125
-506.28662109375
-506.28662109375
-549.31640625
-512.6953125
-437.6220703125
-361.63330078125
-273.74267578125
-205.078125
-176.69677734375
-140.07568359375
-130.0048828125
-130.0048828125
-130.92041015625
-103.45458984375
-96.13037109375
-94.29931640625
-86.97509765625
-91.552734375
-90.63720703125
-70.49560546875
-72.32666015625
-54.01611328125
-47.607421875
-69.580078125
-55.84716796875
-69.580078125
-72.32666015625
-59.50927734375
-62.255859375
-59.50927734375
-61.34033203125
-51.26953125
-54.01611328125
-55.84716796875
-53.1005859375
-68.66455078125
-62.255859375
-48.52294921875
-34.7900390625
-48.52294921875
-65.00244140625
-46.69189453125
-30.21240234375
-26.55029296875
-18.310546875
-8.23974609375
-10.986328125
-28.38134765625
-46.69189453125
-37.53662109375
-34.7900390625
-32.04345703125
-10.07080078125
-8.23974609375
-8.23974609375
-14.6484375
-12.8173828125
-5.4931640625
13.73291015625
-5.4931640625
1.8310546875
-6.40869140625
-7.32421875
0.91552734375
6.40869140625
2.74658203125
5.4931640625
21.97265625
35.70556640625
26.55029296875
44.86083984375
41.19873046875
56.7626953125
67.7490234375
65.91796875
88.80615234375
99.79248046875
96.13037109375
87.890625
106.201171875
112.60986328125
131.8359375
140.07568359375
153.80859375
149.23095703125
160.21728515625
159.3017578125
135.498046875
123.59619140625
132.75146484375
136.41357421875
142.822265625
132.75146484375
135.498046875
148.3154296875
137.3291015625
140.9912109375
149.23095703125
156.55517578125
172.119140625
147.39990234375
135.498046875
140.9912109375
114.44091796875
114.44091796875
99.79248046875
95.21484375
81.48193359375
66.83349609375
67.7490234375
49.4384765625
44.86083984375
39.36767578125
38.4521484375
34.7900390625
24.71923828125
11.90185546875
-0.91552734375
-7.32421875
-34.7900390625
-44.86083984375
-54.01611328125
-60.4248046875
-50.35400390625
-49.4384765625
-41.19873046875
-43.02978515625
-52.18505859375
-74.15771484375
-83.31298828125
-96.13037109375
-91.552734375
-92.46826171875
-80.56640625
-89.7216796875
-89.7216796875
-97.96142578125
-98.876953125
-106.201171875
-99.79248046875
-104.3701171875
-102.5390625
-133.6669921875
-133.6669921875
-121.76513671875
-135.498046875
-138.24462890625
-120.849609375
-130.92041015625
-132.75146484375
-118.10302734375
-110.77880859375
-119.0185546875
-113.525390625
-112.60986328125
-106.201171875
-116.27197265625
-116.27197265625
-98.876953125
-110.77880859375
-118.10302734375
-103.45458984375
-101.62353515625
-102.5390625
-93.3837890625
-77.81982421875
-89.7216796875
-86.0595703125
-85.14404296875
-90.63720703125
-82.3974609375
-91.552734375
-93.3837890625
-92.46826171875
-95.21484375
-86.0595703125
-94.29931640625
-88.80615234375
-69.580078125
-70.49560546875
-63.17138671875
-69.580078125
-75.98876953125
-77.81982421875
-88.80615234375
-88.80615234375
-86.97509765625
-91.552734375
-77.81982421875
-96.13037109375
-90.63720703125
-85.14404296875
-72.32666015625
-77.81982421875
-65.00244140625
-62.255859375
-65.91796875
-65.00244140625
-77.81982421875
-75.98876953125
-76.904296875
-54.01611328125
-67.7490234375
-57.67822265625
-67.7490234375
-75.98876953125
-85.14404296875
-99.79248046875
-86.97509765625
-90.63720703125
-94.29931640625
-88.80615234375
-77.81982421875
-83.31298828125
-90.63720703125
-92.46826171875
-71.4111328125
-73.2421875
-68.66455078125
-46.69189453125
-40.283203125
-43.02978515625
-36.62109375
-37.53662109375
-45.7763671875
-38.4521484375
-45.7763671875
-38.4521484375
-33.87451171875
-10.07080078125
10.986328125
27.4658203125
35.70556640625
37.53662109375
39.36767578125
32.04345703125
32.958984375
22.88818359375
18.310546875
17.39501953125
20.1416015625
28.38134765625
22.88818359375
14.6484375
31.1279296875
13.73291015625
5.4931640625
1.8310546875
2.74658203125
-8.23974609375
-18.310546875
-19.22607421875
-19.22607421875
-41.19873046875
-58.59375
-60.4248046875
-65.91796875
-73.2421875
-80.56640625
-90.63720703125
-102.5390625
-102.5390625
-102.5390625
-112.60986328125
-105.28564453125
-99.79248046875
-90.63720703125
-119.0185546875
-123.59619140625
-116.27197265625
-107.11669921875
-114.44091796875
-132.75146484375
-130.92041015625
-138.24462890625
-136.41357421875
-130.0048828125
-126.3427734375
-134.58251953125
-135.498046875
-130.0048828125
-131.8359375
-131.8359375
-138.24462890625
-133.6669921875
-132.75146484375
-133.6669921875
-133.6669921875
-152.89306640625
-158.38623046875
-148.3154296875
-161.1328125
-168.45703125
-171.20361328125
-176.69677734375
-169.37255859375
-157.470703125
-149.23095703125
-103.45458984375
-32.958984375
28.38134765625
117.1875
196.83837890625
294.7998046875
440.36865234375
596.923828125
738.83056640625
815.73486328125
777.28271484375
612.48779296875
421.142578125
224.30419921875
35.70556640625
-200.50048828125
-324.0966796875
-433.9599609375
-511.77978515625
-553.89404296875
-556.640625
-547.4853515625
-528.25927734375
-469.66552734375
-392.76123046875
-334.16748046875
-263.671875
-210.5712890625
-158.38623046875
-138.24462890625
-124.51171875
-96.13037109375
-92.46826171875
-97.0458984375
-87.890625
-87.890625
-99.79248046875
-94.29931640625
-85.14404296875
-76.904296875
-81.48193359375
-75.98876953125
-54.931640625
-62.255859375
-80.56640625
-84.228515625
-90.63720703125
-78.7353515625
-75.98876953125
-89.7216796875
-90.63720703125
-78.7353515625
-76.904296875
-76.904296875
-68.66455078125
-47.607421875
-53.1005859375
-57.67822265625
-54.931640625
-45.7763671875
-33.87451171875
-32.04345703125
-35.70556640625
-32.04345703125
-36.62109375
-41.19873046875
-38.4521484375
-42.1142578125
-40.283203125
-38.4521484375
-38.4521484375
-31.1279296875
-26.55029296875
-17.39501953125
-8.23974609375
-10.986328125
0
5.4931640625
17.39501953125
17.39501953125
10.07080078125
22.88818359375
32.958984375
38.4521484375
40.283203125
37.53662109375
51.26953125
48.52294921875
46.69189453125
47.607421875
73.2421875
69.580078125
79.65087890625
75.0732421875
80.56640625
91.552734375
93.3837890625
108.94775390625
107.11669921875
118.10302734375
131.8359375
143.73779296875
146.484375
152.89306640625
149.23095703125
156.55517578125
158.38623046875
159.3017578125
166.6259765625
169.37255859375
165.71044921875
164.794921875
165.71044921875
168.45703125
166.6259765625
170.2880859375
173.03466796875
162.9638671875
164.794921875
167.54150390625
175.78125
186.767578125
172.119140625
159.3017578125
128.173828125
109.86328125
103.45458984375
97.0458984375
89.7216796875
81.48193359375
62.255859375
58.59375
50.35400390625
43.02978515625
32.958984375
31.1279296875
21.05712890625
1.8310546875
-14.6484375
-16.4794921875
-25.634765625
-31.1279296875
-46.69189453125
-59.50927734375
-65.00244140625
-63.17138671875
-53.1005859375
-54.01611328125
-54.931640625
-54.01611328125
-61.34033203125
-70.49560546875
-75.98876953125
-96.13037109375
-99.79248046875
-101.62353515625
-96.13037109375
-87.890625
-96.13037109375
-107.11669921875
-100.7080078125
-111.6943359375
-108.0322265625
-116.27197265625
-118.10302734375
-106.201171875
-106.201171875
-112.60986328125
-114.44091796875
-114.44091796875
-92.46826171875
-97.96142578125
-103.45458984375
-99.79248046875
-92.46826171875
-105.28564453125
-111.6943359375
-104.3701171875
-104.3701171875
-112.60986328125
-120.849609375
-112.60986328125
-101.62353515625
-101.62353515625
-103.45458984375
-97.96142578125
-102.5390625
-117.1875
-96.13037109375
-90.63720703125
-88.80615234375
-94.29931640625
-83.31298828125
-84.228515625
-77.81982421875
-72.32666015625
-66.83349609375
-87.890625
-75.98876953125
-76.904296875
-76.904296875
-60.4248046875
-75.0732421875
-66.83349609375
-76.904296875
-84.228515625
-73.2421875
-75.98876953125
-72.32666015625
-72.32666015625
-79.65087890625
-78.7353515625
-69.580078125
-66.83349609375
-66.83349609375
-77.81982421875
-78.7353515625
-72.32666015625
-81.48193359375
-87.890625
-82.3974609375
-91.552734375
-86.97509765625
-84.228515625
-76.904296875
-73.2421875
-68.66455078125
-65.00244140625
-64.0869140625
-72.32666015625
-77.81982421875
-83.31298828125
-90.63720703125
-92.46826171875
-86.0595703125
-89.7216796875
-92.46826171875
-101.62353515625
-106.201171875
-117.1875
-112.60986328125
-89.7216796875
-94.29931640625
-92.46826171875
-85.14404296875
-70.49560546875
-70.49560546875
-57.67822265625
-52.18505859375
-47.607421875
-46.69189453125
-50.35400390625
-43.02978515625
-53.1005859375
-54.931640625
-41.19873046875
-35.70556640625
-16.4794921875
3.662109375
21.05712890625
32.04345703125
25.634765625
32.958984375
50.35400390625
26.55029296875
10.986328125
13.73291015625
25.634765625
30.21240234375
30.21240234375
29.296875
16.4794921875
14.6484375
-2.74658203125
-10.07080078125
-20.1416015625
-33.87451171875
-32.04345703125
-43.9453125
-43.02978515625
-59.50927734375
-68.66455078125
-57.67822265625
-71.4111328125
-77.81982421875
-80.56640625
-92.46826171875
-92.46826171875
-105.28564453125
-121.76513671875
-130.92041015625
-142.822265625
-143.73779296875
-139.16015625
-140.9912109375
-140.9912109375
-138.24462890625
-130.0048828125
-119.0185546875
-125.42724609375
-116.27197265625
-119.93408203125
-112.60986328125
-129.08935546875
-142.822265625
-134.58251953125
-135.498046875
-138.24462890625
-152.89306640625
-151.06201171875
-134.58251953125
-125.42724609375
-121.76513671875
-111.6943359375
-119.93408203125
-132.75146484375
-138.24462890625
-143.73779296875
-162.04833984375
-175.78125
-183.10546875
-199.5849609375
-196.83837890625
-165.71044921875
-114.44091796875
-45.7763671875
16.4794921875
104.3701171875
176.69677734375
286.56005859375
436.70654296875
599.67041015625
738.83056640625
830.38330078125
791.93115234375
665.58837890625
466.00341796875
251.77001953125
51.26953125
-173.03466796875
-314.02587890625
-418.39599609375
-501.708984375
-540.1611328125
-546.56982421875
-538.330078125
-523.681640625
-479.736328125
-401.91650390625
-332.33642578125
-259.09423828125
-184.9365234375
-160.21728515625
-135.498046875
-110.77880859375
-86.0595703125
-85.14404296875
-94.29931640625
-86.97509765625
-91.552734375
-93.3837890625
-86.97509765625
-75.98876953125
-75.0732421875
-77.81982421875
-74.15771484375
-68.66455078125
-66.83349609375
-65.91796875
-62.255859375
-59.50927734375
-52.18505859375
-48.52294921875
-51.26953125
-58.59375
-54.01611328125
-58.59375
-65.91796875
-65.91796875
-72.32666015625
-62.255859375
-80.56640625
-78.7353515625
-67.7490234375
-61.34033203125
-60.4248046875
-45.7763671875
-22.88818359375
-25.634765625
-35.70556640625
-27.4658203125
-28.38134765625
-21.97265625
-18.310546875
-14.6484375
-13.73291015625
-17.39501953125
-9.1552734375
-17.39501953125
-2.74658203125
7.32421875
5.4931640625
14.6484375
23.8037109375
37.53662109375
45.7763671875
42.1142578125
49.4384765625
48.52294921875
46.69189453125
49.4384765625
43.9453125
55.84716796875
65.00244140625
59.50927734375
73.2421875
85.14404296875
92.46826171875
112.60986328125
119.0185546875
125.42724609375
122.6806640625
107.11669921875
109.86328125
115.3564453125
142.822265625
151.9775390625
157.470703125
177.6123046875
188.5986328125
187.68310546875
178.52783203125
174.86572265625
176.69677734375
173.03466796875
173.03466796875
178.52783203125
187.68310546875
191.34521484375
191.34521484375
174.86572265625
184.02099609375
182.18994140625
182.18994140625
169.37255859375
173.03466796875
157.470703125
147.39990234375
156.55517578125
145.56884765625
140.9912109375
129.08935546875
123.59619140625
115.3564453125
104.3701171875
98.876953125
79.65087890625
61.34033203125
55.84716796875
43.9453125
36.62109375
21.97265625
23.8037109375
10.986328125
0.91552734375
-2.74658203125
-13.73291015625
-16.4794921875
-16.4794921875
-35.70556640625
-43.9453125
-44.86083984375
-54.931640625
-41.19873046875
-46.69189453125
-51.26953125
-61.34033203125
-59.50927734375
-63.17138671875
-65.00244140625
-75.98876953125
-75.0732421875
-67.7490234375
-59.50927734375
-61.34033203125
-78.7353515625
-78.7353515625
-76.904296875
-79.65087890625
-91.552734375
-98.876953125
-94.29931640625
-77.81982421875
-73.2421875
-75.98876953125
-71.4111328125
-75.98876953125
-85.14404296875
-96.13037109375
-82.3974609375
-73.2421875
-78.7353515625
-81.48193359375
-79.65087890625
-80.56640625
-85.14404296875
-73.2421875
-74.15771484375
-75.0732421875
-72.32666015625
-65.00244140625
-58.59375
-60.4248046875
-58.59375
-71.4111328125
-79.65087890625
-67.7490234375
-54.931640625
-60.4248046875
-64.0869140625
-48.52294921875
-51.26953125
-61.34033203125
-54.01611328125
-60.4248046875
-50.35400390625
-43.9453125
-46.69189453125
-48.52294921875
-45.7763671875
-49.4384765625
-56.7626953125
-48.52294921875
-43.9453125
-41.19873046875
-42.1142578125
-44.86083984375
-54.01611328125
-46.69189453125
-48.52294921875
-39.36767578125
-40.283203125
-38.4521484375
-37.53662109375
-40.283203125
-48.52294921875
-58.59375
-54.01611328125
-53.1005859375
-60.4248046875
-54.01611328125
-54.931640625
-44.86083984375
-35.70556640625
-44.86083984375
-51.26953125
-50.35400390625
-62.255859375
-56.7626953125
-54.931640625
-47.607421875
-69.580078125
-62.255859375
-43.9453125
-48.52294921875
-55.84716796875
-65.91796875
-83.31298828125
-79.65087890625
-78.7353515625
-84.228515625
-72.32666015625
-74.15771484375
-74.15771484375
-70.49560546875
-50.35400390625
-32.04345703125
-28.38134765625
-22.88818359375
-17.39501953125
-19.22607421875
-14.6484375
-11.90185546875
-2.74658203125
-5.4931640625
17.39501953125
25.634765625
35.70556640625
38.4521484375
46.69189453125
43.9453125
57.67822265625
56.7626953125
65.91796875
70.49560546875
56.7626953125
60.4248046875
77.81982421875
86.97509765625
95.21484375
84.228515625
73.2421875
69.580078125
56.7626953125
39.36767578125
6.40869140625
-10.07080078125
-10.07080078125
-11.90185546875
-10.986328125
-27.4658203125
-47.607421875
-62.255859375
-68.66455078125
-46.69189453125
-60.4248046875
-67.7490234375
-80.56640625
-80.56640625
-96.13037109375
-88.80615234375
-94.29931640625
-83.31298828125
-93.3837890625
-96.13037109375
-87.890625
-85.14404296875
-88.80615234375
-85.14404296875
-102.5390625
-97.96142578125
-87.890625
-82.3974609375
-86.97509765625
-100.7080078125
-99.79248046875
-101.62353515625
-97.96142578125
-99.79248046875
-98.876953125
-94.29931640625
-95.21484375
-97.96142578125
-93.3837890625
-95.21484375
-95.21484375
-94.29931640625
-108.94775390625
-119.0185546875
-126.3427734375
-151.06201171875
-150.146484375
-126.3427734375
-91.552734375
-38.4521484375
37.53662109375
97.96142578125
193.17626953125
249.0234375
367.12646484375
524.59716796875
687.56103515625
809.326171875
852.35595703125
771.78955078125
616.14990234375
392.76123046875
191.34521484375
-4.57763671875
-185.85205078125
-299.37744140625
-408.3251953125
-466.9189453125
-487.97607421875
-489.80712890625
-477.9052734375
-475.15869140625
-426.6357421875
-340.576171875
-263.671875
-192.2607421875
-134.58251953125
-107.11669921875
-86.97509765625
-65.91796875
-66.83349609375
-63.17138671875
-47.607421875
-51.26953125
-42.1142578125
-40.283203125
-52.18505859375
-52.18505859375
-52.18505859375
-54.931640625
-44.86083984375
-43.02978515625
-49.4384765625
-54.931640625
-48.52294921875
-40.283203125
-30.21240234375
-20.1416015625
-27.4658203125
-39.36767578125
-42.1142578125
-26.55029296875
-24.71923828125
-14.6484375
-10.07080078125
-19.22607421875
-21.97265625
-16.4794921875
-11.90185546875
-9.1552734375
-10.07080078125
-8.23974609375
3.662109375
-7.32421875
-17.39501953125
2.74658203125
3.662109375
-0.91552734375
5.4931640625
15.56396484375
15.56396484375
34.7900390625
31.1279296875
32.04345703125
30.21240234375
36.62109375
41.19873046875
59.50927734375
59.50927734375
61.34033203125
48.52294921875
56.7626953125
57.67822265625
51.26953125
57.67822265625
81.48193359375
89.7216796875
86.0595703125
88.80615234375
92.46826171875
97.96142578125
95.21484375
116.27197265625
137.3291015625
136.41357421875
138.24462890625
144.6533203125
144.6533203125
156.55517578125
157.470703125
160.21728515625
164.794921875
165.71044921875
179.443359375
173.9501953125
164.794921875
172.119140625
186.767578125
183.10546875
188.5986328125
184.9365234375
187.68310546875
189.51416015625
188.5986328125
192.2607421875
189.51416015625
184.02099609375
184.02099609375
194.091796875
184.02099609375
184.02099609375
181.2744140625
173.03466796875
170.2880859375
151.9775390625
140.07568359375
128.173828125
124.51171875
118.10302734375
106.201171875
87.890625
70.49560546875
70.49560546875
54.931640625
42.1142578125
43.9453125
46.69189453125
41.19873046875
23.8037109375
21.05712890625
9.1552734375
20.1416015625
13.73291015625
-1.8310546875
-15.56396484375
-20.1416015625
-27.4658203125
-38.4521484375
-54.01611328125
-51.26953125
-52.18505859375
-61.34033203125
-59.50927734375
-52.18505859375
-49.4384765625
-46.69189453125
-57.67822265625
-45.7763671875
-51.26953125
-65.91796875
-67.7490234375
-75.0732421875
-61.34033203125
-45.7763671875
-62.255859375
-57.67822265625
-73.2421875
-85.14404296875
-78.7353515625
-82.3974609375
-75.98876953125
-82.3974609375
-78.7353515625
-75.98876953125
-80.56640625
-87.890625
-77.81982421875
-68.66455078125
-77.81982421875
-65.00244140625
-63.17138671875
-66.83349609375
-78.7353515625
-72.32666015625
-56.7626953125
-64.0869140625
-62.255859375
-57.67822265625
-47.607421875
-50.35400390625
-48.52294921875
-62.255859375
-60.4248046875
-62.255859375
-62.255859375
-48.52294921875
-46.69189453125
-35.70556640625
-38.4521484375
-40.283203125
-39.36767578125
-54.01611328125
-48.52294921875
-67.7490234375
-47.607421875
-57.67822265625
-56.7626953125
-36.62109375
-24.71923828125
-30.21240234375
-42.1142578125
-41.19873046875
-38.4521484375
-26.55029296875
-15.56396484375
-25.634765625
-17.39501953125
-28.38134765625
-43.02978515625
-59.50927734375
-65.91796875
-66.83349609375
-65.00244140625
-75.0732421875
-65.91796875
-54.01611328125
-57.67822265625
-42.1142578125
-35.70556640625
-35.70556640625
-51.26953125
-51.26953125
-51.26953125
-46.69189453125
-46.69189453125
-56.7626953125
-56.7626953125
-57.67822265625
-59.50927734375
-54.931640625
-44.86083984375
-35.70556640625
-41.19873046875
-30.21240234375
-12.8173828125
-13.73291015625
-3.662109375
-6.40869140625
-11.90185546875
-0.91552734375
20.1416015625
29.296875
38.4521484375
52.18505859375
54.931640625
63.17138671875
69.580078125
76.904296875
77.81982421875
73.2421875
67.7490234375
65.00244140625
71.4111328125
74.15771484375
68.66455078125
57.67822265625
58.59375
46.69189453125
41.19873046875
25.634765625
10.07080078125
-7.32421875
-10.07080078125
-23.8037109375
-40.283203125
-44.86083984375
-40.283203125
-34.7900390625
-24.71923828125
-32.04345703125
-54.01611328125
-62.255859375
-52.18505859375
-74.15771484375
-90.63720703125
-76.904296875
-70.49560546875
-84.228515625
-86.0595703125
-104.3701171875
-103.45458984375
-100.7080078125
-113.525390625
-105.28564453125
-94.29931640625
-106.201171875
-98.876953125
-89.7216796875
-103.45458984375
-90.63720703125
-90.63720703125
-106.201171875
-111.6943359375
-111.6943359375
-107.11669921875
-119.93408203125
-116.27197265625
-114.44091796875
-104.3701171875
-99.79248046875
-103.45458984375
-113.525390625
-120.849609375
-128.173828125
-127.25830078125
-134.58251953125
-147.39990234375
-140.07568359375
-121.76513671875
-77.81982421875
-18.310546875
31.1279296875
109.86328125
179.443359375
258.1787109375
400.08544921875
576.7822265625
723.2666015625
809.326171875
775.45166015625
656.43310546875
471.49658203125
272.8271484375
79.65087890625
-102.5390625
-248.10791015625
-362.548828125
-442.19970703125
-486.14501953125
-501.708984375
-498.96240234375
-487.060546875
-464.17236328125
-406.494140625
-332.33642578125
-260.92529296875
-182.18994140625
-136.41357421875
-102.5390625
-75.98876953125
-76.904296875
-75.0732421875
-71.4111328125
-73.2421875
-79.65087890625
-77.81982421875
-76.904296875
-83.31298828125
-68.66455078125
-59.50927734375
-54.01611328125
-46.69189453125
-40.283203125
-42.1142578125
-49.4384765625
-49.4384765625
-47.607421875
-53.1005859375
-39.36767578125
-43.9453125
-41.19873046875
-30.21240234375
-34.7900390625
-31.1279296875
-33.87451171875
-33.87451171875
-36.62109375
-43.02978515625
-28.38134765625
-13.73291015625
-15.56396484375
-11.90185546875
-17.39501953125
-14.6484375
-10.986328125
-8.23974609375
-10.07080078125
-5.4931640625
3.662109375
8.23974609375
5.4931640625
14.6484375
12.8173828125
12.8173828125
11.90185546875
21.97265625
38.4521484375
25.634765625
30.21240234375
32.958984375
39.36767578125
29.296875
32.958984375
46.69189453125
53.1005859375
57.67822265625
67.7490234375
78.7353515625
77.81982421875
78.7353515625
88.80615234375
97.96142578125
97.0458984375
94.29931640625
108.94775390625
118.10302734375
132.75146484375
125.42724609375
130.0048828125
144.6533203125
133.6669921875
148.3154296875
145.56884765625
159.3017578125
161.1328125
161.1328125
172.119140625
164.794921875
159.3017578125
167.54150390625
162.04833984375
177.6123046875
181.2744140625
180.35888671875
177.6123046875
168.45703125
171.20361328125
173.9501953125
169.37255859375
170.2880859375
157.470703125
155.6396484375
151.06201171875
146.484375
132.75146484375
126.3427734375
112.60986328125
109.86328125
106.201171875
105.28564453125
87.890625
75.98876953125
68.66455078125
52.18505859375
53.1005859375
48.52294921875
26.55029296875
24.71923828125
21.97265625
20.1416015625
9.1552734375
0
-13.73291015625
-14.6484375
-15.56396484375
-29.296875
-37.53662109375
-23.8037109375
-31.1279296875
-52.18505859375
-57.67822265625
-60.4248046875
-58.59375
-55.84716796875
-62.255859375
-61.34033203125
-54.931640625
-62.255859375
-59.50927734375
-73.2421875
-53.1005859375
-65.91796875
-71.4111328125
-74.15771484375
-75.98876953125
-69.580078125
-65.91796875
-68.66455078125
-70.49560546875
-69.580078125
-88.80615234375
-83.31298828125
-76.904296875
-79.65087890625
-80.56640625
-80.56640625
-75.0732421875
-75.98876953125
-77.81982421875
-69.580078125
-70.49560546875
-67.7490234375
-69.580078125
-65.00244140625
-70.49560546875
-73.2421875
-59.50927734375
-54.01611328125
-61.34033203125
-65.00244140625
-65.91796875
-65.00244140625
-66.83349609375
-69.580078125
-56.7626953125
-52.18505859375
-41.19873046875
-41.19873046875
-32.958984375
-25.634765625
-36.62109375
-40.283203125
-46.69189453125
-44.86083984375
-40.283203125
-48.52294921875
-51.26953125
-43.02978515625
-43.9453125
-43.9453125
-49.4384765625
-47.607421875
-32.04345703125
-29.296875
-20.1416015625
-18.310546875
-18.310546875
-20.1416015625
-12.8173828125
-10.07080078125
-4.57763671875
-20.1416015625
-21.97265625
-27.4658203125
-46.69189453125
-44.86083984375
-54.931640625
-44.86083984375
-48.52294921875
-56.7626953125
-51.26953125
-55.84716796875
-54.01611328125
-57.67822265625
-61.34033203125
-60.4248046875
-62.255859375
-57.67822265625
-59.50927734375
-49.4384765625
-53.1005859375
-60.4248046875
-46.69189453125
-56.7626953125
-72.32666015625
-62.255859375
-46.69189453125
-57.67822265625
-53.1005859375
-35.70556640625
-37.53662109375
-32.04345703125
-19.22607421875
-8.23974609375
-0.91552734375
19.22607421875
14.6484375
16.4794921875
11.90185546875
15.56396484375
21.05712890625
27.4658203125
58.59375
53.1005859375
44.86083984375
50.35400390625
59.50927734375
62.255859375
76.904296875
75.98876953125
79.65087890625
87.890625
79.65087890625
75.98876953125
78.7353515625
65.91796875
55.84716796875
47.607421875
46.69189453125
30.21240234375
10.07080078125
-6.40869140625
-6.40869140625
3.662109375
-6.40869140625
-22.88818359375
-43.9453125
-40.283203125
-37.53662109375
-44.86083984375
-53.1005859375
-54.01611328125
-50.35400390625
-52.18505859375
-60.4248046875
-65.91796875
-77.81982421875
-71.4111328125
-65.91796875
-61.34033203125
-87.890625
-108.0322265625
-87.890625
-88.80615234375
-100.7080078125
-99.79248046875
-97.0458984375
-93.3837890625
-96.13037109375
-86.97509765625
-96.13037109375
-95.21484375
-90.63720703125
-96.13037109375
-102.5390625
-93.3837890625
-97.96142578125
-97.96142578125
-84.228515625
-80.56640625
-84.228515625
-93.3837890625
-97.96142578125
-106.201171875
-111.6943359375
-139.16015625
-135.498046875
-100.7080078125
-65.91796875
-21.05712890625
28.38134765625
100.7080078125
183.10546875
260.009765625
380.859375
531.005859375
693.9697265625
812.98828125
853.271484375
761.71875
563.96484375
368.0419921875
173.03466796875
-33.87451171875
-236.2060546875
-354.30908203125
-445.86181640625
-484.31396484375
-501.708984375
-505.37109375
-500.79345703125
-470.5810546875
-404.6630859375
-330.50537109375
-254.5166015625
-191.34521484375
-151.9775390625
-105.28564453125
-81.48193359375
-43.9453125
-33.87451171875
-40.283203125
-39.36767578125
-32.958984375
-45.7763671875
-52.18505859375
-51.26953125
-49.4384765625
-38.4521484375
-37.53662109375
-38.4521484375
-40.283203125
-41.19873046875
-24.71923828125
-27.4658203125
-24.71923828125
-27.4658203125
-23.8037109375
-8.23974609375
-14.6484375
-29.296875
-22.88818359375
-20.1416015625
-17.39501953125
-3.662109375
-6.40869140625
-10.986328125
-21.05712890625
-5.4931640625
7.32421875
-0.91552734375
-10.986328125
-8.23974609375
-3.662109375
12.8173828125
25.634765625
32.958984375
23.8037109375
27.4658203125
32.04345703125
27.4658203125
23.8037109375
23.8037109375
26.55029296875
37.53662109375
32.958984375
43.9453125
47.607421875
43.02978515625
63.17138671875
51.26953125
53.1005859375
65.91796875
66.83349609375
82.3974609375
81.48193359375
85.14404296875
94.29931640625
90.63720703125
93.3837890625
107.11669921875
108.94775390625
118.10302734375
131.8359375
139.16015625
140.9912109375
157.470703125
158.38623046875
153.80859375
159.3017578125
156.55517578125
158.38623046875
174.86572265625
191.34521484375
191.34521484375
205.99365234375
204.16259765625
202.33154296875
205.99365234375
215.14892578125
224.30419921875
232.5439453125
236.2060546875
237.12158203125
235.29052734375
245.361328125
216.97998046875
205.078125
205.99365234375
208.740234375
210.5712890625
197.75390625
199.5849609375
197.75390625
198.66943359375
184.9365234375
170.2880859375
152.89306640625
133.6669921875
128.173828125
114.44091796875
96.13037109375
98.876953125
85.14404296875
65.00244140625
54.931640625
41.19873046875
39.36767578125
37.53662109375
37.53662109375
32.958984375
21.97265625
11.90185546875
10.07080078125
0.91552734375
-21.97265625
-38.4521484375
-41.19873046875
-21.97265625
-32.958984375
-35.70556640625
-43.02978515625
-21.97265625
-30.21240234375
-35.70556640625
-26.55029296875
-24.71923828125
-25.634765625
-26.55029296875
-40.283203125
-44.86083984375
-43.02978515625
-50.35400390625
-56.7626953125
-57.67822265625
-54.931640625
-58.59375
-59.50927734375
-57.67822265625
-48.52294921875
-53.1005859375
-43.02978515625
-49.4384765625
-43.9453125
-29.296875
-42.1142578125
-43.02978515625
-44.86083984375
-43.9453125
-51.26953125
-60.4248046875
-54.01611328125
-46.69189453125
-54.01611328125
-44.86083984375
-30.21240234375
-34.7900390625
-32.958984375
-31.1279296875
-25.634765625
-39.36767578125
-38.4521484375
-43.9453125
-42.1142578125
-38.4521484375
-31.1279296875
-30.21240234375
-27.4658203125
-15.56396484375
-14.6484375
-16.4794921875
-23.8037109375
-19.22607421875
-15.56396484375
-3.662109375
-2.74658203125
-7.32421875
-5.4931640625
-7.32421875
-8.23974609375
-18.310546875
-19.22607421875
-8.23974609375
-15.56396484375
-19.22607421875
-1.8310546875
2.74658203125
-8.23974609375
-10.07080078125
-6.40869140625
-12.8173828125
-30.21240234375
-22.88818359375
-23.8037109375
-21.97265625
-19.22607421875
-23.8037109375
-24.71923828125
-20.1416015625
-21.05712890625
-12.8173828125
-19.22607421875
-35.70556640625
-32.958984375
-35.70556640625
-41.19873046875
-27.4658203125
-26.55029296875
-24.71923828125
-23.8037109375
-26.55029296875
-28.38134765625
-37.53662109375
-30.21240234375
-42.1142578125
-45.7763671875
-46.69189453125
-47.607421875
-44.86083984375
-28.38134765625
-32.958984375
-25.634765625
-15.56396484375
-13.73291015625
-21.05712890625
-15.56396484375
0
13.73291015625
10.07080078125
8.23974609375
5.4931640625
5.4931640625
3.662109375
15.56396484375
10.07080078125
7.32421875
27.4658203125
49.4384765625
62.255859375
67.7490234375
85.14404296875
84.228515625
84.228515625
94.29931640625
98.876953125
89.7216796875
73.2421875
76.904296875
87.890625
84.228515625
75.0732421875
69.580078125
75.0732421875
71.4111328125
78.7353515625
64.0869140625
43.9453125
27.4658203125
7.32421875
-0.91552734375
-2.74658203125
-10.07080078125
-24.71923828125
-25.634765625
-27.4658203125
-31.1279296875
-32.958984375
-35.70556640625
-35.70556640625
-43.9453125
-39.36767578125
-59.50927734375
-74.15771484375
-73.2421875
-68.66455078125
-71.4111328125
-64.0869140625
-64.0869140625
-59.50927734375
-50.35400390625
-55.84716796875
-57.67822265625
-52.18505859375
-58.59375
-64.0869140625
-65.00244140625
-83.31298828125
-80.56640625
-87.890625
-86.0595703125
-77.81982421875
-89.7216796875
-89.7216796875
-87.890625
-93.3837890625
-83.31298828125
-78.7353515625
-77.81982421875
-83.31298828125
-108.0322265625
-118.10302734375
-121.76513671875
-134.58251953125
-122.6806640625
-96.13037109375
-57.67822265625
-3.662109375
59.50927734375
140.07568359375
210.5712890625
304.87060546875
436.70654296875
621.64306640625
763.5498046875
859.68017578125
835.87646484375
708.6181640625
529.1748046875
324.0966796875
121.76513671875
-94.29931640625
-249.0234375
-373.53515625
-472.412109375
-503.5400390625
-498.046875
-478.82080078125
-464.17236328125
-431.21337890625
-357.97119140625
-275.57373046875
-208.740234375
-149.23095703125
-90.63720703125
-57.67822265625
-53.1005859375
-32.04345703125
-31.1279296875
-45.7763671875
-51.26953125
-55.84716796875
-46.69189453125
-39.36767578125
-36.62109375
-43.9453125
-32.958984375
-25.634765625
-11.90185546875
-5.4931640625
8.23974609375
-4.57763671875
-8.23974609375
-9.1552734375
-10.986328125
-10.07080078125
-31.1279296875
-25.634765625
-14.6484375
-16.4794921875
-8.23974609375
-2.74658203125
0.91552734375
8.23974609375
3.662109375
-0.91552734375
-2.74658203125
-0.91552734375
10.07080078125
7.32421875
10.07080078125
9.1552734375
28.38134765625
40.283203125
29.296875
22.88818359375
25.634765625
19.22607421875
31.1279296875
26.55029296875
41.19873046875
44.86083984375
43.9453125
54.931640625
63.17138671875
62.255859375
65.00244140625
73.2421875
72.32666015625
75.98876953125
81.48193359375
85.14404296875
89.7216796875
84.228515625
84.228515625
108.94775390625
113.525390625
116.27197265625
119.93408203125
123.59619140625
139.16015625
146.484375
148.3154296875
158.38623046875
176.69677734375
174.86572265625
176.69677734375
184.9365234375
190.4296875
196.83837890625
209.65576171875
216.064453125
209.65576171875
208.740234375
223.388671875
210.5712890625
198.66943359375
209.65576171875
215.14892578125
217.8955078125
233.45947265625
233.45947265625
228.8818359375
236.2060546875
238.95263671875
221.5576171875
221.5576171875
216.97998046875
202.33154296875
202.33154296875
213.31787109375
202.33154296875
191.34521484375
184.9365234375
174.86572265625
157.470703125
151.06201171875
142.822265625
117.1875
120.849609375
111.6943359375
99.79248046875
82.3974609375
75.98876953125
77.81982421875
54.01611328125
29.296875
25.634765625
16.4794921875
13.73291015625
8.23974609375
9.1552734375
0
1.8310546875
-0.91552734375
-9.1552734375
-15.56396484375
-19.22607421875
-21.97265625
-30.21240234375
-47.607421875
-32.958984375
-39.36767578125
-46.69189453125
-43.9453125
-30.21240234375
-43.02978515625
-41.19873046875
-43.02978515625
-42.1142578125
-31.1279296875
-38.4521484375
-44.86083984375
-41.19873046875
-43.9453125
-53.1005859375
-49.4384765625
-50.35400390625
-39.36767578125
-34.7900390625
-47.607421875
-46.69189453125
-35.70556640625
-37.53662109375
-43.9453125
-42.1142578125
-30.21240234375
-24.71923828125
-32.958984375
-43.02978515625
-41.19873046875
-32.04345703125
-33.87451171875
-32.04345703125
-32.04345703125
-21.05712890625
-21.97265625
-31.1279296875
-28.38134765625
-24.71923828125
-25.634765625
-27.4658203125
-21.97265625
-18.310546875
-17.39501953125
-14.6484375
-15.56396484375
-15.56396484375
0
9.1552734375
-3.662109375
5.4931640625
6.40869140625
0
-3.662109375
4.57763671875
2.74658203125
0.91552734375
11.90185546875
3.662109375
-6.40869140625
-3.662109375
0.91552734375
2.74658203125
7.32421875
11.90185546875
3.662109375
-6.40869140625
-14.6484375
-2.74658203125
-3.662109375
-30.21240234375
-21.97265625
-10.07080078125
-10.07080078125
-11.90185546875
-10.986328125
-9.1552734375
-20.1416015625
-16.4794921875
-16.4794921875
-18.310546875
-13.73291015625
-21.97265625
-27.4658203125
-19.22607421875
-12.8173828125
-21.05712890625
-11.90185546875
-7.32421875
-5.4931640625
-16.4794921875
-32.958984375
-27.4658203125
-30.21240234375
-27.4658203125
-27.4658203125
-38.4521484375
-30.21240234375
-16.4794921875
-15.56396484375
-22.88818359375
-20.1416015625
-7.32421875
-18.310546875
-21.05712890625
-20.1416015625
-27.4658203125
-24.71923828125
-24.71923828125
-17.39501953125
-4.57763671875
7.32421875
21.05712890625
29.296875
40.283203125
44.86083984375
28.38134765625
16.4794921875
11.90185546875
22.88818359375
37.53662109375
51.26953125
65.91796875
83.31298828125
96.13037109375
96.13037109375
97.96142578125
103.45458984375
102.5390625
109.86328125
103.45458984375
88.80615234375
94.29931640625
104.3701171875
107.11669921875
108.94775390625
91.552734375
84.228515625
67.7490234375
65.00244140625
46.69189453125
37.53662109375
30.21240234375
21.97265625
13.73291015625
0.91552734375
-7.32421875
-17.39501953125
-0.91552734375
17.39501953125
8.23974609375
-10.986328125
-18.310546875
-38.4521484375
-53.1005859375
-43.9453125
-43.02978515625
-53.1005859375
-60.4248046875
-58.59375
-54.931640625
-63.17138671875
-69.580078125
-65.91796875
-69.580078125
-67.7490234375
-57.67822265625
-56.7626953125
-41.19873046875
-37.53662109375
-45.7763671875
-54.01611328125
-66.83349609375
-65.91796875
-63.17138671875
-69.580078125
-54.931640625
-65.91796875
-60.4248046875
-68.66455078125
-76.904296875
-84.228515625
-74.15771484375
-82.3974609375
-95.21484375
-106.201171875
-119.0185546875
-105.28564453125
-55.84716796875
-11.90185546875
43.9453125
113.525390625
193.17626953125
249.0234375
374.45068359375
527.34375
695.80078125
812.98828125
874.32861328125
812.07275390625
654.60205078125
465.087890625
262.75634765625
43.02978515625
-151.9775390625
-282.89794921875
-381.77490234375
-450.439453125
-480.65185546875
-480.65185546875
-468.75
-443.115234375
-381.77490234375
-304.87060546875
-241.69921875
-182.18994140625
-130.0048828125
-87.890625
-44.86083984375
-24.71923828125
-8.23974609375
0.91552734375
-8.23974609375
-18.310546875
-26.55029296875
-29.296875
-20.1416015625
-12.8173828125
-11.90185546875
-4.57763671875
-8.23974609375
-10.986328125
-7.32421875
-14.6484375
-16.4794921875
-11.90185546875
-9.1552734375
8.23974609375
7.32421875
9.1552734375
24.71923828125
15.56396484375
10.07080078125
8.23974609375
6.40869140625
9.1552734375
10.07080078125
14.6484375
22.88818359375
24.71923828125
34.7900390625
43.9453125
43.02978515625
32.04345703125
32.04345703125
42.1142578125
42.1142578125
27.4658203125
30.21240234375
37.53662109375
38.4521484375
44.86083984375
38.4521484375
48.52294921875
55.84716796875
65.91796875
75.98876953125
80.56640625
96.13037109375
97.0458984375
96.13037109375
95.21484375
90.63720703125
99.79248046875
108.94775390625
105.28564453125
111.6943359375
143.73779296875
134.58251953125
133.6669921875
139.16015625
140.07568359375
150.146484375
169.37255859375
176.69677734375
175.78125
176.69677734375
193.17626953125
185.85205078125
180.35888671875
184.9365234375
206.9091796875
205.99365234375
222.47314453125
223.388671875
218.81103515625
221.5576171875
230.712890625
235.29052734375
249.0234375
239.8681640625
234.375
240.78369140625
238.95263671875
253.60107421875
255.43212890625
241.69921875
232.5439453125
230.712890625
230.712890625
227.05078125
230.712890625
223.388671875
221.5576171875
227.96630859375
216.97998046875
209.65576171875
198.66943359375
167.54150390625
148.3154296875
152.89306640625
156.55517578125
135.498046875
114.44091796875
105.28564453125
104.3701171875
95.21484375
86.97509765625
100.7080078125
80.56640625
64.0869140625
59.50927734375
67.7490234375
49.4384765625
27.4658203125
10.07080078125
13.73291015625
9.1552734375
1.8310546875
0
-4.57763671875
-11.90185546875
-12.8173828125
-9.1552734375
-4.57763671875
-6.40869140625
-6.40869140625
-17.39501953125
-14.6484375
-14.6484375
-21.05712890625
-21.97265625
-24.71923828125
-15.56396484375
-24.71923828125
-21.97265625
-26.55029296875
-31.1279296875
-28.38134765625
-25.634765625
-30.21240234375
-38.4521484375
-21.05712890625
-21.97265625
-21.97265625
-17.39501953125
-10.986328125
-7.32421875
-13.73291015625
-17.39501953125
-11.90185546875
-10.07080078125
-28.38134765625
-20.1416015625
-18.310546875
-13.73291015625
-6.40869140625
14.6484375
9.1552734375
5.4931640625
-13.73291015625
-10.07080078125
-1.8310546875
-3.662109375
-10.986328125
-15.56396484375
-2.74658203125
5.4931640625
9.1552734375
14.6484375
20.1416015625
9.1552734375
-12.8173828125
-4.57763671875
13.73291015625
15.56396484375
17.39501953125
10.07080078125
14.6484375
12.8173828125
19.22607421875
28.38134765625
5.4931640625
-8.23974609375
15.56396484375
10.07080078125
2.74658203125
4.57763671875
20.1416015625
17.39501953125
19.22607421875
16.4794921875
1.8310546875
4.57763671875
13.73291015625
15.56396484375
9.1552734375
6.40869140625
12.8173828125
3.662109375
-6.40869140625
-1.8310546875
-7.32421875
-12.8173828125
-3.662109375
3.662109375
2.74658203125
6.40869140625
9.1552734375
-2.74658203125
-8.23974609375
1.8310546875
-9.1552734375
-8.23974609375
-8.23974609375
-5.4931640625
-11.90185546875
-10.07080078125
-8.23974609375
-10.07080078125
-10.986328125
-7.32421875
-8.23974609375
-2.74658203125
-11.90185546875
-22.88818359375
-17.39501953125
-11.90185546875
-25.634765625
-19.22607421875
-6.40869140625
-11.90185546875
-5.4931640625
-22.88818359375
-26.55029296875
-25.634765625
-6.40869140625
-1.8310546875
5.4931640625
8.23974609375
10.986328125
34.7900390625
41.19873046875
41.19873046875
43.02978515625
42.1142578125
52.18505859375
41.19873046875
19.22607421875
36.62109375
48.52294921875
69.580078125
88.80615234375
108.0322265625
104.3701171875
108.0322265625
115.3564453125
125.42724609375
131.8359375
128.173828125
119.93408203125
102.5390625
108.94775390625
115.3564453125
116.27197265625
123.59619140625
102.5390625
91.552734375
94.29931640625
84.228515625
74.15771484375
58.59375
51.26953125
46.69189453125
43.9453125
28.38134765625
28.38134765625
21.97265625
8.23974609375
1.8310546875
-18.310546875
-19.22607421875
-10.07080078125
1.8310546875
-15.56396484375
-19.22607421875
-18.310546875
-35.70556640625
-38.4521484375
-28.38134765625
-28.38134765625
-31.1279296875
-27.4658203125
-26.55029296875
-43.9453125
-54.931640625
-59.50927734375
-60.4248046875
-43.9453125
-41.19873046875
-44.86083984375
-30.21240234375
-36.62109375
-48.52294921875
-38.4521484375
-27.4658203125
-63.17138671875
-68.66455078125
-78.7353515625
-75.0732421875
-60.4248046875
-75.98876953125
-67.7490234375
-58.59375
-68.66455078125
-85.14404296875
-85.14404296875
-65.00244140625
-28.38134765625
-5.4931640625
67.7490234375
118.10302734375
192.2607421875
253.60107421875
363.46435546875
530.09033203125
710.44921875
822.1435546875
903.62548828125
867.919921875
724.18212890625
533.75244140625
320.4345703125
119.93408203125
-98.876953125
-218.81103515625
-337.82958984375
-430.2978515625
-456.84814453125
-461.42578125
-447.69287109375
-428.466796875
-375.3662109375
-296.630859375
-224.30419921875
-151.9775390625
-97.0458984375
-60.4248046875
-40.283203125
-30.21240234375
-19.22607421875
-21.97265625
-9.1552734375
-6.40869140625
-4.57763671875
7.32421875
17.39501953125
13.73291015625
-2.74658203125
4.57763671875
-8.23974609375
20.1416015625
15.56396484375
7.32421875
6.40869140625
4.57763671875
5.4931640625
8.23974609375
-6.40869140625
16.4794921875
32.04345703125
38.4521484375
66.83349609375
51.26953125
47.607421875
32.04345703125
34.7900390625
42.1142578125
42.1142578125
24.71923828125
21.05712890625
32.958984375
47.607421875
57.67822265625
41.19873046875
38.4521484375
48.52294921875
53.1005859375
62.255859375
66.83349609375
60.4248046875
70.49560546875
75.98876953125
78.7353515625
80.56640625
88.80615234375
98.876953125
111.6943359375
104.3701171875
115.3564453125
108.94775390625
92.46826171875
104.3701171875
106.201171875
108.0322265625
130.92041015625
133.6669921875
142.822265625
139.16015625
140.07568359375
137.3291015625
143.73779296875
162.04833984375
160.21728515625
158.38623046875
164.794921875
175.78125
184.02099609375
213.31787109375
222.47314453125
230.712890625
224.30419921875
231.62841796875
228.8818359375
226.13525390625
216.97998046875
210.5712890625
211.48681640625
222.47314453125
240.78369140625
235.29052734375
249.0234375
254.5166015625
252.685546875
257.26318359375
261.8408203125
257.26318359375
236.2060546875
230.712890625
242.61474609375
237.12158203125
239.8681640625
249.0234375
238.037109375
229.79736328125
222.47314453125
201.416015625
182.18994140625
156.55517578125
156.55517578125
161.1328125
133.6669921875
127.25830078125
113.525390625
116.27197265625
128.173828125
121.76513671875
123.59619140625
113.525390625
91.552734375
77.81982421875
42.1142578125
47.607421875
54.931640625
50.35400390625
44.86083984375
43.9453125
40.283203125
24.71923828125
17.39501953125
23.8037109375
20.1416015625
17.39501953125
17.39501953125
27.4658203125
29.296875
28.38134765625
20.1416015625
0
-15.56396484375
-11.90185546875
-11.90185546875
-9.1552734375
10.07080078125
4.57763671875
3.662109375
0.91552734375
-15.56396484375
-18.310546875
-20.1416015625
-3.662109375
0.91552734375
-6.40869140625
7.32421875
10.07080078125
-21.97265625
-29.296875
-0.91552734375
-1.8310546875
0
-5.4931640625
-9.1552734375
1.8310546875
6.40869140625
-6.40869140625
6.40869140625
11.90185546875
10.07080078125
10.07080078125
29.296875
21.05712890625
9.1552734375
9.1552734375
10.07080078125
20.1416015625
28.38134765625
24.71923828125
15.56396484375
17.39501953125
23.8037109375
29.296875
21.05712890625
35.70556640625
17.39501953125
14.6484375
21.05712890625
19.22607421875
25.634765625
28.38134765625
17.39501953125
30.21240234375
12.8173828125
11.90185546875
22.88818359375
18.310546875
8.23974609375
9.1552734375
17.39501953125
23.8037109375
21.05712890625
30.21240234375
22.88818359375
18.310546875
34.7900390625
22.88818359375
25.634765625
14.6484375
4.57763671875
-0.91552734375
9.1552734375
7.32421875
0.91552734375
-1.8310546875
-2.74658203125
9.1552734375
10.986328125
15.56396484375
-0.91552734375
2.74658203125
11.90185546875
19.22607421875
7.32421875
-4.57763671875
0
4.57763671875
-1.8310546875
-12.8173828125
-8.23974609375
-16.4794921875
-12.8173828125
-6.40869140625
-15.56396484375
-21.97265625
-25.634765625
-22.88818359375
-21.05712890625
-23.8037109375
-12.8173828125
-6.40869140625
-1.8310546875
-1.8310546875
3.662109375
13.73291015625
7.32421875
10.986328125
14.6484375
25.634765625
32.04345703125
34.7900390625
39.36767578125
43.9453125
40.283203125
50.35400390625
63.17138671875
86.0595703125
112.60986328125
119.0185546875
91.552734375
93.3837890625
102.5390625
112.60986328125
106.201171875
99.79248046875
104.3701171875
107.11669921875
113.525390625
122.6806640625
126.3427734375
116.27197265625
109.86328125
99.79248046875
96.13037109375
86.97509765625
70.49560546875
51.26953125
54.01611328125
49.4384765625
38.4521484375
33.87451171875
22.88818359375
21.05712890625
21.05712890625
10.07080078125
7.32421875
5.4931640625
-13.73291015625
-15.56396484375
-21.97265625
-27.4658203125
-31.1279296875
-37.53662109375
-37.53662109375
-29.296875
-31.1279296875
-27.4658203125
-32.04345703125
-43.02978515625
-46.69189453125
-44.86083984375
-53.1005859375
-49.4384765625
-45.7763671875
-37.53662109375
-47.607421875
-40.283203125
-50.35400390625
-40.283203125
-54.01611328125
-53.1005859375
-43.9453125
-37.53662109375
-33.87451171875
-33.87451171875
-54.01611328125
-54.01611328125
-62.255859375
-86.0595703125
-99.79248046875
-105.28564453125
-111.6943359375
-92.46826171875
-57.67822265625
-21.05712890625
47.607421875
118.10302734375
191.34521484375
260.92529296875
360.7177734375
519.10400390625
653.6865234375
803.8330078125
873.4130859375
828.55224609375
675.6591796875
493.46923828125
293.88427734375
116.27197265625
-49.4384765625
-176.69677734375
-296.630859375
-372.61962890625
-390.93017578125
-394.59228515625
-385.43701171875
-375.3662109375
-363.46435546875
-308.53271484375
-255.43212890625
-197.75390625
-134.58251953125
-91.552734375
-78.7353515625
-65.00244140625
-30.21240234375
-21.97265625
-8.23974609375
-3.662109375
-21.05712890625
-27.4658203125
-4.57763671875
-4.57763671875
4.57763671875
14.6484375
7.32421875
-6.40869140625
-5.4931640625
0.91552734375
10.07080078125
10.986328125
6.40869140625
-2.74658203125
-10.07080078125
-1.8310546875
5.4931640625
9.1552734375
11.90185546875
21.05712890625
26.55029296875
29.296875
32.958984375
37.53662109375
35.70556640625
31.1279296875
37.53662109375
41.19873046875
35.70556640625
39.36767578125
50.35400390625
67.7490234375
67.7490234375
63.17138671875
54.931640625
59.50927734375
72.32666015625
75.0732421875
70.49560546875
66.83349609375
64.0869140625
53.1005859375
63.17138671875
74.15771484375
96.13037109375
81.48193359375
83.31298828125
80.56640625
83.31298828125
82.3974609375
93.3837890625
101.62353515625
108.94775390625
107.11669921875
113.525390625
119.93408203125
116.27197265625
117.1875
128.173828125
135.498046875
156.55517578125
175.78125
186.767578125
182.18994140625
187.68310546875
200.50048828125
203.2470703125
206.9091796875
204.16259765625
200.50048828125
192.2607421875
196.83837890625
200.50048828125
206.9091796875
201.416015625
205.99365234375
232.5439453125
216.97998046875
224.30419921875
217.8955078125
205.99365234375
201.416015625
212.40234375
208.740234375
194.091796875
203.2470703125
182.18994140625
178.52783203125
181.2744140625
178.52783203125
183.10546875
172.119140625
172.119140625
151.06201171875
132.75146484375
143.73779296875
133.6669921875
143.73779296875
130.0048828125
109.86328125
114.44091796875
103.45458984375
82.3974609375
67.7490234375
63.17138671875
45.7763671875
34.7900390625
35.70556640625
41.19873046875
30.21240234375
47.607421875
49.4384765625
50.35400390625
47.607421875
36.62109375
24.71923828125
28.38134765625
15.56396484375
6.40869140625
-12.8173828125
-10.986328125
-3.662109375
0
-7.32421875
-14.6484375
-23.8037109375
-25.634765625
-21.05712890625
-25.634765625
-30.21240234375
-21.05712890625
-21.05712890625
-10.07080078125
-12.8173828125
-12.8173828125
-13.73291015625
-29.296875
-21.97265625
-18.310546875
-28.38134765625
-21.97265625
-18.310546875
-10.986328125
-8.23974609375
-12.8173828125
-8.23974609375
0
-9.1552734375
-23.8037109375
-29.296875
-28.38134765625
-31.1279296875
-27.4658203125
-10.07080078125
-11.90185546875
-14.6484375
-13.73291015625
-18.310546875
-0.91552734375
2.74658203125
0.91552734375
10.07080078125
8.23974609375
10.07080078125
15.56396484375
28.38134765625
29.296875
19.22607421875
20.1416015625
23.8037109375
27.4658203125
21.05712890625
24.71923828125
19.22607421875
1.8310546875
-14.6484375
-19.22607421875
-12.8173828125
0
-1.8310546875
3.662109375
-4.57763671875
8.23974609375
31.1279296875
19.22607421875
10.986328125
4.57763671875
8.23974609375
11.90185546875
15.56396484375
-7.32421875
-5.4931640625
4.57763671875
0
-3.662109375
-8.23974609375
2.74658203125
-4.57763671875
-11.90185546875
-16.4794921875
-17.39501953125
-25.634765625
-31.1279296875
-20.1416015625
-22.88818359375
-15.56396484375
-12.8173828125
-10.07080078125
-18.310546875
-8.23974609375
-12.8173828125
-1.8310546875
3.662109375
5.4931640625
2.74658203125
-6.40869140625
-1.8310546875
-8.23974609375
-1.8310546875
-10.986328125
-25.634765625
-25.634765625
-26.55029296875
-20.1416015625
-21.97265625
-18.310546875
-8.23974609375
-33.87451171875
-32.958984375
-14.6484375
8.23974609375
16.4794921875
19.22607421875
26.55029296875
21.05712890625
29.296875
29.296875
16.4794921875
17.39501953125
29.296875
51.26953125
64.0869140625
90.63720703125
90.63720703125
84.228515625
79.65087890625
87.890625
106.201171875
106.201171875
114.44091796875
108.94775390625
112.60986328125
128.173828125
131.8359375
108.0322265625
108.0322265625
118.10302734375
106.201171875
91.552734375
63.17138671875
55.84716796875
40.283203125
37.53662109375
36.62109375
26.55029296875
21.05712890625
28.38134765625
21.97265625
3.662109375
-5.4931640625
-16.4794921875
-26.55029296875
-40.283203125
-32.04345703125
-39.36767578125
-53.1005859375
-56.7626953125
-61.34033203125
-65.91796875
-55.84716796875
-60.4248046875
-53.1005859375
-50.35400390625
-49.4384765625
-44.86083984375
-49.4384765625
-59.50927734375
-51.26953125
-51.26953125
-48.52294921875
-49.4384765625
-49.4384765625
-55.84716796875
-53.1005859375
-54.01611328125
-54.01611328125
-41.19873046875
-54.01611328125
-67.7490234375
-68.66455078125
-65.91796875
-86.97509765625
-97.96142578125
-112.60986328125
-119.0185546875
-102.5390625
-91.552734375
-43.9453125
2.74658203125
50.35400390625
96.13037109375
176.69677734375
238.95263671875
319.51904296875
455.9326171875
617.98095703125
754.39453125
836.7919921875
804.74853515625
678.40576171875
499.8779296875
293.88427734375
86.0595703125
-103.45458984375
-233.45947265625
-339.66064453125
-410.15625
-442.19970703125
-450.439453125
-446.77734375
-451.35498046875
-406.494140625
-326.84326171875
-255.43212890625
-173.03466796875
-105.28564453125
-70.49560546875
-42.1142578125
-21.05712890625
-24.71923828125
-9.1552734375
-11.90185546875
-9.1552734375
-16.4794921875
-18.310546875
-18.310546875
-26.55029296875
-23.8037109375
-15.56396484375
-23.8037109375
-25.634765625
-22.88818359375
-19.22607421875
-13.73291015625
-19.22607421875
-2.74658203125
-3.662109375
-13.73291015625
-5.4931640625
4.57763671875
25.634765625
11.90185546875
15.56396484375
10.986328125
16.4794921875
18.310546875
12.8173828125
20.1416015625
14.6484375
5.4931640625
10.986328125
21.05712890625
39.36767578125
50.35400390625
55.84716796875
59.50927734375
46.69189453125
54.931640625
61.34033203125
49.4384765625
42.1142578125
44.86083984375
55.84716796875
54.01611328125
60.4248046875
69.580078125
74.15771484375
86.0595703125
75.0732421875
82.3974609375
86.97509765625
89.7216796875
98.876953125
109.86328125
111.6943359375
114.44091796875
122.6806640625
143.73779296875
142.822265625
126.3427734375
137.3291015625
151.9775390625
153.80859375
151.9775390625
153.80859375
150.146484375
152.89306640625
154.72412109375
154.72412109375
171.20361328125
177.6123046875
197.75390625
207.82470703125
221.5576171875
225.2197265625
223.388671875
210.5712890625
217.8955078125
217.8955078125
217.8955078125
231.62841796875
232.5439453125
232.5439453125
228.8818359375
227.96630859375
223.388671875
233.45947265625
233.45947265625
220.64208984375
227.96630859375
219.7265625
205.99365234375
203.2470703125
195.00732421875
180.35888671875
171.20361328125
161.1328125
156.55517578125
147.39990234375
142.822265625
146.484375
132.75146484375
117.1875
108.0322265625
104.3701171875
82.3974609375
76.904296875
67.7490234375
65.00244140625
61.34033203125
47.607421875
45.7763671875
39.36767578125
41.19873046875
23.8037109375
4.57763671875
10.986328125
10.07080078125
2.74658203125
-1.8310546875
-9.1552734375
-17.39501953125
-10.986328125
-25.634765625
-33.87451171875
-23.8037109375
-25.634765625
-34.7900390625
-33.87451171875
-37.53662109375
-22.88818359375
-11.90185546875
-14.6484375
-26.55029296875
-35.70556640625
-22.88818359375
-21.05712890625
-18.310546875
-16.4794921875
-19.22607421875
-5.4931640625
-4.57763671875
-23.8037109375
-29.296875
-36.62109375
-62.255859375
-59.50927734375
-46.69189453125
-32.958984375
-48.52294921875
-37.53662109375
-33.87451171875
-29.296875
-13.73291015625
-16.4794921875
-25.634765625
-21.05712890625
-13.73291015625
-21.97265625
-22.88818359375
-18.310546875
-18.310546875
-21.05712890625
-24.71923828125
-5.4931640625
6.40869140625
-2.74658203125
-0.91552734375
-1.8310546875
3.662109375
-6.40869140625
3.662109375
12.8173828125
-4.57763671875
-12.8173828125
5.4931640625
17.39501953125
14.6484375
14.6484375
-0.91552734375
-5.4931640625
-8.23974609375
-10.07080078125
-17.39501953125
-23.8037109375
-17.39501953125
0
2.74658203125
3.662109375
-4.57763671875
-1.8310546875
14.6484375
7.32421875
-13.73291015625
-20.1416015625
-20.1416015625
-23.8037109375
-21.97265625
-22.88818359375
-18.310546875
-10.986328125
-23.8037109375
-24.71923828125
-17.39501953125
-18.310546875
-18.310546875
-31.1279296875
-21.05712890625
-5.4931640625
-4.57763671875
-10.986328125
-11.90185546875
-15.56396484375
-24.71923828125
-26.55029296875
-30.21240234375
-30.21240234375
-37.53662109375
-37.53662109375
-28.38134765625
-19.22607421875
-23.8037109375
-22.88818359375
-10.07080078125
-7.32421875
-24.71923828125
-17.39501953125
-26.55029296875
-39.36767578125
-32.958984375
-47.607421875
-39.36767578125
-25.634765625
-17.39501953125
-11.90185546875
-26.55029296875
-20.1416015625
4.57763671875
17.39501953125
10.07080078125
7.32421875
31.1279296875
40.283203125
32.958984375
30.21240234375
52.18505859375
55.84716796875
72.32666015625
87.890625
115.3564453125
117.1875
104.3701171875
95.21484375
104.3701171875
103.45458984375
94.29931640625
87.890625
88.80615234375
87.890625
92.46826171875
97.0458984375
101.62353515625
98.876953125
88.80615234375
55.84716796875
49.4384765625
59.50927734375
48.52294921875
44.86083984375
31.1279296875
17.39501953125
2.74658203125
-31.1279296875
-26.55029296875
14.6484375
-6.40869140625
-13.73291015625
-19.22607421875
-22.88818359375
-35.70556640625
-61.34033203125
-49.4384765625
-67.7490234375
-61.34033203125
-56.7626953125
-68.66455078125
-81.48193359375
-52.18505859375
-30.21240234375
-49.4384765625
-53.1005859375
-52.18505859375
-61.34033203125
-66.83349609375
-61.34033203125
-57.67822265625
-51.26953125
-66.83349609375
-56.7626953125
-62.255859375
-65.00244140625
-75.0732421875
-64.0869140625
-85.14404296875
-46.69189453125
-63.17138671875
-82.3974609375
-83.31298828125
-78.7353515625
-105.28564453125
-122.6806640625
-115.3564453125
-107.11669921875
-109.86328125
-74.15771484375
-33.87451171875
54.01611328125
122.6806640625
179.443359375
244.44580078125
350.64697265625
528.25927734375
704.9560546875
809.326171875
846.86279296875
776.3671875
605.16357421875
411.07177734375
214.2333984375
-5.4931640625
-184.02099609375
-294.7998046875
-409.24072265625
-487.060546875
-490.72265625
-481.5673828125
-453.18603515625
-438.53759765625
-377.197265625
-307.6171875
-240.78369140625
-183.10546875
-143.73779296875
-111.6943359375
-67.7490234375
-72.32666015625
-27.4658203125
-30.21240234375
-38.4521484375
-26.55029296875
-29.296875
-29.296875
-33.87451171875
-21.97265625
-39.36767578125
-22.88818359375
2.74658203125
10.986328125
-13.73291015625
-29.296875
-25.634765625
-9.1552734375
-47.607421875
-14.6484375
-10.986328125
-8.23974609375
-8.23974609375
-17.39501953125
10.07080078125
-12.8173828125
-7.32421875
11.90185546875
9.1552734375
11.90185546875
-1.8310546875
2.74658203125
6.40869140625
-8.23974609375
35.70556640625
23.8037109375
-1.8310546875
17.39501953125
33.87451171875
43.02978515625
43.9453125
51.26953125
58.59375
59.50927734375
48.52294921875
41.19873046875
37.53662109375
45.7763671875
55.84716796875
53.1005859375
59.50927734375
65.00244140625
70.49560546875
65.91796875
75.0732421875
80.56640625
76.904296875
71.4111328125
69.580078125
54.931640625
109.86328125
129.08935546875
125.42724609375
128.173828125
128.173828125
124.51171875
125.42724609375
117.1875
138.24462890625
157.470703125
162.9638671875
171.20361328125
177.6123046875
188.5986328125
190.4296875
190.4296875
194.091796875
214.2333984375
223.388671875
235.29052734375
222.47314453125
234.375
230.712890625
203.2470703125
194.091796875
228.8818359375
229.79736328125
225.2197265625
241.69921875
230.712890625
212.40234375
205.99365234375
200.50048828125
201.416015625
187.68310546875
182.18994140625
166.6259765625
164.794921875
163.87939453125
147.39990234375
142.822265625
139.16015625
139.16015625
120.849609375
108.0322265625
96.13037109375
67.7490234375
78.7353515625
71.4111328125
58.59375
47.607421875
26.55029296875
13.73291015625
-11.90185546875
18.310546875
13.73291015625
-13.73291015625
-6.40869140625
2.74658203125
-11.90185546875
-34.7900390625
-30.21240234375
-11.90185546875
-28.38134765625
-22.88818359375
-14.6484375
-30.21240234375
-23.8037109375
-25.634765625
-42.1142578125
-40.283203125
-48.52294921875
-51.26953125
-53.1005859375
-39.36767578125
-37.53662109375
-50.35400390625
-26.55029296875
-26.55029296875
-41.19873046875
-54.931640625
-43.9453125
-34.7900390625
-55.84716796875
-60.4248046875
-63.17138671875
-58.59375
-30.21240234375
-51.26953125
-53.1005859375
-65.00244140625
-70.49560546875
-54.01611328125
-35.70556640625
-48.52294921875
-57.67822265625
-75.0732421875
-63.17138671875
-60.4248046875
-52.18505859375
-49.4384765625
-43.02978515625
-17.39501953125
-15.56396484375
-8.23974609375
-33.87451171875
-33.87451171875
-27.4658203125
-39.36767578125
-35.70556640625
-25.634765625
-13.73291015625
-14.6484375
-21.97265625
-43.9453125
-35.70556640625
-31.1279296875
-24.71923828125
2.74658203125
7.32421875
-7.32421875
0.91552734375
-12.8173828125
-31.1279296875
-23.8037109375
-12.8173828125
-23.8037109375
-19.22607421875
-22.88818359375
-21.97265625
-27.4658203125
-33.87451171875
-15.56396484375
-12.8173828125
-26.55029296875
-21.05712890625
-32.958984375
-25.634765625
-32.958984375
-32.958984375
-36.62109375
-41.19873046875
-41.19873046875
-32.04345703125
-21.05712890625
-32.958984375
-27.4658203125
-28.38134765625
-38.4521484375
-21.05712890625
-37.53662109375
-37.53662109375
-43.9453125
-43.02978515625
-45.7763671875
-54.01611328125
-46.69189453125
-32.958984375
-30.21240234375
-45.7763671875
-42.1142578125
-32.04345703125
-56.7626953125
-46.69189453125
-54.01611328125
-52.18505859375
-53.1005859375
-80.56640625
-51.26953125
-64.0869140625
-68.66455078125
-63.17138671875
-68.66455078125
-77.81982421875
-49.4384765625
-43.9453125
-47.607421875
-31.1279296875
-43.9453125
-65.00244140625
-59.50927734375
-46.69189453125
-45.7763671875
-33.87451171875
-11.90185546875
-7.32421875
-1.8310546875
4.57763671875
3.662109375
10.07080078125
7.32421875
8.23974609375
50.35400390625
54.01611328125
71.4111328125
83.31298828125
82.3974609375
66.83349609375
70.49560546875
75.98876953125
65.91796875
69.580078125
62.255859375
74.15771484375
73.2421875
80.56640625
77.81982421875
78.7353515625
63.17138671875
50.35400390625
29.296875
24.71923828125
25.634765625
22.88818359375
19.22607421875
21.05712890625
12.8173828125
-12.8173828125
-44.86083984375
-62.255859375
-54.931640625
-35.70556640625
-35.70556640625
-52.18505859375
-56.7626953125
-47.607421875
-58.59375
-55.84716796875
-60.4248046875
-61.34033203125
-58.59375
-54.01611328125
-62.255859375
-54.931640625
-50.35400390625
-65.00244140625
-86.97509765625
-80.56640625
-78.7353515625
-85.14404296875
-107.11669921875
-117.1875
-100.7080078125
-88.80615234375
-94.29931640625
-97.0458984375
-103.45458984375
-93.3837890625
-86.0595703125
-89.7216796875
-94.29931640625
-92.46826171875
-88.80615234375
-85.14404296875
-97.0458984375
-102.5390625
-97.96142578125
-112.60986328125
-127.25830078125
-121.76513671875
-92.46826171875
-56.7626953125
7.32421875
75.0732421875
142.822265625
209.65576171875
329.58984375
483.3984375
660.09521484375
790.10009765625
850.52490234375
807.4951171875
642.7001953125
447.69287109375
249.0234375
19.22607421875
-183.10546875
-329.58984375
-433.9599609375
-477.9052734375
-493.46923828125
-482.48291015625
-470.5810546875
-440.36865234375
-380.859375
-305.7861328125
-233.45947265625
-172.119140625
-133.6669921875
-111.6943359375
-95.21484375
-57.67822265625
-50.35400390625
-48.52294921875
-51.26953125
-37.53662109375
-37.53662109375
-23.8037109375
-6.40869140625
-21.05712890625
-23.8037109375
-24.71923828125
-30.21240234375
-22.88818359375
-21.05712890625
-28.38134765625
-30.21240234375
-25.634765625
-17.39501953125
-16.4794921875
-7.32421875
-10.986328125
-22.88818359375
-30.21240234375
-25.634765625
-32.04345703125
-26.55029296875
-15.56396484375
5.4931640625
3.662109375
5.4931640625
19.22607421875
13.73291015625
15.56396484375
19.22607421875
11.90185546875
13.73291015625
1.8310546875
9.1552734375
9.1552734375
4.57763671875
16.4794921875
30.21240234375
24.71923828125
37.53662109375
38.4521484375
45.7763671875
43.02978515625
34.7900390625
61.34033203125
69.580078125
51.26953125
67.7490234375
72.32666015625
70.49560546875
80.56640625
86.97509765625
98.876953125
104.3701171875
102.5390625
106.201171875
102.5390625
108.0322265625
110.77880859375
119.0185546875
117.1875
119.0185546875
124.51171875
139.16015625
155.6396484375
162.9638671875
161.1328125
172.119140625
180.35888671875
191.34521484375
197.75390625
195.9228515625
207.82470703125
219.7265625
207.82470703125
203.2470703125
191.34521484375
189.51416015625
200.50048828125
180.35888671875
192.2607421875
199.5849609375
208.740234375
157.470703125
175.78125
194.091796875
207.82470703125
220.64208984375
223.388671875
212.40234375
184.02099609375
151.9775390625
157.470703125
161.1328125
156.55517578125
133.6669921875
135.498046875
139.16015625
132.75146484375
122.6806640625
108.0322265625
99.79248046875
94.29931640625
81.48193359375
72.32666015625
57.67822265625
36.62109375
31.1279296875
27.4658203125
17.39501953125
10.07080078125
11.90185546875
23.8037109375
17.39501953125
14.6484375
0
-9.1552734375
-29.296875
-31.1279296875
-24.71923828125
-20.1416015625
-11.90185546875
-15.56396484375
-13.73291015625
-18.310546875
-7.32421875
-14.6484375
-22.88818359375
-15.56396484375
-20.1416015625
-30.21240234375
-23.8037109375
-37.53662109375
-39.36767578125
-32.04345703125
-29.296875
-25.634765625
-43.02978515625
-42.1142578125
-41.19873046875
-32.958984375
-43.9453125
-56.7626953125
-50.35400390625
-44.86083984375
-47.607421875
-54.01611328125
-46.69189453125
-55.84716796875
-50.35400390625
-39.36767578125
-36.62109375
-29.296875
-15.56396484375
-12.8173828125
-23.8037109375
-18.310546875
-16.4794921875
-14.6484375
-9.1552734375
-12.8173828125
-7.32421875
-22.88818359375
-21.05712890625
-16.4794921875
-20.1416015625
-28.38134765625
-19.22607421875
-15.56396484375
-25.634765625
-15.56396484375
-10.07080078125
-26.55029296875
-28.38134765625
-21.05712890625
0.91552734375
10.07080078125
6.40869140625
2.74658203125
-0.91552734375
2.74658203125
-13.73291015625
-16.4794921875
1.8310546875
0.91552734375
-5.4931640625
-9.1552734375
-2.74658203125
-18.310546875
-20.1416015625
-14.6484375
-6.40869140625
-8.23974609375
-13.73291015625
-30.21240234375
-34.7900390625
-22.88818359375
-14.6484375
-8.23974609375
-15.56396484375
-8.23974609375
-16.4794921875
-38.4521484375
-29.296875
-30.21240234375
-32.958984375
-31.1279296875
-34.7900390625
-21.97265625
-19.22607421875
-32.04345703125
-43.02978515625
-40.283203125
-36.62109375
-40.283203125
-34.7900390625
-38.4521484375
-49.4384765625
-40.283203125
-20.1416015625
-25.634765625
-24.71923828125
-27.4658203125
-33.87451171875
-44.86083984375
-42.1142578125
-46.69189453125
-47.607421875
-39.36767578125
-44.86083984375
-37.53662109375
-50.35400390625
-54.931640625
-39.36767578125
-30.21240234375
-21.97265625
-5.4931640625
8.23974609375
14.6484375
14.6484375
22.88818359375
14.6484375
10.986328125
12.8173828125
2.74658203125
12.8173828125
15.56396484375
39.36767578125
53.1005859375
62.255859375
84.228515625
67.7490234375
63.17138671875
68.66455078125
74.15771484375
73.2421875
61.34033203125
49.4384765625
65.91796875
90.63720703125
80.56640625
90.63720703125
80.56640625
75.0732421875
65.00244140625
57.67822265625
47.607421875
24.71923828125
3.662109375
22.88818359375
24.71923828125
6.40869140625
7.32421875
7.32421875
6.40869140625
0
2.74658203125
-9.1552734375
-37.53662109375
-54.01611328125
-60.4248046875
-64.0869140625
-64.0869140625
-69.580078125
-57.67822265625
-53.1005859375
-66.83349609375
-55.84716796875
-21.05712890625
-31.1279296875
-44.86083984375
-69.580078125
-81.48193359375
-77.81982421875
-78.7353515625
-64.0869140625
-61.34033203125
-65.91796875
-54.931640625
-50.35400390625
-73.2421875
-90.63720703125
-93.3837890625
-84.228515625
-79.65087890625
-81.48193359375
-77.81982421875
-86.0595703125
-82.3974609375
-94.29931640625
-101.62353515625
-104.3701171875
-118.10302734375
-115.3564453125
-90.63720703125
-70.49560546875
-26.55029296875
44.86083984375
96.13037109375
176.69677734375
234.375
353.3935546875
520.93505859375
680.23681640625
819.39697265625
873.4130859375
793.76220703125
630.79833984375
438.53759765625
220.64208984375
24.71923828125
-133.6669921875
-249.93896484375
-365.29541015625
-434.87548828125
-444.03076171875
-447.69287109375
-439.453125
-414.73388671875
-375.3662109375
-323.18115234375
-254.5166015625
-183.10546875
-122.6806640625
-84.228515625
-73.2421875
-61.34033203125
-43.02978515625
-32.04345703125
-22.88818359375
-21.05712890625
-20.1416015625
-21.97265625
-17.39501953125
-2.74658203125
-15.56396484375
-12.8173828125
-6.40869140625
-3.662109375
-3.662109375
-1.8310546875
-10.07080078125
-9.1552734375
-13.73291015625
-5.4931640625
-6.40869140625
-16.4794921875
-9.1552734375
0
1.8310546875
-7.32421875
6.40869140625
-4.57763671875
-4.57763671875
-6.40869140625
0
7.32421875
11.90185546875
41.19873046875
34.7900390625
9.1552734375
24.71923828125
37.53662109375
36.62109375
43.02978515625
48.52294921875
38.4521484375
47.607421875
41.19873046875
52.18505859375
52.18505859375
45.7763671875
56.7626953125
64.0869140625
80.56640625
72.32666015625
59.50927734375
59.50927734375
71.4111328125
99.79248046875
96.13037109375
90.63720703125
105.28564453125
119.0185546875
126.3427734375
117.1875
125.42724609375
132.75146484375
137.3291015625
134.58251953125
130.92041015625
145.56884765625
152.89306640625
163.87939453125
171.20361328125
179.443359375
173.9501953125
192.2607421875
195.9228515625
177.6123046875
177.6123046875
183.10546875
177.6123046875
184.02099609375
215.14892578125
215.14892578125
224.30419921875
226.13525390625
225.2197265625
216.064453125
202.33154296875
203.2470703125
204.16259765625
207.82470703125
207.82470703125
205.99365234375
188.5986328125
176.69677734375
167.54150390625
157.470703125
156.55517578125
155.6396484375
174.86572265625
184.02099609375
178.52783203125
151.9775390625
142.822265625
135.498046875
135.498046875
126.3427734375
119.0185546875
113.525390625
107.11669921875
119.0185546875
85.14404296875
63.17138671875
45.7763671875
37.53662109375
33.87451171875
32.04345703125
19.22607421875
19.22607421875
16.4794921875
20.1416015625
22.88818359375
13.73291015625
1.8310546875
-2.74658203125
-0.91552734375
0
-14.6484375
-23.8037109375
-20.1416015625
-10.986328125
-23.8037109375
-31.1279296875
-40.283203125
-41.19873046875
-36.62109375
-38.4521484375
-45.7763671875
-60.4248046875
-60.4248046875
-51.26953125
-41.19873046875
-41.19873046875
-35.70556640625
-34.7900390625
-32.958984375
-45.7763671875
-50.35400390625
-63.17138671875
-59.50927734375
-38.4521484375
-25.634765625
-32.958984375
-32.04345703125
-24.71923828125
-20.1416015625
-18.310546875
-21.97265625
-21.97265625
-24.71923828125
-17.39501953125
-21.97265625
-21.97265625
-41.19873046875
-25.634765625
-7.32421875
-21.05712890625
-28.38134765625
-34.7900390625
-31.1279296875
-21.97265625
-12.8173828125
-10.07080078125
-13.73291015625
-21.97265625
-29.296875
-11.90185546875
-13.73291015625
-21.97265625
-22.88818359375
-24.71923828125
-17.39501953125
-13.73291015625
-12.8173828125
-20.1416015625
-10.07080078125
7.32421875
2.74658203125
-10.986328125
-19.22607421875
-20.1416015625
-18.310546875
-32.958984375
-32.958984375
-18.310546875
-32.04345703125
-46.69189453125
-28.38134765625
-22.88818359375
-32.04345703125
-30.21240234375
-22.88818359375
-35.70556640625
-42.1142578125
-43.02978515625
-32.04345703125
-27.4658203125
-15.56396484375
-12.8173828125
-21.05712890625
-15.56396484375
-19.22607421875
-38.4521484375
-54.01611328125
-49.4384765625
-36.62109375
-32.04345703125
-30.21240234375
-33.87451171875
-32.958984375
-25.634765625
-24.71923828125
-22.88818359375
-26.55029296875
-36.62109375
-30.21240234375
-35.70556640625
-41.19873046875
-46.69189453125
-54.931640625
-44.86083984375
-32.958984375
-48.52294921875
-59.50927734375
-50.35400390625
-19.22607421875
-18.310546875
-23.8037109375
-7.32421875
5.4931640625
9.1552734375
5.4931640625
12.8173828125
27.4658203125
43.9453125
59.50927734375
82.3974609375
88.80615234375
80.56640625
79.65087890625
93.3837890625
82.3974609375
86.97509765625
70.49560546875
80.56640625
80.56640625
82.3974609375
79.65087890625
69.580078125
76.904296875
79.65087890625
75.0732421875
59.50927734375
47.607421875
33.87451171875
30.21240234375
24.71923828125
15.56396484375
-10.07080078125
-8.23974609375
0.91552734375
-9.1552734375
-23.8037109375
-16.4794921875
-27.4658203125
-39.36767578125
-33.87451171875
-40.283203125
-50.35400390625
-47.607421875
-35.70556640625
-56.7626953125
-72.32666015625
-77.81982421875
-66.83349609375
-51.26953125
-52.18505859375
-71.4111328125
-73.2421875
-88.80615234375
-89.7216796875
-82.3974609375
-82.3974609375
-76.904296875
-75.0732421875
-96.13037109375
-108.94775390625
-83.31298828125
-76.904296875
-61.34033203125
-69.580078125
-74.15771484375
-77.81982421875
-78.7353515625
-60.4248046875
-59.50927734375
-69.580078125
-92.46826171875
-92.46826171875
-93.3837890625
-97.96142578125
-86.97509765625
-72.32666015625
-32.04345703125
23.8037109375
82.3974609375
163.87939453125
216.064453125
322.265625
467.83447265625
621.64306640625
755.31005859375
830.38330078125
783.69140625
642.7001953125
476.07421875
274.658203125
71.4111328125
-109.86328125
-238.95263671875
-349.7314453125
-413.818359375
-443.115234375
-459.5947265625
-454.1015625
-442.19970703125
-387.26806640625
-332.33642578125
-263.671875
-193.17626953125
-130.92041015625
-93.3837890625
-83.31298828125
-54.931640625
-39.36767578125
-29.296875
-17.39501953125
-25.634765625
-35.70556640625
-34.7900390625
-17.39501953125
-18.310546875
-26.55029296875
-25.634765625
-28.38134765625
-14.6484375
-7.32421875
-12.8173828125
-7.32421875
-12.8173828125
-3.662109375
9.1552734375
10.986328125
10.07080078125
18.310546875
23.8037109375
14.6484375
26.55029296875
21.05712890625
21.05712890625
27.4658203125
34.7900390625
32.04345703125
28.38134765625
35.70556640625
42.1142578125
24.71923828125
10.986328125
10.07080078125
27.4658203125
40.283203125
38.4521484375
31.1279296875
27.4658203125
43.02978515625
51.26953125
53.1005859375
58.59375
54.931640625
57.67822265625
75.0732421875
67.7490234375
66.83349609375
77.81982421875
81.48193359375
81.48193359375
83.31298828125
67.7490234375
83.31298828125
96.13037109375
97.0458984375
97.0458984375
114.44091796875
121.76513671875
134.58251953125
150.146484375
145.56884765625
148.3154296875
165.71044921875
169.37255859375
188.5986328125
188.5986328125
170.2880859375
156.55517578125
165.71044921875
179.443359375
191.34521484375
193.17626953125
204.16259765625
199.5849609375
205.078125
221.5576171875
209.65576171875
199.5849609375
203.2470703125
213.31787109375
214.2333984375
207.82470703125
201.416015625
200.50048828125
206.9091796875
221.5576171875
217.8955078125
215.14892578125
213.31787109375
220.64208984375
211.48681640625
204.16259765625
196.83837890625
195.00732421875
192.2607421875
173.03466796875
166.6259765625
159.3017578125
159.3017578125
158.38623046875
139.16015625
123.59619140625
111.6943359375
96.13037109375
90.63720703125
71.4111328125
59.50927734375
47.607421875
40.283203125
34.7900390625
38.4521484375
36.62109375
22.88818359375
18.310546875
18.310546875
10.986328125
1.8310546875
-7.32421875
-16.4794921875
-21.97265625
-30.21240234375
-34.7900390625
-27.4658203125
-12.8173828125
-5.4931640625
7.32421875
-3.662109375
-21.97265625
-19.22607421875
-20.1416015625
-25.634765625
-19.22607421875
-23.8037109375
-27.4658203125
-30.21240234375
-29.296875
-32.958984375
-43.9453125
-42.1142578125
-37.53662109375
-25.634765625
-22.88818359375
-16.4794921875
-10.986328125
-11.90185546875
-20.1416015625
-11.90185546875
-17.39501953125
-9.1552734375
-19.22607421875
-17.39501953125
-14.6484375
-31.1279296875
-37.53662109375
-26.55029296875
-17.39501953125
-31.1279296875
-30.21240234375
-25.634765625
-40.283203125
-33.87451171875
-29.296875
-21.05712890625
-9.1552734375
-12.8173828125
-4.57763671875
-15.56396484375
-17.39501953125
-16.4794921875
-6.40869140625
-12.8173828125
-14.6484375
-13.73291015625
-2.74658203125
-1.8310546875
-6.40869140625
-0.91552734375
1.8310546875
14.6484375
27.4658203125
30.21240234375
3.662109375
-9.1552734375
3.662109375
4.57763671875
5.4931640625
-8.23974609375
-15.56396484375
-23.8037109375
-21.97265625
-17.39501953125
-10.986328125
-2.74658203125
-2.74658203125
-1.8310546875
-4.57763671875
-15.56396484375
-24.71923828125
-14.6484375
-4.57763671875
-19.22607421875
-24.71923828125
-18.310546875
-27.4658203125
-19.22607421875
-14.6484375
-13.73291015625
-16.4794921875
-27.4658203125
-16.4794921875
-7.32421875
-13.73291015625
-16.4794921875
-11.90185546875
-20.1416015625
-20.1416015625
-22.88818359375
-32.958984375
-30.21240234375
-21.97265625
-36.62109375
-42.1142578125
-30.21240234375
-12.8173828125
-1.8310546875
-10.07080078125
-17.39501953125
-27.4658203125
-25.634765625
-7.32421875
-16.4794921875
-25.634765625
-35.70556640625
-32.04345703125
-26.55029296875
-16.4794921875
-16.4794921875
-65.00244140625
-46.69189453125
-32.958984375
-22.88818359375
-8.23974609375
8.23974609375
14.6484375
17.39501953125
32.958984375
30.21240234375
28.38134765625
24.71923828125
33.87451171875
42.1142578125
57.67822265625
70.49560546875
94.29931640625
106.201171875
113.525390625
118.10302734375
116.27197265625
97.96142578125
91.552734375
90.63720703125
83.31298828125
78.7353515625
100.7080078125
108.0322265625
109.86328125
105.28564453125
88.80615234375
83.31298828125
72.32666015625
45.7763671875
33.87451171875
20.1416015625
28.38134765625
28.38134765625
21.97265625
10.07080078125
-11.90185546875
-5.4931640625
-10.07080078125
-11.90185546875
-12.8173828125
-20.1416015625
-33.87451171875
-44.86083984375
-54.931640625
-61.34033203125
-69.580078125
-63.17138671875
-53.1005859375
-45.7763671875
-53.1005859375
-60.4248046875
-48.52294921875
-43.02978515625
-39.36767578125
-30.21240234375
-49.4384765625
-46.69189453125
-55.84716796875
-61.34033203125
-64.0869140625
-68.66455078125
-68.66455078125
-70.49560546875
-64.0869140625
-53.1005859375
-60.4248046875
-65.91796875
-66.83349609375
-58.59375
-65.91796875
-73.2421875
-89.7216796875
-90.63720703125
-94.29931640625
-106.201171875
-92.46826171875
-67.7490234375
-52.18505859375
10.07080078125
87.890625
172.119140625
235.29052734375
314.94140625
452.2705078125
620.7275390625
769.95849609375
862.4267578125
862.4267578125
733.33740234375
525.5126953125
325.927734375
107.11669921875
-93.3837890625
-236.2060546875
-340.576171875
-445.86181640625
-481.5673828125
-487.060546875
-470.5810546875
-458.67919921875
-409.24072265625
-327.7587890625
-246.27685546875
-187.68310546875
-117.1875
-76.904296875
-50.35400390625
-49.4384765625
-47.607421875
-85.14404296875
-63.17138671875
-37.53662109375
-40.283203125
-19.22607421875
1.8310546875
10.986328125
10.07080078125
10.986328125
7.32421875
6.40869140625
8.23974609375
17.39501953125
24.71923828125
35.70556640625
35.70556640625
43.02978515625
53.1005859375
38.4521484375
30.21240234375
26.55029296875
27.4658203125
26.55029296875
19.22607421875
17.39501953125
12.8173828125
13.73291015625
29.296875
28.38134765625
32.958984375
23.8037109375
18.310546875
31.1279296875
39.36767578125
39.36767578125
39.36767578125
26.55029296875
31.1279296875
48.52294921875
61.34033203125
66.83349609375
77.81982421875
79.65087890625
74.15771484375
66.83349609375
58.59375
61.34033203125
75.0732421875
97.96142578125
98.876953125
100.7080078125
92.46826171875
98.876953125
115.3564453125
103.45458984375
98.876953125
104.3701171875
106.201171875
103.45458984375
113.525390625
130.0048828125
137.3291015625
151.06201171875
161.1328125
173.03466796875
182.18994140625
189.51416015625
180.35888671875
191.34521484375
199.5849609375
198.66943359375
197.75390625
207.82470703125
220.64208984375
227.05078125
227.96630859375
225.2197265625
242.61474609375
231.62841796875
235.29052734375
242.61474609375
232.5439453125
244.44580078125
245.361328125
241.69921875
260.009765625
239.8681640625
205.078125
205.99365234375
218.81103515625
219.7265625
226.13525390625
213.31787109375
205.99365234375
211.48681640625
196.83837890625
194.091796875
195.9228515625
182.18994140625
166.6259765625
161.1328125
139.16015625
120.849609375
109.86328125
93.3837890625
80.56640625
74.15771484375
84.228515625
61.34033203125
55.84716796875
46.69189453125
32.04345703125
38.4521484375
36.62109375
30.21240234375
16.4794921875
-6.40869140625
-2.74658203125
-11.90185546875
-3.662109375
-7.32421875
-7.32421875
-10.986328125
-20.1416015625
-29.296875
-21.05712890625
-24.71923828125
-23.8037109375
-32.958984375
-37.53662109375
-32.958984375
-26.55029296875
-25.634765625
-27.4658203125
-52.18505859375
-50.35400390625
-44.86083984375
-32.958984375
-38.4521484375
-47.607421875
-33.87451171875
-35.70556640625
-31.1279296875
-32.958984375
-27.4658203125
-40.283203125
-40.283203125
-45.7763671875
-45.7763671875
-44.86083984375
-43.02978515625
-42.1142578125
-25.634765625
-23.8037109375
-38.4521484375
-36.62109375
-47.607421875
-43.9453125
-28.38134765625
-47.607421875
-37.53662109375
-15.56396484375
-16.4794921875
-17.39501953125
-21.05712890625
-26.55029296875
-19.22607421875
-22.88818359375
-17.39501953125
-10.986328125
-19.22607421875
-11.90185546875
-25.634765625
-7.32421875
-14.6484375
-16.4794921875
-17.39501953125
-10.07080078125
-14.6484375
-32.958984375
-28.38134765625
-20.1416015625
-21.05712890625
-7.32421875
5.4931640625
19.22607421875
10.986328125
13.73291015625
5.4931640625
-3.662109375
-16.4794921875
-14.6484375
-6.40869140625
-10.986328125
-0.91552734375
-4.57763671875
-5.4931640625
-11.90185546875
-12.8173828125
-10.07080078125
-24.71923828125
-20.1416015625
-18.310546875
-36.62109375
-23.8037109375
-14.6484375
-39.36767578125
-17.39501953125
-16.4794921875
-25.634765625
-10.07080078125
-32.958984375
-49.4384765625
-43.02978515625
-31.1279296875
-28.38134765625
-34.7900390625
-24.71923828125
-23.8037109375
-28.38134765625
-30.21240234375
-35.70556640625
-36.62109375
-54.931640625
-57.67822265625
-56.7626953125
-53.1005859375
-42.1142578125
-46.69189453125
-48.52294921875
-41.19873046875
-46.69189453125
-37.53662109375
-28.38134765625
-32.958984375
-38.4521484375
-39.36767578125
-28.38134765625
-36.62109375
-14.6484375
-25.634765625
-32.958984375
-9.1552734375
-7.32421875
1.8310546875
21.05712890625
19.22607421875
16.4794921875
5.4931640625
-3.662109375
2.74658203125
13.73291015625
34.7900390625
43.02978515625
63.17138671875
61.34033203125
67.7490234375
71.4111328125
79.65087890625
89.7216796875
95.21484375
83.31298828125
77.81982421875
109.86328125
99.79248046875
93.3837890625
89.7216796875
72.32666015625
64.0869140625
54.01611328125
43.9453125
21.97265625
6.40869140625
9.1552734375
20.1416015625
21.97265625
-6.40869140625
-21.05712890625
-18.310546875
-18.310546875
-10.07080078125
-17.39501953125
-32.04345703125
-27.4658203125
-47.607421875
-63.17138671875
-64.0869140625
-71.4111328125
-52.18505859375
-56.7626953125
-83.31298828125
-70.49560546875
-67.7490234375
-77.81982421875
-77.81982421875
-78.7353515625
-73.2421875
-86.0595703125
-86.97509765625
-80.56640625
-76.904296875
-80.56640625
-70.49560546875
-68.66455078125
-68.66455078125
-67.7490234375
-65.91796875
-64.0869140625
-71.4111328125
-71.4111328125
-77.81982421875
-87.890625
-107.11669921875
-113.525390625
-124.51171875
-137.3291015625
-129.08935546875
-130.0048828125
-113.525390625
-92.46826171875
-50.35400390625
-1.8310546875
46.69189453125
128.173828125
198.66943359375
278.3203125
413.818359375
568.54248046875
724.18212890625
824.89013671875
830.38330078125
709.53369140625
512.6953125
337.82958984375
154.72412109375
-61.34033203125
-245.361328125
-349.7314453125
-452.2705078125
-486.14501953125
-484.31396484375
-477.9052734375
-481.5673828125
-445.86181640625
-370.78857421875
-281.982421875
-206.9091796875
-161.1328125
-108.0322265625
-79.65087890625
-63.17138671875
-58.59375
-54.01611328125
-45.7763671875
-36.62109375
-37.53662109375
-32.958984375
-45.7763671875
-57.67822265625
-48.52294921875
-45.7763671875
-42.1142578125
-37.53662109375
-39.36767578125
-31.1279296875
-21.05712890625
-11.90185546875
-1.8310546875
-12.8173828125
-8.23974609375
-10.986328125
-14.6484375
-33.87451171875
-23.8037109375
-12.8173828125
-5.4931640625
-0.91552734375
2.74658203125
-10.986328125
1.8310546875
4.57763671875
-2.74658203125
1.8310546875
3.662109375
12.8173828125
18.310546875
12.8173828125
33.87451171875
38.4521484375
37.53662109375
24.71923828125
24.71923828125
13.73291015625
10.07080078125
10.07080078125
23.8037109375
24.71923828125
23.8037109375
32.958984375
42.1142578125
54.01611328125
67.7490234375
60.4248046875
62.255859375
69.580078125
73.2421875
86.0595703125
94.29931640625
84.228515625
86.0595703125
97.96142578125
104.3701171875
101.62353515625
108.0322265625
122.6806640625
128.173828125
138.24462890625
149.23095703125
146.484375
150.146484375
165.71044921875
180.35888671875
180.35888671875
182.18994140625
194.091796875
199.5849609375
195.00732421875
202.33154296875
212.40234375
206.9091796875
206.9091796875
215.14892578125
222.47314453125
216.064453125
222.47314453125
215.14892578125
214.2333984375
216.97998046875
215.14892578125
220.64208984375
213.31787109375
203.2470703125
207.82470703125
209.65576171875
205.078125
210.5712890625
193.17626953125
182.18994140625
173.9501953125
164.794921875
154.72412109375
149.23095703125
147.39990234375
120.849609375
114.44091796875
117.1875
91.552734375
75.0732421875
56.7626953125
41.19873046875
31.1279296875
11.90185546875
4.57763671875
0
4.57763671875
-6.40869140625
-13.73291015625
-8.23974609375
-7.32421875
-2.74658203125
-7.32421875
-20.1416015625
-34.7900390625
-27.4658203125
-26.55029296875
-48.52294921875
-51.26953125
-51.26953125
-27.4658203125
-41.19873046875
-56.7626953125
-59.50927734375
-65.91796875
-61.34033203125
-49.4384765625
-43.9453125
-52.18505859375
-45.7763671875
-42.1142578125
-52.18505859375
-63.17138671875
-61.34033203125
-42.1142578125
-56.7626953125
-67.7490234375
-72.32666015625
-56.7626953125
-61.34033203125
-65.00244140625
-62.255859375
-53.1005859375
-65.91796875
-53.1005859375
-67.7490234375
-58.59375
-54.931640625
-60.4248046875
-62.255859375
-54.01611328125
-38.4521484375
-48.52294921875
-44.86083984375
-31.1279296875
-35.70556640625
-36.62109375
-22.88818359375
-27.4658203125
-32.04345703125
-36.62109375
-43.02978515625
-35.70556640625
-33.87451171875
-25.634765625
-42.1142578125
-28.38134765625
-18.310546875
-14.6484375
-5.4931640625
-6.40869140625
-26.55029296875
-27.4658203125
-36.62109375
-32.04345703125
-31.1279296875
-31.1279296875
-32.04345703125
-31.1279296875
-16.4794921875
-26.55029296875
-39.36767578125
-38.4521484375
-37.53662109375
-37.53662109375
-29.296875
-23.8037109375
-33.87451171875
-44.86083984375
-41.19873046875
-44.86083984375
-39.36767578125
-36.62109375
-38.4521484375
-39.36767578125
-57.67822265625
-52.18505859375
-58.59375
-54.01611328125
-46.69189453125
-39.36767578125
-48.52294921875
-42.1142578125
-47.607421875
-38.4521484375
-40.283203125
-40.283203125
-36.62109375
-49.4384765625
-44.86083984375
-30.21240234375
-27.4658203125
-39.36767578125
-31.1279296875
-35.70556640625
-42.1142578125
-46.69189453125
-38.4521484375
-52.18505859375
-65.00244140625
-56.7626953125
-49.4384765625
-55.84716796875
-54.931640625
-46.69189453125
-45.7763671875
-52.18505859375
-59.50927734375
-46.69189453125
-47.607421875
-48.52294921875
-37.53662109375
-24.71923828125
-20.1416015625
-8.23974609375
-16.4794921875
-21.05712890625
-21.05712890625
-32.04345703125
-28.38134765625
-19.22607421875
-22.88818359375
-3.662109375
12.8173828125
21.97265625
50.35400390625
45.7763671875
57.67822265625
62.255859375
69.580078125
63.17138671875
59.50927734375
59.50927734375
43.9453125
46.69189453125
62.255859375
66.83349609375
65.91796875
64.0869140625
54.931640625
52.18505859375
34.7900390625
14.6484375
5.4931640625
3.662109375
-10.986328125
-29.296875
-35.70556640625
-37.53662109375
-36.62109375
-44.86083984375
-54.01611328125
-62.255859375
-45.7763671875
-41.19873046875
-60.4248046875
-65.91796875
-68.66455078125
-75.98876953125
-89.7216796875
-84.228515625
-76.904296875
-75.0732421875
-77.81982421875
-84.228515625
-74.15771484375
-69.580078125
-71.4111328125
-87.890625
-79.65087890625
-78.7353515625
-78.7353515625
-74.15771484375
-83.31298828125
-93.3837890625
-99.79248046875
-84.228515625
-90.63720703125
-89.7216796875
-82.3974609375
-99.79248046875
-110.77880859375
-104.3701171875
-94.29931640625
-97.96142578125
-134.58251953125
-154.72412109375
-156.55517578125
-157.470703125
-151.06201171875
-122.6806640625
-84.228515625
-16.4794921875
43.9453125
97.0458984375
174.86572265625
240.78369140625
364.3798828125
526.42822265625
687.56103515625
815.73486328125
855.1025390625
750.732421875
590.51513671875
400.08544921875
167.54150390625
-25.634765625
-169.37255859375
-272.8271484375
-393.6767578125
-448.6083984375
-469.66552734375
-470.5810546875
-456.84814453125
-454.1015625
-425.72021484375
-360.7177734375
-284.72900390625
-229.79736328125
-170.2880859375
-128.173828125
-108.94775390625
-84.228515625
-62.255859375
-49.4384765625
-48.52294921875
-51.26953125
-54.931640625
-52.18505859375
-60.4248046875
-60.4248046875
-59.50927734375
-48.52294921875
-45.7763671875
-44.86083984375
-45.7763671875
-57.67822265625
-53.1005859375
-42.1142578125
-40.283203125
-43.02978515625
-41.19873046875
-52.18505859375
-40.283203125
-41.19873046875
-46.69189453125
-41.19873046875
-27.4658203125
-41.19873046875
-24.71923828125
-29.296875
-23.8037109375
-12.8173828125
-16.4794921875
-10.986328125
-8.23974609375
-1.8310546875
2.74658203125
-4.57763671875
-6.40869140625
-3.662109375
0
1.8310546875
8.23974609375
9.1552734375
7.32421875
9.1552734375
5.4931640625
5.4931640625
17.39501953125
22.88818359375
41.19873046875
47.607421875
45.7763671875
49.4384765625
54.931640625
55.84716796875
53.1005859375
54.01611328125
58.59375
61.34033203125
77.81982421875
86.97509765625
87.890625
101.62353515625
113.525390625
119.0185546875
124.51171875
130.92041015625
128.173828125
130.92041015625
125.42724609375
127.25830078125
139.16015625
148.3154296875
157.470703125
168.45703125
175.78125
157.470703125
158.38623046875
173.03466796875
173.9501953125
173.9501953125
184.02099609375
184.9365234375
188.5986328125
169.37255859375
170.2880859375
189.51416015625
194.091796875
194.091796875
188.5986328125
184.9365234375
184.9365234375
176.69677734375
168.45703125
157.470703125
146.484375
129.08935546875
128.173828125
125.42724609375
114.44091796875
104.3701171875
104.3701171875
97.0458984375
84.228515625
72.32666015625
68.66455078125
50.35400390625
38.4521484375
41.19873046875
41.19873046875
39.36767578125
21.05712890625
6.40869140625
-5.4931640625
-26.55029296875
-26.55029296875
-14.6484375
-21.97265625
-27.4658203125
-24.71923828125
-30.21240234375
-43.02978515625
-49.4384765625
-49.4384765625
-50.35400390625
-63.17138671875
-71.4111328125
-82.3974609375
-80.56640625
-70.49560546875
-75.98876953125
-59.50927734375
-60.4248046875
-54.01611328125
-53.1005859375
-53.1005859375
-65.00244140625
-80.56640625
-68.66455078125
-76.904296875
-75.98876953125
-78.7353515625
-88.80615234375
-79.65087890625
-85.14404296875
-87.890625
-87.890625
-75.98876953125
-71.4111328125
-69.580078125
-77.81982421875
-77.81982421875
-78.7353515625
-71.4111328125
-63.17138671875
-62.255859375
-65.91796875
-68.66455078125
-67.7490234375
-72.32666015625
-67.7490234375
-75.0732421875
-77.81982421875
-76.904296875
-59.50927734375
-55.84716796875
-67.7490234375
-50.35400390625
-45.7763671875
-51.26953125
-54.01611328125
-58.59375
-68.66455078125
-60.4248046875
-46.69189453125
-37.53662109375
-45.7763671875
-46.69189453125
-38.4521484375
-39.36767578125
-51.26953125
-67.7490234375
-61.34033203125
-49.4384765625
-67.7490234375
-63.17138671875
-64.0869140625
-49.4384765625
-37.53662109375
-34.7900390625
-46.69189453125
-57.67822265625
-39.36767578125
-34.7900390625
-33.87451171875
-47.607421875
-54.01611328125
-52.18505859375
-51.26953125
-56.7626953125
-53.1005859375
-62.255859375
-59.50927734375
-57.67822265625
-57.67822265625
-51.26953125
-46.69189453125
-52.18505859375
-57.67822265625
-62.255859375
-61.34033203125
-58.59375
-63.17138671875
-69.580078125
-78.7353515625
-68.66455078125
-58.59375
-62.255859375
-61.34033203125
-65.00244140625
-62.255859375
-63.17138671875
-65.00244140625
-70.49560546875
-67.7490234375
-77.81982421875
-79.65087890625
-79.65087890625
-76.904296875
-62.255859375
-33.87451171875
-43.9453125
-43.9453125
-41.19873046875
-32.958984375
-23.8037109375
-19.22607421875
-23.8037109375
-26.55029296875
-22.88818359375
-9.1552734375
10.07080078125
29.296875
50.35400390625
36.62109375
39.36767578125
43.9453125
49.4384765625
47.607421875
43.9453125
33.87451171875
36.62109375
52.18505859375
52.18505859375
53.1005859375
45.7763671875
37.53662109375
20.1416015625
14.6484375
0
-24.71923828125
-34.7900390625
-25.634765625
-24.71923828125
-34.7900390625
-53.1005859375
-51.26953125
-63.17138671875
-65.00244140625
-64.0869140625
-65.00244140625
-61.34033203125
-65.91796875
-90.63720703125
-98.876953125
-89.7216796875
-108.0322265625
-112.60986328125
-94.29931640625
-91.552734375
-97.0458984375
-103.45458984375
-103.45458984375
-103.45458984375
-110.77880859375
-107.11669921875
-104.3701171875
-111.6943359375
-123.59619140625
-121.76513671875
-117.1875
-113.525390625
-109.86328125
-102.5390625
-111.6943359375
-117.1875
-108.0322265625
-106.201171875
-114.44091796875
-111.6943359375
-104.3701171875
-122.6806640625
-133.6669921875
-147.39990234375
-134.58251953125
-148.3154296875
-158.38623046875
-157.470703125
-151.06201171875
-115.3564453125
-69.580078125
-3.662109375
67.7490234375
144.6533203125
213.31787109375
328.67431640625
485.2294921875
644.53125
758.97216796875
812.07275390625
733.33740234375
570.37353515625
369.873046875
154.72412109375
-40.283203125
-216.064453125
-335.99853515625
-439.453125
-493.46923828125
-527.34375
-533.75244140625
-510.8642578125
-485.2294921875
-424.8046875
-352.47802734375
-283.8134765625
-215.14892578125
-173.9501953125
-141.90673828125
-119.0185546875
-98.876953125
-86.97509765625
-75.98876953125
-64.0869140625
-48.52294921875
-39.36767578125
-57.67822265625
-75.0732421875
-65.91796875
-61.34033203125
-68.66455078125
-76.904296875
-66.83349609375
-71.4111328125
-60.4248046875
-64.0869140625
-63.17138671875
-49.4384765625
-52.18505859375
-65.91796875
-53.1005859375
-45.7763671875
-35.70556640625
-27.4658203125
-35.70556640625
-40.283203125
-28.38134765625
-21.97265625
-33.87451171875
-33.87451171875
-42.1142578125
-33.87451171875
-21.97265625
-14.6484375
-19.22607421875
-29.296875
-25.634765625
-21.97265625
-12.8173828125
-6.40869140625
-8.23974609375
-10.986328125
-7.32421875
-8.23974609375
4.57763671875
10.986328125
12.8173828125
20.1416015625
14.6484375
14.6484375
22.88818359375
45.7763671875
43.02978515625
41.19873046875
63.17138671875
54.931640625
58.59375
59.50927734375
57.67822265625
56.7626953125
56.7626953125
60.4248046875
69.580078125
42.1142578125
100.7080078125
93.3837890625
84.228515625
101.62353515625
152.89306640625
130.92041015625
65.91796875
183.10546875
189.51416015625
183.10546875
187.68310546875
195.9228515625
197.75390625
168.45703125
181.2744140625
182.18994140625
163.87939453125
140.07568359375
175.78125
162.04833984375
179.443359375
208.740234375
200.50048828125
177.6123046875
207.82470703125
204.16259765625
183.10546875
165.71044921875
151.9775390625
168.45703125
158.38623046875
154.72412109375
160.21728515625
130.0048828125
152.89306640625
119.0185546875
123.59619140625
101.62353515625
14.6484375
8.23974609375
96.13037109375
67.7490234375
37.53662109375
65.00244140625
54.931640625
45.7763671875
21.05712890625
