ECG
16.4794921875
22.88818359375
20.1416015625
20.1416015625
18.310546875
16.4794921875
13.73291015625
1.8310546875
7.32421875
6.40869140625
18.310546875
22.88818359375
30.21240234375
28.38134765625
23.8037109375
16.4794921875
17.39501953125
27.4658203125
30.21240234375
33.87451171875
40.283203125
30.21240234375
41.19873046875
44.86083984375
32.958984375
43.02978515625
34.7900390625
69.580078125
58.59375
55.84716796875
65.91796875
57.67822265625
54.931640625
62.255859375
54.01611328125
63.17138671875
73.2421875
81.48193359375
82.3974609375
80.56640625
92.46826171875
103.45458984375
115.3564453125
103.45458984375
84.228515625
89.7216796875
100.7080078125
111.6943359375
106.201171875
114.44091796875
122.6806640625
135.498046875
128.173828125
128.173828125
122.6806640625
135.498046875
151.06201171875
154.72412109375
157.470703125
159.3017578125
163.87939453125
173.03466796875
200.50048828125
192.2607421875
173.03466796875
186.767578125
193.17626953125
200.50048828125
205.99365234375
195.00732421875
188.5986328125
179.443359375
189.51416015625
196.83837890625
187.68310546875
195.00732421875
205.078125
206.9091796875
209.65576171875
207.82470703125
195.9228515625
203.2470703125
227.96630859375
216.064453125
203.2470703125
188.5986328125
201.416015625
188.5986328125
184.9365234375
177.6123046875
167.54150390625
156.55517578125
150.146484375
140.9912109375
132.75146484375
137.3291015625
110.77880859375
95.21484375
101.62353515625
86.0595703125
77.81982421875
87.890625
78.7353515625
34.7900390625
61.34033203125
54.01611328125
28.38134765625
24.71923828125
21.05712890625
19.22607421875
13.73291015625
5.4931640625
4.57763671875
0
-1.8310546875
-3.662109375
-3.662109375
-28.38134765625
-18.310546875
-2.74658203125
-5.4931640625
-18.310546875
-31.1279296875
-35.70556640625
-22.88818359375
-22.88818359375
-17.39501953125
-27.4658203125
-32.04345703125
-17.39501953125
-9.1552734375
-10.986328125
-16.4794921875
-34.7900390625
-43.02978515625
-20.1416015625
-23.8037109375
-13.73291015625
-12.8173828125
-11.90185546875
-1.8310546875
5.4931640625
-2.74658203125
-6.40869140625
-10.986328125
-11.90185546875
-6.40869140625
-22.88818359375
-14.6484375
-12.8173828125
4.57763671875
-1.8310546875
1.8310546875
-15.56396484375
-7.32421875
-1.8310546875
1.8310546875
0.91552734375
-4.57763671875
-13.73291015625
-2.74658203125
13.73291015625
12.8173828125
22.88818359375
27.4658203125
33.87451171875
41.19873046875
46.69189453125
45.7763671875
39.36767578125
33.87451171875
28.38134765625
29.296875
46.69189453125
55.84716796875
79.65087890625
98.876953125
107.11669921875
112.60986328125
102.5390625
94.29931640625
96.13037109375
98.876953125
108.94775390625
115.3564453125
111.6943359375
130.0048828125
126.3427734375
117.1875
124.51171875
127.25830078125
102.5390625
103.45458984375
102.5390625
81.48193359375
64.0869140625
67.7490234375
52.18505859375
31.1279296875
18.310546875
3.662109375
4.57763671875
2.74658203125
-8.23974609375
-10.07080078125
-19.22607421875
-32.958984375
-39.36767578125
-26.55029296875
-37.53662109375
-40.283203125
-40.283203125
-45.7763671875
-57.67822265625
-59.50927734375
-68.66455078125
-57.67822265625
-58.59375
-57.67822265625
-62.255859375
-59.50927734375
-45.7763671875
-46.69189453125
-53.1005859375
-58.59375
-60.4248046875
-54.931640625
-62.255859375
-75.98876953125
-83.31298828125
-85.14404296875
-78.7353515625
-79.65087890625
-75.0732421875
-65.91796875
-78.7353515625
-87.890625
-107.11669921875
-126.3427734375
-140.07568359375
-130.0048828125
-137.3291015625
-128.173828125
-93.3837890625
-53.1005859375
15.56396484375
84.228515625
174.86572265625
249.0234375
376.28173828125
544.73876953125
695.80078125
809.326171875
831.298828125
736.99951171875
578.61328125
395.5078125
196.83837890625
-27.4658203125
-216.97998046875
-346.0693359375
-463.2568359375
-506.28662109375
-510.8642578125
-515.44189453125
-509.94873046875
-441.2841796875
-363.46435546875
-269.1650390625
-195.00732421875
-133.6669921875
-68.66455078125
-51.26953125
-48.52294921875
-39.36767578125
-42.1142578125
-36.62109375
-32.958984375
-33.87451171875
-23.8037109375
-8.23974609375
-13.73291015625
-21.05712890625
-27.4658203125
-33.87451171875
-29.296875
-17.39501953125
-23.8037109375
-9.1552734375
-7.32421875
-0.91552734375
2.74658203125
-9.1552734375
-13.73291015625
0.91552734375
10.986328125
9.1552734375
9.1552734375
5.4931640625
0
11.90185546875
4.57763671875
9.1552734375
10.986328125
14.6484375
17.39501953125
20.1416015625
10.07080078125
21.05712890625
21.97265625
29.296875
41.19873046875
43.9453125
44.86083984375
37.53662109375
50.35400390625
50.35400390625
52.18505859375
63.17138671875
54.01611328125
50.35400390625
65.00244140625
75.98876953125
74.15771484375
81.48193359375
84.228515625
94.29931640625
97.0458984375
88.80615234375
87.890625
96.13037109375
112.60986328125
118.10302734375
130.0048828125
128.173828125
135.498046875
134.58251953125
135.498046875
139.16015625
124.51171875
133.6669921875
134.58251953125
144.6533203125
164.794921875
173.03466796875
169.37255859375
182.18994140625
201.416015625
194.091796875
183.10546875
184.02099609375
186.767578125
184.9365234375
181.2744140625
168.45703125
170.2880859375
177.6123046875
175.78125
177.6123046875
175.78125
165.71044921875
173.03466796875
161.1328125
162.9638671875
170.2880859375
168.45703125
156.55517578125
136.41357421875
126.3427734375
122.6806640625
121.76513671875
113.525390625
93.3837890625
84.228515625
78.7353515625
78.7353515625
75.98876953125
67.7490234375
63.17138671875
50.35400390625
50.35400390625
38.4521484375
38.4521484375
27.4658203125
29.296875
12.8173828125
14.6484375
17.39501953125
10.07080078125
10.07080078125
6.40869140625
-2.74658203125
-4.57763671875
-6.40869140625
-16.4794921875
-21.97265625
-10.986328125
-18.310546875
-24.71923828125
-32.958984375
-32.04345703125
-29.296875
-29.296875
-17.39501953125
-36.62109375
-39.36767578125
-33.87451171875
-35.70556640625
-38.4521484375
-41.19873046875
-27.4658203125
-27.4658203125
-17.39501953125
-8.23974609375
-23.8037109375
-21.05712890625
-18.310546875
-16.4794921875
-16.4794921875
-16.4794921875
-21.05712890625
-9.1552734375
-8.23974609375
-23.8037109375
-19.22607421875
-19.22607421875
-17.39501953125
-15.56396484375
-3.662109375
-1.8310546875
-8.23974609375
-1.8310546875
-3.662109375
-7.32421875
1.8310546875
6.40869140625
2.74658203125
6.40869140625
12.8173828125
10.07080078125
34.7900390625
40.283203125
43.02978515625
43.9453125
42.1142578125
43.9453125
40.283203125
32.04345703125
44.86083984375
54.931640625
67.7490234375
72.32666015625
80.56640625
93.3837890625
97.0458984375
96.13037109375
114.44091796875
108.0322265625
101.62353515625
93.3837890625
108.0322265625
113.525390625
120.849609375
119.93408203125
129.08935546875
135.498046875
129.08935546875
98.876953125
82.3974609375
75.0732421875
58.59375
45.7763671875
36.62109375
21.05712890625
11.90185546875
8.23974609375
5.4931640625
2.74658203125
-9.1552734375
-6.40869140625
-21.05712890625
-21.05712890625
-29.296875
-35.70556640625
-37.53662109375
-43.02978515625
-39.36767578125
-37.53662109375
-50.35400390625
-56.7626953125
-59.50927734375
-65.00244140625
-56.7626953125
-59.50927734375
-75.0732421875
-72.32666015625
-63.17138671875
-70.49560546875
-76.904296875
-65.91796875
-69.580078125
-68.66455078125
-63.17138671875
-68.66455078125
-75.98876953125
-87.890625
-85.14404296875
-80.56640625
-82.3974609375
-79.65087890625
-75.0732421875
-85.14404296875
-100.7080078125
-119.0185546875
-138.24462890625
-142.822265625
-141.90673828125
-118.10302734375
-88.80615234375
-52.18505859375
27.4658203125
93.3837890625
188.5986328125
252.685546875
374.45068359375
540.1611328125
699.462890625
814.8193359375
880.7373046875
803.8330078125
628.0517578125
433.04443359375
249.93896484375
23.8037109375
-163.87939453125
-306.70166015625
-432.12890625
-493.46923828125
-508.11767578125
-503.5400390625
-494.384765625
-441.2841796875
-380.859375
-292.05322265625
-211.48681640625
-146.484375
-114.44091796875
-93.3837890625
-67.7490234375
-51.26953125
-45.7763671875
-28.38134765625
-34.7900390625
-32.04345703125
-34.7900390625
-38.4521484375
-26.55029296875
-21.05712890625
-21.97265625
-19.22607421875
-7.32421875
-10.986328125
-9.1552734375
-15.56396484375
-11.90185546875
-7.32421875
3.662109375
0.91552734375
-3.662109375
-4.57763671875
-13.73291015625
-16.4794921875
-7.32421875
-12.8173828125
-10.986328125
-2.74658203125
-5.4931640625
2.74658203125
6.40869140625
4.57763671875
16.4794921875
17.39501953125
24.71923828125
29.296875
32.04345703125
24.71923828125
34.7900390625
43.02978515625
31.1279296875
29.296875
41.19873046875
36.62109375
29.296875
38.4521484375
36.62109375
44.86083984375
55.84716796875
59.50927734375
57.67822265625
60.4248046875
69.580078125
83.31298828125
81.48193359375
83.31298828125
85.14404296875
92.46826171875
100.7080078125
108.94775390625
105.28564453125
110.77880859375
120.849609375
126.3427734375
126.3427734375
133.6669921875
142.822265625
155.6396484375
150.146484375
141.90673828125
141.90673828125
139.16015625
149.23095703125
140.07568359375
151.9775390625
150.146484375
159.3017578125
166.6259765625
168.45703125
164.794921875
155.6396484375
158.38623046875
140.07568359375
125.42724609375
127.25830078125
138.24462890625
133.6669921875
142.822265625
140.9912109375
142.822265625
147.39990234375
140.07568359375
137.3291015625
121.76513671875
117.1875
117.1875
104.3701171875
91.552734375
96.13037109375
76.904296875
68.66455078125
69.580078125
47.607421875
55.84716796875
46.69189453125
48.52294921875
44.86083984375
35.70556640625
32.958984375
12.8173828125
14.6484375
-3.662109375
2.74658203125
-12.8173828125
-21.97265625
-25.634765625
-41.19873046875
-36.62109375
-32.958984375
-29.296875
-37.53662109375
-40.283203125
-38.4521484375
-50.35400390625
-32.04345703125
-44.86083984375
-49.4384765625
-48.52294921875
-46.69189453125
-47.607421875
-54.01611328125
-60.4248046875
-47.607421875
-43.02978515625
-50.35400390625
-48.52294921875
-53.1005859375
-42.1142578125
-49.4384765625
-60.4248046875
-32.958984375
-24.71923828125
-33.87451171875
-25.634765625
-33.87451171875
-17.39501953125
-21.05712890625
-25.634765625
-30.21240234375
-29.296875
-23.8037109375
-17.39501953125
-24.71923828125
-34.7900390625
-23.8037109375
-17.39501953125
-36.62109375
-43.9453125
-20.1416015625
-10.07080078125
-12.8173828125
-5.4931640625
-10.07080078125
0
9.1552734375
10.986328125
17.39501953125
8.23974609375
18.310546875
41.19873046875
29.296875
29.296875
40.283203125
57.67822265625
70.49560546875
83.31298828125
91.552734375
98.876953125
84.228515625
83.31298828125
82.3974609375
85.14404296875
79.65087890625
94.29931640625
100.7080078125
97.96142578125
94.29931640625
99.79248046875
108.0322265625
112.60986328125
99.79248046875
86.97509765625
66.83349609375
64.0869140625
55.84716796875
45.7763671875
38.4521484375
19.22607421875
0.91552734375
1.8310546875
-13.73291015625
1.8310546875
-15.56396484375
-32.958984375
-32.04345703125
-38.4521484375
-42.1142578125
-26.55029296875
-24.71923828125
-47.607421875
-52.18505859375
-48.52294921875
-58.59375
-56.7626953125
-43.02978515625
-51.26953125
-62.255859375
-56.7626953125
-53.1005859375
-72.32666015625
-73.2421875
-76.904296875
-89.7216796875
-86.0595703125
-66.83349609375
-70.49560546875
-65.91796875
-55.84716796875
-58.59375
-80.56640625
-75.98876953125
-65.00244140625
-66.83349609375
-82.3974609375
-87.890625
-90.63720703125
-88.80615234375
-91.552734375
-109.86328125
-140.07568359375
-148.3154296875
-132.75146484375
-107.11669921875
-48.52294921875
20.1416015625
79.65087890625
156.55517578125
240.78369140625
376.28173828125
531.005859375
693.9697265625
818.4814453125
859.68017578125
797.42431640625
626.220703125
448.6083984375
219.7265625
2.74658203125
-147.39990234375
-267.333984375
-390.0146484375
-443.115234375
-462.34130859375
-459.5947265625
-466.9189453125
-437.6220703125
-404.6630859375
-327.7587890625
-242.61474609375
-180.35888671875
-97.96142578125
-58.59375
-64.0869140625
-34.7900390625
-23.8037109375
-23.8037109375
-45.7763671875
-44.86083984375
-33.87451171875
-26.55029296875
-31.1279296875
-30.21240234375
-16.4794921875
-12.8173828125
-15.56396484375
-2.74658203125
4.57763671875
-1.8310546875
3.662109375
0.91552734375
-2.74658203125
-13.73291015625
-22.88818359375
-12.8173828125
-2.74658203125
-0.91552734375
10.986328125
17.39501953125
12.8173828125
29.296875
34.7900390625
26.55029296875
38.4521484375
38.4521484375
32.958984375
32.958984375
47.607421875
42.1142578125
51.26953125
49.4384765625
56.7626953125
72.32666015625
70.49560546875
71.4111328125
66.83349609375
76.904296875
73.2421875
73.2421875
68.66455078125
57.67822265625
85.14404296875
108.0322265625
95.21484375
94.29931640625
119.0185546875
122.6806640625
121.76513671875
111.6943359375
117.1875
123.59619140625
129.08935546875
123.59619140625
124.51171875
135.498046875
148.3154296875
141.90673828125
157.470703125
155.6396484375
160.21728515625
168.45703125
176.69677734375
155.6396484375
176.69677734375
192.2607421875
197.75390625
192.2607421875
203.2470703125
217.8955078125
201.416015625
201.416015625
193.17626953125
185.85205078125
186.767578125
178.52783203125
184.02099609375
203.2470703125
182.18994140625
191.34521484375
190.4296875
179.443359375
186.767578125
203.2470703125
177.6123046875
173.03466796875
166.6259765625
167.54150390625
160.21728515625
165.71044921875
153.80859375
153.80859375
137.3291015625
133.6669921875
141.90673828125
131.8359375
111.6943359375
107.11669921875
110.77880859375
96.13037109375
91.552734375
77.81982421875
70.49560546875
74.15771484375
68.66455078125
59.50927734375
53.1005859375
36.62109375
20.1416015625
20.1416015625
30.21240234375
21.97265625
32.04345703125
27.4658203125
36.62109375
41.19873046875
41.19873046875
21.97265625
14.6484375
34.7900390625
14.6484375
10.07080078125
17.39501953125
8.23974609375
11.90185546875
22.88818359375
28.38134765625
11.90185546875
17.39501953125
-2.74658203125
20.1416015625
7.32421875
21.05712890625
12.8173828125
8.23974609375
24.71923828125
28.38134765625
37.53662109375
32.958984375
32.958984375
43.02978515625
45.7763671875
41.19873046875
33.87451171875
44.86083984375
49.4384765625
51.26953125
63.17138671875
71.4111328125
65.91796875
45.7763671875
61.34033203125
72.32666015625
65.91796875
75.98876953125
81.48193359375
86.97509765625
96.13037109375
109.86328125
95.21484375
104.3701171875
110.77880859375
105.28564453125
110.77880859375
130.92041015625
139.16015625
145.56884765625
162.04833984375
180.35888671875
184.02099609375
195.9228515625
204.16259765625
206.9091796875
209.65576171875
201.416015625
200.50048828125
205.99365234375
204.16259765625
208.740234375
213.31787109375
216.97998046875
205.99365234375
197.75390625
185.85205078125
173.9501953125
161.1328125
151.06201171875
156.55517578125
150.146484375
149.23095703125
132.75146484375
112.60986328125
112.60986328125
108.0322265625
87.890625
67.7490234375
91.552734375
75.98876953125
71.4111328125
78.7353515625
70.49560546875
66.83349609375
62.255859375
49.4384765625
48.52294921875
48.52294921875
58.59375
42.1142578125
40.283203125
45.7763671875
53.1005859375
62.255859375
63.17138671875
55.84716796875
55.84716796875
65.00244140625
54.931640625
65.00244140625
51.26953125
47.607421875
40.283203125
43.02978515625
31.1279296875
43.9453125
29.296875
31.1279296875
25.634765625
21.97265625
13.73291015625
7.32421875
-9.1552734375
-31.1279296875
-37.53662109375
-31.1279296875
18.310546875
68.66455078125
153.80859375
226.13525390625
305.7861328125
393.6767578125
548.40087890625
725.09765625
866.0888671875
974.12109375
991.51611328125
881.65283203125
707.70263671875
488.8916015625
253.60107421875
87.890625
-80.56640625
-207.82470703125
-301.20849609375
-335.99853515625
-344.23828125
-349.7314453125
-342.4072265625
-298.4619140625
-224.30419921875
-130.92041015625
-71.4111328125
5.4931640625
34.7900390625
57.67822265625
87.890625
105.28564453125
108.0322265625
103.45458984375
99.79248046875
93.3837890625
96.13037109375
97.96142578125
95.21484375
91.552734375
105.28564453125
112.60986328125
128.173828125
129.08935546875
126.3427734375
133.6669921875
142.822265625
140.07568359375
145.56884765625
130.92041015625
136.41357421875
149.23095703125
147.39990234375
145.56884765625
157.470703125
140.9912109375
151.9775390625
156.55517578125
146.484375
161.1328125
162.9638671875
157.470703125
155.6396484375
143.73779296875
162.9638671875
169.37255859375
170.2880859375
161.1328125
175.78125
173.9501953125
176.69677734375
176.69677734375
185.85205078125
188.5986328125
196.83837890625
204.16259765625
201.416015625
212.40234375
208.740234375
207.82470703125
237.12158203125
225.2197265625
226.13525390625
233.45947265625
239.8681640625
240.78369140625
237.12158203125
241.69921875
249.0234375
260.009765625
271.91162109375
288.39111328125
289.306640625
292.05322265625
302.1240234375
300.29296875
313.1103515625
287.4755859375
303.955078125
311.279296875
314.02587890625
314.02587890625
315.85693359375
327.7587890625
324.0966796875
330.50537109375
329.58984375
329.58984375
336.9140625
321.35009765625
326.84326171875
318.603515625
324.0966796875
311.279296875
319.51904296875
314.02587890625
313.1103515625
316.7724609375
308.53271484375
308.53271484375
289.306640625
292.96875
293.88427734375
282.89794921875
281.982421875
265.5029296875
269.1650390625
256.34765625
263.671875
254.5166015625
243.5302734375
242.61474609375
221.5576171875
222.47314453125
211.48681640625
202.33154296875
197.75390625
185.85205078125
193.17626953125
182.18994140625
166.6259765625
155.6396484375
155.6396484375
153.80859375
151.9775390625
137.3291015625
137.3291015625
128.173828125
127.25830078125
129.08935546875
131.8359375
131.8359375
142.822265625
121.76513671875
126.3427734375
124.51171875
97.96142578125
90.63720703125
106.201171875
113.525390625
119.0185546875
114.44091796875
114.44091796875
108.94775390625
110.77880859375
113.525390625
113.525390625
111.6943359375
111.6943359375
110.77880859375
116.27197265625
117.1875
125.42724609375
115.3564453125
115.3564453125
134.58251953125
142.822265625
137.3291015625
141.90673828125
143.73779296875
151.06201171875
156.55517578125
164.794921875
137.3291015625
128.173828125
131.8359375
127.25830078125
144.6533203125
159.3017578125
163.87939453125
184.02099609375
187.68310546875
193.17626953125
194.091796875
210.5712890625
205.078125
207.82470703125
193.17626953125
216.064453125
233.45947265625
238.95263671875
259.09423828125
262.75634765625
256.34765625
271.91162109375
264.58740234375
269.1650390625
271.91162109375
260.92529296875
267.333984375
270.99609375
272.8271484375
288.39111328125
300.29296875
297.54638671875
282.89794921875
276.4892578125
279.23583984375
242.61474609375
234.375
224.30419921875
234.375
214.2333984375
191.34521484375
196.83837890625
190.4296875
170.2880859375
171.20361328125
168.45703125
165.71044921875
145.56884765625
152.89306640625
146.484375
129.08935546875
126.3427734375
130.92041015625
130.92041015625
119.93408203125
115.3564453125
113.525390625
124.51171875
120.849609375
97.96142578125
108.0322265625
97.96142578125
92.46826171875
89.7216796875
106.201171875
112.60986328125
96.13037109375
104.3701171875
109.86328125
108.94775390625
82.3974609375
87.890625
82.3974609375
65.91796875
75.98876953125
69.580078125
79.65087890625
82.3974609375
98.876953125
84.228515625
55.84716796875
34.7900390625
35.70556640625
17.39501953125
22.88818359375
47.607421875
108.0322265625
166.6259765625
238.037109375
318.603515625
417.48046875
579.52880859375
766.29638671875
903.62548828125
1025.390625
1034.5458984375
962.21923828125
772.705078125
547.4853515625
311.279296875
117.1875
-41.19873046875
-170.2880859375
-268.24951171875
-317.68798828125
-302.1240234375
-312.19482421875
-285.64453125
-235.29052734375
-169.37255859375
-91.552734375
-13.73291015625
42.1142578125
79.65087890625
91.552734375
117.1875
134.58251953125
127.25830078125
135.498046875
133.6669921875
133.6669921875
134.58251953125
130.92041015625
141.90673828125
139.16015625
144.6533203125
161.1328125
160.21728515625
162.9638671875
151.9775390625
158.38623046875
155.6396484375
154.72412109375
154.72412109375
142.822265625
150.146484375
169.37255859375
175.78125
193.17626953125
193.17626953125
178.52783203125
187.68310546875
188.5986328125
181.2744140625
185.85205078125
197.75390625
191.34521484375
195.00732421875
193.17626953125
191.34521484375
179.443359375
189.51416015625
200.50048828125
199.5849609375
204.16259765625
212.40234375
214.2333984375
218.81103515625
226.13525390625
219.7265625
222.47314453125
217.8955078125
224.30419921875
227.96630859375
243.5302734375
245.361328125
250.8544921875
255.43212890625
254.5166015625
255.43212890625
267.333984375
266.41845703125
271.91162109375
275.57373046875
281.982421875
274.658203125
288.39111328125
303.03955078125
324.0966796875
324.0966796875
325.927734375
325.01220703125
333.251953125
325.927734375
327.7587890625
326.84326171875
314.94140625
316.7724609375
311.279296875
323.18115234375
344.23828125
349.7314453125
358.88671875
370.78857421875
365.29541015625
344.23828125
353.3935546875
351.5625
339.66064453125
331.4208984375
321.35009765625
299.37744140625
310.36376953125
304.87060546875
312.19482421875
308.53271484375
302.1240234375
314.94140625
304.87060546875
292.05322265625
287.4755859375
297.54638671875
293.88427734375
266.41845703125
263.671875
258.1787109375
252.685546875
250.8544921875
237.12158203125
234.375
215.14892578125
220.64208984375
200.50048828125
192.2607421875
180.35888671875
170.2880859375
163.87939453125
162.9638671875
166.6259765625
155.6396484375
147.39990234375
147.39990234375
155.6396484375
148.3154296875
146.484375
152.89306640625
130.92041015625
130.0048828125
130.92041015625
132.75146484375
126.3427734375
118.10302734375
109.86328125
104.3701171875
96.13037109375
123.59619140625
115.3564453125
129.08935546875
140.9912109375
133.6669921875
124.51171875
122.6806640625
130.0048828125
126.3427734375
119.93408203125
122.6806640625
131.8359375
141.90673828125
135.498046875
130.0048828125
136.41357421875
133.6669921875
130.0048828125
133.6669921875
141.90673828125
142.822265625
138.24462890625
142.822265625
157.470703125
162.04833984375
151.06201171875
155.6396484375
162.04833984375
170.2880859375
184.9365234375
197.75390625
193.17626953125
207.82470703125
210.5712890625
204.16259765625
199.5849609375
207.82470703125
214.2333984375
232.5439453125
240.78369140625
245.361328125
263.671875
280.1513671875
285.64453125
283.8134765625
281.982421875
278.3203125
293.88427734375
304.87060546875
305.7861328125
302.1240234375
303.03955078125
315.85693359375
315.85693359375
308.53271484375
300.29296875
277.40478515625
265.5029296875
265.5029296875
240.78369140625
227.05078125
215.14892578125
210.5712890625
195.00732421875
189.51416015625
173.03466796875
181.2744140625
168.45703125
151.9775390625
160.21728515625
155.6396484375
148.3154296875
142.822265625
147.39990234375
137.3291015625
135.498046875
120.849609375
130.0048828125
147.39990234375
140.9912109375
142.822265625
143.73779296875
146.484375
143.73779296875
143.73779296875
140.9912109375
146.484375
128.173828125
126.3427734375
90.63720703125
87.890625
97.96142578125
101.62353515625
95.21484375
85.14404296875
83.31298828125
86.97509765625
94.29931640625
86.97509765625
86.97509765625
93.3837890625
73.2421875
54.01611328125
44.86083984375
15.56396484375
-0.91552734375
16.4794921875
44.86083984375
67.7490234375
106.201171875
166.6259765625
260.92529296875
349.7314453125
482.48291015625
650.0244140625
825.8056640625
970.458984375
1043.701171875
985.107421875
864.2578125
667.41943359375
445.86181640625
237.12158203125
77.81982421875
-71.4111328125
-208.740234375
-285.64453125
-295.71533203125
-294.7998046875
-320.4345703125
-292.05322265625
-232.5439453125
-150.146484375
-77.81982421875
-5.4931640625
48.52294921875
73.2421875
86.97509765625
99.79248046875
117.1875
129.08935546875
140.9912109375
139.16015625
134.58251953125
123.59619140625
116.27197265625
118.10302734375
129.08935546875
126.3427734375
121.76513671875
126.3427734375
148.3154296875
154.72412109375
146.484375
148.3154296875
151.06201171875
140.9912109375
142.822265625
146.484375
149.23095703125
140.07568359375
145.56884765625
151.06201171875
169.37255859375
171.20361328125
164.794921875
184.9365234375
200.50048828125
191.34521484375
204.16259765625
198.66943359375
196.83837890625
216.064453125
207.82470703125
199.5849609375
204.16259765625
214.2333984375
204.16259765625
200.50048828125
205.99365234375
195.9228515625
196.83837890625
219.7265625
213.31787109375
210.5712890625
206.9091796875
196.83837890625
205.99365234375
217.8955078125
238.037109375
237.12158203125
237.12158203125
235.29052734375
238.95263671875
250.8544921875
253.60107421875
272.8271484375
286.56005859375
284.72900390625
294.7998046875
300.29296875
304.87060546875
316.7724609375
335.99853515625
325.927734375
334.16748046875
320.4345703125
303.955078125
307.6171875
309.4482421875
317.68798828125
336.9140625
330.50537109375
316.7724609375
327.7587890625
343.32275390625
348.81591796875
350.64697265625
356.14013671875
336.9140625
346.98486328125
346.0693359375
343.32275390625
341.49169921875
311.279296875
299.37744140625
294.7998046875
299.37744140625
288.39111328125
283.8134765625
279.23583984375
285.64453125
278.3203125
274.658203125
265.5029296875
262.75634765625
259.09423828125
248.10791015625
244.44580078125
222.47314453125
210.5712890625
205.078125
203.2470703125
192.2607421875
167.54150390625
167.54150390625
161.1328125
163.87939453125
171.20361328125
170.2880859375
142.822265625
148.3154296875
164.794921875
163.87939453125
144.6533203125
131.8359375
126.3427734375
122.6806640625
128.173828125
130.0048828125
130.92041015625
132.75146484375
144.6533203125
128.173828125
115.3564453125
117.1875
113.525390625
98.876953125
85.14404296875
97.96142578125
100.7080078125
124.51171875
119.93408203125
113.525390625
108.94775390625
97.0458984375
101.62353515625
115.3564453125
121.76513671875
105.28564453125
102.5390625
123.59619140625
128.173828125
120.849609375
130.0048828125
118.10302734375
127.25830078125
129.08935546875
119.0185546875
120.849609375
124.51171875
119.93408203125
106.201171875
99.79248046875
105.28564453125
115.3564453125
122.6806640625
133.6669921875
159.3017578125
175.78125
192.2607421875
202.33154296875
207.82470703125
215.14892578125
201.416015625
182.18994140625
180.35888671875
185.85205078125
174.86572265625
184.02099609375
231.62841796875
249.0234375
247.1923828125
249.0234375
238.037109375
241.69921875
257.26318359375
262.75634765625
265.5029296875
266.41845703125
256.34765625
273.74267578125
275.57373046875
267.333984375
266.41845703125
270.99609375
280.1513671875
268.24951171875
259.09423828125
246.27685546875
231.62841796875
209.65576171875
205.078125
198.66943359375
180.35888671875
158.38623046875
158.38623046875
149.23095703125
146.484375
135.498046875
122.6806640625
125.42724609375
113.525390625
97.0458984375
98.876953125
101.62353515625
93.3837890625
97.96142578125
110.77880859375
107.11669921875
121.76513671875
129.08935546875
130.92041015625
118.10302734375
115.3564453125
109.86328125
81.48193359375
52.18505859375
66.83349609375
59.50927734375
55.84716796875
79.65087890625
78.7353515625
90.63720703125
93.3837890625
91.552734375
96.13037109375
108.0322265625
90.63720703125
58.59375
71.4111328125
51.26953125
31.1279296875
16.4794921875
6.40869140625
-21.05712890625
-12.8173828125
-4.57763671875
20.1416015625
63.17138671875
148.3154296875
230.712890625
305.7861328125
357.0556640625
444.03076171875
606.99462890625
791.015625
922.8515625
983.2763671875
910.0341796875
791.93115234375
620.7275390625
378.11279296875
165.71044921875
-5.4931640625
-130.92041015625
-260.92529296875
-332.33642578125
-347.900390625
-375.3662109375
-369.873046875
-335.99853515625
-262.75634765625
-175.78125
-94.29931640625
-28.38134765625
34.7900390625
68.66455078125
109.86328125
119.93408203125
135.498046875
132.75146484375
117.1875
123.59619140625
93.3837890625
71.4111328125
95.21484375
88.80615234375
108.0322265625
129.08935546875
134.58251953125
137.3291015625
151.9775390625
156.55517578125
151.9775390625
153.80859375
152.89306640625
137.3291015625
130.0048828125
134.58251953125
136.41357421875
149.23095703125
167.54150390625
168.45703125
162.04833984375
149.23095703125
122.6806640625
139.16015625
144.6533203125
150.146484375
160.21728515625
160.21728515625
157.470703125
167.54150390625
170.2880859375
162.04833984375
162.9638671875
178.52783203125
193.17626953125
192.2607421875
191.34521484375
177.6123046875
178.52783203125
182.18994140625
178.52783203125
187.68310546875
195.9228515625
200.50048828125
209.65576171875
202.33154296875
221.5576171875
222.47314453125
234.375
251.77001953125
245.361328125
237.12158203125
244.44580078125
248.10791015625
251.77001953125
264.58740234375
276.4892578125
268.24951171875
270.99609375
290.22216796875
268.24951171875
261.8408203125
260.009765625
265.5029296875
277.40478515625
291.1376953125
303.03955078125
331.4208984375
325.01220703125
316.7724609375
322.265625
309.4482421875
298.4619140625
290.22216796875
284.72900390625
292.05322265625
292.96875
304.87060546875
306.70166015625
297.54638671875
307.6171875
303.955078125
290.22216796875
288.39111328125
281.06689453125
280.1513671875
270.99609375
269.1650390625
255.43212890625
261.8408203125
244.44580078125
231.62841796875
208.740234375
203.2470703125
212.40234375
208.740234375
186.767578125
187.68310546875
186.767578125
186.767578125
176.69677734375
191.34521484375
178.52783203125
151.9775390625
167.54150390625
158.38623046875
161.1328125
158.38623046875
139.16015625
121.76513671875
106.201171875
86.97509765625
79.65087890625
101.62353515625
98.876953125
107.11669921875
115.3564453125
113.525390625
121.76513671875
83.31298828125
68.66455078125
65.91796875
75.0732421875
84.228515625
99.79248046875
91.552734375
86.97509765625
101.62353515625
101.62353515625
95.21484375
87.890625
76.904296875
74.15771484375
90.63720703125
88.80615234375
81.48193359375
85.14404296875
86.97509765625
77.81982421875
81.48193359375
78.7353515625
85.14404296875
111.6943359375
98.876953125
96.13037109375
105.28564453125
113.525390625
123.59619140625
123.59619140625
115.3564453125
114.44091796875
127.25830078125
111.6943359375
135.498046875
143.73779296875
147.39990234375
141.90673828125
147.39990234375
130.0048828125
133.6669921875
125.42724609375
129.08935546875
142.822265625
154.72412109375
170.2880859375
179.443359375
184.02099609375
198.66943359375
205.078125
213.31787109375
211.48681640625
216.97998046875
221.5576171875
231.62841796875
243.5302734375
242.61474609375
241.69921875
237.12158203125
235.29052734375
251.77001953125
269.1650390625
278.3203125
284.72900390625
268.24951171875
270.08056640625
247.1923828125
227.96630859375
210.5712890625
188.5986328125
186.767578125
179.443359375
151.9775390625
139.16015625
134.58251953125
139.16015625
125.42724609375
123.59619140625
151.9775390625
147.39990234375
123.59619140625
119.93408203125
108.0322265625
95.21484375
104.3701171875
96.13037109375
90.63720703125
86.0595703125
83.31298828125
85.14404296875
85.14404296875
82.3974609375
86.0595703125
83.31298828125
86.0595703125
81.48193359375
70.49560546875
61.34033203125
55.84716796875
71.4111328125
70.49560546875
70.49560546875
79.65087890625
70.49560546875
74.15771484375
65.91796875
61.34033203125
54.931640625
50.35400390625
46.69189453125
46.69189453125
43.02978515625
29.296875
41.19873046875
39.36767578125
38.4521484375
36.62109375
31.1279296875
48.52294921875
53.1005859375
102.5390625
145.56884765625
206.9091796875
290.22216796875
359.80224609375
500.79345703125
660.09521484375
786.43798828125
860.595703125
853.271484375
746.15478515625
584.1064453125
377.197265625
177.6123046875
3.662109375
-120.849609375
-238.037109375
-313.1103515625
-342.4072265625
-355.224609375
-346.0693359375
-339.66064453125
-297.54638671875
-225.2197265625
-147.39990234375
-62.255859375
4.57763671875
41.19873046875
58.59375
80.56640625
85.14404296875
79.65087890625
86.97509765625
105.28564453125
112.60986328125
124.51171875
129.08935546875
129.08935546875
140.07568359375
142.822265625
135.498046875
114.44091796875
83.31298828125
90.63720703125
100.7080078125
116.27197265625
110.77880859375
130.0048828125
130.92041015625
135.498046875
134.58251953125
143.73779296875
135.498046875
140.9912109375
148.3154296875
145.56884765625
141.90673828125
162.04833984375
164.794921875
163.87939453125
146.484375
156.55517578125
158.38623046875
169.37255859375
169.37255859375
173.9501953125
182.18994140625
189.51416015625
182.18994140625
190.4296875
189.51416015625
188.5986328125
183.10546875
183.10546875
179.443359375
203.2470703125
209.65576171875
212.40234375
216.97998046875
216.064453125
214.2333984375
202.33154296875
197.75390625
190.4296875
209.65576171875
215.14892578125
234.375
261.8408203125
245.361328125
211.48681640625
225.2197265625
254.5166015625
259.09423828125
270.08056640625
258.1787109375
264.58740234375
264.58740234375
273.74267578125
291.1376953125
299.37744140625
315.85693359375
308.53271484375
316.7724609375
322.265625
312.19482421875
312.19482421875
302.1240234375
317.68798828125
311.279296875
317.68798828125
313.1103515625
317.68798828125
307.6171875
292.05322265625
296.630859375
315.85693359375
304.87060546875
318.603515625
308.53271484375
271.91162109375
261.8408203125
251.77001953125
245.361328125
248.10791015625
237.12158203125
227.96630859375
223.388671875
221.5576171875
216.064453125
205.078125
197.75390625
204.16259765625
203.2470703125
183.10546875
191.34521484375
183.10546875
172.119140625
166.6259765625
141.90673828125
131.8359375
128.173828125
116.27197265625
130.92041015625
134.58251953125
122.6806640625
125.42724609375
122.6806640625
115.3564453125
108.0322265625
97.96142578125
101.62353515625
111.6943359375
88.80615234375
90.63720703125
104.3701171875
108.0322265625
108.0322265625
100.7080078125
105.28564453125
108.0322265625
89.7216796875
79.65087890625
69.580078125
74.15771484375
79.65087890625
78.7353515625
75.0732421875
71.4111328125
90.63720703125
100.7080078125
98.876953125
107.11669921875
122.6806640625
124.51171875
108.94775390625
100.7080078125
99.79248046875
109.86328125
109.86328125
86.0595703125
86.97509765625
84.228515625
94.29931640625
110.77880859375
116.27197265625
111.6943359375
119.0185546875
129.08935546875
131.8359375
113.525390625
105.28564453125
115.3564453125
130.92041015625
119.93408203125
121.76513671875
125.42724609375
130.0048828125
123.59619140625
123.59619140625
131.8359375
138.24462890625
156.55517578125
156.55517578125
167.54150390625
177.6123046875
152.89306640625
160.21728515625
158.38623046875
156.55517578125
150.146484375
151.06201171875
164.794921875
184.9365234375
202.33154296875
202.33154296875
218.81103515625
223.388671875
228.8818359375
230.712890625
234.375
237.12158203125
241.69921875
245.361328125
243.5302734375
236.2060546875
215.14892578125
213.31787109375
207.82470703125
200.50048828125
199.5849609375
194.091796875
186.767578125
170.2880859375
157.470703125
169.37255859375
154.72412109375
132.75146484375
139.16015625
138.24462890625
135.498046875
120.849609375
121.76513671875
128.173828125
114.44091796875
100.7080078125
87.890625
80.56640625
77.81982421875
74.15771484375
75.0732421875
66.83349609375
60.4248046875
76.904296875
79.65087890625
69.580078125
65.91796875
54.01611328125
59.50927734375
47.607421875
63.17138671875
75.98876953125
68.66455078125
73.2421875
79.65087890625
75.0732421875
50.35400390625
45.7763671875
56.7626953125
36.62109375
25.634765625
15.56396484375
30.21240234375
31.1279296875
29.296875
38.4521484375
27.4658203125
29.296875
29.296875
34.7900390625
37.53662109375
12.8173828125
0
0.91552734375
-2.74658203125
-11.90185546875
14.6484375
54.931640625
122.6806640625
162.04833984375
247.1923828125
320.4345703125
389.09912109375
525.5126953125
718.68896484375
866.0888671875
942.9931640625
919.189453125
793.76220703125
593.26171875
372.61962890625
175.78125
-26.55029296875
-172.119140625
-297.54638671875
-389.09912109375
-426.6357421875
-436.70654296875
-415.6494140625
-375.3662109375
-306.70166015625
-217.8955078125
-125.42724609375
-37.53662109375
43.9453125
65.00244140625
77.81982421875
109.86328125
81.48193359375
72.32666015625
75.98876953125
86.0595703125
81.48193359375
75.98876953125
79.65087890625
99.79248046875
93.3837890625
105.28564453125
105.28564453125
88.80615234375
90.63720703125
87.890625
111.6943359375
104.3701171875
111.6943359375
117.1875
124.51171875
136.41357421875
145.56884765625
155.6396484375
162.04833984375
130.92041015625
116.27197265625
130.0048828125
117.1875
125.42724609375
130.0048828125
135.498046875
145.56884765625
138.24462890625
120.849609375
130.0048828125
145.56884765625
172.119140625
188.5986328125
188.5986328125
178.52783203125
196.83837890625
190.4296875
173.9501953125
162.04833984375
152.89306640625
148.3154296875
162.9638671875
175.78125
196.83837890625
200.50048828125
195.00732421875
198.66943359375
195.00732421875
205.078125
205.99365234375
207.82470703125
224.30419921875
233.45947265625
228.8818359375
222.47314453125
223.388671875
232.5439453125
257.26318359375
263.671875
271.91162109375
267.333984375
275.57373046875
278.3203125
291.1376953125
297.54638671875
307.6171875
314.02587890625
317.68798828125
297.54638671875
279.23583984375
281.06689453125
283.8134765625
298.4619140625
313.1103515625
323.18115234375
332.33642578125
329.58984375
327.7587890625
335.99853515625
323.18115234375
310.36376953125
305.7861328125
311.279296875
304.87060546875
307.6171875
291.1376953125
274.658203125
273.74267578125
264.58740234375
255.43212890625
257.26318359375
241.69921875
222.47314453125
216.064453125
208.740234375
198.66943359375
192.2607421875
197.75390625
174.86572265625
168.45703125
157.470703125
146.484375
137.3291015625
137.3291015625
133.6669921875
123.59619140625
120.849609375
113.525390625
108.0322265625
107.11669921875
92.46826171875
82.3974609375
77.81982421875
82.3974609375
81.48193359375
87.890625
86.0595703125
93.3837890625
93.3837890625
78.7353515625
74.15771484375
67.7490234375
60.4248046875
68.66455078125
54.931640625
50.35400390625
63.17138671875
79.65087890625
65.91796875
56.7626953125
59.50927734375
64.0869140625
62.255859375
45.7763671875
54.01611328125
60.4248046875
62.255859375
59.50927734375
69.580078125
75.98876953125
78.7353515625
88.80615234375
83.31298828125
69.580078125
81.48193359375
69.580078125
68.66455078125
68.66455078125
76.904296875
72.32666015625
65.91796875
68.66455078125
85.14404296875
96.13037109375
91.552734375
87.890625
94.29931640625
101.62353515625
96.13037109375
96.13037109375
113.525390625
139.16015625
130.92041015625
136.41357421875
141.90673828125
134.58251953125
144.6533203125
130.92041015625
136.41357421875
131.8359375
160.21728515625
182.18994140625
192.2607421875
205.99365234375
224.30419921875
226.13525390625
221.5576171875
205.078125
206.9091796875
209.65576171875
212.40234375
204.16259765625
195.00732421875
203.2470703125
209.65576171875
193.17626953125
195.9228515625
197.75390625
203.2470703125
192.2607421875
204.16259765625
189.51416015625
160.21728515625
143.73779296875
138.24462890625
118.10302734375
110.77880859375
95.21484375
78.7353515625
73.2421875
68.66455078125
81.48193359375
70.49560546875
63.17138671875
58.59375
50.35400390625
54.931640625
44.86083984375
35.70556640625
24.71923828125
15.56396484375
25.634765625
35.70556640625
28.38134765625
24.71923828125
51.26953125
30.21240234375
12.8173828125
29.296875
1.8310546875
6.40869140625
10.07080078125
13.73291015625
17.39501953125
17.39501953125
12.8173828125
10.07080078125
19.22607421875
14.6484375
16.4794921875
1.8310546875
-5.4931640625
7.32421875
2.74658203125
-1.8310546875
10.986328125
-7.32421875
-23.8037109375
-10.986328125
-6.40869140625
-8.23974609375
-15.56396484375
-26.55029296875
-38.4521484375
-54.931640625
-53.1005859375
-25.634765625
8.23974609375
64.0869140625
123.59619140625
216.97998046875
307.6171875
401.91650390625
556.640625
729.67529296875
865.17333984375
939.3310546875
907.28759765625
783.69140625
590.51513671875
374.45068359375
149.23095703125
-59.50927734375
-204.16259765625
-337.82958984375
-413.818359375
-456.84814453125
-475.15869140625
-455.01708984375
-403.74755859375
-326.84326171875
-228.8818359375
-130.0048828125
-67.7490234375
-16.4794921875
-2.74658203125
6.40869140625
28.38134765625
43.9453125
45.7763671875
56.7626953125
60.4248046875
52.18505859375
57.67822265625
69.580078125
63.17138671875
65.00244140625
56.7626953125
54.01611328125
54.931640625
50.35400390625
56.7626953125
65.91796875
82.3974609375
73.2421875
91.552734375
89.7216796875
78.7353515625
80.56640625
78.7353515625
76.904296875
65.00244140625
69.580078125
59.50927734375
66.83349609375
74.15771484375
78.7353515625
74.15771484375
85.14404296875
97.96142578125
108.0322265625
113.525390625
119.93408203125
124.51171875
112.60986328125
97.0458984375
94.29931640625
95.21484375
103.45458984375
115.3564453125
104.3701171875
98.876953125
117.1875
112.60986328125
128.173828125
135.498046875
142.822265625
136.41357421875
147.39990234375
146.484375
147.39990234375
140.07568359375
143.73779296875
153.80859375
166.6259765625
183.10546875
202.33154296875
203.2470703125
211.48681640625
211.48681640625
206.9091796875
199.5849609375
195.9228515625
204.16259765625
215.14892578125
211.48681640625
224.30419921875
231.62841796875
230.712890625
235.29052734375
238.95263671875
245.361328125
271.91162109375
264.58740234375
227.05078125
235.29052734375
245.361328125
235.29052734375
242.61474609375
239.8681640625
240.78369140625
244.44580078125
235.29052734375
240.78369140625
237.12158203125
221.5576171875
228.8818359375
232.5439453125
213.31787109375
202.33154296875
204.16259765625
196.83837890625
178.52783203125
181.2744140625
181.2744140625
169.37255859375
152.89306640625
146.484375
139.16015625
145.56884765625
125.42724609375
119.0185546875
103.45458984375
112.60986328125
80.56640625
54.931640625
65.91796875
57.67822265625
29.296875
18.310546875
5.4931640625
15.56396484375
28.38134765625
32.04345703125
35.70556640625
48.52294921875
39.36767578125
26.55029296875
6.40869140625
4.57763671875
13.73291015625
7.32421875
10.07080078125
21.05712890625
25.634765625
30.21240234375
21.05712890625
23.8037109375
15.56396484375
3.662109375
-5.4931640625
9.1552734375
10.07080078125
11.90185546875
1.8310546875
-7.32421875
7.32421875
3.662109375
19.22607421875
15.56396484375
21.05712890625
5.4931640625
-0.91552734375
7.32421875
-2.74658203125
-17.39501953125
-8.23974609375
0.91552734375
26.55029296875
17.39501953125
21.05712890625
20.1416015625
19.22607421875
13.73291015625
14.6484375
30.21240234375
37.53662109375
54.931640625
53.1005859375
60.4248046875
44.86083984375
37.53662109375
58.59375
32.958984375
33.87451171875
13.73291015625
2.74658203125
19.22607421875
22.88818359375
50.35400390625
62.255859375
61.34033203125
80.56640625
100.7080078125
101.62353515625
110.77880859375
113.525390625
110.77880859375
102.5390625
94.29931640625
102.5390625
105.28564453125
112.60986328125
105.28564453125
116.27197265625
141.90673828125
155.6396484375
145.56884765625
154.72412109375
161.1328125
180.35888671875
181.2744140625
189.51416015625
192.2607421875
170.2880859375
151.06201171875
117.1875
123.59619140625
130.0048828125
131.8359375
132.75146484375
110.77880859375
97.96142578125
79.65087890625
72.32666015625
58.59375
53.1005859375
46.69189453125
32.958984375
12.8173828125
-7.32421875
3.662109375
-12.8173828125
-7.32421875
-12.8173828125
-0.91552734375
9.1552734375
-2.74658203125
0
11.90185546875
-6.40869140625
-21.05712890625
-23.8037109375
-22.88818359375
-15.56396484375
-4.57763671875
-31.1279296875
-19.22607421875
-29.296875
-43.9453125
-36.62109375
-20.1416015625
-11.90185546875
-23.8037109375
-32.958984375
-36.62109375
-32.958984375
-24.71923828125
-36.62109375
-39.36767578125
-55.84716796875
-48.52294921875
-54.01611328125
-61.34033203125
-65.00244140625
-67.7490234375
-61.34033203125
-55.84716796875
-56.7626953125
-57.67822265625
-69.580078125
-90.63720703125
-95.21484375
-98.876953125
-79.65087890625
-53.1005859375
8.23974609375
66.83349609375
140.07568359375
212.40234375
302.1240234375
459.5947265625
655.517578125
787.353515625
851.4404296875
821.22802734375
694.88525390625
525.5126953125
326.84326171875
136.41357421875
-66.83349609375
-211.48681640625
-337.82958984375
-424.8046875
-466.9189453125
-475.15869140625
-465.087890625
-440.36865234375
-365.29541015625
-277.40478515625
-197.75390625
-118.10302734375
-64.0869140625
-33.87451171875
-24.71923828125
-19.22607421875
-13.73291015625
-10.07080078125
-6.40869140625
0.91552734375
0
-3.662109375
2.74658203125
-3.662109375
4.57763671875
5.4931640625
15.56396484375
31.1279296875
18.310546875
29.296875
19.22607421875
21.97265625
20.1416015625
19.22607421875
8.23974609375
22.88818359375
39.36767578125
24.71923828125
38.4521484375
53.1005859375
59.50927734375
50.35400390625
44.86083984375
43.02978515625
50.35400390625
52.18505859375
64.0869140625
81.48193359375
64.0869140625
73.2421875
73.2421875
68.66455078125
71.4111328125
68.66455078125
68.66455078125
58.59375
68.66455078125
75.98876953125
56.7626953125
65.00244140625
61.34033203125
76.904296875
84.228515625
92.46826171875
91.552734375
99.79248046875
99.79248046875
100.7080078125
114.44091796875
112.60986328125
115.3564453125
123.59619140625
121.76513671875
146.484375
125.42724609375
152.89306640625
159.3017578125
153.80859375
171.20361328125
166.6259765625
165.71044921875
173.9501953125
164.794921875
156.55517578125
169.37255859375
173.9501953125
177.6123046875
175.78125
194.091796875
194.091796875
201.416015625
218.81103515625
210.5712890625
196.83837890625
187.68310546875
185.85205078125
202.33154296875
203.2470703125
188.5986328125
195.9228515625
195.00732421875
189.51416015625
180.35888671875
178.52783203125
196.83837890625
190.4296875
191.34521484375
172.119140625
157.470703125
156.55517578125
149.23095703125
135.498046875
127.25830078125
121.76513671875
110.77880859375
111.6943359375
89.7216796875
97.0458984375
89.7216796875
75.98876953125
73.2421875
65.91796875
51.26953125
61.34033203125
48.52294921875
39.36767578125
32.04345703125
9.1552734375
3.662109375
6.40869140625
7.32421875
12.8173828125
11.90185546875
17.39501953125
13.73291015625
17.39501953125
6.40869140625
0.91552734375
-8.23974609375
-7.32421875
-13.73291015625
-23.8037109375
-20.1416015625
-13.73291015625
-21.05712890625
-21.05712890625
-21.05712890625
-35.70556640625
-49.4384765625
-46.69189453125
-45.7763671875
-37.53662109375
-36.62109375
-35.70556640625
-29.296875
-32.958984375
-16.4794921875
-15.56396484375
-24.71923828125
-37.53662109375
-29.296875
-14.6484375
-8.23974609375
10.07080078125
18.310546875
15.56396484375
17.39501953125
10.986328125
1.8310546875
1.8310546875
1.8310546875
-2.74658203125
7.32421875
7.32421875
-4.57763671875
10.07080078125
14.6484375
11.90185546875
-1.8310546875
2.74658203125
10.986328125
19.22607421875
20.1416015625
5.4931640625
15.56396484375
19.22607421875
19.22607421875
4.57763671875
0.91552734375
-7.32421875
-12.8173828125
3.662109375
16.4794921875
19.22607421875
10.986328125
-3.662109375
-6.40869140625
-4.57763671875
-3.662109375
2.74658203125
16.4794921875
35.70556640625
54.01611328125
48.52294921875
52.18505859375
45.7763671875
57.67822265625
65.00244140625
44.86083984375
50.35400390625
45.7763671875
43.9453125
60.4248046875
75.0732421875
97.0458984375
99.79248046875
95.21484375
81.48193359375
96.13037109375
114.44091796875
125.42724609375
123.59619140625
135.498046875
153.80859375
146.484375
125.42724609375
124.51171875
115.3564453125
111.6943359375
95.21484375
85.14404296875
64.0869140625
51.26953125
39.36767578125
28.38134765625
11.90185546875
-5.4931640625
-11.90185546875
-14.6484375
-15.56396484375
-27.4658203125
-23.8037109375
-10.986328125
-12.8173828125
-27.4658203125
-32.958984375
-29.296875
-20.1416015625
-15.56396484375
-28.38134765625
-50.35400390625
-43.9453125
-45.7763671875
-52.18505859375
-43.9453125
-42.1142578125
-32.04345703125
-42.1142578125
-49.4384765625
-78.7353515625
-77.81982421875
-65.00244140625
-72.32666015625
-81.48193359375
-68.66455078125
-68.66455078125
-69.580078125
-72.32666015625
-97.0458984375
-92.46826171875
-76.904296875
-74.15771484375
-60.4248046875
-64.0869140625
-80.56640625
-91.552734375
-86.97509765625
-111.6943359375
-108.94775390625
-105.28564453125
-128.173828125
-96.13037109375
-66.83349609375
-31.1279296875
16.4794921875
87.890625
184.9365234375
237.12158203125
358.88671875
516.357421875
678.40576171875
744.32373046875
738.83056640625
637.20703125
476.07421875
289.306640625
117.1875
-103.45458984375
-259.09423828125
-376.28173828125
-472.412109375
-498.96240234375
-510.8642578125
-507.2021484375
-475.15869140625
-418.39599609375
-334.16748046875
-251.77001953125
-187.68310546875
-119.0185546875
-73.2421875
-63.17138671875
-35.70556640625
-33.87451171875
-28.38134765625
-26.55029296875
-16.4794921875
-21.97265625
-23.8037109375
-35.70556640625
-21.97265625
-2.74658203125
-24.71923828125
-8.23974609375
13.73291015625
4.57763671875
-1.8310546875
-3.662109375
-13.73291015625
-10.986328125
-1.8310546875
0.91552734375
5.4931640625
9.1552734375
5.4931640625
0
10.986328125
15.56396484375
21.97265625
17.39501953125
58.59375
39.36767578125
43.9453125
73.2421875
53.1005859375
39.36767578125
42.1142578125
27.4658203125
12.8173828125
13.73291015625
18.310546875
34.7900390625
35.70556640625
32.04345703125
43.02978515625
47.607421875
45.7763671875
48.52294921875
55.84716796875
65.00244140625
68.66455078125
76.904296875
87.890625
84.228515625
102.5390625
99.79248046875
102.5390625
98.876953125
98.876953125
87.890625
86.0595703125
89.7216796875
91.552734375
128.173828125
131.8359375
137.3291015625
139.16015625
125.42724609375
146.484375
158.38623046875
140.07568359375
138.24462890625
143.73779296875
148.3154296875
162.9638671875
173.9501953125
182.18994140625
170.2880859375
182.18994140625
154.72412109375
166.6259765625
166.6259765625
146.484375
154.72412109375
173.03466796875
171.20361328125
169.37255859375
159.3017578125
200.50048828125
162.9638671875
140.07568359375
179.443359375
161.1328125
139.16015625
144.6533203125
125.42724609375
120.849609375
68.66455078125
138.24462890625
168.45703125
113.525390625
83.31298828125
68.66455078125
70.49560546875
61.34033203125
71.4111328125
90.63720703125
67.7490234375
34.7900390625
31.1279296875
-3.662109375
24.71923828125
0.91552734375
19.22607421875
-1.8310546875
24.71923828125
-9.1552734375
-8.23974609375
-2.74658203125
-28.38134765625
-11.90185546875
-33.87451171875
-26.55029296875
-33.87451171875
-17.39501953125
-33.87451171875
-26.55029296875
-32.04345703125
-54.931640625
-56.7626953125
-77.81982421875
-43.02978515625
-31.1279296875
-59.50927734375
-101.62353515625
-72.32666015625
-40.283203125
-16.4794921875
-40.283203125
-38.4521484375
-29.296875
-15.56396484375
-26.55029296875
-25.634765625
-45.7763671875
-53.1005859375
-54.931640625
-18.310546875
-25.634765625
-36.62109375
-48.52294921875
-25.634765625
-44.86083984375
-55.84716796875
-54.931640625
2.74658203125
-19.22607421875
-13.73291015625
-8.23974609375
-22.88818359375
-26.55029296875
-12.8173828125
-2.74658203125
7.32421875
3.662109375
22.88818359375
-15.56396484375
10.986328125
-8.23974609375
-11.90185546875
-2.74658203125
-9.1552734375
-36.62109375
-50.35400390625
4.57763671875
17.39501953125
-1.8310546875
-12.8173828125
-8.23974609375
-7.32421875
-11.90185546875
-22.88818359375
-33.87451171875
-31.1279296875
-31.1279296875
-2.74658203125
9.1552734375
0
-20.1416015625
-38.4521484375
-38.4521484375
-34.7900390625
-30.21240234375
-24.71923828125
-35.70556640625
-27.4658203125
-28.38134765625
-23.8037109375
-21.05712890625
-8.23974609375
-8.23974609375
-24.71923828125
-24.71923828125
-43.02978515625
-43.9453125
-44.86083984375
-34.7900390625
-19.22607421875
-21.05712890625
-10.986328125
-11.90185546875
-15.56396484375
15.56396484375
25.634765625
43.9453125
37.53662109375
50.35400390625
32.04345703125
10.07080078125
12.8173828125
33.87451171875
54.01611328125
63.17138671875
68.66455078125
69.580078125
75.98876953125
74.15771484375
75.98876953125
88.80615234375
109.86328125
110.77880859375
102.5390625
91.552734375
78.7353515625
70.49560546875
77.81982421875
75.98876953125
73.2421875
66.83349609375
54.931640625
46.69189453125
40.283203125
42.1142578125
43.9453125
24.71923828125
36.62109375
36.62109375
16.4794921875
23.8037109375
10.986328125
7.32421875
10.07080078125
-9.1552734375
-34.7900390625
-41.19873046875
-31.1279296875
-32.958984375
-38.4521484375
-38.4521484375
-37.53662109375
-52.18505859375
-51.26953125
-44.86083984375
-49.4384765625
-52.18505859375
-50.35400390625
-69.580078125
-48.52294921875
-50.35400390625
-50.35400390625
-60.4248046875
-64.0869140625
-76.904296875
-74.15771484375
-71.4111328125
-78.7353515625
-64.0869140625
-59.50927734375
-64.0869140625
-76.904296875
-75.0732421875
-72.32666015625
-55.84716796875
-60.4248046875
-84.228515625
-119.0185546875
-126.3427734375
-133.6669921875
-97.0458984375
-43.9453125
11.90185546875
44.86083984375
152.89306640625
221.5576171875
306.70166015625
427.55126953125
596.923828125
708.6181640625
751.64794921875
701.2939453125
571.2890625
400.08544921875
209.65576171875
-8.23974609375
-189.51416015625
-309.4482421875
-397.3388671875
-446.77734375
-463.2568359375
-477.9052734375
-479.736328125
-459.5947265625
-397.3388671875
-301.20849609375
-212.40234375
-143.73779296875
-86.97509765625
-38.4521484375
-21.97265625
-7.32421875
5.4931640625
-16.4794921875
-19.22607421875
-14.6484375
-1.8310546875
-14.6484375
-28.38134765625
-13.73291015625
-10.986328125
7.32421875
26.55029296875
35.70556640625
33.87451171875
29.296875
30.21240234375
32.04345703125
23.8037109375
19.22607421875
15.56396484375
18.310546875
29.296875
18.310546875
20.1416015625
32.04345703125
33.87451171875
57.67822265625
55.84716796875
48.52294921875
42.1142578125
30.21240234375
32.958984375
31.1279296875
37.53662109375
38.4521484375
48.52294921875
42.1142578125
55.84716796875
65.00244140625
59.50927734375
68.66455078125
74.15771484375
75.98876953125
85.14404296875
92.46826171875
91.552734375
103.45458984375
114.44091796875
110.77880859375
109.86328125
106.201171875
88.80615234375
89.7216796875
108.94775390625
109.86328125
104.3701171875
119.93408203125
130.0048828125
136.41357421875
134.58251953125
138.24462890625
148.3154296875
157.470703125
177.6123046875
162.9638671875
156.55517578125
161.1328125
175.78125
179.443359375
177.6123046875
183.10546875
185.85205078125
174.86572265625
174.86572265625
183.10546875
190.4296875
205.99365234375
227.96630859375
207.82470703125
183.10546875
187.68310546875
200.50048828125
208.740234375
211.48681640625
206.9091796875
195.9228515625
176.69677734375
180.35888671875
182.18994140625
174.86572265625
168.45703125
160.21728515625
173.03466796875
168.45703125
166.6259765625
154.72412109375
148.3154296875
131.8359375
120.849609375
121.76513671875
116.27197265625
106.201171875
92.46826171875
85.14404296875
87.890625
83.31298828125
86.0595703125
88.80615234375
81.48193359375
77.81982421875
74.15771484375
56.7626953125
24.71923828125
18.310546875
-1.8310546875
-9.1552734375
0.91552734375
14.6484375
-1.8310546875
10.986328125
0
3.662109375
-6.40869140625
-6.40869140625
-21.05712890625
-10.986328125
-14.6484375
-14.6484375
-1.8310546875
5.4931640625
11.90185546875
-8.23974609375
-21.97265625
-15.56396484375
-28.38134765625
-29.296875
-41.19873046875
-26.55029296875
-21.97265625
-23.8037109375
-15.56396484375
-20.1416015625
-14.6484375
-26.55029296875
-4.57763671875
23.8037109375
15.56396484375
3.662109375
8.23974609375
-4.57763671875
-12.8173828125
-7.32421875
22.88818359375
-3.662109375
-10.986328125
-10.986328125
-12.8173828125
-9.1552734375
-5.4931640625
9.1552734375
-2.74658203125
16.4794921875
19.22607421875
1.8310546875
5.4931640625
5.4931640625
17.39501953125
26.55029296875
34.7900390625
25.634765625
30.21240234375
7.32421875
-4.57763671875
0.91552734375
7.32421875
-5.4931640625
-9.1552734375
2.74658203125
7.32421875
20.1416015625
23.8037109375
26.55029296875
6.40869140625
12.8173828125
6.40869140625
-5.4931640625
-4.57763671875
-3.662109375
-9.1552734375
-10.986328125
-5.4931640625
-12.8173828125
-11.90185546875
-7.32421875
-9.1552734375
-6.40869140625
-6.40869140625
-10.986328125
-4.57763671875
0
12.8173828125
-6.40869140625
-22.88818359375
-26.55029296875
-11.90185546875
-14.6484375
-10.07080078125
-6.40869140625
-17.39501953125
4.57763671875
28.38134765625
3.662109375
-0.91552734375
11.90185546875
21.05712890625
23.8037109375
38.4521484375
56.7626953125
56.7626953125
32.958984375
15.56396484375
25.634765625
22.88818359375
29.296875
58.59375
55.84716796875
75.98876953125
106.201171875
102.5390625
96.13037109375
96.13037109375
123.59619140625
111.6943359375
90.63720703125
97.96142578125
100.7080078125
80.56640625
85.14404296875
107.11669921875
98.876953125
80.56640625
75.98876953125
67.7490234375
69.580078125
80.56640625
71.4111328125
55.84716796875
46.69189453125
41.19873046875
21.05712890625
9.1552734375
11.90185546875
10.986328125
2.74658203125
-23.8037109375
-19.22607421875
-22.88818359375
-22.88818359375
-22.88818359375
-41.19873046875
-32.04345703125
-29.296875
-23.8037109375
-19.22607421875
-13.73291015625
-26.55029296875
-10.986328125
-8.23974609375
-17.39501953125
-33.87451171875
-35.70556640625
-41.19873046875
-54.931640625
-54.01611328125
-57.67822265625
-53.1005859375
-53.1005859375
-49.4384765625
-65.00244140625
-60.4248046875
-47.607421875
-49.4384765625
-50.35400390625
-40.283203125
-46.69189453125
-55.84716796875
-68.66455078125
-90.63720703125
-104.3701171875
-137.3291015625
-132.75146484375
-78.7353515625
-34.7900390625
24.71923828125
78.7353515625
157.470703125
196.83837890625
295.71533203125
473.32763671875
626.220703125
728.759765625
769.95849609375
689.39208984375
527.34375
361.63330078125
158.38623046875
-26.55029296875
-199.5849609375
-311.279296875
-427.55126953125
-461.42578125
-490.72265625
-486.14501953125
-466.9189453125
-432.12890625
-351.5625
-265.5029296875
-201.416015625
-129.08935546875
-86.97509765625
-48.52294921875
-33.87451171875
-20.1416015625
-28.38134765625
-10.986328125
4.57763671875
24.71923828125
10.986328125
-4.57763671875
2.74658203125
-12.8173828125
-10.986328125
-7.32421875
-1.8310546875
16.4794921875
16.4794921875
15.56396484375
-1.8310546875
-3.662109375
11.90185546875
12.8173828125
32.04345703125
21.05712890625
27.4658203125
35.70556640625
17.39501953125
-13.73291015625
-10.986328125
-9.1552734375
-2.74658203125
10.07080078125
65.91796875
86.0595703125
84.228515625
93.3837890625
82.3974609375
69.580078125
26.55029296875
21.05712890625
32.958984375
51.26953125
58.59375
55.84716796875
52.18505859375
52.18505859375
59.50927734375
65.91796875
71.4111328125
83.31298828125
93.3837890625
76.904296875
43.9453125
43.9453125
64.0869140625
69.580078125
59.50927734375
56.7626953125
80.56640625
87.890625
77.81982421875
93.3837890625
107.11669921875
122.6806640625
126.3427734375
116.27197265625
117.1875
123.59619140625
131.8359375
148.3154296875
147.39990234375
147.39990234375
161.1328125
158.38623046875
163.87939453125
175.78125
182.18994140625
180.35888671875
197.75390625
196.83837890625
160.21728515625
179.443359375
178.52783203125
162.9638671875
131.8359375
124.51171875
129.08935546875
132.75146484375
141.90673828125
160.21728515625
161.1328125
167.54150390625
152.89306640625
140.07568359375
150.146484375
141.90673828125
142.822265625
136.41357421875
149.23095703125
148.3154296875
116.27197265625
91.552734375
76.904296875
52.18505859375
69.580078125
65.00244140625
53.1005859375
3.662109375
-3.662109375
-11.90185546875
-20.1416015625
17.39501953125
6.40869140625
-6.40869140625
-14.6484375
3.662109375
5.4931640625
11.90185546875
-0.91552734375
-15.56396484375
-39.36767578125
-48.52294921875
-67.7490234375
-46.69189453125
-28.38134765625
-39.36767578125
-30.21240234375
-29.296875
-45.7763671875
-46.69189453125
-62.255859375
-67.7490234375
-64.0869140625
-48.52294921875
-42.1142578125
-27.4658203125
-17.39501953125
-37.53662109375
-65.00244140625
-38.4521484375
-36.62109375
-82.3974609375
-97.0458984375
-86.97509765625
-91.552734375
-61.34033203125
-32.958984375
-21.05712890625
-26.55029296875
-46.69189453125
-68.66455078125
-97.96142578125
-81.48193359375
-87.890625
-86.97509765625
-86.0595703125
-64.0869140625
-43.02978515625
-32.958984375
-39.36767578125
-51.26953125
-49.4384765625
-59.50927734375
-47.607421875
-43.02978515625
-54.01611328125
-51.26953125
-62.255859375
-57.67822265625
-43.02978515625
-21.97265625
-27.4658203125
-27.4658203125
-11.90185546875
-21.05712890625
-8.23974609375
-7.32421875
-15.56396484375
-10.986328125
-41.19873046875
-62.255859375
-59.50927734375
-46.69189453125
-29.296875
-26.55029296875
-39.36767578125
-58.59375
-44.86083984375
-55.84716796875
-54.931640625
-41.19873046875
-54.01611328125
-75.0732421875
-75.98876953125
-70.49560546875
-72.32666015625
-65.00244140625
-84.228515625
-73.2421875
-70.49560546875
-55.84716796875
-74.15771484375
-68.66455078125
-73.2421875
-89.7216796875
-111.6943359375
-108.94775390625
-97.0458984375
-83.31298828125
-70.49560546875
-46.69189453125
-19.22607421875
-9.1552734375
-10.986328125
-33.87451171875
-58.59375
-32.958984375
-48.52294921875
-49.4384765625
-36.62109375
-41.19873046875
-16.4794921875
19.22607421875
44.86083984375
58.59375
54.931640625
15.56396484375
24.71923828125
50.35400390625
36.62109375
42.1142578125
43.02978515625
42.1142578125
45.7763671875
51.26953125
68.66455078125
65.00244140625
27.4658203125
27.4658203125
43.9453125
28.38134765625
32.958984375
26.55029296875
-2.74658203125
-73.2421875
-95.21484375
-80.56640625
-70.49560546875
-77.81982421875
-56.7626953125
-82.3974609375
-108.0322265625
-120.849609375
-87.890625
-70.49560546875
-67.7490234375
-70.49560546875
-86.0595703125
-103.45458984375
-130.0048828125
-128.173828125
-110.77880859375
-119.93408203125
-99.79248046875
-92.46826171875
-90.63720703125
-119.93408203125
-90.63720703125
-82.3974609375
-72.32666015625
-78.7353515625
-68.66455078125
-96.13037109375
-139.16015625
-132.75146484375
-128.173828125
-119.0185546875
-117.1875
-121.76513671875
-120.849609375
-123.59619140625
-110.77880859375
-117.1875
-119.0185546875
-136.41357421875
-170.2880859375
-155.6396484375
-141.90673828125
-124.51171875
-65.00244140625
3.662109375
78.7353515625
173.9501953125
227.05078125
335.99853515625
466.00341796875
566.71142578125
649.10888671875
670.166015625
563.96484375
406.494140625
237.12158203125
64.0869140625
-113.525390625
-259.09423828125
-376.28173828125
-470.5810546875
-521.8505859375
-546.56982421875
-547.4853515625
-546.56982421875
-485.2294921875
-411.07177734375
-336.9140625
-257.26318359375
-184.02099609375
-129.08935546875
-89.7216796875
-75.98876953125
-66.83349609375
-81.48193359375
-83.31298828125
-54.01611328125
-51.26953125
-46.69189453125
-21.05712890625
-13.73291015625
-7.32421875
-28.38134765625
-45.7763671875
-77.81982421875
-80.56640625
-66.83349609375
-54.01611328125
-58.59375
-47.607421875
-44.86083984375
-56.7626953125
-64.0869140625
-47.607421875
-43.9453125
-35.70556640625
-41.19873046875
-34.7900390625
-25.634765625
-26.55029296875
-33.87451171875
-30.21240234375
-16.4794921875
-20.1416015625
-17.39501953125
-9.1552734375
-10.07080078125
-22.88818359375
-10.986328125
-21.05712890625
5.4931640625
37.53662109375
35.70556640625
38.4521484375
7.32421875
12.8173828125
25.634765625
44.86083984375
53.1005859375
76.904296875
67.7490234375
70.49560546875
57.67822265625
51.26953125
31.1279296875
32.04345703125
12.8173828125
-7.32421875
36.62109375
54.01611328125
67.7490234375
95.21484375
128.173828125
122.6806640625
140.07568359375
103.45458984375
69.580078125
88.80615234375
77.81982421875
82.3974609375
109.86328125
137.3291015625
139.16015625
113.525390625
142.822265625
151.9775390625
125.42724609375
129.08935546875
141.90673828125
138.24462890625
154.72412109375
174.86572265625
192.2607421875
206.9091796875
182.18994140625
186.767578125
206.9091796875
168.45703125
168.45703125
176.69677734375
186.767578125
140.07568359375
79.65087890625
86.0595703125
106.201171875
131.8359375
123.59619140625
114.44091796875
101.62353515625
68.66455078125
60.4248046875
66.83349609375
77.81982421875
65.91796875
53.1005859375
67.7490234375
84.228515625
69.580078125
50.35400390625
41.19873046875
16.4794921875
-16.4794921875
17.39501953125
24.71923828125
6.40869140625
-6.40869140625
-10.986328125
-54.931640625
-76.904296875
-66.83349609375
-54.931640625
-49.4384765625
-44.86083984375
-32.958984375
-54.931640625
-40.283203125
-22.88818359375
2.74658203125
8.23974609375
-0.91552734375
-15.56396484375
-16.4794921875
-51.26953125
-60.4248046875
-73.2421875
-50.35400390625
-32.958984375
-11.90185546875
-41.19873046875
-39.36767578125
-37.53662109375
-79.65087890625
-92.46826171875
-84.228515625
-79.65087890625
-74.15771484375
-55.84716796875
-44.86083984375
-42.1142578125
-19.22607421875
-29.296875
-43.9453125
-42.1142578125
-34.7900390625
-17.39501953125
-29.296875
-32.958984375
-30.21240234375
2.74658203125
25.634765625
10.986328125
1.8310546875
-5.4931640625
-23.8037109375
-53.1005859375
-66.83349609375
-33.87451171875
-30.21240234375
-16.4794921875
-21.97265625
-9.1552734375
-24.71923828125
-37.53662109375
-27.4658203125
-16.4794921875
5.4931640625
46.69189453125
33.87451171875
26.55029296875
3.662109375
-49.4384765625
-33.87451171875
-37.53662109375
-58.59375
-75.0732421875
-63.17138671875
-41.19873046875
-25.634765625
10.986328125
19.22607421875
-12.8173828125
-29.296875
-8.23974609375
0.91552734375
22.88818359375
31.1279296875
30.21240234375
-39.36767578125
-48.52294921875
-70.49560546875
-91.552734375
-31.1279296875
9.1552734375
-9.1552734375
-15.56396484375
-4.57763671875
0.91552734375
-2.74658203125
21.05712890625
40.283203125
45.7763671875
89.7216796875
83.31298828125
47.607421875
20.1416015625
34.7900390625
65.91796875
92.46826171875
81.48193359375
41.19873046875
49.4384765625
22.88818359375
5.4931640625
49.4384765625
53.1005859375
92.46826171875
98.876953125
99.79248046875
87.890625
33.87451171875
-17.39501953125
-32.958984375
-21.97265625
7.32421875
-5.4931640625
-29.296875
-2.74658203125
-18.310546875
-48.52294921875
-86.0595703125
-97.0458984375
-79.65087890625
-75.0732421875
-63.17138671875
-78.7353515625
-42.1142578125
-49.4384765625
-55.84716796875
-67.7490234375
-108.0322265625
-133.6669921875
-118.10302734375
-132.75146484375
-129.08935546875
-85.14404296875
-75.98876953125
-103.45458984375
-123.59619140625
-119.0185546875
-130.92041015625
-108.94775390625
-45.7763671875
-43.02978515625
-65.91796875
-100.7080078125
-120.849609375
-164.794921875
-152.89306640625
-125.42724609375
-109.86328125
-119.0185546875
-128.173828125
-141.90673828125
-168.45703125
-199.5849609375
-145.56884765625
-92.46826171875
-65.00244140625
-6.40869140625
46.69189453125
115.3564453125
178.52783203125
267.333984375
394.59228515625
572.20458984375
673.828125
738.83056640625
674.74365234375
472.412109375
317.68798828125
123.59619140625
-54.01611328125
-216.97998046875
-316.7724609375
-376.28173828125
-455.01708984375
-469.66552734375
-475.15869140625
-496.2158203125
-514.5263671875
-531.92138671875
-476.07421875
-350.64697265625
-257.26318359375
-191.34521484375
-138.24462890625
-69.580078125
-37.53662109375
-87.890625
-128.173828125
-89.7216796875
-92.46826171875
-111.6943359375
-90.63720703125
-68.66455078125
-86.0595703125
-73.2421875
-59.50927734375
-49.4384765625
-23.8037109375
-31.1279296875
-16.4794921875
-22.88818359375
-43.9453125
-75.0732421875
-98.876953125
-94.29931640625
-90.63720703125
-71.4111328125
-42.1142578125
-66.83349609375
-85.14404296875
-75.0732421875
-49.4384765625
-65.91796875
-52.18505859375
-33.87451171875
-47.607421875
-46.69189453125
-52.18505859375
-38.4521484375
-43.02978515625
-29.296875
-33.87451171875
-41.19873046875
-15.56396484375
-10.986328125
7.32421875
-13.73291015625
-13.73291015625
0.91552734375
-27.4658203125
-22.88818359375
20.1416015625
38.4521484375
43.02978515625
50.35400390625
38.4521484375
-7.32421875
-5.4931640625
-9.1552734375
7.32421875
11.90185546875
21.97265625
16.4794921875
13.73291015625
13.73291015625
15.56396484375
40.283203125
55.84716796875
64.0869140625
96.13037109375
94.29931640625
98.876953125
86.0595703125
108.0322265625
100.7080078125
79.65087890625
111.6943359375
124.51171875
119.0185546875
109.86328125
120.849609375
126.3427734375
151.06201171875
140.9912109375
114.44091796875
93.3837890625
61.34033203125
88.80615234375
121.76513671875
134.58251953125
145.56884765625
133.6669921875
119.93408203125
98.876953125
83.31298828125
87.890625
80.56640625
94.29931640625
117.1875
118.10302734375
78.7353515625
82.3974609375
20.1416015625
12.8173828125
13.73291015625
28.38134765625
22.88818359375
21.05712890625
-5.4931640625
5.4931640625
8.23974609375
6.40869140625
21.97265625
26.55029296875
-19.22607421875
-29.296875
-13.73291015625
-18.310546875
-27.4658203125
-26.55029296875
-57.67822265625
-68.66455078125
-57.67822265625
-58.59375
-54.931640625
-55.84716796875
-68.66455078125
-62.255859375
-49.4384765625
-36.62109375
-25.634765625
-31.1279296875
-43.9453125
-74.15771484375
-101.62353515625
-110.77880859375
-115.3564453125
-139.16015625
-125.42724609375
-128.173828125
-111.6943359375
-108.0322265625
-108.94775390625
-108.94775390625
-112.60986328125
-97.96142578125
-82.3974609375
-75.98876953125
-82.3974609375
-86.97509765625
-76.904296875
-69.580078125
-75.98876953125
-67.7490234375
-57.67822265625
-87.890625
-87.890625
-94.29931640625
-72.32666015625
-63.17138671875
-57.67822265625
-37.53662109375
-39.36767578125
-24.71923828125
-20.1416015625
-58.59375
-75.0732421875
-54.931640625
-2.74658203125
7.32421875
-14.6484375
-42.1142578125
-57.67822265625
-69.580078125
-79.65087890625
-73.2421875
-62.255859375
-83.31298828125
-81.48193359375
-60.4248046875
-43.02978515625
-32.04345703125
-23.8037109375
-13.73291015625
-14.6484375
-13.73291015625
-16.4794921875
-22.88818359375
-6.40869140625
3.662109375
-10.07080078125
-14.6484375
-0.91552734375
10.986328125
25.634765625
40.283203125
58.59375
75.98876953125
76.904296875
77.81982421875
102.5390625
104.3701171875
95.21484375
76.904296875
70.49560546875
73.2421875
93.3837890625
103.45458984375
126.3427734375
117.1875
111.6943359375
91.552734375
24.71923828125
21.97265625
18.310546875
1.8310546875
0.91552734375
-15.56396484375
-22.88818359375
-16.4794921875
-29.296875
-32.958984375
-41.19873046875
-23.8037109375
-22.88818359375
-40.283203125
-42.1142578125
-36.62109375
-16.4794921875
-21.05712890625
-63.17138671875
-92.46826171875
-60.4248046875
-41.19873046875
-65.91796875
-67.7490234375
-101.62353515625
-116.27197265625
-89.7216796875
-72.32666015625
-76.904296875
-96.13037109375
-127.25830078125
-141.90673828125
-97.0458984375
-105.28564453125
-110.77880859375
-91.552734375
-88.80615234375
-86.97509765625
-75.98876953125
-95.21484375
-96.13037109375
-108.94775390625
-97.96142578125
-114.44091796875
-142.822265625
-162.04833984375
-150.146484375
-151.06201171875
-145.56884765625
-124.51171875
-65.91796875
-6.40869140625
88.80615234375
190.4296875
274.658203125
411.9873046875
591.4306640625
743.408203125
826.72119140625
823.974609375
728.759765625
564.88037109375
358.88671875
157.470703125
-57.67822265625
-220.64208984375
-331.4208984375
-426.6357421875
-462.34130859375
-473.32763671875
-511.77978515625
-523.681640625
-463.2568359375
-373.53515625
-290.22216796875
-214.2333984375
-155.6396484375
-103.45458984375
-81.48193359375
-80.56640625
-66.83349609375
-54.931640625
-54.931640625
-71.4111328125
-72.32666015625
-58.59375
-36.62109375
-30.21240234375
-52.18505859375
-54.01611328125
-54.931640625
-69.580078125
-59.50927734375
-51.26953125
-48.52294921875
-27.4658203125
-32.958984375
-34.7900390625
-43.9453125
-32.04345703125
-20.1416015625
-6.40869140625
-10.07080078125
-8.23974609375
-4.57763671875
-6.40869140625
-22.88818359375
-24.71923828125
-28.38134765625
-23.8037109375
-35.70556640625
-30.21240234375
-25.634765625
-17.39501953125
-25.634765625
-29.296875
-28.38134765625
-0.91552734375
3.662109375
33.87451171875
46.69189453125
16.4794921875
4.57763671875
10.07080078125
19.22607421875
32.958984375
43.02978515625
40.283203125
33.87451171875
32.958984375
64.0869140625
63.17138671875
54.01611328125
69.580078125
48.52294921875
30.21240234375
54.01611328125
63.17138671875
82.3974609375
58.59375
74.15771484375
96.13037109375
118.10302734375
130.92041015625
107.11669921875
130.0048828125
151.06201171875
152.89306640625
156.55517578125
155.6396484375
134.58251953125
127.25830078125
147.39990234375
147.39990234375
173.9501953125
185.85205078125
179.443359375
184.9365234375
188.5986328125
170.2880859375
159.3017578125
139.16015625
149.23095703125
152.89306640625
154.72412109375
143.73779296875
164.794921875
177.6123046875
163.87939453125
137.3291015625
140.9912109375
137.3291015625
139.16015625
124.51171875
102.5390625
97.96142578125
86.97509765625
90.63720703125
96.13037109375
100.7080078125
91.552734375
82.3974609375
54.931640625
40.283203125
26.55029296875
32.04345703125
21.97265625
24.71923828125
8.23974609375
3.662109375
0
5.4931640625
-20.1416015625
4.57763671875
2.74658203125
6.40869140625
-5.4931640625
-36.62109375
-73.2421875
-56.7626953125
-31.1279296875
-53.1005859375
-51.26953125
-63.17138671875
-54.01611328125
-52.18505859375
-57.67822265625
-42.1142578125
-46.69189453125
-52.18505859375
-48.52294921875
-61.34033203125
-65.91796875
-62.255859375
-65.91796875
-34.7900390625
-37.53662109375
-43.9453125
-22.88818359375
-29.296875
-44.86083984375
-43.02978515625
-24.71923828125
-21.05712890625
-20.1416015625
-33.87451171875
-54.931640625
-59.50927734375
-41.19873046875
-45.7763671875
-38.4521484375
-51.26953125
-48.52294921875
-38.4521484375
-23.8037109375
-17.39501953125
-10.986328125
-27.4658203125
-35.70556640625
-19.22607421875
-32.958984375
-16.4794921875
-8.23974609375
-12.8173828125
-18.310546875
-17.39501953125
0.91552734375
19.22607421875
23.8037109375
53.1005859375
23.8037109375
24.71923828125
11.90185546875
-1.8310546875
23.8037109375
34.7900390625
36.62109375
49.4384765625
59.50927734375
87.890625
98.876953125
103.45458984375
113.525390625
86.0595703125
97.0458984375
105.28564453125
117.1875
120.849609375
147.39990234375
124.51171875
113.525390625
115.3564453125
120.849609375
143.73779296875
131.8359375
117.1875
113.525390625
65.00244140625
14.6484375
-3.662109375
9.1552734375
10.07080078125
11.90185546875
11.90185546875
11.90185546875
19.22607421875
18.310546875
28.38134765625
8.23974609375
-15.56396484375
-27.4658203125
-21.97265625
-40.283203125
-47.607421875
-32.04345703125
-33.87451171875
-55.84716796875
-36.62109375
-30.21240234375
-59.50927734375
-54.01611328125
-79.65087890625
-72.32666015625
-67.7490234375
-71.4111328125
-54.01611328125
-40.283203125
-27.4658203125
-17.39501953125
-43.9453125
-41.19873046875
-56.7626953125
-94.29931640625
-97.96142578125
-75.0732421875
-60.4248046875
-84.228515625
-74.15771484375
-60.4248046875
-63.17138671875
-55.84716796875
-89.7216796875
-140.9912109375
-122.6806640625
-86.0595703125
-72.32666015625
-37.53662109375
45.7763671875
126.3427734375
194.091796875
283.8134765625
475.15869140625
652.77099609375
807.4951171875
890.80810546875
884.3994140625
780.94482421875
596.00830078125
394.59228515625
160.21728515625
-33.87451171875
-184.02099609375
-302.1240234375
-380.859375
-405.57861328125
-414.73388671875
-423.88916015625
-425.72021484375
-408.3251953125
-353.3935546875
-260.009765625
-172.119140625
-111.6943359375
-49.4384765625
-77.81982421875
-81.48193359375
-59.50927734375
-27.4658203125
-15.56396484375
-3.662109375
-3.662109375
-20.1416015625
-28.38134765625
-15.56396484375
-10.07080078125
-3.662109375
5.4931640625
14.6484375
13.73291015625
14.6484375
22.88818359375
49.4384765625
50.35400390625
41.19873046875
50.35400390625
59.50927734375
70.49560546875
55.84716796875
38.4521484375
8.23974609375
24.71923828125
41.19873046875
41.19873046875
58.59375
13.73291015625
21.97265625
24.71923828125
32.04345703125
43.9453125
38.4521484375
60.4248046875
65.91796875
65.91796875
81.48193359375
82.3974609375
72.32666015625
52.18505859375
50.35400390625
53.1005859375
52.18505859375
81.48193359375
105.28564453125
93.3837890625
99.79248046875
97.0458984375
98.876953125
79.65087890625
111.6943359375
142.822265625
140.07568359375
140.9912109375
168.45703125
190.4296875
182.18994140625
129.08935546875
133.6669921875
125.42724609375
111.6943359375
140.07568359375
174.86572265625
209.65576171875
205.99365234375
208.740234375
216.97998046875
213.31787109375
210.5712890625
213.31787109375
195.00732421875
187.68310546875
221.5576171875
245.361328125
216.064453125
203.2470703125
239.8681640625
227.05078125
207.82470703125
233.45947265625
198.66943359375
205.99365234375
209.65576171875
216.064453125
230.712890625
226.13525390625
234.375
222.47314453125
202.33154296875
202.33154296875
196.83837890625
206.9091796875
188.5986328125
182.18994140625
192.2607421875
190.4296875
151.06201171875
158.38623046875
118.10302734375
125.42724609375
120.849609375
100.7080078125
100.7080078125
96.13037109375
106.201171875
93.3837890625
73.2421875
54.01611328125
51.26953125
49.4384765625
46.69189453125
47.607421875
32.04345703125
21.05712890625
54.931640625
53.1005859375
51.26953125
41.19873046875
5.4931640625
-4.57763671875
10.986328125
6.40869140625
-18.310546875
-4.57763671875
-6.40869140625
11.90185546875
26.55029296875
22.88818359375
25.634765625
36.62109375
29.296875
-7.32421875
-20.1416015625
0.91552734375
0.91552734375
27.4658203125
26.55029296875
20.1416015625
12.8173828125
6.40869140625
21.05712890625
44.86083984375
35.70556640625
35.70556640625
27.4658203125
-0.91552734375
-31.1279296875
-15.56396484375
6.40869140625
8.23974609375
39.36767578125
32.04345703125
39.36767578125
11.90185546875
11.90185546875
17.39501953125
38.4521484375
36.62109375
49.4384765625
51.26953125
53.1005859375
87.890625
85.14404296875
90.63720703125
128.173828125
125.42724609375
88.80615234375
54.931640625
65.91796875
86.97509765625
131.8359375
145.56884765625
153.80859375
162.04833984375
168.45703125
174.86572265625
180.35888671875
155.6396484375
167.54150390625
192.2607421875
206.9091796875
188.5986328125
184.9365234375
190.4296875
170.2880859375
173.03466796875
204.16259765625
216.97998046875
169.37255859375
162.04833984375
125.42724609375
124.51171875
141.90673828125
147.39990234375
102.5390625
91.552734375
96.13037109375
108.0322265625
92.46826171875
67.7490234375
75.98876953125
65.00244140625
47.607421875
61.34033203125
43.9453125
23.8037109375
20.1416015625
24.71923828125
20.1416015625
26.55029296875
39.36767578125
44.86083984375
37.53662109375
21.05712890625
4.57763671875
4.57763671875
11.90185546875
21.05712890625
46.69189453125
29.296875
23.8037109375
23.8037109375
17.39501953125
3.662109375
20.1416015625
-2.74658203125
4.57763671875
-24.71923828125
-4.57763671875
19.22607421875
17.39501953125
-10.986328125
-21.05712890625
-38.4521484375
-75.0732421875
-82.3974609375
-81.48193359375
-73.2421875
-52.18505859375
-5.4931640625
46.69189453125
106.201171875
206.9091796875
279.23583984375
373.53515625
516.357421875
680.23681640625
815.73486328125
888.97705078125
867.919921875
751.64794921875
582.275390625
376.28173828125
161.1328125
-32.04345703125
-164.794921875
-261.8408203125
-372.61962890625
-398.25439453125
-385.43701171875
-371.7041015625
-335.0830078125
-281.982421875
-223.388671875
-197.75390625
-146.484375
-75.98876953125
-32.958984375
32.04345703125
54.931640625
45.7763671875
60.4248046875
68.66455078125
32.04345703125
50.35400390625
65.00244140625
49.4384765625
56.7626953125
58.59375
57.67822265625
80.56640625
54.931640625
76.904296875
79.65087890625
59.50927734375
96.13037109375
94.29931640625
85.14404296875
68.66455078125
80.56640625
96.13037109375
97.96142578125
104.3701171875
108.94775390625
102.5390625
92.46826171875
106.201171875
102.5390625
76.904296875
79.65087890625
73.2421875
104.3701171875
117.1875
123.59619140625
121.76513671875
114.44091796875
140.07568359375
143.73779296875
142.822265625
150.146484375
145.56884765625
127.25830078125
136.41357421875
135.498046875
147.39990234375
145.56884765625
164.794921875
159.3017578125
153.80859375
136.41357421875
155.6396484375
153.80859375
152.89306640625
160.21728515625
174.86572265625
185.85205078125
206.9091796875
214.2333984375
209.65576171875
227.05078125
223.388671875
251.77001953125
262.75634765625
214.2333984375
238.037109375
237.12158203125
233.45947265625
234.375
240.78369140625
258.1787109375
297.54638671875
295.71533203125
290.22216796875
283.8134765625
296.630859375
289.306640625
281.06689453125
272.8271484375
278.3203125
283.8134765625
289.306640625
288.39111328125
288.39111328125
271.91162109375
263.671875
269.1650390625
324.0966796875
318.603515625
315.85693359375
291.1376953125
233.45947265625
201.416015625
228.8818359375
252.685546875
231.62841796875
205.99365234375
210.5712890625
201.416015625
212.40234375
197.75390625
180.35888671875
138.24462890625
119.0185546875
117.1875
108.0322265625
107.11669921875
113.525390625
116.27197265625
129.08935546875
94.29931640625
72.32666015625
63.17138671875
70.49560546875
75.0732421875
80.56640625
95.21484375
91.552734375
99.79248046875
97.0458984375
101.62353515625
81.48193359375
42.1142578125
63.17138671875
76.904296875
68.66455078125
77.81982421875
86.97509765625
65.00244140625
66.83349609375
67.7490234375
53.1005859375
66.83349609375
66.83349609375
78.7353515625
79.65087890625
85.14404296875
49.4384765625
53.1005859375
68.66455078125
62.255859375
82.3974609375
64.0869140625
65.00244140625
64.0869140625
54.01611328125
61.34033203125
61.34033203125
86.0595703125
73.2421875
59.50927734375
71.4111328125
91.552734375
78.7353515625
72.32666015625
75.98876953125
77.81982421875
90.63720703125
109.86328125
119.0185546875
139.16015625
130.92041015625
116.27197265625
119.0185546875
139.16015625
163.87939453125
187.68310546875
192.2607421875
192.2607421875
213.31787109375
220.64208984375
220.64208984375
229.79736328125
223.388671875
203.2470703125
227.05078125
257.26318359375
251.77001953125
237.12158203125
245.361328125
255.43212890625
218.81103515625
212.40234375
230.712890625
232.5439453125
226.13525390625
214.2333984375
203.2470703125
197.75390625
174.86572265625
162.04833984375
131.8359375
134.58251953125
115.3564453125
106.201171875
96.13037109375
102.5390625
105.28564453125
127.25830078125
106.201171875
87.890625
75.98876953125
81.48193359375
80.56640625
58.59375
60.4248046875
64.0869140625
53.1005859375
70.49560546875
103.45458984375
85.14404296875
82.3974609375
83.31298828125
60.4248046875
49.4384765625
48.52294921875
63.17138671875
67.7490234375
45.7763671875
21.97265625
28.38134765625
28.38134765625
21.05712890625
13.73291015625
8.23974609375
17.39501953125
42.1142578125
18.310546875
19.22607421875
-14.6484375
-28.38134765625
-57.67822265625
-74.15771484375
-65.91796875
-43.9453125
-6.40869140625
65.00244140625
113.525390625
212.40234375
295.71533203125
391.845703125
544.73876953125
706.787109375
851.4404296875
939.3310546875
932.0068359375
827.63671875
644.53125
416.56494140625
175.78125
-5.4931640625
-138.24462890625
-260.92529296875
-347.900390625
-342.4072265625
-365.29541015625
-379.0283203125
-345.15380859375
-261.8408203125
-201.416015625
-121.76513671875
-50.35400390625
-13.73291015625
20.1416015625
48.52294921875
83.31298828125
71.4111328125
72.32666015625
77.81982421875
62.255859375
82.3974609375
85.14404296875
66.83349609375
83.31298828125
81.48193359375
100.7080078125
86.97509765625
102.5390625
94.29931640625
124.51171875
140.07568359375
129.08935546875
128.173828125
111.6943359375
112.60986328125
119.93408203125
121.76513671875
112.60986328125
112.60986328125
108.0322265625
101.62353515625
108.0322265625
108.94775390625
93.3837890625
105.28564453125
128.173828125
139.16015625
136.41357421875
118.10302734375
135.498046875
140.07568359375
146.484375
163.87939453125
158.38623046875
156.55517578125
159.3017578125
159.3017578125
151.9775390625
145.56884765625
163.87939453125
171.20361328125
182.18994140625
199.5849609375
190.4296875
182.18994140625
187.68310546875
214.2333984375
220.64208984375
239.8681640625
262.75634765625
202.33154296875
199.5849609375
212.40234375
193.17626953125
211.48681640625
229.79736328125
238.95263671875
236.2060546875
236.2060546875
249.0234375
246.27685546875
250.8544921875
245.361328125
243.5302734375
269.1650390625
291.1376953125
298.4619140625
309.4482421875
307.6171875
293.88427734375
317.68798828125
326.84326171875
331.4208984375
339.66064453125
317.68798828125
299.37744140625
289.306640625
306.70166015625
294.7998046875
292.96875
295.71533203125
286.56005859375
293.88427734375
270.99609375
277.40478515625
297.54638671875
318.603515625
321.35009765625
271.91162109375
265.5029296875
227.05078125
200.50048828125
177.6123046875
162.04833984375
173.9501953125
173.9501953125
175.78125
190.4296875
199.5849609375
172.119140625
150.146484375
135.498046875
124.51171875
93.3837890625
119.93408203125
128.173828125
108.94775390625
107.11669921875
95.21484375
97.0458984375
79.65087890625
79.65087890625
91.552734375
104.3701171875
112.60986328125
90.63720703125
75.0732421875
89.7216796875
102.5390625
83.31298828125
78.7353515625
86.0595703125
86.0595703125
76.904296875
73.2421875
86.0595703125
87.890625
86.0595703125
75.0732421875
81.48193359375
75.0732421875
86.0595703125
69.580078125
54.01611328125
71.4111328125
71.4111328125
72.32666015625
57.67822265625
62.255859375
74.15771484375
67.7490234375
57.67822265625
66.83349609375
96.13037109375
89.7216796875
61.34033203125
87.890625
108.94775390625
114.44091796875
138.24462890625
135.498046875
120.849609375
139.16015625
160.21728515625
160.21728515625
157.470703125
162.04833984375
172.119140625
179.443359375
195.00732421875
213.31787109375
231.62841796875
245.361328125
232.5439453125
233.45947265625
237.12158203125
244.44580078125
254.5166015625
238.037109375
209.65576171875
230.712890625
231.62841796875
222.47314453125
237.12158203125
258.1787109375
249.0234375
243.5302734375
221.5576171875
209.65576171875
225.2197265625
220.64208984375
191.34521484375
175.78125
156.55517578125
151.9775390625
149.23095703125
140.9912109375
137.3291015625
133.6669921875
107.11669921875
96.13037109375
97.96142578125
99.79248046875
98.876953125
102.5390625
89.7216796875
86.97509765625
98.876953125
86.97509765625
85.14404296875
94.29931640625
94.29931640625
88.80615234375
79.65087890625
58.59375
56.7626953125
70.49560546875
74.15771484375
60.4248046875
51.26953125
59.50927734375
60.4248046875
43.02978515625
25.634765625
35.70556640625
32.958984375
40.283203125
39.36767578125
38.4521484375
47.607421875
16.4794921875
6.40869140625
0.91552734375
-21.97265625
-43.9453125
-59.50927734375
-47.607421875
-10.07080078125
42.1142578125
119.0185546875
171.20361328125
225.2197265625
315.85693359375
470.5810546875
628.96728515625
798.33984375
928.3447265625
980.52978515625
910.0341796875
735.16845703125
523.681640625
238.037109375
10.07080078125
-154.72412109375
-256.34765625
-332.33642578125
-373.53515625
-368.95751953125
-392.76123046875
-353.3935546875
-317.68798828125
-233.45947265625
-150.146484375
-79.65087890625
-39.36767578125
43.9453125
71.4111328125
77.81982421875
86.97509765625
68.66455078125
63.17138671875
61.34033203125
68.66455078125
73.2421875
77.81982421875
79.65087890625
90.63720703125
90.63720703125
95.21484375
108.0322265625
112.60986328125
104.3701171875
98.876953125
108.94775390625
103.45458984375
105.28564453125
108.0322265625
108.0322265625
108.94775390625
127.25830078125
123.59619140625
120.849609375
130.92041015625
113.525390625
124.51171875
130.92041015625
122.6806640625
122.6806640625
130.92041015625
113.525390625
119.0185546875
132.75146484375
138.24462890625
118.10302734375
128.173828125
140.07568359375
122.6806640625
163.87939453125
167.54150390625
167.54150390625
187.68310546875
186.767578125
176.69677734375
167.54150390625
185.85205078125
191.34521484375
190.4296875
193.17626953125
198.66943359375
199.5849609375
186.767578125
234.375
227.96630859375
235.29052734375
238.037109375
211.48681640625
213.31787109375
218.81103515625
219.7265625
238.037109375
232.5439453125
234.375
260.009765625
271.91162109375
287.4755859375
291.1376953125
295.71533203125
300.29296875
309.4482421875
286.56005859375
281.982421875
311.279296875
291.1376953125
273.74267578125
297.54638671875
273.74267578125
289.306640625
285.64453125
287.4755859375
271.91162109375
261.8408203125
266.41845703125
279.23583984375
281.982421875
283.8134765625
284.72900390625
282.89794921875
279.23583984375
298.4619140625
309.4482421875
281.982421875
244.44580078125
227.96630859375
195.00732421875
184.9365234375
205.99365234375
225.2197265625
221.5576171875
201.416015625
171.20361328125
178.52783203125
184.02099609375
174.86572265625
144.6533203125
140.07568359375
140.9912109375
138.24462890625
123.59619140625
118.10302734375
122.6806640625
109.86328125
109.86328125
104.3701171875
119.93408203125
106.201171875
128.173828125
118.10302734375
132.75146484375
104.3701171875
83.31298828125
97.0458984375
71.4111328125
77.81982421875
75.98876953125
69.580078125
79.65087890625
92.46826171875
93.3837890625
91.552734375
99.79248046875
51.26953125
67.7490234375
59.50927734375
45.7763671875
68.66455078125
70.49560546875
71.4111328125
62.255859375
65.00244140625
76.904296875
81.48193359375
86.0595703125
79.65087890625
118.10302734375
117.1875
126.3427734375
122.6806640625
87.890625
100.7080078125
93.3837890625
99.79248046875
106.201171875
111.6943359375
105.28564453125
145.56884765625
170.2880859375
176.69677734375
181.2744140625
156.55517578125
174.86572265625
159.3017578125
135.498046875
134.58251953125
166.6259765625
171.20361328125
188.5986328125
209.65576171875
218.81103515625
209.65576171875
205.078125
214.2333984375
227.96630859375
225.2197265625
237.12158203125
249.93896484375
258.1787109375
266.41845703125
259.09423828125
255.43212890625
261.8408203125
262.75634765625
264.58740234375
255.43212890625
262.75634765625
251.77001953125
239.8681640625
217.8955078125
211.48681640625
196.83837890625
194.091796875
193.17626953125
185.85205078125
161.1328125
164.794921875
148.3154296875
128.173828125
113.525390625
122.6806640625
107.11669921875
110.77880859375
112.60986328125
130.0048828125
136.41357421875
108.94775390625
112.60986328125
101.62353515625
101.62353515625
58.59375
31.1279296875
44.86083984375
66.83349609375
64.0869140625
63.17138671875
46.69189453125
50.35400390625
72.32666015625
82.3974609375
87.890625
75.0732421875
82.3974609375
72.32666015625
58.59375
39.36767578125
28.38134765625
42.1142578125
46.69189453125
42.1142578125
25.634765625
36.62109375
30.21240234375
9.1552734375
-28.38134765625
-18.310546875
-31.1279296875
-2.74658203125
25.634765625
82.3974609375
127.25830078125
241.69921875
323.18115234375
411.9873046875
589.599609375
742.49267578125
859.68017578125
938.41552734375
921.93603515625
785.5224609375
590.51513671875
374.45068359375
146.484375
-47.607421875
-173.9501953125
-303.955078125
-357.97119140625
-372.61962890625
-358.88671875
-357.0556640625
-330.50537109375
-283.8134765625
-181.2744140625
-100.7080078125
-41.19873046875
17.39501953125
39.36767578125
73.2421875
87.890625
88.80615234375
89.7216796875
83.31298828125
78.7353515625
103.45458984375
120.849609375
111.6943359375
98.876953125
102.5390625
92.46826171875
101.62353515625
96.13037109375
109.86328125
121.76513671875
115.3564453125
99.79248046875
103.45458984375
117.1875
106.201171875
98.876953125
106.201171875
84.228515625
104.3701171875
89.7216796875
132.75146484375
131.8359375
142.822265625
154.72412109375
127.25830078125
105.28564453125
97.96142578125
93.3837890625
99.79248046875
106.201171875
140.9912109375
151.06201171875
157.470703125
159.3017578125
140.07568359375
140.9912109375
153.80859375
155.6396484375
179.443359375
189.51416015625
184.9365234375
184.02099609375
178.52783203125
182.18994140625
195.00732421875
188.5986328125
187.68310546875
218.81103515625
225.2197265625
197.75390625
217.8955078125
217.8955078125
210.5712890625
233.45947265625
253.60107421875
242.61474609375
218.81103515625
238.95263671875
235.29052734375
232.5439453125
245.361328125
271.91162109375
276.4892578125
271.91162109375
265.5029296875
262.75634765625
278.3203125
261.8408203125
260.009765625
275.57373046875
272.8271484375
281.982421875
281.982421875
291.1376953125
295.71533203125
307.6171875
296.630859375
294.7998046875
304.87060546875
314.02587890625
315.85693359375
292.05322265625
292.05322265625
270.99609375
279.23583984375
280.1513671875
260.92529296875
225.2197265625
229.79736328125
217.8955078125
231.62841796875
229.79736328125
232.5439453125
223.388671875
224.30419921875
187.68310546875
187.68310546875
174.86572265625
174.86572265625
164.794921875
147.39990234375
140.07568359375
140.9912109375
133.6669921875
135.498046875
119.93408203125
88.80615234375
91.552734375
84.228515625
81.48193359375
82.3974609375
86.0595703125
93.3837890625
103.45458984375
114.44091796875
116.27197265625
102.5390625
104.3701171875
99.79248046875
65.00244140625
43.9453125
66.83349609375
67.7490234375
67.7490234375
57.67822265625
61.34033203125
47.607421875
54.01611328125
69.580078125
78.7353515625
77.81982421875
86.97509765625
77.81982421875
77.81982421875
76.904296875
75.98876953125
70.49560546875
65.00244140625
67.7490234375
83.31298828125
86.0595703125
104.3701171875
116.27197265625
113.525390625
119.0185546875
120.849609375
115.3564453125
88.80615234375
90.63720703125
85.14404296875
75.98876953125
75.0732421875
46.69189453125
71.4111328125
90.63720703125
106.201171875
109.86328125
105.28564453125
112.60986328125
111.6943359375
103.45458984375
108.94775390625
126.3427734375
136.41357421875
144.6533203125
152.89306640625
141.90673828125
153.80859375
147.39990234375
144.6533203125
146.484375
140.9912109375
152.89306640625
179.443359375
197.75390625
203.2470703125
217.8955078125
233.45947265625
236.2060546875
227.05078125
238.037109375
268.24951171875
265.5029296875
259.09423828125
265.5029296875
249.0234375
239.8681640625
257.26318359375
244.44580078125
212.40234375
206.9091796875
204.16259765625
191.34521484375
171.20361328125
167.54150390625
159.3017578125
157.470703125
162.04833984375
154.72412109375
140.9912109375
135.498046875
106.201171875
95.21484375
67.7490234375
58.59375
53.1005859375
57.67822265625
54.931640625
67.7490234375
61.34033203125
65.91796875
73.2421875
64.0869140625
56.7626953125
44.86083984375
40.283203125
30.21240234375
11.90185546875
9.1552734375
21.97265625
30.21240234375
42.1142578125
43.02978515625
21.97265625
31.1279296875
33.87451171875
42.1142578125
81.48193359375
74.15771484375
5.4931640625
-7.32421875
-11.90185546875
-18.310546875
-18.310546875
-11.90185546875
-28.38134765625
-44.86083984375
-39.36767578125
-41.19873046875
-30.21240234375
-2.74658203125
28.38134765625
72.32666015625
142.822265625
238.95263671875
328.67431640625
402.83203125
541.9921875
722.35107421875
846.86279296875
941.162109375
930.17578125
800.1708984375
627.13623046875
357.0556640625
139.16015625
-72.32666015625
-225.2197265625
-314.94140625
-385.43701171875
-395.5078125
-409.24072265625
-438.53759765625
-413.818359375
-348.81591796875
-261.8408203125
-185.85205078125
-116.27197265625
-53.1005859375
22.88818359375
36.62109375
48.52294921875
50.35400390625
41.19873046875
32.958984375
42.1142578125
43.02978515625
46.69189453125
60.4248046875
54.931640625
65.91796875
51.26953125
72.32666015625
53.1005859375
68.66455078125
67.7490234375
60.4248046875
54.931640625
71.4111328125
49.4384765625
62.255859375
58.59375
69.580078125
66.83349609375
74.15771484375
93.3837890625
91.552734375
92.46826171875
89.7216796875
99.79248046875
108.94775390625
96.13037109375
97.96142578125
103.45458984375
113.525390625
116.27197265625
88.80615234375
76.904296875
73.2421875
77.81982421875
95.21484375
111.6943359375
122.6806640625
104.3701171875
129.08935546875
134.58251953125
121.76513671875
134.58251953125
135.498046875
128.173828125
129.08935546875
130.0048828125
140.07568359375
151.9775390625
171.20361328125
185.85205078125
178.52783203125
196.83837890625
189.51416015625
226.13525390625
236.2060546875
212.40234375
191.34521484375
188.5986328125
179.443359375
196.83837890625
203.2470703125
207.82470703125
206.9091796875
233.45947265625
257.26318359375
262.75634765625
253.60107421875
282.89794921875
282.89794921875
279.23583984375
280.1513671875
247.1923828125
242.61474609375
249.93896484375
249.0234375
251.77001953125
254.5166015625
260.92529296875
251.77001953125
268.24951171875
267.333984375
265.5029296875
269.1650390625
245.361328125
222.47314453125
217.8955078125
213.31787109375
205.078125
203.2470703125
226.13525390625
230.712890625
220.64208984375
205.99365234375
198.66943359375
181.2744140625
158.38623046875
144.6533203125
132.75146484375
134.58251953125
127.25830078125
113.525390625
104.3701171875
116.27197265625
104.3701171875
102.5390625
109.86328125
98.876953125
86.0595703125
89.7216796875
80.56640625
65.00244140625
78.7353515625
91.552734375
86.97509765625
81.48193359375
62.255859375
64.0869140625
41.19873046875
33.87451171875
32.04345703125
54.01611328125
69.580078125
54.931640625
55.84716796875
64.0869140625
44.86083984375
21.05712890625
15.56396484375
21.05712890625
29.296875
51.26953125
66.83349609375
70.49560546875
69.580078125
54.931640625
54.931640625
42.1142578125
22.88818359375
33.87451171875
39.36767578125
42.1142578125
48.52294921875
39.36767578125
54.01611328125
67.7490234375
64.0869140625
71.4111328125
78.7353515625
75.98876953125
63.17138671875
67.7490234375
56.7626953125
50.35400390625
59.50927734375
71.4111328125
75.0732421875
82.3974609375
110.77880859375
130.92041015625
151.06201171875
134.58251953125
105.28564453125
64.0869140625
74.15771484375
91.552734375
95.21484375
72.32666015625
61.34033203125
69.580078125
54.01611328125
50.35400390625
50.35400390625
49.4384765625
55.84716796875
61.34033203125
71.4111328125
91.552734375
84.228515625
70.49560546875
75.98876953125
66.83349609375
77.81982421875
102.5390625
90.63720703125
71.4111328125
82.3974609375
79.65087890625
86.0595703125
88.80615234375
111.6943359375
119.93408203125
123.59619140625
119.0185546875
135.498046875
151.06201171875
167.54150390625
206.9091796875
208.740234375
167.54150390625
158.38623046875
159.3017578125
162.9638671875
148.3154296875
140.07568359375
157.470703125
161.1328125
161.1328125
176.69677734375
180.35888671875
195.00732421875
191.34521484375
186.767578125
176.69677734375
156.55517578125
161.1328125
150.146484375
124.51171875
111.6943359375
88.80615234375
90.63720703125
75.98876953125
62.255859375
63.17138671875
64.0869140625
63.17138671875
47.607421875
31.1279296875
15.56396484375
32.04345703125
46.69189453125
46.69189453125
49.4384765625
45.7763671875
-1.8310546875
-31.1279296875
-10.986328125
12.8173828125
24.71923828125
11.90185546875
-28.38134765625
-25.634765625
-17.39501953125
11.90185546875
22.88818359375
-6.40869140625
-19.22607421875
-21.97265625
-40.283203125
-25.634765625
-13.73291015625
-15.56396484375
-21.05712890625
-7.32421875
-6.40869140625
-21.05712890625
-21.05712890625
-40.283203125
-39.36767578125
-54.931640625
-57.67822265625
-44.86083984375
1.8310546875
37.53662109375
85.14404296875
143.73779296875
245.361328125
303.955078125
411.9873046875
581.35986328125
747.98583984375
858.7646484375
921.93603515625
859.68017578125
716.85791015625
541.07666015625
332.33642578125
130.0048828125
-88.80615234375
-245.361328125
-357.97119140625
-418.39599609375
-435.791015625
-453.18603515625
-445.86181640625
-437.6220703125
-382.6904296875
-280.1513671875
-186.767578125
-126.3427734375
-69.580078125
-39.36767578125
-26.55029296875
-5.4931640625
25.634765625
19.22607421875
20.1416015625
17.39501953125
11.90185546875
18.310546875
27.4658203125
37.53662109375
48.52294921875
54.931640625
52.18505859375
50.35400390625
42.1142578125
37.53662109375
21.97265625
6.40869140625
16.4794921875
45.7763671875
67.7490234375
56.7626953125
72.32666015625
61.34033203125
54.931640625
44.86083984375
18.310546875
18.310546875
18.310546875
25.634765625
30.21240234375
33.87451171875
46.69189453125
54.01611328125
65.91796875
65.91796875
56.7626953125
74.15771484375
72.32666015625
65.91796875
77.81982421875
119.93408203125
122.6806640625
122.6806640625
114.44091796875
86.0595703125
95.21484375
63.17138671875
89.7216796875
115.3564453125
119.0185546875
124.51171875
125.42724609375
117.1875
136.41357421875
147.39990234375
156.55517578125
167.54150390625
185.85205078125
182.18994140625
140.07568359375
129.08935546875
142.822265625
160.21728515625
166.6259765625
166.6259765625
181.2744140625
181.2744140625
190.4296875
203.2470703125
206.9091796875
207.82470703125
197.75390625
197.75390625
216.064453125
218.81103515625
230.712890625
232.5439453125
229.79736328125
235.29052734375
240.78369140625
259.09423828125
249.93896484375
216.97998046875
227.96630859375
243.5302734375
236.2060546875
219.7265625
212.40234375
207.82470703125
214.2333984375
202.33154296875
195.9228515625
195.9228515625
186.767578125
171.20361328125
168.45703125
170.2880859375
150.146484375
151.9775390625
140.9912109375
142.822265625
144.6533203125
126.3427734375
119.0185546875
118.10302734375
102.5390625
73.2421875
79.65087890625
75.98876953125
78.7353515625
75.0732421875
62.255859375
44.86083984375
33.87451171875
15.56396484375
-1.8310546875
-3.662109375
10.07080078125
10.986328125
9.1552734375
9.1552734375
13.73291015625
17.39501953125
22.88818359375
13.73291015625
9.1552734375
6.40869140625
-0.91552734375
14.6484375
22.88818359375
24.71923828125
23.8037109375
4.57763671875
6.40869140625
3.662109375
8.23974609375
13.73291015625
9.1552734375
21.05712890625
8.23974609375
10.986328125
10.986328125
1.8310546875
-13.73291015625
-7.32421875
10.986328125
28.38134765625
18.310546875
1.8310546875
2.74658203125
-4.57763671875
-9.1552734375
-9.1552734375
5.4931640625
7.32421875
21.05712890625
27.4658203125
44.86083984375
45.7763671875
43.02978515625
41.19873046875
43.9453125
37.53662109375
35.70556640625
61.34033203125
74.15771484375
71.4111328125
78.7353515625
63.17138671875
3.662109375
-10.986328125
0.91552734375
22.88818359375
35.70556640625
32.04345703125
37.53662109375
40.283203125
53.1005859375
53.1005859375
43.9453125
45.7763671875
53.1005859375
39.36767578125
16.4794921875
17.39501953125
25.634765625
42.1142578125
65.91796875
69.580078125
66.83349609375
57.67822265625
-3.662109375
-6.40869140625
8.23974609375
-7.32421875
4.57763671875
17.39501953125
17.39501953125
28.38134765625
29.296875
20.1416015625
27.4658203125
28.38134765625
22.88818359375
17.39501953125
-2.74658203125
-9.1552734375
-4.57763671875
7.32421875
21.05712890625
21.97265625
21.97265625
21.97265625
9.1552734375
-23.8037109375
-5.4931640625
12.8173828125
26.55029296875
45.7763671875
71.4111328125
75.0732421875
78.7353515625
54.931640625
11.90185546875
34.7900390625
46.69189453125
47.607421875
57.67822265625
64.0869140625
71.4111328125
96.13037109375
125.42724609375
139.16015625
120.849609375
136.41357421875
135.498046875
134.58251953125
121.76513671875
122.6806640625
128.173828125
132.75146484375
127.25830078125
124.51171875
110.77880859375
105.28564453125
90.63720703125
87.890625
101.62353515625
101.62353515625
75.98876953125
91.552734375
86.97509765625
56.7626953125
17.39501953125
-17.39501953125
-14.6484375
-6.40869140625
10.986328125
5.4931640625
-14.6484375
-0.91552734375
2.74658203125
-21.97265625
-15.56396484375
-54.01611328125
-68.66455078125
-53.1005859375
-41.19873046875
-43.02978515625
-37.53662109375
-36.62109375
-31.1279296875
-24.71923828125
-25.634765625
-41.19873046875
-43.02978515625
-35.70556640625
-28.38134765625
-22.88818359375
-13.73291015625
-4.57763671875
-10.07080078125
-55.84716796875
-84.228515625
-64.0869140625
-55.84716796875
-45.7763671875
-53.1005859375
-57.67822265625
-82.3974609375
-99.79248046875
-115.3564453125
-109.86328125
-68.66455078125
-27.4658203125
32.958984375
108.0322265625
176.69677734375
262.75634765625
360.7177734375
509.033203125
661.92626953125
791.93115234375
877.99072265625
865.17333984375
729.67529296875
558.4716796875
335.99853515625
140.9912109375
-79.65087890625
-228.8818359375
-345.15380859375
-434.87548828125
-452.2705078125
-442.19970703125
-436.70654296875
-419.3115234375
-372.61962890625
-298.4619140625
-280.1513671875
-202.33154296875
-130.0048828125
-74.15771484375
-50.35400390625
-32.04345703125
-22.88818359375
-9.1552734375
-11.90185546875
-25.634765625
-24.71923828125
-15.56396484375
-27.4658203125
-27.4658203125
-27.4658203125
-32.958984375
-22.88818359375
-8.23974609375
2.74658203125
4.57763671875
12.8173828125
27.4658203125
9.1552734375
-7.32421875
5.4931640625
12.8173828125
39.36767578125
42.1142578125
12.8173828125
-6.40869140625
11.90185546875
3.662109375
0
-4.57763671875
1.8310546875
0.91552734375
16.4794921875
14.6484375
30.21240234375
51.26953125
53.1005859375
52.18505859375
52.18505859375
78.7353515625
75.98876953125
50.35400390625
49.4384765625
39.36767578125
19.22607421875
41.19873046875
48.52294921875
45.7763671875
51.26953125
65.00244140625
76.904296875
86.0595703125
104.3701171875
101.62353515625
94.29931640625
95.21484375
109.86328125
104.3701171875
119.93408203125
124.51171875
133.6669921875
108.94775390625
110.77880859375
121.76513671875
127.25830078125
138.24462890625
153.80859375
163.87939453125
151.9775390625
167.54150390625
161.1328125
170.2880859375
185.85205078125
183.10546875
203.2470703125
199.5849609375
208.740234375
193.17626953125
199.5849609375
190.4296875
210.5712890625
203.2470703125
183.10546875
184.02099609375
194.091796875
206.9091796875
220.64208984375
203.2470703125
218.81103515625
214.2333984375
149.23095703125
135.498046875
172.119140625
176.69677734375
169.37255859375
156.55517578125
140.9912109375
114.44091796875
119.0185546875
127.25830078125
137.3291015625
117.1875
119.93408203125
93.3837890625
47.607421875
47.607421875
60.4248046875
40.283203125
57.67822265625
46.69189453125
32.04345703125
25.634765625
19.22607421875
24.71923828125
1.8310546875
9.1552734375
-3.662109375
-6.40869140625
-7.32421875
-6.40869140625
-8.23974609375
-4.57763671875
-4.57763671875
5.4931640625
-8.23974609375
-18.310546875
-69.580078125
-45.7763671875
-35.70556640625
-41.19873046875
-47.607421875
-54.01611328125
-47.607421875
-39.36767578125
-29.296875
-33.87451171875
-43.9453125
-32.958984375
-37.53662109375
-50.35400390625
-62.255859375
-62.255859375
-45.7763671875
-44.86083984375
-38.4521484375
-32.958984375
-30.21240234375
-29.296875
-43.02978515625
-36.62109375
-46.69189453125
-48.52294921875
-47.607421875
-29.296875
-10.986328125
-4.57763671875
0
13.73291015625
-43.9453125
-34.7900390625
-28.38134765625
-20.1416015625
-27.4658203125
-12.8173828125
-6.40869140625
-20.1416015625
-25.634765625
-42.1142578125
-39.36767578125
-34.7900390625
-21.97265625
-15.56396484375
-13.73291015625
-14.6484375
0.91552734375
0
-2.74658203125
0.91552734375
-1.8310546875
-14.6484375
-17.39501953125
-15.56396484375
-17.39501953125
-30.21240234375
-19.22607421875
-8.23974609375
-16.4794921875
-22.88818359375
-18.310546875
-11.90185546875
-21.05712890625
-5.4931640625
-9.1552734375
3.662109375
15.56396484375
-0.91552734375
-16.4794921875
-26.55029296875
-43.02978515625
-49.4384765625
-41.19873046875
-32.958984375
-26.55029296875
-10.986328125
-22.88818359375
-26.55029296875
-30.21240234375
-41.19873046875
-49.4384765625
-54.931640625
-42.1142578125
-47.607421875
-61.34033203125
-57.67822265625
-52.18505859375
-50.35400390625
-62.255859375
-43.02978515625
-46.69189453125
-44.86083984375
-26.55029296875
-24.71923828125
-39.36767578125
-42.1142578125
-32.958984375
-39.36767578125
-37.53662109375
-42.1142578125
-66.83349609375
-58.59375
-32.958984375
-42.1142578125
-51.26953125
-50.35400390625
-47.607421875
-23.8037109375
-30.21240234375
-60.4248046875
-64.0869140625
-54.01611328125
-45.7763671875
-56.7626953125
-46.69189453125
-40.283203125
-32.04345703125
-33.87451171875
-34.7900390625
-39.36767578125
-36.62109375
-16.4794921875
-1.8310546875
0.91552734375
5.4931640625
39.36767578125
32.958984375
38.4521484375
58.59375
54.931640625
55.84716796875
63.17138671875
63.17138671875
74.15771484375
87.890625
107.11669921875
87.890625
84.228515625
84.228515625
50.35400390625
21.97265625
24.71923828125
25.634765625
27.4658203125
19.22607421875
28.38134765625
34.7900390625
22.88818359375
2.74658203125
-1.8310546875
-42.1142578125
-51.26953125
-54.01611328125
-66.83349609375
-84.228515625
-73.2421875
-74.15771484375
-86.97509765625
-78.7353515625
-75.0732421875
-70.49560546875
-78.7353515625
-79.65087890625
-81.48193359375
-85.14404296875
-96.13037109375
-93.3837890625
-67.7490234375
-80.56640625
-80.56640625
-69.580078125
-78.7353515625
-74.15771484375
-78.7353515625
-105.28564453125
-105.28564453125
-107.11669921875
-101.62353515625
-142.822265625
-135.498046875
-130.92041015625
-128.173828125
-118.10302734375
-113.525390625
-122.6806640625
-114.44091796875
-101.62353515625
-123.59619140625
-146.484375
-126.3427734375
-85.14404296875
-52.18505859375
0
59.50927734375
133.6669921875
205.99365234375
316.7724609375
462.34130859375
640.869140625
776.3671875
834.9609375
784.60693359375
678.40576171875
505.37109375
303.03955078125
100.7080078125
-75.98876953125
-222.47314453125
-344.23828125
-430.2978515625
-465.087890625
-479.736328125
-485.2294921875
-485.2294921875
-461.42578125
-400.08544921875
-305.7861328125
-229.79736328125
-165.71044921875
-113.525390625
-82.3974609375
-85.14404296875
-119.93408203125
-87.890625
-81.48193359375
-86.0595703125
-75.98876953125
-87.890625
-71.4111328125
-48.52294921875
-66.83349609375
-70.49560546875
-35.70556640625
-43.9453125
-53.1005859375
-55.84716796875
-59.50927734375
-86.97509765625
-74.15771484375
-67.7490234375
-56.7626953125
-50.35400390625
-51.26953125
-53.1005859375
-43.9453125
-49.4384765625
-32.958984375
-43.9453125
-52.18505859375
-32.04345703125
-6.40869140625
7.32421875
18.310546875
-13.73291015625
-44.86083984375
-36.62109375
-29.296875
-24.71923828125
-22.88818359375
-16.4794921875
-16.4794921875
-22.88818359375
17.39501953125
28.38134765625
24.71923828125
30.21240234375
28.38134765625
9.1552734375
-3.662109375
18.310546875
22.88818359375
-1.8310546875
1.8310546875
1.8310546875
-1.8310546875
7.32421875
21.05712890625
40.283203125
54.931640625
75.98876953125
91.552734375
97.0458984375
100.7080078125
94.29931640625
61.34033203125
73.2421875
80.56640625
83.31298828125
86.97509765625
101.62353515625
106.201171875
103.45458984375
108.94775390625
124.51171875
137.3291015625
148.3154296875
148.3154296875
146.484375
140.07568359375
159.3017578125
151.9775390625
160.21728515625
165.71044921875
147.39990234375
135.498046875
134.58251953125
147.39990234375
159.3017578125
139.16015625
113.525390625
93.3837890625
94.29931640625
115.3564453125
121.76513671875
105.28564453125
107.11669921875
108.94775390625
71.4111328125
79.65087890625
69.580078125
59.50927734375
63.17138671875
50.35400390625
37.53662109375
22.88818359375
29.296875
63.17138671875
94.29931640625
53.1005859375
10.986328125
-39.36767578125
-53.1005859375
-64.0869140625
-50.35400390625
-29.296875
-31.1279296875
-46.69189453125
-54.931640625
-63.17138671875
-78.7353515625
-62.255859375
-68.66455078125
-75.0732421875
-62.255859375
-81.48193359375
-97.0458984375
-96.13037109375
-97.0458984375
-103.45458984375
-112.60986328125
-111.6943359375
-95.21484375
-103.45458984375
-106.201171875
-106.201171875
-106.201171875
-102.5390625
-89.7216796875
-101.62353515625
-104.3701171875
-84.228515625
-94.29931640625
-97.96142578125
-76.904296875
-78.7353515625
-101.62353515625
-91.552734375
-89.7216796875
-96.13037109375
-110.77880859375
-107.11669921875
-105.28564453125
-105.28564453125
-99.79248046875
-93.3837890625
-92.46826171875
-86.97509765625
-83.31298828125
-65.00244140625
-75.0732421875
-59.50927734375
-38.4521484375
-45.7763671875
-52.18505859375
-61.34033203125
-97.96142578125
-108.94775390625
-111.6943359375
-103.45458984375
-108.94775390625
-101.62353515625
-67.7490234375
-54.01611328125
-51.26953125
-48.52294921875
-58.59375
-89.7216796875
-97.0458984375
-68.66455078125
-70.49560546875
-42.1142578125
-26.55029296875
-46.69189453125
-65.91796875
-71.4111328125
-70.49560546875
-78.7353515625
-75.0732421875
-73.2421875
-75.98876953125
-93.3837890625
-91.552734375
-91.552734375
-91.552734375
-87.890625
-77.81982421875
-64.0869140625
-60.4248046875
-65.00244140625
-77.81982421875
-66.83349609375
-70.49560546875
-72.32666015625
-76.904296875
-91.552734375
-80.56640625
-78.7353515625
-65.91796875
-52.18505859375
-65.91796875
-66.83349609375
-74.15771484375
-106.201171875
-107.11669921875
-96.13037109375
-66.83349609375
-81.48193359375
-92.46826171875
-108.0322265625
-120.849609375
-105.28564453125
-95.21484375
-93.3837890625
-91.552734375
-75.0732421875
-81.48193359375
-94.29931640625
-75.0732421875
-67.7490234375
-71.4111328125
-65.91796875
-54.931640625
-43.02978515625
-38.4521484375
-40.283203125
-43.02978515625
-39.36767578125
-16.4794921875
-5.4931640625
13.73291015625
21.97265625
18.310546875
33.87451171875
32.04345703125
35.70556640625
39.36767578125
45.7763671875
55.84716796875
63.17138671875
67.7490234375
49.4384765625
27.4658203125
39.36767578125
34.7900390625
14.6484375
13.73291015625
0
-35.70556640625
-43.02978515625
-45.7763671875
-73.2421875
-74.15771484375
-88.80615234375
-106.201171875
-101.62353515625
-89.7216796875
-84.228515625
-82.3974609375
-87.890625
-103.45458984375
-126.3427734375
-124.51171875
-110.77880859375
-111.6943359375
-108.94775390625
-110.77880859375
-113.525390625
-113.525390625
-123.59619140625
-126.3427734375
-140.9912109375
-132.75146484375
-120.849609375
-109.86328125
-122.6806640625
-123.59619140625
-130.0048828125
-134.58251953125
-133.6669921875
-121.76513671875
-107.11669921875
-90.63720703125
-95.21484375
-92.46826171875
-113.525390625
-156.55517578125
-211.48681640625
-214.2333984375
-215.14892578125
-241.69921875
-226.13525390625
-182.18994140625
-151.9775390625
-110.77880859375
-22.88818359375
58.59375
162.04833984375
232.5439453125
312.19482421875
455.9326171875
636.29150390625
756.2255859375
814.8193359375
773.62060546875
640.869140625
447.69287109375
215.14892578125
-4.57763671875
-213.31787109375
-345.15380859375
-452.2705078125
-524.59716796875
-546.56982421875
-562.1337890625
-558.4716796875
-522.76611328125
-449.52392578125
-368.0419921875
-275.57373046875
-184.9365234375
-136.41357421875
-126.3427734375
-118.10302734375
-146.484375
-150.146484375
-133.6669921875
-103.45458984375
-88.80615234375
-82.3974609375
-103.45458984375
-126.3427734375
-107.11669921875
-91.552734375
-90.63720703125
-89.7216796875
-95.21484375
-98.876953125
-88.80615234375
-92.46826171875
-93.3837890625
-72.32666015625
-77.81982421875
-74.15771484375
-69.580078125
-72.32666015625
-74.15771484375
-66.83349609375
-58.59375
-43.9453125
-39.36767578125
-38.4521484375
-54.931640625
-71.4111328125
-65.91796875
-49.4384765625
-43.02978515625
-38.4521484375
-46.69189453125
-32.04345703125
-26.55029296875
-16.4794921875
-14.6484375
3.662109375
3.662109375
12.8173828125
13.73291015625
9.1552734375
-43.02978515625
-60.4248046875
-54.931640625
-29.296875
-23.8037109375
-19.22607421875
-8.23974609375
-5.4931640625
0.91552734375
15.56396484375
32.958984375
54.01611328125
56.7626953125
23.8037109375
10.986328125
29.296875
37.53662109375
51.26953125
49.4384765625
57.67822265625
77.81982421875
80.56640625
102.5390625
121.76513671875
126.3427734375
124.51171875
129.08935546875
132.75146484375
124.51171875
143.73779296875
148.3154296875
142.822265625
160.21728515625
154.72412109375
144.6533203125
162.04833984375
157.470703125
152.89306640625
157.470703125
157.470703125
165.71044921875
168.45703125
166.6259765625
156.55517578125
158.38623046875
156.55517578125
134.58251953125
121.76513671875
128.173828125
137.3291015625
124.51171875
102.5390625
87.890625
69.580078125
47.607421875
39.36767578125
32.04345703125
30.21240234375
21.05712890625
6.40869140625
3.662109375
0
8.23974609375
-2.74658203125
-10.986328125
-3.662109375
-41.19873046875
-65.91796875
-61.34033203125
-85.14404296875
-86.0595703125
-63.17138671875
-59.50927734375
-69.580078125
-75.98876953125
-81.48193359375
-81.48193359375
-80.56640625
-65.91796875
-61.34033203125
-52.18505859375
-58.59375
-101.62353515625
-119.93408203125
-113.525390625
-133.6669921875
-133.6669921875
-125.42724609375
-118.10302734375
-108.0322265625
-112.60986328125
-119.0185546875
-106.201171875
-90.63720703125
-89.7216796875
-94.29931640625
-101.62353515625
-131.8359375
-140.07568359375
-140.9912109375
-150.146484375
-143.73779296875
-132.75146484375
-111.6943359375
-102.5390625
-96.13037109375
-110.77880859375
-116.27197265625
-123.59619140625
-105.28564453125
-94.29931640625
-99.79248046875
-96.13037109375
-94.29931640625
-81.48193359375
-71.4111328125
-82.3974609375
-81.48193359375
-75.98876953125
-78.7353515625
-86.0595703125
-86.0595703125
-95.21484375
-89.7216796875
-76.904296875
-85.14404296875
-86.97509765625
-80.56640625
-82.3974609375
-77.81982421875
-51.26953125
-63.17138671875
-96.13037109375
-113.525390625
-97.0458984375
-87.890625
-79.65087890625
-73.2421875
-71.4111328125
-75.98876953125
-75.0732421875
-92.46826171875
-107.11669921875
-86.97509765625
-79.65087890625
-66.83349609375
-70.49560546875
-62.255859375
-83.31298828125
-71.4111328125
-81.48193359375
-78.7353515625
-62.255859375
-73.2421875
-84.228515625
-95.21484375
-103.45458984375
-108.0322265625
-100.7080078125
-72.32666015625
-84.228515625
-94.29931640625
-86.0595703125
-67.7490234375
-74.15771484375
-80.56640625
-136.41357421875
-129.08935546875
-113.525390625
-111.6943359375
-112.60986328125
-106.201171875
-98.876953125
-88.80615234375
-81.48193359375
-97.0458984375
-111.6943359375
-113.525390625
-104.3701171875
-90.63720703125
-90.63720703125
-103.45458984375
-120.849609375
-109.86328125
-108.0322265625
-108.0322265625
-110.77880859375
-105.28564453125
-112.60986328125
-98.876953125
-81.48193359375
-77.81982421875
-73.2421875
-65.00244140625
-57.67822265625
-52.18505859375
-51.26953125
-49.4384765625
-41.19873046875
-35.70556640625
-64.0869140625
-46.69189453125
-28.38134765625
-2.74658203125
20.1416015625
14.6484375
-0.91552734375
-15.56396484375
5.4931640625
14.6484375
6.40869140625
10.986328125
29.296875
32.958984375
29.296875
35.70556640625
14.6484375
4.57763671875
-4.57763671875
4.57763671875
-18.310546875
-29.296875
-18.310546875
-32.04345703125
-45.7763671875
-52.18505859375
-74.15771484375
-83.31298828125
-102.5390625
-97.96142578125
-97.0458984375
-89.7216796875
-90.63720703125
-102.5390625
-105.28564453125
-95.21484375
-102.5390625
-103.45458984375
-108.94775390625
-118.10302734375
-143.73779296875
-141.90673828125
-149.23095703125
-161.1328125
-149.23095703125
-159.3017578125
-188.5986328125
-167.54150390625
-152.89306640625
-139.16015625
-131.8359375
-137.3291015625
-158.38623046875
-181.2744140625
-157.470703125
-150.146484375
-139.16015625
-128.173828125
-137.3291015625
-148.3154296875
-149.23095703125
-172.119140625
-170.2880859375
-163.87939453125
-174.86572265625
-173.03466796875
-113.525390625
-56.7626953125
13.73291015625
94.29931640625
162.9638671875
240.78369140625
400.08544921875
569.4580078125
721.435546875
826.72119140625
799.25537109375
683.89892578125
533.75244140625
340.576171875
130.92041015625
-97.0458984375
-273.74267578125
-408.3251953125
-516.357421875
-557.55615234375
-574.03564453125
-554.8095703125
-541.9921875
-487.060546875
-424.8046875
-361.63330078125
-286.56005859375
-248.10791015625
-206.9091796875
-144.6533203125
-131.8359375
-120.849609375
-111.6943359375
-102.5390625
-90.63720703125
-78.7353515625
-87.890625
-85.14404296875
-99.79248046875
-95.21484375
-87.890625
-90.63720703125
-85.14404296875
-93.3837890625
-86.0595703125
-88.80615234375
-87.890625
-79.65087890625
-67.7490234375
-60.4248046875
-52.18505859375
-52.18505859375
-59.50927734375
-79.65087890625
-77.81982421875
-70.49560546875
-79.65087890625
-73.2421875
-59.50927734375
-44.86083984375
-56.7626953125
-61.34033203125
-56.7626953125
-63.17138671875
-60.4248046875
-58.59375
-69.580078125
-67.7490234375
