ECG
-284.72900390625
-338.7451171875
-562.1337890625
-780.029296875
-845.947265625
-701.2939453125
-537.41455078125
-525.5126953125
-479.736328125
-409.24072265625
-225.2197265625
-200.50048828125
-284.72900390625
-243.5302734375
-146.484375
-169.37255859375
-157.470703125
-194.091796875
-136.41357421875
-97.0458984375
-86.97509765625
-69.580078125
170.2880859375
298.4619140625
302.1240234375
280.1513671875
377.197265625
380.859375
348.81591796875
377.197265625
230.712890625
253.60107421875
499.8779296875
566.71142578125
482.48291015625
552.978515625
664.6728515625
487.97607421875
403.74755859375
371.7041015625
610.65673828125
757.14111328125
736.083984375
737.9150390625
776.3671875
722.35107421875
739.74609375
628.96728515625
360.7177734375
249.0234375
181.2744140625
184.02099609375
216.064453125
393.6767578125
462.34130859375
468.75
367.12646484375
234.375
107.11669921875
110.77880859375
74.15771484375
66.83349609375
7.32421875
-3.662109375
21.05712890625
-13.73291015625
-95.21484375
-15.56396484375
-105.28564453125
-142.822265625
-227.05078125
-380.859375
-447.69287109375
-411.9873046875
-291.1376953125
-564.88037109375
-563.04931640625
-574.951171875
-690.3076171875
-601.50146484375
-595.0927734375
-614.31884765625
-741.5771484375
-718.68896484375
-799.25537109375
-874.32861328125
-885.31494140625
-929.26025390625
-963.134765625
-986.02294921875
-1057.43408203125
-1178.28369140625
-1420.8984375
-1326.59912109375
-1275.32958984375
-1128.84521484375
-1045.5322265625
-947.57080078125
-1033.63037109375
-1153.564453125
-1079.40673828125
-1128.84521484375
-1121.52099609375
-1244.20166015625
-1240.53955078125
-1191.10107421875
-1065.673828125
-1094.05517578125
-969.54345703125
-893.5546875
-964.9658203125
-949.40185546875
-1050.10986328125
-986.9384765625
-855.1025390625
-852.35595703125
-963.134765625
-955.810546875
-990.6005859375
-999.755859375
-963.134765625
-975.03662109375
-1035.46142578125
-1004.33349609375
-813.90380859375
-825.8056640625
-761.71875
-685.72998046875
-780.029296875
-810.24169921875
-899.96337890625
-870.66650390625
-968.6279296875
-1042.78564453125
-914.61181640625
-838.623046875
-921.0205078125
-905.45654296875
-770.8740234375
-738.83056640625
-737.9150390625
-699.462890625
-748.9013671875
-832.21435546875
-765.380859375
-763.5498046875
-825.8056640625
-785.5224609375
-810.24169921875
-694.88525390625
-742.49267578125
-723.2666015625
-755.31005859375
-844.1162109375
-804.74853515625
-729.67529296875
-820.3125
-858.7646484375
-855.1025390625
-894.47021484375
-1100.4638671875
-1146.240234375
-1116.943359375
-1023.5595703125
-910.0341796875
-896.30126953125
-953.06396484375
-980.52978515625
-984.19189453125
-1037.29248046875
-1007.99560546875
-1008.9111328125
-1091.30859375
-947.57080078125
-1088.56201171875
-1137.0849609375
-1092.22412109375
-1014.404296875
-990.6005859375
-798.33984375
-683.89892578125
-592.34619140625
-676.57470703125
-571.2890625
-499.8779296875
-398.25439453125
-438.53759765625
-415.6494140625
-458.67919921875
-450.439453125
-329.58984375
-58.59375
-1.8310546875
-59.50927734375
192.2607421875
327.7587890625
364.3798828125
354.30908203125
325.01220703125
376.28173828125
402.83203125
380.859375
467.83447265625
398.25439453125
366.2109375
427.55126953125
417.48046875
260.009765625
107.11669921875
152.89306640625
67.7490234375
52.18505859375
37.53662109375
-171.20361328125
-335.99853515625
-416.56494140625
-608.82568359375
-725.09765625
-635.3759765625
-608.82568359375
-698.54736328125
-853.271484375
-956.72607421875
-990.6005859375
-919.189453125
-825.8056640625
-750.732421875
-770.8740234375
-849.609375
-928.3447265625
-1000.67138671875
-1169.12841796875
-1364.1357421875
-1233.21533203125
-1015.31982421875
-964.9658203125
-879.82177734375
-888.0615234375
-1060.1806640625
-1169.12841796875
-1323.8525390625
-1327.5146484375
-1254.2724609375
-1205.74951171875
-1220.39794921875
-1299.13330078125
-1422.7294921875
-1398.01025390625
-1314.697265625
-1211.24267578125
-1256.103515625
-1427.30712890625
-1399.84130859375
-1257.9345703125
-1256.103515625
-1399.84130859375
-1495.05615234375
-1545.41015625
-1762.39013671875
-1582.94677734375
-1357.72705078125
-964.9658203125
-418.39599609375
124.51171875
925.59814453125
1584.77783203125
2464.599609375
3901.06201171875
5658.87451171875
7090.75927734375
8009.033203125
7993.46923828125
6631.16455078125
4845.88623046875
2863.76953125
781.8603515625
-1129.7607421875
-2503.0517578125
-3537.59765625
-4401.85546875
-4898.98681640625
-5097.65625
-5096.74072265625
-5014.34326171875
-4801.025390625
-4260.8642578125
-3515.625
-2846.37451171875
-2067.2607421875
-1496.88720703125
-1207.58056640625
-932.92236328125
-786.43798828125
-904.541015625
-1140.7470703125
-1132.50732421875
-848.69384765625
-770.8740234375
-664.6728515625
-711.36474609375
-593.26171875
-621.64306640625
-524.59716796875
-515.44189453125
-574.03564453125
-657.3486328125
-677.490234375
-684.814453125
-608.82568359375
-532.8369140625
-445.86181640625
-363.46435546875
-374.45068359375
-466.00341796875
-421.142578125
-322.265625
-285.64453125
-273.74267578125
-439.453125
-441.2841796875
-205.99365234375
-302.1240234375
-494.384765625
-580.4443359375
-632.62939453125
-453.18603515625
-433.04443359375
-269.1650390625
-191.34521484375
-105.28564453125
-67.7490234375
-151.9775390625
-133.6669921875
-46.69189453125
113.525390625
125.42724609375
30.21240234375
23.8037109375
-45.7763671875
-20.1416015625
-64.0869140625
3.662109375
225.2197265625
227.96630859375
254.5166015625
383.60595703125
405.57861328125
463.2568359375
357.97119140625
173.9501953125
335.99853515625
552.06298828125
538.330078125
693.05419921875
691.22314453125
705.87158203125
627.13623046875
677.490234375
811.1572265625
892.63916015625
996.09375
1073.91357421875
1092.22412109375
1166.3818359375
1104.1259765625
1122.4365234375
1062.92724609375
1029.96826171875
1079.40673828125
1103.21044921875
951.23291015625
897.216796875
1063.8427734375
1126.0986328125
1137.0849609375
1142.578125
1029.052734375
888.0615234375
844.1162109375
912.78076171875
834.9609375
822.1435546875
829.4677734375
806.57958984375
876.15966796875
823.974609375
858.7646484375
844.1162109375
778.1982421875
662.841796875
620.7275390625
555.72509765625
556.640625
397.3388671875
288.39111328125
197.75390625
170.2880859375
254.5166015625
259.09423828125
130.0048828125
13.73291015625
-132.75146484375
-128.173828125
-86.97509765625
-32.958984375
-95.21484375
-45.7763671875
69.580078125
68.66455078125
-122.6806640625
-475.15869140625
-690.3076171875
-639.0380859375
-608.82568359375
-581.35986328125
-512.6953125
-292.96875
-355.224609375
-354.30908203125
-308.53271484375
-422.05810546875
-623.47412109375
-659.1796875
-860.595703125
-975.9521484375
-803.8330078125
-688.4765625
-761.71875
-718.68896484375
-682.9833984375
-665.58837890625
-745.2392578125
-903.62548828125
-840.4541015625
-745.2392578125
-689.39208984375
-587.7685546875
-464.17236328125
-361.63330078125
-266.41845703125
-274.658203125
-477.9052734375
-545.654296875
-666.50390625
-716.85791015625
-662.841796875
-576.7822265625
-590.51513671875
-462.34130859375
-468.75
-443.115234375
-422.05810546875
-314.94140625
-296.630859375
-246.27685546875
-299.37744140625
-284.72900390625
-381.77490234375
-429.38232421875
-295.71533203125
-250.8544921875
-318.603515625
-374.45068359375
-337.82958984375
-430.2978515625
-333.251953125
-273.74267578125
-277.40478515625
-283.8134765625
-173.03466796875
-230.712890625
-336.9140625
-235.29052734375
-398.25439453125
-423.88916015625
-484.31396484375
-400.08544921875
-422.9736328125
-441.2841796875
-260.92529296875
-245.361328125
-195.00732421875
-178.52783203125
-196.83837890625
-285.64453125
-507.2021484375
-438.53759765625
-320.4345703125
-292.05322265625
-283.8134765625
-335.99853515625
-250.8544921875
-444.03076171875
-495.30029296875
-500.79345703125
-390.93017578125
-438.53759765625
-428.466796875
-373.53515625
-437.6220703125
-473.32763671875
-434.87548828125
-515.44189453125
-414.73388671875
-424.8046875
-306.70166015625
-374.45068359375
-413.818359375
-570.37353515625
-619.81201171875
-612.48779296875
-627.13623046875
-558.4716796875
-668.3349609375
-533.75244140625
-420.22705078125
-575.86669921875
-729.67529296875
-834.9609375
-564.88037109375
-546.56982421875
-520.01953125
-541.9921875
-516.357421875
-634.46044921875
-558.4716796875
-360.7177734375
-162.04833984375
32.958984375
-129.08935546875
-140.9912109375
-128.173828125
34.7900390625
65.00244140625
91.552734375
82.3974609375
292.96875
556.640625
712.2802734375
808.41064453125
755.31005859375
690.3076171875
877.0751953125
823.05908203125
682.06787109375
604.248046875
695.80078125
670.166015625
662.841796875
708.6181640625
779.11376953125
691.22314453125
665.58837890625
588.68408203125
468.75
390.93017578125
199.5849609375
219.7265625
242.61474609375
114.44091796875
-120.849609375
-154.72412109375
-330.50537109375
-411.9873046875
-290.22216796875
-292.05322265625
-391.845703125
-466.00341796875
-436.70654296875
-470.5810546875
-599.67041015625
-594.17724609375
-640.869140625
-618.896484375
-586.85302734375
-484.31396484375
-617.0654296875
-702.20947265625
-769.04296875
-772.705078125
-726.9287109375
-764.46533203125
-772.705078125
-780.94482421875
-913.6962890625
-877.99072265625
-948.486328125
-846.86279296875
-740.66162109375
-669.25048828125
-780.029296875
-824.89013671875
-825.8056640625
-941.162109375
-879.82177734375
-978.69873046875
-1137.0849609375
-1036.376953125
-1052.8564453125
-1234.130859375
-1265.2587890625
-1398.01025390625
-1406.25
-1300.048828125
-1073.91357421875
-671.9970703125
71.4111328125
595.0927734375
1238.70849609375
2063.5986328125
2891.2353515625
4233.3984375
5864.8681640625
7506.40869140625
8571.1669921875
8741.455078125
7725.2197265625
5926.20849609375
4111.63330078125
1809.99755859375
-600.5859375
-2516.78466796875
-3748.1689453125
-4510.80322265625
-4952.08740234375
-5103.1494140625
-4941.10107421875
-4785.46142578125
-4234.31396484375
-3541.259765625
-2847.2900390625
-2180.7861328125
-1575.62255859375
-1221.3134765625
-976.86767578125
-764.46533203125
-531.005859375
-502.62451171875
-415.6494140625
-345.15380859375
-239.8681640625
-335.99853515625
-469.66552734375
-498.96240234375
-764.46533203125
-985.107421875
-718.68896484375
-557.55615234375
-525.5126953125
-367.12646484375
-299.37744140625
-332.33642578125
-314.94140625
-459.5947265625
-269.1650390625
-197.75390625
-166.6259765625
-227.05078125
-112.60986328125
-191.34521484375
-82.3974609375
8.23974609375
-126.3427734375
-100.7080078125
-146.484375
-290.22216796875
-225.2197265625
-119.0185546875
23.8037109375
-37.53662109375
-10.986328125
100.7080078125
85.14404296875
100.7080078125
154.72412109375
261.8408203125
204.16259765625
306.70166015625
361.63330078125
192.2607421875
176.69677734375
244.44580078125
348.81591796875
432.12890625
444.9462890625
418.39599609375
444.9462890625
625.30517578125
565.7958984375
599.67041015625
576.7822265625
647.27783203125
522.76611328125
581.35986328125
616.14990234375
756.2255859375
798.33984375
1031.79931640625
942.9931640625
1057.43408203125
1116.943359375
1171.875
1220.39794921875
1258.85009765625
1178.28369140625
1197.509765625
1304.62646484375
1375.1220703125
1375.1220703125
1464.84375
1556.396484375
1725.76904296875
1787.109375
1788.9404296875
1723.0224609375
1826.47705078125
1822.81494140625
1686.4013671875
1800.84228515625
1794.43359375
1672.66845703125
1452.0263671875
1529.84619140625
1495.05615234375
1438.29345703125
1647.94921875
1537.17041015625
1463.92822265625
1471.25244140625
1464.84375
1377.86865234375
1359.55810546875
1451.11083984375
1455.6884765625
1432.80029296875
1210.3271484375
1206.6650390625
1096.8017578125
930.17578125
804.74853515625
717.7734375
805.6640625
692.138671875
601.50146484375
506.28662109375
506.28662109375
314.94140625
252.685546875
63.17138671875
66.83349609375
110.77880859375
-13.73291015625
-18.310546875
32.04345703125
137.3291015625
75.98876953125
23.8037109375
12.8173828125
25.634765625
-97.96142578125
-46.69189453125
-316.7724609375
-404.6630859375
-433.9599609375
-242.61474609375
-260.009765625
-390.93017578125
-285.64453125
-297.54638671875
-285.64453125
-372.61962890625
-365.29541015625
-357.97119140625
-355.224609375
-253.60107421875
-215.14892578125
-381.77490234375
-436.70654296875
-305.7861328125
-306.70166015625
-388.18359375
-328.67431640625
-310.36376953125
-365.29541015625
-361.63330078125
-285.64453125
-190.4296875
-59.50927734375
5.4931640625
-79.65087890625
-159.3017578125
-269.1650390625
-233.45947265625
-121.76513671875
-67.7490234375
-21.97265625
-151.06201171875
-120.849609375
-143.73779296875
-76.904296875
23.8037109375
110.77880859375
48.52294921875
110.77880859375
2.74658203125
-79.65087890625
54.931640625
108.0322265625
33.87451171875
52.18505859375
-96.13037109375
-91.552734375
-65.91796875
257.26318359375
350.64697265625
243.5302734375
167.54150390625
-223.388671875
-135.498046875
-75.98876953125
-14.6484375
-63.17138671875
-97.96142578125
-68.66455078125
26.55029296875
31.1279296875
48.52294921875
60.4248046875
62.255859375
34.7900390625
51.26953125
187.68310546875
75.0732421875
-86.0595703125
-48.52294921875
-210.5712890625
-299.37744140625
-278.3203125
-129.08935546875
-108.94775390625
-47.607421875
-343.32275390625
-281.06689453125
-41.19873046875
-166.6259765625
-110.77880859375
-27.4658203125
-149.23095703125
-108.0322265625
-54.01611328125
-10.07080078125
-72.32666015625
-27.4658203125
-74.15771484375
-213.31787109375
-228.8818359375
-99.79248046875
-85.14404296875
-5.4931640625
-15.56396484375
-195.9228515625
-258.1787109375
-159.3017578125
-22.88818359375
-82.3974609375
85.14404296875
160.21728515625
295.71533203125
310.36376953125
420.22705078125
473.32763671875
338.7451171875
395.5078125
576.7822265625
929.26025390625
1062.92724609375
1021.728515625
1011.65771484375
1148.0712890625
1122.4365234375
956.72607421875
1085.8154296875
1115.1123046875
1012.5732421875
911.865234375
1019.8974609375
1168.212890625
1184.6923828125
1191.10107421875
1179.19921875
964.05029296875
877.0751953125
799.25537109375
852.35595703125
710.44921875
429.38232421875
407.40966796875
385.43701171875
156.55517578125
43.9453125
50.35400390625
-157.470703125
-153.80859375
-104.3701171875
-74.15771484375
-118.10302734375
-180.35888671875
-325.927734375
-374.45068359375
-433.9599609375
-413.818359375
-466.9189453125
-374.45068359375
-383.60595703125
-348.81591796875
-254.5166015625
-237.12158203125
-452.2705078125
-532.8369140625
-385.43701171875
-346.0693359375
-429.38232421875
-499.8779296875
-488.8916015625
-299.37744140625
-392.76123046875
-496.2158203125
-636.29150390625
-601.50146484375
-589.599609375
-548.40087890625
-617.0654296875
-604.248046875
-598.7548828125
-650.93994140625
-540.1611328125
-805.6640625
-1048.27880859375
-1029.96826171875
-1203.0029296875
-1112.36572265625
-894.47021484375
-405.57861328125
65.00244140625
691.22314453125
1363.22021484375
2241.2109375
2811.58447265625
3942.2607421875
5317.3828125
6951.59912109375
8359.68017578125
8935.546875
8150.0244140625
6497.49755859375
4734.19189453125
2768.5546875
561.21826171875
-1594.8486328125
-2749.32861328125
-3732.60498046875
-4302.978515625
-4552.001953125
-4499.81689453125
-4346.00830078125
-4074.0966796875
-3485.41259765625
-2750.244140625
-2180.7861328125
-1698.30322265625
-1224.06005859375
-736.083984375
-498.96240234375
-259.09423828125
-334.16748046875
-363.46435546875
-270.08056640625
-302.1240234375
-255.43212890625
-262.75634765625
-260.009765625
-252.685546875
-155.6396484375
-70.49560546875
-140.9912109375
-173.9501953125
-145.56884765625
-84.228515625
-157.470703125
-108.94775390625
-122.6806640625
-189.51416015625
-227.05078125
-113.525390625
-128.173828125
-134.58251953125
80.56640625
-75.0732421875
-69.580078125
26.55029296875
85.14404296875
36.62109375
132.75146484375
315.85693359375
343.32275390625
236.2060546875
236.2060546875
285.64453125
321.35009765625
335.99853515625
449.52392578125
471.49658203125
281.982421875
236.2060546875
330.50537109375
379.0283203125
432.12890625
434.87548828125
435.791015625
347.900390625
495.30029296875
470.5810546875
549.31640625
595.0927734375
539.24560546875
592.34619140625
796.5087890625
895.3857421875
965.88134765625
903.62548828125
948.486328125
888.97705078125
918.27392578125
1107.7880859375
1150.81787109375
1145.32470703125
1154.47998046875
1229.55322265625
1290.8935546875
1261.5966796875
1332.09228515625
1408.99658203125
1450.1953125
1560.05859375
1483.154296875
1568.29833984375
1702.880859375
1822.81494140625
1896.05712890625
1981.201171875
1877.74658203125
1704.7119140625
1821.8994140625
1777.9541015625
1622.314453125
1727.60009765625
1773.37646484375
1799.01123046875
1923.52294921875
1994.93408203125
1884.1552734375
1821.8994140625
1662.59765625
1728.515625
1534.423828125
1579.28466796875
1809.08203125
1631.4697265625
1514.2822265625
1525.2685546875
1415.4052734375
1404.4189453125
1270.751953125
941.162109375
829.4677734375
856.93359375
840.4541015625
864.2578125
847.7783203125
817.56591796875
589.599609375
472.412109375
451.35498046875
440.36865234375
367.12646484375
219.7265625
208.740234375
54.931640625
103.45458984375
161.1328125
165.71044921875
153.80859375
128.173828125
48.52294921875
-90.63720703125
-128.173828125
-67.7490234375
-132.75146484375
-396.42333984375
-305.7861328125
-262.75634765625
-141.90673828125
-173.9501953125
-301.20849609375
-346.98486328125
-256.34765625
-281.982421875
-194.091796875
-245.361328125
-326.84326171875
-264.58740234375
-260.92529296875
-356.14013671875
-444.03076171875
-280.1513671875
-317.68798828125
-427.55126953125
-357.0556640625
-375.3662109375
-363.46435546875
-213.31787109375
-141.90673828125
-187.68310546875
-170.2880859375
-178.52783203125
-308.53271484375
-351.5625
-263.671875
-303.03955078125
-303.955078125
-390.0146484375
-155.6396484375
-105.28564453125
-24.71923828125
-3.662109375
-52.18505859375
-131.8359375
-122.6806640625
-96.13037109375
-102.5390625
-15.56396484375
33.87451171875
89.7216796875
1.8310546875
26.55029296875
-147.39990234375
-335.0830078125
-171.20361328125
-95.21484375
-24.71923828125
19.22607421875
-9.1552734375
-81.48193359375
-137.3291015625
-54.01611328125
-27.4658203125
-23.8037109375
-238.037109375
-133.6669921875
-61.34033203125
-85.14404296875
-97.96142578125
-52.18505859375
-96.13037109375
-89.7216796875
-176.69677734375
-267.333984375
-322.265625
-226.13525390625
-65.00244140625
-189.51416015625
-257.26318359375
-113.525390625
-61.34033203125
-169.37255859375
-200.50048828125
-243.5302734375
-249.0234375
-322.265625
-351.5625
-302.1240234375
-349.7314453125
-310.36376953125
-151.06201171875
-93.3837890625
-140.9912109375
-302.1240234375
-379.0283203125
-333.251953125
-390.93017578125
-457.763671875
-141.90673828125
-160.21728515625
-272.8271484375
-343.32275390625
-454.1015625
-529.1748046875
-409.24072265625
-365.29541015625
-384.521484375
-203.2470703125
-23.8037109375
77.81982421875
37.53662109375
-91.552734375
-1.8310546875
103.45458984375
38.4521484375
-22.88818359375
-5.4931640625
178.52783203125
362.548828125
416.56494140625
653.6865234375
848.69384765625
926.513671875
965.88134765625
829.4677734375
736.083984375
914.61181640625
953.9794921875
871.58203125
845.03173828125
1060.1806640625
1060.1806640625
872.49755859375
916.44287109375
766.29638671875
692.138671875
554.8095703125
407.40966796875
364.3798828125
348.81591796875
-27.4658203125
-154.72412109375
-42.1142578125
-62.255859375
-54.931640625
-260.92529296875
-325.927734375
-429.38232421875
-587.7685546875
-650.0244140625
-679.3212890625
-510.8642578125
-477.9052734375
-282.89794921875
-401.0009765625
-508.11767578125
-670.166015625
-793.76220703125
-791.015625
-754.39453125
-807.4951171875
-806.57958984375
-836.7919921875
-725.09765625
-699.462890625
-686.6455078125
-724.18212890625
-671.08154296875
-644.53125
-769.04296875
-815.73486328125
-920.10498046875
-874.32861328125
-797.42431640625
-759.8876953125
-848.69384765625
-812.07275390625
-759.8876953125
-927.42919921875
-1116.02783203125
-1168.212890625
-1268.9208984375
-1503.2958984375
-1457.51953125
-1235.9619140625
-1029.052734375
-736.99951171875
-174.86572265625
522.76611328125
1209.41162109375
1937.255859375
2747.49755859375
4444.88525390625
6089.17236328125
7534.7900390625
8604.1259765625
8706.6650390625
7325.13427734375
5389.70947265625
3293.15185546875
1181.0302734375
-681.15234375
-2023.3154296875
-3288.57421875
-4231.5673828125
-4417.41943359375
-4638.0615234375
-4665.52734375
-4656.3720703125
-4457.70263671875
-4062.19482421875
-3396.6064453125
-2590.02685546875
-1941.83349609375
-1479.4921875
-1176.45263671875
-1024.47509765625
-747.98583984375
-588.68408203125
-548.40087890625
-485.2294921875
-395.5078125
-512.6953125
-556.640625
-553.89404296875
-552.978515625
-429.38232421875
-484.31396484375
-358.88671875
-304.87060546875
-398.25439453125
-521.8505859375
-509.94873046875
-452.2705078125
-372.61962890625
-208.740234375
-341.49169921875
-443.115234375
-369.873046875
-285.64453125
-256.34765625
-108.94775390625
-122.6806640625
-34.7900390625
-180.35888671875
-64.0869140625
87.890625
-354.30908203125
-288.39111328125
-24.71923828125
21.05712890625
53.1005859375
113.525390625
268.24951171875
279.23583984375
-1.8310546875
-131.8359375
-60.4248046875
22.88818359375
-57.67822265625
37.53662109375
167.54150390625
220.64208984375
348.81591796875
408.3251953125
270.08056640625
247.1923828125
15.56396484375
113.525390625
266.41845703125
262.75634765625
390.0146484375
623.47412109375
561.21826171875
469.66552734375
454.1015625
705.87158203125
803.8330078125
809.326171875
875.244140625
801.08642578125
816.650390625
832.21435546875
824.89013671875
890.80810546875
963.134765625
977.783203125
1055.60302734375
1183.77685546875
1215.8203125
1160.888671875
1049.1943359375
1208.49609375
1270.751953125
1231.38427734375
1304.62646484375
1346.74072265625
1408.0810546875
1412.65869140625
1451.11083984375
1548.15673828125
1333.0078125
1191.10107421875
1144.4091796875
1062.92724609375
1093.1396484375
1158.14208984375
1139.83154296875
1119.68994140625
1142.578125
1042.78564453125
1055.60302734375
989.68505859375
806.57958984375
633.544921875
705.87158203125
791.93115234375
686.6455078125
600.5859375
419.3115234375
422.9736328125
356.14013671875
358.88671875
382.6904296875
417.48046875
453.18603515625
411.9873046875
181.2744140625
-35.70556640625
-55.84716796875
-249.0234375
-227.05078125
-114.44091796875
-64.0869140625
-131.8359375
-312.19482421875
-468.75
-597.83935546875
-671.9970703125
-517.27294921875
-455.01708984375
-477.9052734375
-573.1201171875
-571.2890625
-413.818359375
-370.78857421875
-513.61083984375
-455.01708984375
-270.08056640625
-336.9140625
-515.44189453125
-473.32763671875
-523.681640625
-683.89892578125
-682.06787109375
-734.2529296875
-770.8740234375
-839.53857421875
-720.52001953125
-615.234375
-571.2890625
-412.90283203125
-544.73876953125
-455.01708984375
-450.439453125
-531.005859375
-630.79833984375
-661.92626953125
-671.9970703125
-628.96728515625
-521.8505859375
-531.92138671875
-596.923828125
-580.4443359375
-441.2841796875
-453.18603515625
-441.2841796875
-255.43212890625
-288.39111328125
-389.09912109375
-489.80712890625
-470.5810546875
-521.8505859375
-453.18603515625
-340.576171875
-277.40478515625
-260.009765625
-369.873046875
-317.68798828125
-216.97998046875
-212.40234375
-248.10791015625
-314.02587890625
-237.12158203125
-267.333984375
-461.42578125
-425.72021484375
-441.2841796875
-462.34130859375
-429.38232421875
-334.16748046875
-339.66064453125
-398.25439453125
-491.63818359375
-431.21337890625
-271.91162109375
-308.53271484375
-311.279296875
-238.037109375
-519.10400390625
-512.6953125
-581.35986328125
-584.1064453125
-448.6083984375
-489.80712890625
-640.869140625
-561.21826171875
-543.8232421875
-541.9921875
-638.12255859375
-482.48291015625
-457.763671875
-343.32275390625
-305.7861328125
-155.6396484375
-186.767578125
-278.3203125
-251.77001953125
-239.8681640625
-184.02099609375
-136.41357421875
144.6533203125
353.3935546875
527.34375
602.4169921875
751.64794921875
701.2939453125
858.7646484375
940.24658203125
895.3857421875
545.654296875
579.52880859375
574.951171875
451.35498046875
570.37353515625
659.1796875
733.33740234375
726.01318359375
455.9326171875
489.80712890625
406.494140625
377.197265625
259.09423828125
132.75146484375
37.53662109375
-126.3427734375
-36.62109375
-245.361328125
-338.7451171875
-315.85693359375
-394.59228515625
-419.3115234375
-532.8369140625
-610.65673828125
-732.421875
-613.4033203125
-673.828125
-761.71875
-780.94482421875
-920.10498046875
-720.52001953125
-855.1025390625
-880.7373046875
-894.47021484375
-818.4814453125
-869.7509765625
-800.1708984375
-978.69873046875
-926.513671875
-918.27392578125
-935.6689453125
-879.82177734375
-851.4404296875
-945.73974609375
-946.6552734375
-786.43798828125
-755.31005859375
-886.23046875
-942.9931640625
-869.7509765625
-952.1484375
-1015.31982421875
-989.68505859375
-1083.984375
-1073.91357421875
-1074.8291015625
-1237.79296875
-1272.5830078125
-1254.2724609375
-1155.3955078125
-1163.63525390625
-709.53369140625
-96.13037109375
563.04931640625
1264.34326171875
1946.4111328125
2971.8017578125
4389.95361328125
5787.04833984375
7166.748046875
8121.64306640625
8007.2021484375
6774.90234375
5114.1357421875
3112.79296875
1138.916015625
-714.111328125
-2212.82958984375
-3419.49462890625
-4454.04052734375
-4909.0576171875
-4945.6787109375
-4811.09619140625
-4778.13720703125
-4610.595703125
-3994.44580078125
-3326.11083984375
-2652.28271484375
-2045.2880859375
-1494.140625
-1294.5556640625
-1070.25146484375
-869.7509765625
-617.0654296875
-529.1748046875
-453.18603515625
-414.73388671875
-472.412109375
-521.8505859375
-490.72265625
-384.521484375
-357.0556640625
-359.80224609375
-369.873046875
-455.01708984375
-580.4443359375
-596.00830078125
-427.55126953125
-413.818359375
-247.1923828125
-221.5576171875
-54.931640625
-8.23974609375
-18.310546875
-71.4111328125
-199.5849609375
-349.7314453125
-379.94384765625
-303.955078125
-262.75634765625
-114.44091796875
-105.28564453125
-132.75146484375
-128.173828125
-127.25830078125
76.904296875
75.98876953125
-84.228515625
59.50927734375
156.55517578125
87.890625
69.580078125
108.0322265625
124.51171875
129.08935546875
260.92529296875
360.7177734375
306.70166015625
332.33642578125
341.49169921875
336.9140625
346.0693359375
432.12890625
374.45068359375
474.2431640625
627.13623046875
582.275390625
597.83935546875
659.1796875
661.92626953125
831.298828125
1066.58935546875
1001.5869140625
1109.619140625
1102.294921875
1052.8564453125
1083.984375
1278.076171875
1400.7568359375
1296.38671875
1345.8251953125
1328.43017578125
1211.24267578125
1156.31103515625
1199.3408203125
1145.32470703125
1226.806640625
1275.32958984375
1408.0810546875
1398.92578125
1305.5419921875
1328.43017578125
1302.79541015625
1318.359375
1412.65869140625
1376.953125
1290.8935546875
1380.615234375
1414.48974609375
1330.26123046875
1302.79541015625
1287.2314453125
1148.98681640625
1067.5048828125
1062.92724609375
1104.1259765625
1051.94091796875
1032.71484375
961.3037109375
913.6962890625
852.35595703125
802.91748046875
911.865234375
948.486328125
820.3125
719.6044921875
615.234375
620.7275390625
591.4306640625
593.26171875
549.31640625
451.35498046875
512.6953125
357.0556640625
261.8408203125
208.740234375
204.16259765625
227.05078125
57.67822265625
-130.0048828125
-224.30419921875
-64.0869140625
-39.36767578125
-122.6806640625
-184.9365234375
-182.18994140625
-191.34521484375
-99.79248046875
-235.29052734375
-246.27685546875
-125.42724609375
-101.62353515625
-214.2333984375
-306.70166015625
-187.68310546875
-195.9228515625
-247.1923828125
-196.83837890625
-210.5712890625
-364.3798828125
-378.11279296875
-294.7998046875
-258.1787109375
-379.0283203125
-254.5166015625
-187.68310546875
-133.6669921875
-115.3564453125
-100.7080078125
-169.37255859375
-305.7861328125
-210.5712890625
-71.4111328125
-8.23974609375
80.56640625
-18.310546875
-89.7216796875
-264.58740234375
-151.06201171875
-81.48193359375
-52.18505859375
-60.4248046875
-131.8359375
-22.88818359375
90.63720703125
121.76513671875
143.73779296875
57.67822265625
160.21728515625
94.29931640625
7.32421875
0.91552734375
27.4658203125
29.296875
65.91796875
33.87451171875
107.11669921875
196.83837890625
78.7353515625
122.6806640625
34.7900390625
160.21728515625
160.21728515625
169.37255859375
203.2470703125
396.42333984375
280.1513671875
183.10546875
119.0185546875
23.8037109375
-34.7900390625
-54.931640625
-86.97509765625
-4.57763671875
54.01611328125
96.13037109375
138.24462890625
179.443359375
182.18994140625
162.9638671875
196.83837890625
365.29541015625
78.7353515625
-143.73779296875
-118.10302734375
-127.25830078125
-36.62109375
96.13037109375
89.7216796875
52.18505859375
26.55029296875
154.72412109375
177.6123046875
329.58984375
335.0830078125
309.4482421875
510.8642578125
541.07666015625
639.0380859375
726.9287109375
650.93994140625
551.1474609375
547.4853515625
676.57470703125
890.80810546875
1005.2490234375
1128.84521484375
1081.23779296875
1291.80908203125
1293.64013671875
1336.669921875
1328.43017578125
1203.91845703125
1328.43017578125
1263.427734375
1233.21533203125
1294.5556640625
1348.57177734375
1332.09228515625
1336.669921875
1258.85009765625
1215.8203125
1000.67138671875
808.41064453125
668.3349609375
533.75244140625
444.9462890625
449.52392578125
565.7958984375
556.640625
547.4853515625
460.51025390625
216.97998046875
139.16015625
21.97265625
-41.19873046875
51.26953125
-12.8173828125
-157.470703125
-29.296875
-69.580078125
-179.443359375
-331.4208984375
-386.3525390625
-290.22216796875
-246.27685546875
-216.064453125
-219.7265625
-231.62841796875
-234.375
-136.41357421875
-227.96630859375
-157.470703125
-173.03466796875
-277.40478515625
-327.7587890625
-233.45947265625
-224.30419921875
-418.39599609375
-441.2841796875
-400.08544921875
-366.2109375
-231.62841796875
-188.5986328125
-422.9736328125
-608.82568359375
-791.93115234375
-777.28271484375
-703.125
-752.5634765625
-740.66162109375
-525.5126953125
-142.822265625
336.9140625
879.82177734375
1492.3095703125
2341.00341796875
3045.0439453125
4356.0791015625
5962.82958984375
7535.70556640625
8604.1259765625
9045.41015625
8253.47900390625
6376.64794921875
4347.83935546875
2145.08056640625
193.17626953125
-1656.18896484375
-2773.13232421875
-3816.83349609375
-4262.6953125
-4410.09521484375
-4334.1064453125
-4335.02197265625
-4094.23828125
-3240.05126953125
-2625.732421875
-1869.5068359375
-1188.3544921875
-931.09130859375
-655.517578125
-294.7998046875
-50.35400390625
100.7080078125
138.24462890625
60.4248046875
-122.6806640625
-315.85693359375
-184.9365234375
-81.48193359375
-88.80615234375
64.0869140625
147.39990234375
60.4248046875
80.56640625
138.24462890625
300.29296875
343.32275390625
385.43701171875
417.48046875
444.03076171875
291.1376953125
233.45947265625
263.671875
257.26318359375
321.35009765625
298.4619140625
211.48681640625
238.95263671875
435.791015625
510.8642578125
611.572265625
691.22314453125
587.7685546875
389.09912109375
403.74755859375
685.72998046875
558.4716796875
585.02197265625
560.302734375
470.5810546875
495.30029296875
585.02197265625
553.89404296875
684.814453125
811.1572265625
847.7783203125
887.14599609375
865.17333984375
773.62060546875
712.2802734375
688.4765625
596.00830078125
632.62939453125
791.93115234375
1014.404296875
1177.3681640625
1353.1494140625
1398.92578125
1358.642578125
1452.0263671875
1376.03759765625
1431.884765625
1519.775390625
1653.4423828125
1570.12939453125
1560.05859375
1719.3603515625
1679.0771484375
1736.75537109375
1758.72802734375
1973.876953125
1994.93408203125
2110.29052734375
2129.5166015625
2107.5439453125
2047.119140625
2046.20361328125
1943.66455078125
1931.7626953125
2035.21728515625
2049.86572265625
2010.498046875
2071.83837890625
2214.66064453125
2275.08544921875
2135.009765625
2172.54638671875
2156.06689453125
2152.40478515625
2086.48681640625
2117.61474609375
2233.88671875
2210.99853515625
2108.45947265625
2089.2333984375
1982.11669921875
1875.91552734375
1939.0869140625
1638.7939453125
1624.1455078125
1559.14306640625
1497.802734375
1442.87109375
1328.43017578125
1260.68115234375
1158.14208984375
969.54345703125
1005.2490234375
996.09375
932.0068359375
891.7236328125
849.609375
779.11376953125
744.32373046875
666.50390625
498.96240234375
249.93896484375
286.56005859375
411.9873046875
396.42333984375
377.197265625
338.7451171875
512.6953125
466.9189453125
281.06689453125
140.9912109375
32.958984375
144.6533203125
180.35888671875
221.5576171875
153.80859375
43.02978515625
86.97509765625
78.7353515625
45.7763671875
54.931640625
146.484375
196.83837890625
169.37255859375
27.4658203125
57.67822265625
-56.7626953125
-108.0322265625
8.23974609375
86.0595703125
65.91796875
159.3017578125
158.38623046875
124.51171875
73.2421875
182.18994140625
199.5849609375
248.10791015625
263.671875
140.07568359375
161.1328125
90.63720703125
16.4794921875
130.0048828125
194.091796875
270.08056640625
309.4482421875
323.18115234375
385.43701171875
346.0693359375
447.69287109375
400.08544921875
349.7314453125
272.8271484375
290.22216796875
269.1650390625
255.43212890625
343.32275390625
283.8134765625
211.48681640625
440.36865234375
490.72265625
323.18115234375
162.9638671875
265.5029296875
291.1376953125
431.21337890625
465.087890625
518.1884765625
503.5400390625
524.59716796875
321.35009765625
184.02099609375
320.4345703125
357.97119140625
348.81591796875
194.091796875
121.76513671875
181.2744140625
245.361328125
359.80224609375
268.24951171875
317.68798828125
347.900390625
348.81591796875
364.3798828125
367.12646484375
344.23828125
399.169921875
362.548828125
355.224609375
326.84326171875
304.87060546875
244.44580078125
246.27685546875
234.375
43.9453125
114.44091796875
57.67822265625
86.97509765625
151.06201171875
240.78369140625
412.90283203125
458.67919921875
599.67041015625
575.86669921875
703.125
769.04296875
938.41552734375
884.3994140625
666.50390625
379.94384765625
405.57861328125
725.09765625
1084.89990234375
1196.59423828125
1506.9580078125
1452.0263671875
1408.0810546875
1462.09716796875
1357.72705078125
1248.779296875
1278.076171875
1232.2998046875
1258.85009765625
1366.88232421875
1479.4921875
1419.98291015625
1514.2822265625
1464.84375
1319.27490234375
1277.16064453125
1221.3134765625
1175.537109375
1012.5732421875
869.7509765625
730.5908203125
563.96484375
463.2568359375
140.07568359375
64.0869140625
134.58251953125
105.28564453125
140.9912109375
82.3974609375
5.4931640625
-130.0048828125
-79.65087890625
-119.0185546875
-99.79248046875
25.634765625
-10.07080078125
2.74658203125
-3.662109375
-109.86328125
-241.69921875
-395.5078125
-279.23583984375
-216.97998046875
-139.16015625
-119.0185546875
-122.6806640625
-292.05322265625
-412.90283203125
-515.44189453125
-357.0556640625
-305.7861328125
-386.3525390625
-377.197265625
-341.49169921875
-334.16748046875
-269.1650390625
-227.96630859375
-237.12158203125
-256.34765625
-334.16748046875
-606.0791015625
-946.6552734375
-899.0478515625
-932.92236328125
-727.84423828125
-520.01953125
-105.28564453125
433.9599609375
1109.619140625
1688.232421875
2390.44189453125
3045.95947265625
4415.58837890625
6036.07177734375
7936.70654296875
8913.57421875
9231.26220703125
8348.69384765625
6611.02294921875
4602.35595703125
2630.31005859375
349.7314453125
-1565.5517578125
-2787.78076171875
-3832.3974609375
-4376.220703125
-4569.39697265625
-4489.74609375
-4425.6591796875
-4129.0283203125
-3497.314453125
-2622.0703125
-1899.71923828125
-1277.16064453125
-877.99072265625
-512.6953125
-285.64453125
-22.88818359375
-79.65087890625
12.8173828125
-68.66455078125
-167.54150390625
-134.58251953125
-115.3564453125
-52.18505859375
-54.01611328125
-20.1416015625
43.9453125
164.794921875
282.89794921875
262.75634765625
195.00732421875
262.75634765625
344.23828125
303.03955078125
311.279296875
170.2880859375
160.21728515625
229.79736328125
289.306640625
298.4619140625
242.61474609375
411.9873046875
474.2431640625
531.92138671875
429.38232421875
404.6630859375
437.6220703125
176.69677734375
165.71044921875
249.93896484375
442.19970703125
460.51025390625
506.28662109375
688.4765625
606.99462890625
574.03564453125
586.85302734375
468.75
481.5673828125
524.59716796875
576.7822265625
735.16845703125
736.99951171875
705.87158203125
715.02685546875
795.59326171875
861.51123046875
867.919921875
867.919921875
926.513671875
1060.1806640625
1081.23779296875
1036.376953125
1242.37060546875
1396.17919921875
1430.0537109375
1454.77294921875
1586.60888671875
1578.369140625
1606.75048828125
1582.94677734375
1618.65234375
1794.43359375
1798.095703125
1933.59375
1972.96142578125
1911.62109375
1799.9267578125
1918.9453125
1980.28564453125
2062.68310546875
2154.23583984375
2126.77001953125
2156.06689453125
2180.7861328125
2154.23583984375
2211.9140625
2082.82470703125
2207.33642578125
2282.40966796875
2282.40966796875
2223.81591796875
2210.99853515625
2111.2060546875
1927.18505859375
1907.04345703125
1989.44091796875
1875
1927.18505859375
1865.8447265625
1841.12548828125
1797.18017578125
1671.7529296875
1586.60888671875
1631.4697265625
1540.83251953125
1396.17919921875
1386.1083984375
1411.7431640625
1376.03759765625
1296.38671875
1220.39794921875
1088.56201171875
957.6416015625
823.05908203125
708.6181640625
597.83935546875
565.7958984375
612.48779296875
593.26171875
573.1201171875
375.3662109375
249.93896484375
118.10302734375
178.52783203125
208.740234375
214.2333984375
204.16259765625
184.9365234375
221.5576171875
206.9091796875
260.92529296875
188.5986328125
80.56640625
21.05712890625
-22.88818359375
-13.73291015625
-41.19873046875
-191.34521484375
-257.26318359375
-162.9638671875
-239.8681640625
-175.78125
-93.3837890625
-89.7216796875
-20.1416015625
15.56396484375
106.201171875
42.1142578125
112.60986328125
-3.662109375
66.83349609375
-21.97265625
-77.81982421875
-67.7490234375
-93.3837890625
21.97265625
11.90185546875
64.0869140625
32.958984375
82.3974609375
123.59619140625
170.2880859375
197.75390625
218.81103515625
50.35400390625
172.119140625
225.2197265625
248.10791015625
187.68310546875
188.5986328125
100.7080078125
106.201171875
91.552734375
175.78125
350.64697265625
313.1103515625
412.90283203125
480.65185546875
531.92138671875
417.48046875
455.9326171875
408.3251953125
262.75634765625
265.5029296875
88.80615234375
206.9091796875
400.08544921875
390.93017578125
294.7998046875
251.77001953125
340.576171875
415.6494140625
259.09423828125
203.2470703125
232.5439453125
205.078125
240.78369140625
270.08056640625
270.99609375
355.224609375
331.4208984375
277.40478515625
197.75390625
118.10302734375
165.71044921875
115.3564453125
50.35400390625
141.90673828125
130.0048828125
144.6533203125
94.29931640625
184.9365234375
-5.4931640625
-116.27197265625
-72.32666015625
21.05712890625
17.39501953125
99.79248046875
50.35400390625
64.0869140625
65.91796875
102.5390625
159.3017578125
225.2197265625
174.86572265625
197.75390625
32.04345703125
7.32421875
168.45703125
311.279296875
286.56005859375
348.81591796875
430.2978515625
428.466796875
440.36865234375
382.6904296875
325.927734375
285.64453125
359.80224609375
654.60205078125
860.595703125
1016.2353515625
1168.212890625
1199.3408203125
1249.69482421875
1262.51220703125
1348.57177734375
1323.8525390625
1127.01416015625
1081.23779296875
1164.55078125
1164.55078125
1213.9892578125
1246.03271484375
1275.32958984375
1057.43408203125
1028.13720703125
1012.5732421875
929.26025390625
910.94970703125
835.87646484375
764.46533203125
593.26171875
227.96630859375
65.00244140625
-95.21484375
-204.16259765625
-128.173828125
-99.79248046875
3.662109375
-2.74658203125
9.1552734375
-33.87451171875
-168.45703125
-253.60107421875
-131.8359375
-143.73779296875
-436.70654296875
-445.86181640625
-370.78857421875
-431.21337890625
-498.046875
-475.15869140625
-427.55126953125
-431.21337890625
-441.2841796875
-528.25927734375
-491.63818359375
-571.2890625
-672.91259765625
-500.79345703125
-621.64306640625
-598.7548828125
-543.8232421875
-421.142578125
-426.6357421875
-413.818359375
-453.18603515625
-682.06787109375
-630.79833984375
-488.8916015625
-546.56982421875
-636.29150390625
-779.11376953125
-969.54345703125
-1164.55078125
-1148.0712890625
-1019.8974609375
-558.4716796875
73.2421875
748.9013671875
1484.9853515625
2384.94873046875
3041.3818359375
4298.40087890625
5994.873046875
7725.2197265625
8940.12451171875
9295.34912109375
8407.28759765625
6759.33837890625
4481.50634765625
2262.26806640625
70.49560546875
-1669.00634765625
-2696.22802734375
-3676.7578125
-4223.32763671875
-4380.79833984375
-4475.09765625
-4300.23193359375
-4064.94140625
-3720.703125
-3262.939453125
-2591.85791015625
-1846.61865234375
-1382.4462890625
-1084.89990234375
-707.70263671875
-407.40966796875
-420.22705078125
-506.28662109375
-379.0283203125
-260.92529296875
-248.10791015625
-269.1650390625
-285.64453125
-233.45947265625
-334.16748046875
-265.5029296875
-125.42724609375
-86.97509765625
-150.146484375
-213.31787109375
-72.32666015625
-120.849609375
-96.13037109375
-10.986328125
19.22607421875
96.13037109375
196.83837890625
77.81982421875
-43.02978515625
-82.3974609375
-62.255859375
36.62109375
-99.79248046875
-134.58251953125
90.63720703125
-86.0595703125
-130.92041015625
-6.40869140625
10.07080078125
124.51171875
147.39990234375
204.16259765625
291.1376953125
356.14013671875
348.81591796875
404.6630859375
361.63330078125
357.0556640625
354.30908203125
280.1513671875
293.88427734375
423.88916015625
446.77734375
577.69775390625
574.03564453125
572.20458984375
575.86669921875
705.87158203125
631.7138671875
487.97607421875
497.13134765625
610.65673828125
829.4677734375
900.87890625
934.75341796875
1119.68994140625
1211.24267578125
1029.96826171875
1043.701171875
1148.98681640625
1281.73828125
1325.68359375
1419.0673828125
1481.3232421875
1362.3046875
1343.07861328125
1399.84130859375
1374.20654296875
1307.373046875
1383.36181640625
1499.6337890625
1479.4921875
1488.6474609375
1646.1181640625
1658.02001953125
1642.4560546875
1722.10693359375
1632.38525390625
1641.54052734375
1821.8994140625
1692.81005859375
1649.7802734375
1611.328125
1533.50830078125
1508.7890625
1497.802734375
1373.291015625
1555.48095703125
1481.3232421875
1234.130859375
1089.4775390625
1165.46630859375
1088.56201171875
1089.4775390625
1157.2265625
888.0615234375
1053.77197265625
1025.390625
816.650390625
736.083984375
760.80322265625
628.0517578125
670.166015625
620.7275390625
421.142578125
260.009765625
225.2197265625
196.83837890625
69.580078125
54.931640625
-119.0185546875
-201.416015625
-229.79736328125
-194.091796875
-107.11669921875
-231.62841796875
-309.4482421875
-335.99853515625
-314.02587890625
-263.671875
-303.955078125
-300.29296875
-458.67919921875
-347.900390625
-250.8544921875
-221.5576171875
-114.44091796875
-116.27197265625
-318.603515625
-474.2431640625
-508.11767578125
-441.2841796875
-343.32275390625
-372.61962890625
-287.4755859375
-351.5625
-476.07421875
-566.71142578125
-536.4990234375
-467.83447265625
-374.45068359375
-301.20849609375
-297.54638671875
-313.1103515625
-351.5625
-297.54638671875
-430.2978515625
-415.6494140625
-381.77490234375
-384.521484375
-299.37744140625
-425.72021484375
-365.29541015625
-357.0556640625
-337.82958984375
-285.64453125
-248.10791015625
-250.8544921875
-242.61474609375
-395.5078125
-297.54638671875
-364.3798828125
-308.53271484375
-397.3388671875
-309.4482421875
-205.99365234375
-132.75146484375
-195.9228515625
-102.5390625
-125.42724609375
-198.66943359375
-155.6396484375
-194.091796875
-237.12158203125
-291.1376953125
-404.6630859375
-436.70654296875
-300.29296875
-197.75390625
-119.0185546875
-63.17138671875
-79.65087890625
-93.3837890625
-188.5986328125
-203.2470703125
-103.45458984375
-144.6533203125
-34.7900390625
20.1416015625
-29.296875
-249.0234375
-271.91162109375
-368.0419921875
-122.6806640625
-309.4482421875
-546.56982421875
-610.65673828125
-514.5263671875
-448.6083984375
-369.873046875
-356.14013671875
-310.36376953125
-165.71044921875
-322.265625
-225.2197265625
-330.50537109375
-369.873046875
-372.61962890625
-253.60107421875
-166.6259765625
-248.10791015625
-162.04833984375
-79.65087890625
-24.71923828125
94.29931640625
59.50927734375
-35.70556640625
26.55029296875
295.71533203125
344.23828125
404.6630859375
448.6083984375
458.67919921875
544.73876953125
823.974609375
948.486328125
889.892578125
849.609375
732.421875
602.4169921875
684.814453125
741.5771484375
714.111328125
697.6318359375
772.705078125
689.39208984375
606.99462890625
746.15478515625
748.9013671875
602.4169921875
473.32763671875
341.49169921875
74.15771484375
-228.8818359375
-447.69287109375
-384.521484375
-307.6171875
-311.279296875
-320.4345703125
-484.31396484375
-636.29150390625
-579.52880859375
-611.572265625
-778.1982421875
-701.2939453125
-726.9287109375
-693.05419921875
-756.2255859375
-688.4765625
-672.91259765625
-690.3076171875
-704.04052734375
-712.2802734375
-804.74853515625
-869.7509765625
-825.8056640625
-789.1845703125
-709.53369140625
-851.4404296875
-748.9013671875
-792.8466796875
-1108.70361328125
-889.892578125
-774.5361328125
-792.8466796875
-798.33984375
-848.69384765625
-956.72607421875
-934.75341796875
-974.12109375
-999.755859375
-986.9384765625
-1018.98193359375
-1206.6650390625
-1201.171875
-1296.38671875
-1101.37939453125
-992.431640625
-837.70751953125
-511.77978515625
-59.50927734375
631.7138671875
1602.1728515625
2384.94873046875
3515.625
5152.587890625
6788.63525390625
8022.76611328125
8659.0576171875
7939.453125
6307.9833984375
4486.083984375
2320.86181640625
422.05810546875
-1231.38427734375
-2410.58349609375
-3483.58154296875
-4225.15869140625
-4556.57958984375
-4681.09130859375
-4696.6552734375
-4501.64794921875
-4039.306640625
-3565.97900390625
-2821.6552734375
-2155.1513671875
-1747.74169921875
-1427.30712890625
-1158.14208984375
-958.55712890625
-823.974609375
-691.22314453125
-569.4580078125
-493.46923828125
-453.18603515625
-427.55126953125
-345.15380859375
-433.04443359375
-405.57861328125
-528.25927734375
-522.76611328125
-447.69287109375
-376.28173828125
-357.0556640625
-243.5302734375
-343.32275390625
-267.333984375
-338.7451171875
-365.29541015625
-271.91162109375
-221.5576171875
-217.8955078125
-227.96630859375
-265.5029296875
-208.740234375
-331.4208984375
-334.16748046875
-111.6943359375
-66.83349609375
-59.50927734375
11.90185546875
0
-14.6484375
58.59375
91.552734375
56.7626953125
49.4384765625
107.11669921875
185.85205078125
241.69921875
238.037109375
280.1513671875
313.1103515625
274.658203125
25.634765625
77.81982421875
251.77001953125
375.3662109375
304.87060546875
371.7041015625
396.42333984375
562.1337890625
563.04931640625
457.763671875
488.8916015625
586.85302734375
705.87158203125
709.53369140625
756.2255859375
776.3671875
719.6044921875
806.57958984375
943.90869140625
977.783203125
1011.65771484375
1077.57568359375
1064.75830078125
1110.53466796875
1114.19677734375
1213.07373046875
1192.0166015625
1142.578125
1168.212890625
1396.17919921875
1303.7109375
1436.46240234375
1340.33203125
1254.2724609375
1322.021484375
1391.6015625
1405.33447265625
1309.2041015625
1407.16552734375
1253.35693359375
1228.6376953125
1390.68603515625
1333.92333984375
1249.69482421875
1398.92578125
1355.89599609375
1264.34326171875
1065.673828125
1043.701171875
1054.6875
1051.94091796875
1035.46142578125
999.755859375
927.42919921875
972.2900390625
1032.71484375
1014.404296875
901.79443359375
589.599609375
414.73388671875
339.66064453125
268.24951171875
357.97119140625
303.955078125
323.18115234375
405.57861328125
430.2978515625
382.6904296875
143.73779296875
-50.35400390625
-116.27197265625
-173.03466796875
-152.89306640625
-169.37255859375
-180.35888671875
-109.86328125
-166.6259765625
-258.1787109375
-292.05322265625
-154.72412109375
-189.51416015625
-221.5576171875
-275.57373046875
-235.29052734375
-398.25439453125
-471.49658203125
-389.09912109375
-361.63330078125
-265.5029296875
-294.7998046875
-370.78857421875
-409.24072265625
-301.20849609375
-295.71533203125
-182.18994140625
-260.009765625
-237.12158203125
-303.03955078125
-477.9052734375
-484.31396484375
-279.23583984375
-352.47802734375
-425.72021484375
-462.34130859375
-323.18115234375
-189.51416015625
-175.78125
-250.8544921875
-207.82470703125
-154.72412109375
-118.10302734375
-1.8310546875
-64.0869140625
32.958984375
13.73291015625
-4.57763671875
-136.41357421875
-345.15380859375
-506.28662109375
-398.25439453125
-392.76123046875
-334.16748046875
-147.39990234375
-32.04345703125
-104.3701171875
47.607421875
-55.84716796875
-205.99365234375
-256.34765625
-162.04833984375
-113.525390625
-132.75146484375
-282.89794921875
-162.9638671875
-129.08935546875
-76.904296875
26.55029296875
-21.05712890625
0.91552734375
-30.21240234375
-99.79248046875
-86.0595703125
-113.525390625
-132.75146484375
-72.32666015625
-31.1279296875
94.29931640625
175.78125
155.6396484375
128.173828125
36.62109375
-6.40869140625
-149.23095703125
-162.04833984375
-51.26953125
-110.77880859375
-95.21484375
-71.4111328125
-105.28564453125
-152.89306640625
-99.79248046875
-104.3701171875
-242.61474609375
-238.037109375
-238.037109375
-266.41845703125
-317.68798828125
-337.82958984375
-214.2333984375
-86.0595703125
-47.607421875
-112.60986328125
-47.607421875
-93.3837890625
-1.8310546875
208.740234375
370.78857421875
453.18603515625
190.4296875
335.0830078125
162.04833984375
172.119140625
169.37255859375
175.78125
228.8818359375
490.72265625
617.0654296875
733.33740234375
790.10009765625
801.08642578125
854.18701171875
930.17578125
1007.99560546875
1167.29736328125
1037.29248046875
1070.25146484375
1079.40673828125
1161.80419921875
1224.06005859375
1168.212890625
1139.83154296875
942.9931640625
1022.64404296875
1005.2490234375
890.80810546875
848.69384765625
672.91259765625
596.00830078125
508.11767578125
348.81591796875
260.92529296875
94.29931640625
-52.18505859375
-22.88818359375
11.90185546875
-40.283203125
-97.96142578125
-145.56884765625
-380.859375
-549.31640625
-441.2841796875
-420.22705078125
-480.65185546875
-362.548828125
-367.12646484375
-281.06689453125
-322.265625
-350.64697265625
-327.7587890625
-516.357421875
-397.3388671875
-392.76123046875
-424.8046875
-407.40966796875
-439.453125
-390.0146484375
-407.40966796875
-407.40966796875
-375.3662109375
-439.453125
-633.544921875
-650.93994140625
-580.4443359375
-498.046875
-622.55859375
-678.40576171875
-606.0791015625
-617.98095703125
-679.3212890625
-742.49267578125
-892.63916015625
-872.49755859375
-856.01806640625
-839.53857421875
-745.2392578125
-274.658203125
454.1015625
1009.82666015625
1755.9814453125
2418.8232421875
2911.376953125
3977.96630859375
5559.99755859375
7226.25732421875
8297.42431640625
8531.79931640625
7645.56884765625
5809.02099609375
3886.41357421875
1810.9130859375
-28.38134765625
-1791.68701171875
-2853.69873046875
-3772.88818359375
-4159.24072265625
-4487.9150390625
-4403.6865234375
-4288.330078125
-4053.03955078125
-3661.19384765625
-3034.97314453125
-2271.42333984375
-1602.1728515625
-1139.83154296875
-851.4404296875
-589.599609375
-196.83837890625
-119.93408203125
-172.119140625
-239.8681640625
-32.958984375
-49.4384765625
-152.89306640625
-141.90673828125
-64.0869140625
-82.3974609375
-153.80859375
-111.6943359375
75.98876953125
137.3291015625
91.552734375
97.96142578125
208.740234375
270.99609375
279.23583984375
199.5849609375
302.1240234375
113.525390625
-42.1142578125
-78.7353515625
10.986328125
256.34765625
273.74267578125
292.05322265625
373.53515625
476.07421875
467.83447265625
362.548828125
355.224609375
204.16259765625
368.95751953125
474.2431640625
538.330078125
422.05810546875
463.2568359375
428.466796875
339.66064453125
432.12890625
660.09521484375
686.6455078125
753.47900390625
672.91259765625
669.25048828125
631.7138671875
665.58837890625
713.19580078125
747.0703125
799.25537109375
762.63427734375
823.974609375
956.72607421875
1025.390625
1094.05517578125
1193.84765625
1244.20166015625
1296.38671875
1446.533203125
1420.8984375
1525.2685546875
1593.017578125
1473.9990234375
1607.666015625
1593.93310546875
1394.34814453125
1478.57666015625
1659.85107421875
1735.83984375
1708.3740234375
1824.64599609375
1824.64599609375
1914.36767578125
1850.28076171875
1873.1689453125
1804.50439453125
1873.1689453125
1897.88818359375
2000.42724609375
1992.1875
2047.119140625
2051.69677734375
2003.173828125
1927.18505859375
1995.849609375
1978.45458984375
2094.7265625
1943.66455078125
1900.634765625
1806.33544921875
1638.7939453125
1685.48583984375
1809.08203125
1870.42236328125
1812.744140625
1689.14794921875
1705.62744140625
1489.56298828125
1387.939453125
1214.90478515625
1047.36328125
1094.970703125
1095.88623046875
942.9931640625
922.8515625
1069.3359375
1058.349609375
936.58447265625
785.5224609375
568.54248046875
458.67919921875
333.251953125
364.3798828125
305.7861328125
327.7587890625
321.35009765625
261.8408203125
122.6806640625
140.07568359375
69.580078125
17.39501953125
30.21240234375
86.97509765625
44.86083984375
2.74658203125
-22.88818359375
48.52294921875
171.20361328125
216.97998046875
234.375
121.76513671875
16.4794921875
19.22607421875
-86.97509765625
-94.29931640625
-134.58251953125
-200.50048828125
-129.08935546875
-128.173828125
-196.83837890625
-141.90673828125
-63.17138671875
13.73291015625
-37.53662109375
16.4794921875
134.58251953125
202.33154296875
75.98876953125
-36.62109375
-64.0869140625
-119.0185546875
27.4658203125
93.3837890625
130.92041015625
124.51171875
49.4384765625
23.8037109375
78.7353515625
129.08935546875
96.13037109375
184.9365234375
270.08056640625
252.685546875
115.3564453125
210.5712890625
149.23095703125
170.2880859375
239.8681640625
360.7177734375
347.900390625
275.57373046875
481.5673828125
293.88427734375
229.79736328125
216.064453125
231.62841796875
307.6171875
238.037109375
149.23095703125
188.5986328125
188.5986328125
293.88427734375
346.0693359375
247.1923828125
277.40478515625
248.10791015625
178.52783203125
304.87060546875
485.2294921875
472.412109375
476.98974609375
399.169921875
346.0693359375
265.5029296875
165.71044921875
275.57373046875
257.26318359375
138.24462890625
176.69677734375
357.0556640625
283.8134765625
197.75390625
119.0185546875
97.0458984375
28.38134765625
98.876953125
203.2470703125
229.79736328125
350.64697265625
405.57861328125
364.3798828125
246.27685546875
193.17626953125
-27.4658203125
-160.21728515625
-88.80615234375
122.6806640625
240.78369140625
210.5712890625
173.9501953125
119.0185546875
65.00244140625
147.39990234375
-127.25830078125
-95.21484375
-23.8037109375
-0.91552734375
-13.73291015625
21.05712890625
-21.05712890625
69.580078125
141.90673828125
405.57861328125
540.1611328125
616.14990234375
590.51513671875
687.56103515625
736.99951171875
757.14111328125
766.29638671875
753.47900390625
824.89013671875
1049.1943359375
1153.564453125
1041.8701171875
1246.03271484375
1315.61279296875
1263.427734375
1251.52587890625
1203.91845703125
1175.537109375
1179.19921875
1255.18798828125
1308.28857421875
1358.642578125
1267.08984375
1318.359375
1419.98291015625
1338.5009765625
1161.80419921875
1019.8974609375
863.34228515625
767.2119140625
792.8466796875
547.4853515625
497.13134765625
433.9599609375
259.09423828125
65.00244140625
153.80859375
68.66455078125
59.50927734375
32.04345703125
-118.10302734375
-175.78125
-97.96142578125
-18.310546875
-43.02978515625
-1.8310546875
-267.333984375
-433.9599609375
-402.83203125
-444.03076171875
-334.16748046875
-466.00341796875
-379.94384765625
-466.9189453125
-313.1103515625
-212.40234375
-134.58251953125
-155.6396484375
-45.7763671875
-44.86083984375
-317.68798828125
-484.31396484375
-493.46923828125
-457.763671875
-371.7041015625
-357.0556640625
-282.89794921875
-209.65576171875
-115.3564453125
-255.43212890625
-369.873046875
-664.6728515625
-878.90625
-830.38330078125
-892.63916015625
-955.810546875
-877.99072265625
-550.23193359375
-271.91162109375
233.45947265625
1021.728515625
1679.0771484375
2543.3349609375
3343.505859375
4465.9423828125
6112.97607421875
7816.7724609375
9064.63623046875
9365.8447265625
8402.7099609375
6733.70361328125
4820.25146484375
2591.85791015625
442.19970703125
-1648.86474609375
-2910.46142578125
-3771.05712890625
-4352.4169921875
-4703.9794921875
-4591.36962890625
-4556.57958984375
-4213.2568359375
-3460.693359375
-2762.14599609375
-1933.59375
-1139.83154296875
-729.67529296875
-419.3115234375
-187.68310546875
-104.3701171875
-53.1005859375
-25.634765625
10.07080078125
138.24462890625
140.07568359375
128.173828125
37.53662109375
0
5.4931640625
-32.04345703125
-120.849609375
-127.25830078125
-67.7490234375
-52.18505859375
82.3974609375
119.0185546875
173.9501953125
257.26318359375
87.890625
109.86328125
264.58740234375
348.81591796875
267.333984375
125.42724609375
318.603515625
323.18115234375
251.77001953125
330.50537109375
307.6171875
361.63330078125
280.1513671875
172.119140625
266.41845703125
326.84326171875
455.9326171875
651.85546875
493.46923828125
419.3115234375
459.5947265625
412.90283203125
533.75244140625
639.0380859375
742.49267578125
784.60693359375
861.51123046875
879.82177734375
962.21923828125
846.86279296875
791.93115234375
664.6728515625
588.68408203125
628.0517578125
759.8876953125
758.056640625
992.431640625
1132.50732421875
1177.3681640625
1306.45751953125
1372.37548828125
1485.90087890625
1518.85986328125
1582.94677734375
1493.22509765625
1595.76416015625
1630.55419921875
1625.06103515625
1574.70703125
1506.9580078125
1655.2734375
1897.88818359375
1812.744140625
1835.63232421875
2019.6533203125
2182.6171875
2238.46435546875
2169.7998046875
2243.0419921875
2207.33642578125
2241.2109375
2232.0556640625
2246.7041015625
2074.5849609375
1957.3974609375
1911.62109375
2177.1240234375
2197.265625
2220.15380859375
2239.3798828125
2233.88671875
2037.04833984375
2115.78369140625
2129.5166015625
2062.68310546875
1945.49560546875
1966.552734375
2044.37255859375
1889.6484375
1653.4423828125
1552.734375
1497.802734375
1441.95556640625
1368.71337890625
1232.2998046875
1115.1123046875
1142.578125
1076.66015625
855.1025390625
773.62060546875
654.60205078125
656.43310546875
574.951171875
564.88037109375
583.19091796875
613.4033203125
538.330078125
552.978515625
325.01220703125
193.17626953125
229.79736328125
164.794921875
251.77001953125
200.50048828125
256.34765625
248.10791015625
188.5986328125
-39.36767578125
-72.32666015625
-71.4111328125
-325.927734375
-305.7861328125
-139.16015625
-131.8359375
-4.57763671875
22.88818359375
128.173828125
195.00732421875
240.78369140625
265.5029296875
329.58984375
275.57373046875
5.4931640625
-140.07568359375
-238.95263671875
-238.037109375
-40.283203125
-165.71044921875
-22.88818359375
-14.6484375
75.98876953125
126.3427734375
118.10302734375
153.80859375
177.6123046875
108.0322265625
106.201171875
153.80859375
179.443359375
150.146484375
149.23095703125
153.80859375
39.36767578125
89.7216796875
32.04345703125
140.07568359375
330.50537109375
433.9599609375
437.6220703125
307.6171875
228.8818359375
180.35888671875
158.38623046875
138.24462890625
174.86572265625
390.93017578125
490.72265625
396.42333984375
459.5947265625
399.169921875
332.33642578125
393.6767578125
267.333984375
351.5625
342.4072265625
295.71533203125
327.7587890625
238.037109375
220.64208984375
180.35888671875
402.83203125
572.20458984375
429.38232421875
305.7861328125
303.955078125
362.548828125
391.845703125
417.48046875
396.42333984375
411.9873046875
385.43701171875
403.74755859375
300.29296875
249.93896484375
215.14892578125
121.76513671875
167.54150390625
241.69921875
290.22216796875
201.416015625
184.9365234375
347.900390625
420.22705078125
274.658203125
205.99365234375
63.17138671875
76.904296875
85.14404296875
-5.4931640625
-19.22607421875
110.77880859375
146.484375
74.15771484375
134.58251953125
73.2421875
92.46826171875
32.04345703125
-21.97265625
-94.29931640625
28.38134765625
59.50927734375
97.0458984375
115.3564453125
335.0830078125
218.81103515625
232.5439453125
-14.6484375
-146.484375
-166.6259765625
-50.35400390625
-16.4794921875
2.74658203125
19.22607421875
71.4111328125
14.6484375
148.3154296875
314.02587890625
479.736328125
552.978515625
483.3984375
629.8828125
656.43310546875
599.67041015625
582.275390625
681.15234375
675.6591796875
715.9423828125
878.90625
1063.8427734375
1120.60546875
1362.3046875
1492.3095703125
1328.43017578125
1135.25390625
1305.5419921875
1401.67236328125
1408.99658203125
1364.1357421875
1202.08740234375
1261.5966796875
1364.1357421875
1507.87353515625
1525.2685546875
1577.45361328125
1256.103515625
966.796875
1033.63037109375
964.05029296875
823.974609375
773.62060546875
804.74853515625
814.8193359375
478.82080078125
397.3388671875
371.7041015625
385.43701171875
451.35498046875
295.71533203125
192.2607421875
-56.7626953125
-189.51416015625
-217.8955078125
-184.02099609375
-109.86328125
19.22607421875
86.97509765625
97.0458984375
31.1279296875
-69.580078125
-35.70556640625
-41.19873046875
-290.22216796875
-330.50537109375
-233.45947265625
-311.279296875
-233.45947265625
-260.009765625
-379.94384765625
-293.88427734375
-110.77880859375
-119.0185546875
-192.2607421875
-313.1103515625
-401.0009765625
-164.794921875
-192.2607421875
-254.5166015625
-211.48681640625
-249.0234375
-317.68798828125
-366.2109375
-585.02197265625
-712.2802734375
-711.36474609375
-706.787109375
-536.4990234375
-79.65087890625
482.48291015625
1022.64404296875
1545.41015625
2267.76123046875
3023.0712890625
4099.7314453125
5692.7490234375
7430.419921875
8702.08740234375
9549.86572265625
9082.94677734375
7713.31787109375
5909.72900390625
3944.091796875
1678.16162109375
-677.490234375
-2032.470703125
-3158.5693359375
-4094.23828125
-4378.0517578125
-4241.63818359375
-4289.24560546875
-4051.20849609375
-3523.86474609375
-2715.4541015625
-2070.9228515625
-1386.1083984375
-964.9658203125
-447.69287109375
-162.04833984375
-34.7900390625
-38.4521484375
9.1552734375
99.79248046875
188.5986328125
270.99609375
309.4482421875
411.9873046875
453.18603515625
359.80224609375
170.2880859375
197.75390625
257.26318359375
255.43212890625
424.8046875
535.58349609375
346.0693359375
307.6171875
374.45068359375
433.9599609375
332.33642578125
453.18603515625
352.47802734375
517.27294921875
604.248046875
582.275390625
579.52880859375
674.74365234375
796.5087890625
721.435546875
367.12646484375
470.5810546875
549.31640625
450.439453125
501.708984375
509.033203125
715.9423828125
710.44921875
770.8740234375
896.30126953125
947.57080078125
845.03173828125
678.40576171875
932.0068359375
936.58447265625
887.14599609375
823.974609375
902.7099609375
1121.52099609375
1149.90234375
1181.94580078125
1133.4228515625
1266.17431640625
1401.67236328125
1411.7431640625
1278.076171875
1323.8525390625
1304.62646484375
1227.72216796875
1404.4189453125
1577.45361328125
1593.93310546875
1701.96533203125
1840.2099609375
2022.39990234375
2107.5439453125
2166.1376953125
2038.87939453125
1883.23974609375
1906.1279296875
2047.119140625
2058.10546875
2073.66943359375
2128.60107421875
2173.4619140625
2268.6767578125
2366.63818359375
2230.224609375
2137.75634765625
2158.8134765625
2346.49658203125
2403.25927734375
2333.67919921875
2294.3115234375
2214.66064453125
2253.11279296875
2351.07421875
2469.17724609375
2479.248046875
2543.3349609375
2371.2158203125
2386.77978515625
2358.3984375
2316.2841796875
2264.09912109375
2367.5537109375
2357.48291015625
2241.2109375
2100.2197265625
1804.50439453125
1325.68359375
1379.69970703125
1406.25
1432.80029296875
1324.76806640625
1376.953125
1383.36181640625
1228.6376953125
1214.90478515625
1065.673828125
938.41552734375
809.326171875
791.015625
634.46044921875
552.06298828125
604.248046875
439.453125
375.3662109375
376.28173828125
399.169921875
411.9873046875
469.66552734375
572.20458984375
513.61083984375
366.2109375
34.7900390625
74.15771484375
114.44091796875
173.9501953125
165.71044921875
142.822265625
195.00732421875
316.7724609375
302.1240234375
272.8271484375
220.64208984375
157.470703125
93.3837890625
151.06201171875
137.3291015625
127.25830078125
18.310546875
-127.25830078125
64.0869140625
202.33154296875
134.58251953125
74.15771484375
80.56640625
-31.1279296875
22.88818359375
128.173828125
140.9912109375
149.23095703125
162.04833984375
78.7353515625
22.88818359375
137.3291015625
91.552734375
215.14892578125
201.416015625
149.23095703125
238.037109375
272.8271484375
214.2333984375
136.41357421875
254.5166015625
172.119140625
-3.662109375
214.2333984375
314.94140625
337.82958984375
330.50537109375
279.23583984375
190.4296875
221.5576171875
179.443359375
225.2197265625
279.23583984375
293.88427734375
429.38232421875
509.94873046875
427.55126953125
419.3115234375
510.8642578125
597.83935546875
491.63818359375
379.94384765625
334.16748046875
147.39990234375
202.33154296875
227.05078125
131.8359375
94.29931640625
164.794921875
339.66064453125
402.83203125
350.64697265625
299.37744140625
291.1376953125
425.72021484375
194.091796875
-9.1552734375
79.65087890625
292.96875
216.064453125
160.21728515625
122.6806640625
60.4248046875
140.07568359375
140.07568359375
184.9365234375
207.82470703125
130.0048828125
-109.86328125
-51.26953125
-96.13037109375
59.50927734375
206.9091796875
171.20361328125
108.0322265625
86.97509765625
78.7353515625
57.67822265625
86.0595703125
-47.607421875
-29.296875
-65.91796875
-17.39501953125
-128.173828125
-187.68310546875
-92.46826171875
-10.986328125
-105.28564453125
-79.65087890625
-175.78125
-157.470703125
-174.86572265625
-74.15771484375
-3.662109375
4.57763671875
-8.23974609375
10.07080078125
-51.26953125
-118.10302734375
-86.0595703125
-205.078125
-331.4208984375
-255.43212890625
-63.17138671875
50.35400390625
92.46826171875
155.6396484375
279.23583984375
233.45947265625
235.29052734375
246.27685546875
167.54150390625
293.88427734375
409.24072265625
364.3798828125
325.927734375
332.33642578125
489.80712890625
863.34228515625
1036.376953125
1016.2353515625
974.12109375
1147.15576171875
1170.95947265625
1007.99560546875
965.88134765625
1083.06884765625
1139.83154296875
1039.12353515625
1010.7421875
1121.52099609375
1202.08740234375
1130.67626953125
1146.240234375
1011.65771484375
835.87646484375
805.6640625
804.74853515625
554.8095703125
625.30517578125
669.25048828125
533.75244140625
446.77734375
287.4755859375
85.14404296875
66.83349609375
115.3564453125
164.794921875
204.16259765625
98.876953125
-61.34033203125
-196.83837890625
-293.88427734375
-166.6259765625
-75.0732421875
-54.931640625
-113.525390625
-273.74267578125
-334.16748046875
-280.1513671875
-283.8134765625
-305.7861328125
-562.1337890625
-567.626953125
-446.77734375
-468.75
-466.00341796875
-479.736328125
-488.8916015625
-564.88037109375
-619.81201171875
-590.51513671875
-558.4716796875
-647.27783203125
-505.37109375
-537.41455078125
-476.98974609375
-333.251953125
-370.78857421875
-580.4443359375
-787.353515625
-691.22314453125
-880.7373046875
-1023.5595703125
-901.79443359375
-751.64794921875
-590.51513671875
-75.0732421875
573.1201171875
975.9521484375
1653.4423828125
2333.67919921875
3470.76416015625
4967.6513671875
6786.80419921875
8368.83544921875
9364.92919921875
9068.29833984375
7733.45947265625
5837.40234375
3613.58642578125
1313.78173828125
-632.62939453125
-1814.5751953125
-3175.96435546875
-4098.81591796875
-4384.46044921875
-4508.056640625
-4486.083984375
-4414.6728515625
-4142.76123046875
-3516.54052734375
-2913.2080078125
-2155.1513671875
-1389.7705078125
-955.810546875
-798.33984375
-585.02197265625
-238.95263671875
-207.82470703125
-274.658203125
-438.53759765625
-480.65185546875
-349.7314453125
-267.333984375
-90.63720703125
-76.904296875
9.1552734375
-16.4794921875
126.3427734375
206.9091796875
211.48681640625
215.14892578125
-17.39501953125
-265.5029296875
-225.2197265625
-79.65087890625
29.296875
63.17138671875
100.7080078125
35.70556640625
32.958984375
85.14404296875
-25.634765625
-13.73291015625
146.484375
260.92529296875
300.29296875
225.2197265625
146.484375
160.21728515625
181.2744140625
251.77001953125
263.671875
334.16748046875
370.78857421875
311.279296875
254.5166015625
201.416015625
379.94384765625
374.45068359375
411.9873046875
411.9873046875
567.626953125
656.43310546875
540.1611328125
595.0927734375
905.45654296875
881.65283203125
759.8876953125
700.37841796875
669.25048828125
741.5771484375
895.3857421875
1094.05517578125
1140.7470703125
1049.1943359375
963.134765625
991.51611328125
953.9794921875
837.70751953125
949.40185546875
1091.30859375
1121.52099609375
1243.2861328125
1460.26611328125
1557.31201171875
1465.75927734375
1546.32568359375
1637.87841796875
1655.2734375
1551.81884765625
1476.74560546875
1390.68603515625
1424.560546875
1593.93310546875
1730.3466796875
1779.78515625
1905.21240234375
1897.88818359375
1907.04345703125
1684.5703125
1595.76416015625
1536.2548828125
1475.830078125
1665.34423828125
1800.84228515625
1728.515625
1591.1865234375
1618.65234375
1539.9169921875
1570.12939453125
1450.1953125
1389.7705078125
1317.44384765625
1353.1494140625
1095.88623046875
1041.8701171875
1092.22412109375
1174.62158203125
1127.01416015625
976.86767578125
958.55712890625
907.28759765625
693.9697265625
405.57861328125
588.68408203125
671.08154296875
448.6083984375
492.5537109375
416.56494140625
254.5166015625
162.04833984375
96.13037109375
57.67822265625
-51.26953125
-99.79248046875
13.73291015625
181.2744140625
51.26953125
14.6484375
83.31298828125
4.57763671875
-76.904296875
-135.498046875
-68.66455078125
4.57763671875
61.34033203125
13.73291015625
-185.85205078125
-114.44091796875
-185.85205078125
-230.712890625
-347.900390625
-203.2470703125
-320.4345703125
-356.14013671875
-306.70166015625
-363.46435546875
-319.51904296875
-290.22216796875
-349.7314453125
-317.68798828125
-331.4208984375
-329.58984375
-166.6259765625
-97.0458984375
-108.94775390625
-32.04345703125
-142.822265625
-254.5166015625
-206.9091796875
-357.0556640625
-297.54638671875
-366.2109375
-391.845703125
-338.7451171875
-287.4755859375
-236.2060546875
-156.55517578125
26.55029296875
29.296875
-27.4658203125
-21.97265625
-57.67822265625
89.7216796875
-12.8173828125
75.98876953125
114.44091796875
123.59619140625
32.04345703125
119.93408203125
-46.69189453125
-66.83349609375
-67.7490234375
-205.99365234375
-178.52783203125
-131.8359375
-145.56884765625
-60.4248046875
-29.296875
-22.88818359375
-82.3974609375
-61.34033203125
-147.39990234375
-21.05712890625
151.06201171875
89.7216796875
168.45703125
149.23095703125
-24.71923828125
-63.17138671875
-210.5712890625
-72.32666015625
-76.904296875
-182.18994140625
-120.849609375
-23.8037109375
-131.8359375
-82.3974609375
-205.078125
-216.97998046875
-128.173828125
-216.064453125
-211.48681640625
-270.08056640625
-345.15380859375
-424.8046875
-344.23828125
-180.35888671875
-154.72412109375
-94.29931640625
-191.34521484375
-455.01708984375
-294.7998046875
-320.4345703125
-260.009765625
-166.6259765625
-204.16259765625
-311.279296875
-144.6533203125
-328.67431640625
-182.18994140625
22.88818359375
27.4658203125
32.958984375
92.46826171875
184.9365234375
240.78369140625
225.2197265625
108.94775390625
77.81982421875
-27.4658203125
211.48681640625
489.80712890625
712.2802734375
867.919921875
1076.66015625
1181.94580078125
1007.99560546875
916.44287109375
848.69384765625
753.47900390625
782.77587890625
808.41064453125
758.056640625
877.0751953125
1043.701171875
942.9931640625
927.42919921875
862.4267578125
942.07763671875
934.75341796875
705.87158203125
535.58349609375
508.11767578125
384.521484375
205.078125
86.0595703125
2.74658203125
-163.87939453125
-241.69921875
-215.14892578125
-129.08935546875
-95.21484375
-114.44091796875
-277.40478515625
-140.9912109375
-142.822265625
-295.71533203125
-429.38232421875
-574.03564453125
-476.07421875
-480.65185546875
-430.2978515625
-433.9599609375
-427.55126953125
-542.90771484375
-618.896484375
-599.67041015625
-729.67529296875
-734.2529296875
-587.7685546875
-464.17236328125
-445.86181640625
-471.49658203125
-484.31396484375
-510.8642578125
-829.4677734375
-617.98095703125
-585.9375
-535.58349609375
-653.6865234375
-693.05419921875
-694.88525390625
-702.20947265625
-778.1982421875
-839.53857421875
-929.26025390625
-953.9794921875
-1075.74462890625
-1006.16455078125
-661.92626953125
-457.763671875
-184.02099609375
299.37744140625
819.39697265625
1663.51318359375
2440.7958984375
3698.73046875
5232.23876953125
6720.88623046875
8050.23193359375
8588.56201171875
7682.18994140625
6147.76611328125
4310.302734375
2241.2109375
390.93017578125
-1274.4140625
-2600.09765625
-3638.3056640625
-4118.0419921875
-4178.466796875
-4274.59716796875
-4384.46044921875
-4444.88525390625
-4116.2109375
-3461.60888671875
-2858.2763671875
-2219.23828125
-1535.33935546875
-1080.322265625
-854.18701171875
-543.8232421875
-400.08544921875
-210.5712890625
-292.96875
-347.900390625
-227.05078125
-141.90673828125
-169.37255859375
-105.28564453125
57.67822265625
2.74658203125
-97.0458984375
-118.10302734375
-5.4931640625
-108.94775390625
-162.9638671875
-51.26953125
-136.41357421875
-193.17626953125
-26.55029296875
-27.4658203125
-15.56396484375
-5.4931640625
-42.1142578125
-35.70556640625
18.310546875
96.13037109375
82.3974609375
149.23095703125
146.484375
249.93896484375
375.3662109375
433.9599609375
392.76123046875
264.58740234375
245.361328125
330.50537109375
291.1376953125
201.416015625
227.05078125
105.28564453125
158.38623046875
296.630859375
473.32763671875
435.791015625
489.80712890625
488.8916015625
552.06298828125
628.96728515625
623.47412109375
593.26171875
581.35986328125
536.4990234375
649.10888671875
642.7001953125
639.95361328125
688.4765625
746.15478515625
755.31005859375
893.5546875
1127.9296875
1309.2041015625
1410.82763671875
1346.74072265625
1205.74951171875
1194.76318359375
1398.92578125
1446.533203125
1430.96923828125
1417.236328125
1369.62890625
1353.1494140625
1314.697265625
1342.1630859375
1447.44873046875
1451.11083984375
1327.5146484375
1477.6611328125
1458.43505859375
1555.48095703125
1626.89208984375
1563.720703125
1653.4423828125
1754.150390625
1682.7392578125
1347.65625
1325.68359375
1424.560546875
1285.400390625
1346.74072265625
1506.04248046875
1588.43994140625
1484.9853515625
1437.3779296875
1433.7158203125
1202.08740234375
1142.578125
1155.3955078125
1151.7333984375
1167.29736328125
1094.05517578125
947.57080078125
898.13232421875
805.6640625
816.650390625
876.15966796875
780.029296875
802.001953125
824.89013671875
725.09765625
591.4306640625
634.46044921875
433.04443359375
472.412109375
373.53515625
261.8408203125
260.92529296875
235.29052734375
173.9501953125
63.17138671875
208.740234375
203.2470703125
9.1552734375
12.8173828125
-66.83349609375
-151.06201171875
0.91552734375
-99.79248046875
-236.2060546875
-232.5439453125
-255.43212890625
-31.1279296875
-127.25830078125
-81.48193359375
-170.2880859375
-126.3427734375
-165.71044921875
-178.52783203125
-152.89306640625
-285.64453125
-358.88671875
-312.19482421875
-334.16748046875
-281.982421875
-288.39111328125
-324.0966796875
-230.712890625
-160.21728515625
-135.498046875
-177.6123046875
-88.80615234375
-73.2421875
-53.1005859375
-93.3837890625
5.4931640625
43.9453125
24.71923828125
112.60986328125
182.18994140625
98.876953125
34.7900390625
-180.35888671875
-88.80615234375
68.66455078125
160.21728515625
112.60986328125
51.26953125
65.91796875
98.876953125
89.7216796875
124.51171875
141.90673828125
238.037109375
235.29052734375
159.3017578125
140.07568359375
227.05078125
120.849609375
90.63720703125
89.7216796875
37.53662109375
-2.74658203125
27.4658203125
48.52294921875
-24.71923828125
-130.0048828125
-90.63720703125
61.34033203125
91.552734375
75.98876953125
96.13037109375
51.26953125
81.48193359375
137.3291015625
119.0185546875
173.9501953125
222.47314453125
285.64453125
259.09423828125
216.064453125
-10.986328125
120.849609375
105.28564453125
174.86572265625
247.1923828125
173.9501953125
65.00244140625
-41.19873046875
-114.44091796875
-56.7626953125
31.1279296875
75.98876953125
87.890625
87.890625
51.26953125
118.10302734375
48.52294921875
-65.00244140625
-47.607421875
32.958984375
123.59619140625
172.119140625
74.15771484375
80.56640625
-68.66455078125
-285.64453125
-281.06689453125
-210.5712890625
-162.04833984375
-109.86328125
-17.39501953125
0.91552734375
-86.0595703125
-118.10302734375
-32.958984375
125.42724609375
277.40478515625
379.0283203125
516.357421875
466.9189453125
411.9873046875
483.3984375
558.4716796875
524.59716796875
438.53759765625
551.1474609375
835.87646484375
1046.44775390625
1086.73095703125
1192.0166015625
1145.32470703125
1186.5234375
1254.2724609375
1368.71337890625
1355.89599609375
1298.2177734375
1366.88232421875
1323.8525390625
1237.79296875
1155.3955078125
1154.47998046875
1105.95703125
957.6416015625
893.5546875
931.09130859375
831.298828125
632.62939453125
710.44921875
710.44921875
584.1064453125
446.77734375
248.10791015625
321.35009765625
298.4619140625
275.57373046875
403.74755859375
306.70166015625
108.94775390625
104.3701171875
52.18505859375
-63.17138671875
-132.75146484375
-76.904296875
-107.11669921875
-229.79736328125
-173.9501953125
-235.29052734375
-182.18994140625
-199.5849609375
-82.3974609375
220.64208984375
-68.66455078125
-269.1650390625
-488.8916015625
-559.38720703125
-539.24560546875
-444.03076171875
-309.4482421875
-375.3662109375
-417.48046875
-233.45947265625
37.53662109375
-79.65087890625
-397.3388671875
-402.83203125
-238.037109375
-436.70654296875
-476.07421875
-777.28271484375
-662.841796875
-728.759765625
-768.12744140625
-942.07763671875
-916.44287109375
-360.7177734375
-17.39501953125
476.98974609375
993.34716796875
1972.96142578125
2861.02294921875
3806.7626953125
5007.01904296875
6821.59423828125
8267.2119140625
9145.20263671875
8874.20654296875
7738.95263671875
5764.16015625
3712.46337890625
1485.90087890625
-605.16357421875
-2194.51904296875
-2956.23779296875
-3845.21484375
-4496.15478515625
-4661.865234375
-4472.35107421875
-4313.96484375
-3938.5986328125
-3268.4326171875
-2439.88037109375
-1821.8994140625
-1273.49853515625
-846.86279296875
-622.55859375
-325.927734375
-253.60107421875
-265.5029296875
-162.04833984375
-198.66943359375
-209.65576171875
-225.2197265625
-201.416015625
-198.66943359375
-157.470703125
-76.904296875
39.36767578125
80.56640625
219.7265625
167.54150390625
215.14892578125
277.40478515625
189.51416015625
361.63330078125
213.31787109375
195.00732421875
334.16748046875
423.88916015625
474.2431640625
293.88427734375
245.361328125
256.34765625
370.78857421875
420.22705078125
263.671875
364.3798828125
411.07177734375
385.43701171875
526.42822265625
573.1201171875
519.10400390625
481.5673828125
637.20703125
621.64306640625
472.412109375
498.96240234375
627.13623046875
714.111328125
788.26904296875
749.81689453125
812.98828125
785.5224609375
707.70263671875
599.67041015625
620.7275390625
704.04052734375
686.6455078125
729.67529296875
808.41064453125
878.90625
1040.0390625
1216.73583984375
1287.2314453125
1358.642578125
1380.615234375
1152.64892578125
1012.5732421875
1112.36572265625
1224.9755859375
1376.03759765625
1426.3916015625
1516.11328125
1647.94921875
1455.6884765625
1565.5517578125
1419.0673828125
1452.94189453125
1414.48974609375
1519.775390625
1685.48583984375
1777.9541015625
1984.86328125
2062.68310546875
1977.5390625
2072.75390625
2005.0048828125
1978.45458984375
2050.78125
2004.08935546875
1946.4111328125
1805.419921875
2179.87060546875
2076.416015625
1813.65966796875
1671.7529296875
1980.28564453125
1934.50927734375
1729.43115234375
1643.37158203125
1486.81640625
1376.953125
1365.966796875
1554.5654296875
1662.59765625
1632.38525390625
1396.17919921875
1398.01025390625
1125.18310546875
1066.58935546875
1007.99560546875
930.17578125
804.74853515625
854.18701171875
735.16845703125
791.93115234375
536.4990234375
669.25048828125
552.06298828125
341.49169921875
441.2841796875
359.80224609375
334.16748046875
283.8134765625
309.4482421875
296.630859375
80.56640625
129.08935546875
243.5302734375
249.0234375
292.05322265625
9.1552734375
-238.037109375
-375.3662109375
-342.4072265625
-186.767578125
50.35400390625
99.79248046875
87.890625
-125.42724609375
-320.4345703125
-134.58251953125
-183.10546875
-302.1240234375
-337.82958984375
-484.31396484375
-332.33642578125
-210.5712890625
-343.32275390625
-249.0234375
-183.10546875
-299.37744140625
-264.58740234375
-170.2880859375
-104.3701171875
-98.876953125
-182.18994140625
-111.6943359375
-136.41357421875
-85.14404296875
-235.29052734375
-63.17138671875
-239.8681640625
-250.8544921875
-83.31298828125
-9.1552734375
-85.14404296875
-38.4521484375
-105.28564453125
-144.6533203125
-21.05712890625
-140.9912109375
-75.0732421875
59.50927734375
22.88818359375
-32.04345703125
60.4248046875
-33.87451171875
-8.23974609375
-48.52294921875
-52.18505859375
17.39501953125
209.65576171875
176.69677734375
199.5849609375
261.8408203125
101.62353515625
132.75146484375
61.34033203125
-75.98876953125
-303.03955078125
-379.94384765625
-334.16748046875
38.4521484375
115.3564453125
44.86083984375
43.02978515625
-4.57763671875
-205.99365234375
-173.03466796875
-285.64453125
-262.75634765625
-140.07568359375
-224.30419921875
-108.94775390625
71.4111328125
75.0732421875
121.76513671875
-86.0595703125
-24.71923828125
-19.22607421875
-21.97265625
5.4931640625
30.21240234375
-33.87451171875
-63.17138671875
-141.90673828125
-173.9501953125
-105.28564453125
-177.6123046875
-379.94384765625
-325.927734375
-381.77490234375
-315.85693359375
-271.91162109375
-316.7724609375
-300.29296875
-283.8134765625
-147.39990234375
-200.50048828125
-194.091796875
-374.45068359375
-382.6904296875
-494.384765625
-450.439453125
-166.6259765625
10.07080078125
129.08935546875
192.2607421875
223.388671875
0
69.580078125
249.0234375
393.6767578125
526.42822265625
629.8828125
776.3671875
925.59814453125
1040.0390625
996.09375
998.84033203125
855.1025390625
861.51123046875
883.48388671875
1113.28125
1094.05517578125
1127.01416015625
1148.0712890625
1108.70361328125
1051.94091796875
948.486328125
776.3671875
808.41064453125
637.20703125
444.03076171875
390.93017578125
275.57373046875
199.5849609375
228.8818359375
184.02099609375
21.05712890625
-196.83837890625
-320.4345703125
-268.24951171875
-232.5439453125
-392.76123046875
-438.53759765625
-452.2705078125
-365.29541015625
-366.2109375
-320.4345703125
-473.32763671875
-488.8916015625
-546.56982421875
-592.34619140625
-709.53369140625
-753.47900390625
-715.02685546875
-604.248046875
-587.7685546875
-613.4033203125
-587.7685546875
-610.65673828125
-550.23193359375
-761.71875
-713.19580078125
-923.76708984375
-637.20703125
-521.8505859375
-534.66796875
-520.93505859375
-472.412109375
-452.2705078125
-634.46044921875
-662.841796875
-640.869140625
-909.11865234375
-1034.5458984375
-1031.79931640625
-887.14599609375
-865.17333984375
-944.82421875
-787.353515625
-431.21337890625
-121.76513671875
323.18115234375
846.86279296875
1783.447265625
2475.5859375
3584.28955078125
5003.35693359375
6739.19677734375
8020.01953125
8619.68994140625
8091.4306640625
6613.76953125
4804.6875
2740.17333984375
732.421875
-1364.1357421875
-2871.09375
-3940.4296875
-4486.99951171875
-4742.431640625
-4740.6005859375
-4610.595703125
-4421.08154296875
-4043.88427734375
-3472.59521484375
-2675.1708984375
-1892.39501953125
-1337.58544921875
-1008.9111328125
-709.53369140625
-362.548828125
-284.72900390625
-188.5986328125
-175.78125
-162.04833984375
-198.66943359375
-314.02587890625
-261.8408203125
-386.3525390625
-364.3798828125
-61.34033203125
-101.62353515625
-131.8359375
-250.8544921875
-379.94384765625
-310.36376953125
-63.17138671875
55.84716796875
55.84716796875
-3.662109375
21.05712890625
66.83349609375
175.78125
229.79736328125
297.54638671875
149.23095703125
94.29931640625
84.228515625
250.8544921875
173.9501953125
187.68310546875
188.5986328125
64.0869140625
86.97509765625
-28.38134765625
-28.38134765625
19.22607421875
136.41357421875
303.03955078125
279.23583984375
292.96875
407.40966796875
270.08056640625
228.8818359375
250.8544921875
224.30419921875
322.265625
260.92529296875
391.845703125
588.68408203125
775.45166015625
852.35595703125
823.05908203125
628.0517578125
531.005859375
600.5859375
856.93359375
1001.5869140625
952.1484375
1137.0849609375
1147.15576171875
1075.74462890625
866.0888671875
817.56591796875
1081.23779296875
1127.9296875
1202.08740234375
1337.58544921875
1469.42138671875
1415.4052734375
1598.5107421875
1672.66845703125
1586.60888671875
1605.8349609375
1749.57275390625
1723.0224609375
1761.474609375
1723.0224609375
1725.76904296875
1637.87841796875
1717.529296875
1819.15283203125
1797.18017578125
1695.556640625
1790.771484375
1827.392578125
1810.9130859375
1673.583984375
1586.60888671875
1433.7158203125
1391.6015625
1534.423828125
1506.04248046875
1593.93310546875
1581.11572265625
1239.6240234375
1227.72216796875
1097.71728515625
1030.8837890625
1017.15087890625
1144.4091796875
1111.4501953125
1136.16943359375
1135.25390625
1104.1259765625
843.20068359375
718.68896484375
630.79833984375
390.0146484375
297.54638671875
350.64697265625
329.58984375
426.6357421875
266.41845703125
106.201171875
93.3837890625
13.73291015625
105.28564453125
85.14404296875
23.8037109375
-67.7490234375
-217.8955078125
-190.4296875
-257.26318359375
-320.4345703125
-260.92529296875
-258.1787109375
-265.5029296875
-164.794921875
-221.5576171875
-433.9599609375
-284.72900390625
-216.064453125
-224.30419921875
-228.8818359375
-187.68310546875
-268.24951171875
-237.12158203125
-412.90283203125
-425.72021484375
-369.873046875
-370.78857421875
-265.5029296875
-303.955078125
-314.02587890625
-369.873046875
-418.39599609375
-510.8642578125
-495.30029296875
-465.087890625
-377.197265625
-429.38232421875
-249.93896484375
-260.009765625
-171.20361328125
-166.6259765625
-328.67431640625
-386.3525390625
-302.1240234375
-224.30419921875
-169.37255859375
-116.27197265625
-132.75146484375
-65.91796875
-76.904296875
-97.96142578125
-241.69921875
-153.80859375
-162.9638671875
-225.2197265625
-67.7490234375
-122.6806640625
-143.73779296875
49.4384765625
36.62109375
86.97509765625
9.1552734375
91.552734375
-54.931640625
-66.83349609375
-54.931640625
23.8037109375
74.15771484375
-73.2421875
-171.20361328125
-260.009765625
-12.8173828125
0
-102.5390625
-24.71923828125
-195.00732421875
-173.03466796875
-57.67822265625
45.7763671875
107.11669921875
25.634765625
35.70556640625
0
-75.0732421875
-117.1875
-128.173828125
-278.3203125
-289.306640625
-334.16748046875
-223.388671875
-76.904296875
-145.56884765625
-164.794921875
-29.296875
91.552734375
23.8037109375
-158.38623046875
-278.3203125
-364.3798828125
-375.3662109375
-252.685546875
-114.44091796875
-140.9912109375
28.38134765625
113.525390625
129.08935546875
109.86328125
50.35400390625
247.1923828125
539.24560546875
658.26416015625
675.6591796875
765.380859375
836.7919921875
718.68896484375
725.09765625
843.20068359375
738.83056640625
845.03173828125
1044.61669921875
1039.12353515625
1018.06640625
1127.01416015625
1102.294921875
997.9248046875
964.9658203125
801.08642578125
1011.65771484375
947.57080078125
779.11376953125
531.005859375
291.1376953125
109.86328125
-15.56396484375
16.4794921875
8.23974609375
-29.296875
-79.65087890625
-225.2197265625
-226.13525390625
-74.15771484375
-166.6259765625
-175.78125
-185.85205078125
-307.6171875
-466.00341796875
-700.37841796875
-596.00830078125
-572.20458984375
-539.24560546875
-509.94873046875
-370.78857421875
-506.28662109375
-598.7548828125
-686.6455078125
-795.59326171875
-741.5771484375
-621.64306640625
-589.599609375
-669.25048828125
-585.9375
-548.40087890625
-476.98974609375
-459.5947265625
-478.82080078125
-511.77978515625
-789.1845703125
-889.892578125
-947.57080078125
-844.1162109375
-722.35107421875
-685.72998046875
-802.91748046875
-855.1025390625
-1180.11474609375
-1175.537109375
-1297.30224609375
-1404.4189453125
-1111.4501953125
-630.79833984375
-40.283203125
600.5859375
1121.52099609375
2076.416015625
2561.6455078125
3820.49560546875
5516.05224609375
7143.85986328125
8375.244140625
8703.91845703125
7841.49169921875
6120.30029296875
4290.1611328125
2344.66552734375
409.24072265625
-1132.50732421875
-2184.4482421875
-3519.287109375
-3966.97998046875
-4090.576171875
-4201.35498046875
-4370.7275390625
-4281.005859375
-3922.119140625
-3437.80517578125
-2851.86767578125
-2061.767578125
-1461.181640625
-965.88134765625
-807.4951171875
-607.91015625
-596.923828125
-525.5126953125
-573.1201171875
-643.61572265625
-534.66796875
-525.5126953125
-343.32275390625
-189.51416015625
-162.04833984375
-150.146484375
-165.71044921875
-105.28564453125
-250.8544921875
-498.046875
-453.18603515625
-555.72509765625
-578.61328125
-434.87548828125
-235.29052734375
-392.76123046875
-325.01220703125
81.48193359375
65.00244140625
-93.3837890625
-36.62109375
-109.86328125
-95.21484375
17.39501953125
127.25830078125
130.92041015625
247.1923828125
305.7861328125
311.279296875
100.7080078125
29.296875
43.02978515625
77.81982421875
128.173828125
304.87060546875
504.45556640625
536.4990234375
559.38720703125
510.8642578125
233.45947265625
41.19873046875
86.97509765625
158.38623046875
243.5302734375
93.3837890625
62.255859375
276.4892578125
383.60595703125
420.22705078125
612.48779296875
708.6181640625
948.486328125
877.0751953125
785.5224609375
915.52734375
874.32861328125
798.33984375
732.421875
720.52001953125
840.4541015625
919.189453125
1098.6328125
1275.32958984375
1469.42138671875
1607.666015625
1734.92431640625
1534.423828125
1598.5107421875
1457.51953125
1441.95556640625
1517.9443359375
1555.48095703125
1387.02392578125
1203.91845703125
1256.103515625
1385.19287109375
1433.7158203125
1348.57177734375
1486.81640625
1609.4970703125
1430.96923828125
1464.84375
1359.55810546875
1359.55810546875
1414.48974609375
1463.92822265625
1486.81640625
1332.09228515625
1262.51220703125
1273.49853515625
1195.6787109375
1011.65771484375
944.82421875
949.40185546875
1032.71484375
1009.82666015625
957.6416015625
912.78076171875
975.03662109375
1026.30615234375
953.9794921875
694.88525390625
441.2841796875
215.14892578125
161.1328125
311.279296875
109.86328125
-224.30419921875
-206.9091796875
-250.8544921875
-258.1787109375
-275.57373046875
-296.630859375
-260.92529296875
-160.21728515625
-253.60107421875
-238.037109375
-64.0869140625
-58.59375
-58.59375
-139.16015625
-205.99365234375
-265.5029296875
-198.66943359375
-38.4521484375
-124.51171875
-255.43212890625
-330.50537109375
-506.28662109375
-597.83935546875
-509.94873046875
-397.3388671875
-210.5712890625
-136.41357421875
-145.56884765625
-121.76513671875
-352.47802734375
-461.42578125
-491.63818359375
-538.330078125
-514.5263671875
-490.72265625
-566.71142578125
-594.17724609375
-420.22705078125
-375.3662109375
-373.53515625
-383.60595703125
-346.98486328125
-342.4072265625
-237.12158203125
-292.96875
-316.7724609375
-497.13134765625
-450.439453125
-310.36376953125
-269.1650390625
-310.36376953125
-331.4208984375
-282.89794921875
-148.3154296875
-122.6806640625
-287.4755859375
-188.5986328125
-152.89306640625
-86.97509765625
78.7353515625
130.92041015625
-41.19873046875
-8.23974609375
48.52294921875
-32.04345703125
-22.88818359375
-8.23974609375
-70.49560546875
-73.2421875
68.66455078125
119.93408203125
20.1416015625
19.22607421875
-137.3291015625
-615.234375
-722.35107421875
-404.6630859375
-156.55517578125
-19.22607421875
-90.63720703125
-141.90673828125
-184.9365234375
-262.75634765625
-123.59619140625
-157.470703125
-164.794921875
-46.69189453125
157.470703125
280.1513671875
355.224609375
284.72900390625
270.08056640625
-10.986328125
82.3974609375
226.13525390625
260.92529296875
344.23828125
545.654296875
687.56103515625
906.3720703125
1176.45263671875
978.69873046875
659.1796875
585.9375
872.49755859375
1010.7421875
1099.54833984375
1083.984375
1084.89990234375
865.17333984375
918.27392578125
1023.5595703125
1121.52099609375
1175.537109375
1069.3359375
945.73974609375
881.65283203125
850.52490234375
747.98583984375
465.087890625
304.87060546875
190.4296875
271.91162109375
316.7724609375
230.712890625
-24.71923828125
110.77880859375
32.958984375
-76.904296875
9.1552734375
-77.81982421875
-268.24951171875
-386.3525390625
-476.07421875
-466.00341796875
-485.2294921875
-401.0009765625
-150.146484375
-75.0732421875
-187.68310546875
-125.42724609375
-257.26318359375
-747.98583984375
-779.11376953125
-635.3759765625
-642.7001953125
-839.53857421875
-622.55859375
-752.5634765625
-906.3720703125
-787.353515625
-677.490234375
-587.7685546875
-606.99462890625
-643.61572265625
-619.81201171875
-612.48779296875
-667.41943359375
-652.77099609375
-692.138671875
-644.53125
-699.462890625
-691.22314453125
-757.14111328125
-910.0341796875
-991.51611328125
-1032.71484375
-848.69384765625
-493.46923828125
-68.66455078125
572.20458984375
1290.8935546875
1986.6943359375
2687.98828125
3945.9228515625
5416.259765625
6995.54443359375
8226.9287109375
8863.22021484375
7902.83203125
6111.14501953125
4197.69287109375
2209.16748046875
349.7314453125
-1579.28466796875
-2817.9931640625
-3624.57275390625
-4215.087890625
-4692.07763671875
-4556.57958984375
-4495.2392578125
-4510.80322265625
-4439.39208984375
-3507.38525390625
-2571.71630859375
-1814.5751953125
-1232.2998046875
-955.810546875
-589.599609375
-357.97119140625
-167.54150390625
-140.9912109375
-264.58740234375
-372.61962890625
-301.20849609375
-384.521484375
-389.09912109375
-304.87060546875
-86.97509765625
67.7490234375
174.86572265625
126.3427734375
86.0595703125
130.0048828125
11.90185546875
-19.22607421875
-4.57763671875
-26.55029296875
81.48193359375
187.68310546875
208.740234375
232.5439453125
321.35009765625
368.95751953125
270.08056640625
310.36376953125
286.56005859375
248.10791015625
97.96142578125
89.7216796875
169.37255859375
260.009765625
329.58984375
379.94384765625
433.04443359375
506.28662109375
531.005859375
605.16357421875
389.09912109375
342.4072265625
559.38720703125
492.5537109375
393.6767578125
485.2294921875
471.49658203125
418.39599609375
481.5673828125
608.82568359375
689.39208984375
707.70263671875
722.35107421875
761.71875
812.98828125
919.189453125
1041.8701171875
964.05029296875
964.05029296875
1077.57568359375
1148.98681640625
1174.62158203125
1249.69482421875
1314.697265625
1301.8798828125
1465.75927734375
1625.06103515625
1584.77783203125
1532.5927734375
1388.85498046875
1619.56787109375
1647.94921875
1624.1455078125
1789.85595703125
1696.47216796875
1829.2236328125
2009.58251953125
1983.94775390625
1942.7490234375
1849.365234375
1749.57275390625
1593.93310546875
1490.478515625
1460.26611328125
1394.34814453125
1509.70458984375
1763.3056640625
1627.8076171875
1618.65234375
1700.13427734375
1890.56396484375
1922.607421875
1890.56396484375
1982.11669921875
1899.71923828125
1885.986328125
1634.21630859375
1504.21142578125
1449.27978515625
1586.60888671875
1334.8388671875
1321.10595703125
1183.77685546875
1128.84521484375
1116.943359375
982.36083984375
936.58447265625
866.0888671875
820.3125
638.12255859375
605.16357421875
637.20703125
616.14990234375
487.97607421875
480.65185546875
356.14013671875
352.47802734375
249.0234375
196.83837890625
169.37255859375
179.443359375
126.3427734375
33.87451171875
52.18505859375
-105.28564453125
-226.13525390625
-282.89794921875
-297.54638671875
-214.2333984375
-253.60107421875
-225.2197265625
-125.42724609375
-66.83349609375
-44.86083984375
18.310546875
85.14404296875
92.46826171875
117.1875
134.58251953125
129.08935546875
80.56640625
39.36767578125
128.173828125
41.19873046875
-43.9453125
-53.1005859375
-28.38134765625
-54.01611328125
10.986328125
124.51171875
91.552734375
126.3427734375
216.064453125
37.53662109375
-87.890625
-130.92041015625
-64.0869140625
10.07080078125
-43.02978515625
-2.74658203125
41.19873046875
-20.1416015625
-58.59375
-19.22607421875
53.1005859375
62.255859375
101.62353515625
183.10546875
247.1923828125
255.43212890625
247.1923828125
249.93896484375
253.60107421875
256.34765625
229.79736328125
228.8818359375
320.4345703125
217.8955078125
338.7451171875
344.23828125
191.34521484375
232.5439453125
247.1923828125
173.9501953125
253.60107421875
238.95263671875
199.5849609375
326.84326171875
340.576171875
379.94384765625
288.39111328125
376.28173828125
303.955078125
97.96142578125
141.90673828125
98.876953125
236.2060546875
233.45947265625
238.95263671875
328.67431640625
219.7265625
216.064453125
335.0830078125
318.603515625
567.626953125
495.30029296875
676.57470703125
627.13623046875
392.76123046875
57.67822265625
235.29052734375
355.224609375
372.61962890625
476.07421875
541.9921875
682.06787109375
943.90869140625
1117.85888671875
1243.2861328125
1373.291015625
1392.51708984375
1298.2177734375
1199.3408203125
1296.38671875
1303.7109375
1293.64013671875
1220.39794921875
1369.62890625
1510.6201171875
1642.4560546875
1593.93310546875
1685.48583984375
1698.30322265625
1442.87109375
1232.2998046875
1134.33837890625
1026.30615234375
741.5771484375
454.1015625
513.61083984375
535.58349609375
411.9873046875
303.03955078125
265.5029296875
208.740234375
191.34521484375
162.9638671875
41.19873046875
18.310546875
-97.96142578125
-130.0048828125
-281.06689453125
-349.7314453125
-403.74755859375
-341.49169921875
-344.23828125
-216.064453125
-47.607421875
-10.07080078125
105.28564453125
75.98876953125
129.08935546875
47.607421875
22.88818359375
-121.76513671875
-335.99853515625
-440.36865234375
-125.42724609375
-212.40234375
-315.85693359375
-390.93017578125
-749.81689453125
-629.8828125
-622.55859375
-532.8369140625
-563.04931640625
-521.8505859375
-452.2705078125
-533.75244140625
-424.8046875
-425.72021484375
-533.75244140625
-758.97216796875
-834.9609375
-663.75732421875
-372.61962890625
-159.3017578125
252.685546875
940.24658203125
1550.9033203125
2410.58349609375
3323.3642578125
4521.78955078125
5977.47802734375
7543.02978515625
8558.349609375
8869.62890625
7824.0966796875
6416.015625
4725.03662109375
2999.267578125
909.11865234375
-1264.34326171875
-2491.14990234375
-3417.66357421875
-4098.81591796875
-4471.435546875
-4617.919921875
-4548.33984375
-4215.087890625
-3639.22119140625
-2961.73095703125
-2230.224609375
-1469.42138671875
-888.0615234375
-667.41943359375
-484.31396484375
-246.27685546875
-162.9638671875
21.05712890625
93.3837890625
114.44091796875
108.0322265625
128.173828125
172.119140625
-28.38134765625
-57.67822265625
151.9775390625
215.14892578125
285.64453125
175.78125
174.86572265625
211.48681640625
306.70166015625
339.66064453125
382.6904296875
378.11279296875
253.60107421875
208.740234375
190.4296875
82.3974609375
78.7353515625
70.49560546875
75.98876953125
197.75390625
301.20849609375
392.76123046875
508.11767578125
510.8642578125
439.453125
470.5810546875
497.13134765625
590.51513671875
500.79345703125
568.54248046875
555.72509765625
560.302734375
680.23681640625
764.46533203125
840.4541015625
943.90869140625
814.8193359375
710.44921875
627.13623046875
608.82568359375
639.0380859375
630.79833984375
636.29150390625
866.0888671875
910.0341796875
1010.7421875
1266.17431640625
1325.68359375
1376.03759765625
1430.0537109375
1506.04248046875
1535.33935546875
1570.12939453125
1582.94677734375
1690.97900390625
1692.81005859375
1729.43115234375
1772.4609375
1853.94287109375
1959.228515625
1996.76513671875
2124.93896484375
2117.61474609375
2174.37744140625
2161.56005859375
2184.4482421875
2249.45068359375
2293.39599609375
2246.7041015625
2345.5810546875
2289.73388671875
2230.224609375
2167.96875
2232.0556640625
2278.74755859375
2250.3662109375
2410.58349609375
2398.681640625
2337.34130859375
2252.197265625
2260.43701171875
2259.521484375
2262.26806640625
2291.56494140625
2279.6630859375
2321.77734375
2295.22705078125
2273.25439453125
2114.8681640625
2062.68310546875
1836.5478515625
1639.70947265625
1730.3466796875
1597.59521484375
1510.6201171875
1429.13818359375
1162.7197265625
1120.60546875
1060.1806640625
1050.10986328125
1268.9208984375
1538.0859375
1549.98779296875
1194.76318359375
1137.0849609375
971.37451171875
744.32373046875
401.91650390625
559.38720703125
615.234375
552.06298828125
622.55859375
658.26416015625
650.93994140625
640.869140625
699.462890625
724.18212890625
724.18212890625
540.1611328125
454.1015625
486.14501953125
442.19970703125
436.70654296875
314.02587890625
279.23583984375
149.23095703125
220.64208984375
350.64697265625
350.64697265625
358.88671875
359.80224609375
365.29541015625
335.99853515625
559.38720703125
596.923828125
701.2939453125
834.04541015625
657.3486328125
407.40966796875
399.169921875
228.8818359375
172.119140625
359.80224609375
506.28662109375
438.53759765625
433.9599609375
480.65185546875
559.38720703125
540.1611328125
732.421875
778.1982421875
660.09521484375
606.99462890625
533.75244140625
574.951171875
574.951171875
632.62939453125
759.8876953125
715.9423828125
872.49755859375
884.3994140625
902.7099609375
706.787109375
715.9423828125
726.01318359375
787.353515625
893.5546875
812.98828125
964.05029296875
1148.98681640625
967.71240234375
877.99072265625
817.56591796875
870.66650390625
909.11865234375
908.203125
1049.1943359375
1085.8154296875
1065.673828125
1046.44775390625
1006.16455078125
1074.8291015625
921.93603515625
938.41552734375
1040.0390625
1075.74462890625
1072.08251953125
1057.43408203125
1139.83154296875
1063.8427734375
999.755859375
951.23291015625
1009.82666015625
1014.404296875
1010.7421875
966.796875
945.73974609375
1018.06640625
964.05029296875
968.6279296875
1002.50244140625
948.486328125
1156.31103515625
1297.30224609375
1359.55810546875
1339.41650390625
1410.82763671875
1415.4052734375
1319.27490234375
1142.578125
1104.1259765625
1098.6328125
1290.8935546875
1584.77783203125
1712.0361328125
2088.31787109375
2372.13134765625
2373.96240234375
2372.13134765625
2451.7822265625
2374.8779296875
2298.88916015625
2265.0146484375
2224.7314453125
2167.96875
2252.197265625
2271.42333984375
2280.57861328125
2374.8779296875
2200.01220703125
2142.333984375
2096.5576171875
1936.34033203125
1799.01123046875
1712.95166015625
1593.93310546875
1553.64990234375
1473.08349609375
1369.62890625
1284.48486328125
1290.8935546875
1329.345703125
1228.6376953125
1159.97314453125
1073.91357421875
1044.61669921875
984.19189453125
894.47021484375
783.69140625
761.71875
805.6640625
953.06396484375
962.21923828125
890.80810546875
993.34716796875
1110.53466796875
1126.0986328125
1194.76318359375
1333.0078125
1263.427734375
1440.12451171875
1354.98046875
1271.66748046875
1179.19921875
1128.84521484375
1040.0390625
1016.2353515625
1067.5048828125
1115.1123046875
973.20556640625
899.96337890625
955.810546875
1136.16943359375
933.837890625
913.6962890625
832.21435546875
782.77587890625
781.8603515625
667.41943359375
508.11767578125
536.4990234375
659.1796875
924.6826171875
1272.5830078125
1867.67578125
2433.4716796875
3379.21142578125
4188.53759765625
5227.6611328125
6720.88623046875
8581.23779296875
10199.8901367188
10913.0859375
10428.7719726562
9179.99267578125
7592.46826171875
5689.0869140625
4010.009765625
1840.2099609375
387.26806640625
-864.2578125
-1788.02490234375
-2435.302734375
-2734.68017578125
-2952.57568359375
-2770.3857421875
-2143.24951171875
-1539.9169921875
-858.7646484375
-141.90673828125
450.439453125
787.353515625
1102.294921875
1289.0625
1354.06494140625
1429.13818359375
1490.478515625
1540.83251953125
1517.9443359375
1559.14306640625
1440.12451171875
1499.6337890625
1491.39404296875
1598.5107421875
1622.314453125
1583.8623046875
1643.37158203125
1574.70703125
1679.0771484375
1767.88330078125
1733.09326171875
1684.5703125
1569.2138671875
1433.7158203125
1519.775390625
1685.48583984375
1799.01123046875
1768.798828125
1812.744140625
1868.59130859375
1927.18505859375
1922.607421875
1826.47705078125
1939.0869140625
2123.10791015625
2078.2470703125
2087.40234375
2218.32275390625
2199.0966796875
2058.10546875
2085.5712890625
2087.40234375
2102.05078125
2127.685546875
2046.20361328125
2012.3291015625
2142.333984375
2297.05810546875
2303.466796875
2401.42822265625
2589.111328125
2517.7001953125
2511.29150390625
2586.36474609375
2578.125
2581.787109375
2491.14990234375
2415.1611328125
2495.7275390625
2548.828125
2565.3076171875
2694.39697265625
2791.44287109375
2897.64404296875
3001.0986328125
3080.74951171875
3086.24267578125
3237.3046875
3327.94189453125
3455.2001953125
3424.072265625
3376.46484375
3382.87353515625
3399.35302734375
3410.33935546875
3417.66357421875
3387.451171875
3416.748046875
3410.33935546875
3452.45361328125
3592.529296875
3632.8125
3603.515625
3611.75537109375
3525.69580078125
3576.96533203125
3598.0224609375
3495.4833984375
3591.61376953125
3864.44091796875
3969.7265625
4044.7998046875
4107.0556640625
4080.50537109375
3882.75146484375
3898.3154296875
3735.3515625
3710.63232421875
3546.7529296875
3587.0361328125
3457.03125
3410.33935546875
3251.03759765625
3257.4462890625
3236.38916015625
3031.31103515625
2979.1259765625
2892.15087890625
2859.19189453125
2804.26025390625
2624.81689453125
2406.92138671875
2221.0693359375
2073.66943359375
2209.16748046875
2238.46435546875
2070.00732421875
1864.92919921875
1871.337890625
1806.33544921875
1613.1591796875
1491.39404296875
1554.5654296875
1592.10205078125
1585.693359375
1616.8212890625
1679.99267578125
1653.4423828125
1664.4287109375
1470.3369140625
1357.72705078125
1508.7890625
1436.46240234375
1381.53076171875
1362.3046875
1457.51953125
1465.75927734375
1433.7158203125
1533.50830078125
1365.05126953125
1252.44140625
1195.6787109375
1357.72705078125
1439.208984375
1504.21142578125
1483.154296875
1533.50830078125
1534.423828125
1537.17041015625
1386.1083984375
1330.26123046875
1279.9072265625
1376.03759765625
1252.44140625
1253.35693359375
1369.62890625
1370.54443359375
1380.615234375
1506.9580078125
1433.7158203125
1413.57421875
1393.4326171875
1442.87109375
1605.8349609375
1602.1728515625
1479.4921875
1421.81396484375
1428.22265625
1424.560546875
1301.8798828125
1334.8388671875
1346.74072265625
1381.53076171875
1390.68603515625
1298.2177734375
1345.8251953125
1511.53564453125
1664.4287109375
1636.962890625
1529.84619140625
1573.79150390625
1603.08837890625
1560.05859375
1635.1318359375
1692.81005859375
1519.775390625
1451.11083984375
1378.7841796875
1396.17919921875
1597.59521484375
1698.30322265625
1774.2919921875
1794.43359375
1819.15283203125
1806.33544921875
1650.69580078125
1621.39892578125
1673.583984375
1634.21630859375
1642.4560546875
1708.3740234375
1625.06103515625
1572.8759765625
1534.423828125
1412.65869140625
1325.68359375
1442.87109375
1455.6884765625
1519.775390625
1631.4697265625
1698.30322265625
1737.6708984375
1717.529296875
1831.0546875
1789.85595703125
1569.2138671875
1726.6845703125
1879.57763671875
1842.041015625
1747.74169921875
1799.9267578125
1927.18505859375
1933.59375
2211.9140625
2209.16748046875
2079.16259765625
1960.14404296875
1998.59619140625
2171.630859375
2374.8779296875
2744.7509765625
2755.7373046875
2716.36962890625
2880.2490234375
2742.919921875
2726.4404296875
2615.66162109375
2666.93115234375
2645.8740234375
2585.44921875
2427.06298828125
2341.00341796875
2227.47802734375
2427.978515625
2275.08544921875
2279.6630859375
2373.046875
2184.4482421875
2012.3291015625
1563.720703125
978.69873046875
1021.728515625
1244.20166015625
1179.19921875
1044.61669921875
1081.23779296875
1206.6650390625
1267.08984375
1278.076171875
985.107421875
1082.1533203125
1087.646484375
1028.13720703125
1083.984375
1064.75830078125
938.41552734375
1020.81298828125
1007.080078125
1063.8427734375
975.03662109375
925.59814453125
850.52490234375
727.84423828125
707.70263671875
666.50390625
782.77587890625
823.05908203125
1010.7421875
1053.77197265625
1105.95703125
1044.61669921875
1163.63525390625
1225.89111328125
1282.65380859375
1137.0849609375
709.53369140625
600.5859375
449.52392578125
92.46826171875
-141.90673828125
23.8037109375
459.5947265625
747.0703125
1291.80908203125
1894.22607421875
2596.435546875
3621.826171875
4495.2392578125
5584.716796875
6983.642578125
8738.70849609375
10317.9931640625
11245.4223632812
10958.8623046875
9656.982421875
7837.82958984375
5566.40625
3520.20263671875
1480.40771484375
314.02587890625
-997.9248046875
-2279.6630859375
-2702.63671875
-2969.970703125
-3120.1171875
-3112.79296875
-2663.26904296875
-2149.658203125
-1512.451171875
-791.93115234375
105.28564453125
530.09033203125
853.271484375
932.0068359375
1031.79931640625
964.05029296875
934.75341796875
1007.99560546875
860.595703125
888.0615234375
972.2900390625
851.4404296875
986.02294921875
1005.2490234375
976.86767578125
1097.71728515625
1151.7333984375
1003.41796875
816.650390625
1177.3681640625
1138.916015625
1314.697265625
1429.13818359375
1371.4599609375
1211.24267578125
1187.43896484375
1375.1220703125
1616.8212890625
1638.7939453125
1547.2412109375
1552.734375
1625.06103515625
1744.07958984375
1458.43505859375
1398.92578125
1502.38037109375
1688.232421875
1589.35546875
1482.23876953125
1492.3095703125
1527.099609375
1683.65478515625
1712.95166015625
1776.123046875
1909.7900390625
1994.0185546875
2082.82470703125
1422.7294921875
1279.9072265625
1598.5107421875
1676.33056640625
1713.8671875
1980.28564453125
1639.70947265625
1890.56396484375
2101.13525390625
1888.73291015625
1978.45458984375
2065.4296875
2233.88671875
2296.142578125
2152.40478515625
2041.6259765625
2131.34765625
2184.4482421875
2410.58349609375
2600.09765625
2840.88134765625
2962.646484375
2912.29248046875
2641.29638671875
2758.48388671875
2895.81298828125
2756.65283203125
2773.13232421875
2948.91357421875
2989.19677734375
3047.79052734375
3086.24267578125
2944.3359375
2991.943359375
3173.2177734375
3348.08349609375
3337.09716796875
3578.79638671875
3341.6748046875
3080.74951171875
3321.533203125
3501.89208984375
3449.70703125
3420.41015625
3402.099609375
3318.78662109375
3334.3505859375
3085.3271484375
2824.40185546875
2747.49755859375
2756.65283203125
2704.4677734375
2438.96484375
2485.65673828125
2591.85791015625
2424.31640625
2266.845703125
2186.279296875
2175.29296875
2071.83837890625
2167.96875
2184.4482421875
2024.23095703125
1877.74658203125
1763.3056640625
1758.72802734375
1408.0810546875
1177.3681640625
1438.29345703125
1528.9306640625
1323.8525390625
1437.3779296875
1409.912109375
1257.01904296875
1247.86376953125
870.66650390625
811.1572265625
769.04296875
908.203125
976.86767578125
885.31494140625
978.69873046875
1063.8427734375
1181.0302734375
1217.6513671875
1081.23779296875
698.54736328125
614.31884765625
457.763671875
536.4990234375
782.77587890625
764.46533203125
807.4951171875
940.24658203125
759.8876953125
821.22802734375
797.42431640625
805.6640625
826.72119140625
730.5908203125
907.28759765625
824.89013671875
569.4580078125
718.68896484375
772.705078125
698.54736328125
726.9287109375
529.1748046875
433.9599609375
456.84814453125
699.462890625
831.298828125
654.60205078125
833.1298828125
859.68017578125
769.04296875
440.36865234375
473.32763671875
561.21826171875
394.59228515625
486.14501953125
505.37109375
540.1611328125
541.07666015625
839.53857421875
764.46533203125
618.896484375
806.57958984375
888.0615234375
986.9384765625
922.8515625
915.52734375
858.7646484375
651.85546875
640.869140625
384.521484375
674.74365234375
595.0927734375
475.15869140625
629.8828125
852.35595703125
829.4677734375
701.2939453125
639.0380859375
521.8505859375
346.98486328125
636.29150390625
794.677734375
982.36083984375
1181.94580078125
863.34228515625
1083.06884765625
943.90869140625
877.0751953125
1147.15576171875
1170.0439453125
1186.5234375
1117.85888671875
1203.0029296875
1085.8154296875
1457.51953125
1492.3095703125
1667.17529296875
2071.83837890625
2135.92529296875
2156.06689453125
1658.935546875
1570.12939453125
1652.52685546875
1768.798828125
1387.939453125
1401.67236328125
1504.21142578125
1506.9580078125
1586.60888671875
1667.17529296875
1557.31201171875
1652.52685546875
1523.4375
1596.6796875
1268.9208984375
938.41552734375
820.3125
983.2763671875
1159.97314453125
1159.0576171875
939.3310546875
725.09765625
637.20703125
507.2021484375
487.060546875
391.845703125
446.77734375
405.57861328125
193.17626953125
61.34033203125
129.08935546875
65.00244140625
-9.1552734375
-232.5439453125
-88.80615234375
13.73291015625
-130.0048828125
-279.23583984375
-372.61962890625
-365.29541015625
-306.70166015625
-467.83447265625
-444.03076171875
-180.35888671875
-394.59228515625
-262.75634765625
-268.24951171875
-340.576171875
-555.72509765625
-630.79833984375
-461.42578125
-578.61328125
-340.576171875
-385.43701171875
-326.84326171875
-541.9921875
-509.033203125
-502.62451171875
-1006.16455078125
-1091.30859375
-1460.26611328125
-1207.58056640625
-1160.888671875
-729.67529296875
-420.22705078125
154.72412109375
730.5908203125
1241.455078125
2385.8642578125
3365.478515625
4475.09765625
6112.060546875
8102.4169921875
9583.740234375
10332.6416015625
9430.84716796875
7484.43603515625
5593.8720703125
3066.10107421875
1026.30615234375
-781.8603515625
-2000.42724609375
-2968.1396484375
-3774.71923828125
-4088.7451171875
-4531.8603515625
-4538.26904296875
-4102.47802734375
-3756.40869140625
-3253.7841796875
-2752.0751953125
-2015.9912109375
-1723.93798828125
-1484.9853515625
-1530.76171875
-1274.4140625
-1126.0986328125
-990.6005859375
-693.05419921875
-782.77587890625
-820.3125
-577.69775390625
-471.49658203125
-429.38232421875
-379.94384765625
-234.375
-657.3486328125
-545.654296875
-646.3623046875
-671.9970703125
-445.86181640625
-463.2568359375
-105.28564453125
-21.97265625
-329.58984375
-384.521484375
-715.9423828125
-563.04931640625
-242.61474609375
-246.27685546875
-650.93994140625
-539.24560546875
-383.60595703125
-706.787109375
-713.19580078125
-571.2890625
-491.63818359375
-274.658203125
-4.57763671875
-31.1279296875
-75.98876953125
-224.30419921875
-186.767578125
-415.6494140625
-461.42578125
-613.4033203125
-524.59716796875
-401.0009765625
-434.87548828125
-594.17724609375
-361.63330078125
-282.89794921875
-244.44580078125
-67.7490234375
-368.95751953125
-477.9052734375
-552.978515625
-576.7822265625
-534.66796875
-340.576171875
-285.64453125
74.15771484375
-14.6484375
188.5986328125
130.0048828125
13.73291015625
109.86328125
151.9775390625
245.361328125
675.6591796875
609.7412109375
395.5078125
347.900390625
425.72021484375
305.7861328125
263.671875
489.80712890625
692.138671875
839.53857421875
996.09375
858.7646484375
900.87890625
959.47265625
1108.70361328125
862.4267578125
1081.23779296875
1195.6787109375
1228.6376953125
1271.66748046875
1374.20654296875
1378.7841796875
1415.4052734375
1104.1259765625
934.75341796875
785.5224609375
746.15478515625
1020.81298828125
813.90380859375
823.05908203125
671.08154296875
606.0791015625
746.15478515625
769.95849609375
397.3388671875
240.78369140625
45.7763671875
109.86328125
-139.16015625
-331.4208984375
-9.1552734375
-165.71044921875
-141.90673828125
-204.16259765625
-130.92041015625
-427.55126953125
-712.2802734375
-949.40185546875
-933.837890625
-965.88134765625
-1192.0166015625
-1187.43896484375
-1198.42529296875
-1344.90966796875
-1083.984375
-1189.27001953125
-1470.3369140625
-1366.88232421875
-1304.62646484375
-1327.5146484375
-1349.4873046875
-1387.02392578125
-1187.43896484375
-1109.619140625
-1236.87744140625
-1448.3642578125
-1432.80029296875
-1403.50341796875
-1353.1494140625
-1397.0947265625
-1238.70849609375
-1288.14697265625
-1367.7978515625
-1431.884765625
-1249.69482421875
-1514.2822265625
-1550.9033203125
-1260.68115234375
-1055.60302734375
-1121.52099609375
-1148.98681640625
-1391.6015625
-1435.546875
-1246.03271484375
-1550.9033203125
-1658.935546875
-1929.01611328125
-1460.26611328125
-1466.6748046875
-1519.775390625
-1404.4189453125
-1306.45751953125
-1671.7529296875
-1468.505859375
-1379.69970703125
-1449.27978515625
-1578.369140625
-1492.3095703125
-1516.11328125
-1678.16162109375
-1630.55419921875
-1489.56298828125
-1601.25732421875
-1430.0537109375
-1336.669921875
-1173.7060546875
-1116.943359375
-882.568359375
-741.5771484375
-773.62060546875
-606.99462890625
-708.6181640625
-1049.1943359375
-1429.13818359375
-1017.15087890625
-709.53369140625
-642.7001953125
-501.708984375
-395.5078125
-351.5625
-296.630859375
-169.37255859375
-297.54638671875
-486.14501953125
-473.32763671875
-278.3203125
-189.51416015625
-128.173828125
-561.21826171875
-422.9736328125
-454.1015625
-270.08056640625
-325.01220703125
-200.50048828125
-457.763671875
-192.2607421875
-243.5302734375
-495.30029296875
-635.3759765625
-396.42333984375
-599.67041015625
-987.85400390625
-1327.5146484375
-1249.69482421875
-1181.0302734375
-1318.359375
-1265.2587890625
-1094.05517578125
-723.2666015625
-985.107421875
-1581.11572265625
-1801.7578125
-1847.5341796875
-1766.05224609375
-1901.55029296875
-1875.91552734375
-2002.25830078125
-1832.8857421875
-1840.2099609375
-1940.91796875
-1771.54541015625
-1929.01611328125
-2180.7861328125
-2095.64208984375
-1991.27197265625
-1808.16650390625
-1146.240234375
-1582.03125
-1844.78759765625
-2116.69921875
-2279.6630859375
-1974.79248046875
-2086.48681640625
-2326.35498046875
-2123.10791015625
-1961.97509765625
-1982.11669921875
-2071.83837890625
-1950.0732421875
-1965.63720703125
-2224.7314453125
-2379.45556640625
-2365.72265625
-2549.74365234375
-2617.49267578125
-2386.77978515625
-2026.9775390625
-2006.8359375
-1607.666015625
-835.87646484375
270.08056640625
1202.08740234375
1946.4111328125
3412.17041015625
4945.6787109375
6657.71484375
7859.80224609375
7881.77490234375
6709.89990234375
5127.86865234375
2863.76953125
795.59326171875
-1256.103515625
-2768.5546875
-3715.2099609375
-5021.66748046875
-5607.60498046875
-5769.6533203125
-5667.1142578125
-5950.01220703125
-5898.74267578125
-5321.044921875
-4327.69775390625
-3408.50830078125
-2542.41943359375
-2127.685546875
-2362.97607421875
-1979.3701171875
-1542.66357421875
-1347.65625
-1780.70068359375
-2128.60107421875
-1957.3974609375
-1906.1279296875
-1665.34423828125
-1518.85986328125
-1654.35791015625
-1583.8623046875
-1905.21240234375
-1946.4111328125
-1515.19775390625
-1637.87841796875
-1719.3603515625
-1349.4873046875
-1414.48974609375
-1050.10986328125
-736.083984375
-1664.4287109375
-1983.0322265625
-2130.43212890625
-2062.68310546875
-1757.8125
-1598.5107421875
-1138.916015625
-1449.27978515625
-1720.27587890625
-1874.08447265625
-1461.181640625
-1012.5732421875
-666.50390625
-638.12255859375
-867.00439453125
-1108.70361328125
-1146.240234375
-1388.85498046875
-1506.04248046875
-1088.56201171875
-1175.537109375
-1315.61279296875
-1084.89990234375
-1146.240234375
-1057.43408203125
-455.01708984375
-436.70654296875
-499.8779296875
-704.9560546875
-983.2763671875
-1240.53955078125
-878.90625
-609.7412109375
-426.6357421875
-281.982421875
-397.3388671875
-437.6220703125
-539.24560546875
-694.88525390625
-526.42822265625
-391.845703125
-184.9365234375
-120.849609375
-215.14892578125
-200.50048828125
-425.72021484375
-88.80615234375
-1.8310546875
166.6259765625
364.3798828125
260.009765625
401.0009765625
606.0791015625
653.6865234375
803.8330078125
693.05419921875
797.42431640625
940.24658203125
831.298828125
970.458984375
1395.263671875
1381.53076171875
854.18701171875
563.04931640625
725.09765625
820.3125
730.5908203125
893.5546875
977.783203125
1135.25390625
977.783203125
912.78076171875
559.38720703125
217.8955078125
659.1796875
481.5673828125
396.42333984375
678.40576171875
822.1435546875
486.14501953125
115.3564453125
-227.05078125
-68.66455078125
-506.28662109375
-479.736328125
-856.01806640625
-846.86279296875
-552.06298828125
-494.384765625
-626.220703125
-802.001953125
-1317.44384765625
-1212.158203125
-929.26025390625
-1476.74560546875
-1602.1728515625
-1510.6201171875
-1473.08349609375
-1456.60400390625
-1347.65625
-1208.49609375
-1150.81787109375
-1032.71484375
-865.17333984375
-902.7099609375
-1137.0849609375
-1473.08349609375
-1630.55419921875
-1599.42626953125
-1425.47607421875
-1349.4873046875
-1571.96044921875
-1428.22265625
-1208.49609375
-1546.32568359375
-1507.87353515625
-1517.02880859375
-1390.68603515625
-1613.1591796875
-1571.96044921875
-1464.84375
-1385.19287109375
-1428.22265625
-1272.5830078125
-1273.49853515625
-1276.2451171875
-1525.2685546875
-1593.017578125
-1371.4599609375
-1343.07861328125
-1257.9345703125
-1189.27001953125
-1355.89599609375
-1168.212890625
-1405.33447265625
