ECG
-68.66455078125
-78.7353515625
-78.7353515625
-81.48193359375
-92.46826171875
-105.28564453125
-109.86328125
-101.62353515625
-101.62353515625
-97.0458984375
-99.79248046875
-102.5390625
-116.27197265625
-121.76513671875
-119.93408203125
-117.1875
-113.525390625
-112.60986328125
-115.3564453125
-115.3564453125
-108.0322265625
-113.525390625
-111.6943359375
-112.60986328125
-110.77880859375
-114.44091796875
-127.25830078125
-116.27197265625
-116.27197265625
-110.77880859375
-112.60986328125
-112.60986328125
-110.77880859375
-107.11669921875
-101.62353515625
-112.60986328125
-130.92041015625
-135.498046875
-162.04833984375
-177.6123046875
-183.10546875
-177.6123046875
-164.794921875
-125.42724609375
-63.17138671875
0
52.18505859375
113.525390625
196.83837890625
321.35009765625
472.412109375
648.193359375
826.72119140625
1016.2353515625
1148.0712890625
1237.79296875
1317.44384765625
1397.0947265625
1413.57421875
1341.24755859375
1151.7333984375
965.88134765625
799.25537109375
640.869140625
466.00341796875
298.4619140625
178.52783203125
76.904296875
14.6484375
-13.73291015625
-29.296875
-64.0869140625
-69.580078125
-63.17138671875
-74.15771484375
-76.904296875
-64.0869140625
-53.1005859375
-43.9453125
-42.1142578125
-46.69189453125
-48.52294921875
-54.01611328125
-49.4384765625
-42.1142578125
-51.26953125
-56.7626953125
-54.01611328125
-51.26953125
-52.18505859375
-57.67822265625
-53.1005859375
-54.931640625
-47.607421875
-52.18505859375
-54.931640625
-51.26953125
-47.607421875
-48.52294921875
-49.4384765625
-41.19873046875
-42.1142578125
-40.283203125
-32.958984375
-32.04345703125
-36.62109375
-32.04345703125
-29.296875
-31.1279296875
-35.70556640625
-32.958984375
-27.4658203125
-21.97265625
-18.310546875
-20.1416015625
-19.22607421875
-26.55029296875
-11.90185546875
-9.1552734375
-8.23974609375
-16.4794921875
-11.90185546875
-5.4931640625
-1.8310546875
-2.74658203125
8.23974609375
9.1552734375
16.4794921875
18.310546875
24.71923828125
23.8037109375
25.634765625
34.7900390625
32.04345703125
42.1142578125
50.35400390625
53.1005859375
64.0869140625
61.34033203125
65.91796875
71.4111328125
80.56640625
97.96142578125
101.62353515625
110.77880859375
121.76513671875
120.849609375
124.51171875
144.6533203125
156.55517578125
172.119140625
188.5986328125
190.4296875
202.33154296875
207.82470703125
205.078125
227.05078125
253.60107421875
260.009765625
270.99609375
287.4755859375
288.39111328125
293.88427734375
314.02587890625
327.7587890625
341.49169921875
348.81591796875
355.224609375
360.7177734375
370.78857421875
383.60595703125
390.93017578125
387.26806640625
392.76123046875
395.5078125
408.3251953125
397.3388671875
392.76123046875
395.5078125
396.42333984375
399.169921875
384.521484375
373.53515625
352.47802734375
346.98486328125
334.16748046875
322.265625
296.630859375
265.5029296875
242.61474609375
218.81103515625
205.078125
179.443359375
150.146484375
140.07568359375
124.51171875
89.7216796875
73.2421875
62.255859375
43.9453125
22.88818359375
11.90185546875
-1.8310546875
-7.32421875
-18.310546875
-32.958984375
-43.9453125
-44.86083984375
-51.26953125
-63.17138671875
-54.931640625
-73.2421875
-75.0732421875
-85.14404296875
-82.3974609375
-87.890625
-88.80615234375
-86.0595703125
-95.21484375
-97.0458984375
-93.3837890625
-87.890625
-94.29931640625
-88.80615234375
-96.13037109375
-91.552734375
-86.97509765625
-91.552734375
-98.876953125
-101.62353515625
-102.5390625
-104.3701171875
-97.0458984375
-90.63720703125
-92.46826171875
-90.63720703125
-94.29931640625
-102.5390625
-99.79248046875
-97.0458984375
-108.94775390625
-98.876953125
-87.890625
-95.21484375
-106.201171875
-109.86328125
-100.7080078125
-95.21484375
-93.3837890625
-97.96142578125
-93.3837890625
-97.0458984375
-100.7080078125
-97.0458984375
-93.3837890625
-93.3837890625
-86.0595703125
-89.7216796875
-100.7080078125
-88.80615234375
-89.7216796875
-98.876953125
-91.552734375
-86.0595703125
-88.80615234375
-78.7353515625
-83.31298828125
-88.80615234375
-81.48193359375
-74.15771484375
-78.7353515625
-83.31298828125
-85.14404296875
-81.48193359375
-77.81982421875
-82.3974609375
-83.31298828125
-86.0595703125
-88.80615234375
-80.56640625
-84.228515625
-93.3837890625
-86.0595703125
-78.7353515625
-72.32666015625
-75.98876953125
-85.14404296875
-86.97509765625
-79.65087890625
-70.49560546875
-83.31298828125
-89.7216796875
-88.80615234375
-86.97509765625
-82.3974609375
-92.46826171875
-88.80615234375
-98.876953125
-98.876953125
-86.0595703125
-91.552734375
-90.63720703125
-92.46826171875
-88.80615234375
-93.3837890625
-97.0458984375
-94.29931640625
-91.552734375
-86.97509765625
-86.97509765625
-90.63720703125
-92.46826171875
-103.45458984375
-109.86328125
-105.28564453125
-93.3837890625
-91.552734375
-92.46826171875
-99.79248046875
-103.45458984375
-97.0458984375
-99.79248046875
-106.201171875
-110.77880859375
-107.11669921875
-100.7080078125
-108.94775390625
-100.7080078125
-105.28564453125
-108.0322265625
-105.28564453125
-106.201171875
-101.62353515625
-100.7080078125
-107.11669921875
-115.3564453125
-114.44091796875
-107.11669921875
-100.7080078125
-106.201171875
-105.28564453125
-119.0185546875
-110.77880859375
-110.77880859375
-110.77880859375
-115.3564453125
-111.6943359375
-114.44091796875
-113.525390625
-113.525390625
-110.77880859375
-101.62353515625
-112.60986328125
-116.27197265625
-111.6943359375
-106.201171875
-106.201171875
-115.3564453125
-118.10302734375
-119.0185546875
-104.3701171875
-108.0322265625
-110.77880859375
-102.5390625
-99.79248046875
-100.7080078125
-108.0322265625
-118.10302734375
-112.60986328125
-111.6943359375
-116.27197265625
-111.6943359375
-104.3701171875
-108.0322265625
-108.94775390625
-111.6943359375
-111.6943359375
-115.3564453125
-108.94775390625
-108.94775390625
-110.77880859375
-101.62353515625
-116.27197265625
-111.6943359375
-108.0322265625
-103.45458984375
-110.77880859375
-117.1875
-118.10302734375
-112.60986328125
-113.525390625
-115.3564453125
-113.525390625
-125.42724609375
-116.27197265625
-111.6943359375
-112.60986328125
-113.525390625
-117.1875
-123.59619140625
-119.93408203125
-107.11669921875
-117.1875
-108.94775390625
-103.45458984375
-112.60986328125
-117.1875
-119.0185546875
-118.10302734375
-114.44091796875
-109.86328125
-113.525390625
-109.86328125
-107.11669921875
-116.27197265625
-115.3564453125
-117.1875
-109.86328125
-103.45458984375
-105.28564453125
-108.0322265625
-117.1875
-118.10302734375
-110.77880859375
-92.46826171875
-97.0458984375
-105.28564453125
-106.201171875
-99.79248046875
-102.5390625
-95.21484375
-81.48193359375
-73.2421875
-75.0732421875
-81.48193359375
-70.49560546875
-75.0732421875
-72.32666015625
-72.32666015625
-80.56640625
-71.4111328125
-77.81982421875
-88.80615234375
-91.552734375
-80.56640625
-75.98876953125
-80.56640625
-61.34033203125
-58.59375
-60.4248046875
-58.59375
-52.18505859375
-58.59375
-53.1005859375
-56.7626953125
-58.59375
-66.83349609375
-60.4248046875
-63.17138671875
-60.4248046875
-64.0869140625
-75.0732421875
-60.4248046875
-50.35400390625
-72.32666015625
-84.228515625
-83.31298828125
-84.228515625
-85.14404296875
-78.7353515625
-77.81982421875
-85.14404296875
-96.13037109375
-103.45458984375
-108.94775390625
-110.77880859375
-116.27197265625
-111.6943359375
-115.3564453125
-115.3564453125
-123.59619140625
-130.92041015625
-125.42724609375
-123.59619140625
-116.27197265625
-115.3564453125
-114.44091796875
-124.51171875
-127.25830078125
-119.93408203125
-122.6806640625
-120.849609375
-113.525390625
-118.10302734375
-120.849609375
-108.0322265625
-117.1875
-119.0185546875
-119.93408203125
-120.849609375
-128.173828125
-124.51171875
-140.07568359375
-142.822265625
-146.484375
-153.80859375
-168.45703125
-164.794921875
-181.2744140625
-189.51416015625
-166.6259765625
-121.76513671875
-72.32666015625
2.74658203125
61.34033203125
122.6806640625
219.7265625
350.64697265625
505.37109375
685.72998046875
882.568359375
1051.025390625
1189.27001953125
1292.724609375
1387.939453125
1459.3505859375
1442.87109375
1354.06494140625
1158.14208984375
968.6279296875
789.1845703125
620.7275390625
436.70654296875
300.29296875
170.2880859375
70.49560546875
27.4658203125
-9.1552734375
-46.69189453125
-75.98876953125
-66.83349609375
-75.0732421875
-65.00244140625
-48.52294921875
-45.7763671875
-47.607421875
-49.4384765625
-47.607421875
-55.84716796875
-60.4248046875
-60.4248046875
-54.931640625
-50.35400390625
-59.50927734375
-63.17138671875
-65.00244140625
-70.49560546875
-65.91796875
-69.580078125
-65.91796875
-64.0869140625
-67.7490234375
-68.66455078125
-55.84716796875
-50.35400390625
-62.255859375
-58.59375
-63.17138671875
-56.7626953125
-49.4384765625
-54.931640625
-45.7763671875
-44.86083984375
-42.1142578125
-43.9453125
-40.283203125
-34.7900390625
-42.1142578125
-32.958984375
-35.70556640625
-35.70556640625
-33.87451171875
-32.04345703125
-31.1279296875
-18.310546875
-17.39501953125
-10.07080078125
-12.8173828125
-21.05712890625
-17.39501953125
-17.39501953125
-10.07080078125
-3.662109375
-8.23974609375
0.91552734375
0.91552734375
12.8173828125
8.23974609375
10.07080078125
21.05712890625
19.22607421875
26.55029296875
27.4658203125
32.958984375
47.607421875
55.84716796875
60.4248046875
65.00244140625
71.4111328125
76.904296875
87.890625
91.552734375
103.45458984375
105.28564453125
119.0185546875
130.0048828125
138.24462890625
145.56884765625
156.55517578125
162.9638671875
179.443359375
202.33154296875
211.48681640625
223.388671875
240.78369140625
243.5302734375
257.26318359375
279.23583984375
287.4755859375
297.54638671875
314.94140625
321.35009765625
333.251953125
344.23828125
343.32275390625
359.80224609375
365.29541015625
385.43701171875
390.93017578125
387.26806640625
395.5078125
411.9873046875
421.142578125
420.22705078125
413.818359375
414.73388671875
408.3251953125
408.3251953125
396.42333984375
388.18359375
370.78857421875
362.548828125
345.15380859375
321.35009765625
314.94140625
283.8134765625
263.671875
251.77001953125
220.64208984375
195.9228515625
173.03466796875
161.1328125
132.75146484375
105.28564453125
84.228515625
68.66455078125
54.01611328125
37.53662109375
21.05712890625
0
-10.07080078125
-21.05712890625
-27.4658203125
-34.7900390625
-44.86083984375
-61.34033203125
-60.4248046875
-65.91796875
-76.904296875
-75.0732421875
-75.98876953125
-85.14404296875
-81.48193359375
-78.7353515625
-92.46826171875
-98.876953125
-96.13037109375
-95.21484375
-94.29931640625
-103.45458984375
-101.62353515625
-108.94775390625
-99.79248046875
-95.21484375
-106.201171875
-108.0322265625
-104.3701171875
-101.62353515625
-106.201171875
-108.0322265625
-102.5390625
-103.45458984375
-108.0322265625
-106.201171875
-108.0322265625
-107.11669921875
-110.77880859375
-102.5390625
-102.5390625
-94.29931640625
-99.79248046875
-107.11669921875
-98.876953125
-100.7080078125
-99.79248046875
-98.876953125
-98.876953125
-96.13037109375
-93.3837890625
-95.21484375
-97.96142578125
-94.29931640625
-88.80615234375
-96.13037109375
-100.7080078125
-92.46826171875
-93.3837890625
-82.3974609375
-74.15771484375
-71.4111328125
-91.552734375
-84.228515625
-86.97509765625
-88.80615234375
-85.14404296875
-89.7216796875
-91.552734375
-89.7216796875
-94.29931640625
-81.48193359375
-80.56640625
-87.890625
-90.63720703125
-86.0595703125
-82.3974609375
-96.13037109375
-91.552734375
-91.552734375
-90.63720703125
-87.890625
-96.13037109375
-107.11669921875
-91.552734375
-92.46826171875
-82.3974609375
-77.81982421875
-86.97509765625
-80.56640625
-90.63720703125
-98.876953125
-91.552734375
-89.7216796875
-98.876953125
-101.62353515625
-75.98876953125
-77.81982421875
-87.890625
-91.552734375
-104.3701171875
-81.48193359375
-82.3974609375
-92.46826171875
-92.46826171875
-95.21484375
-90.63720703125
-91.552734375
-94.29931640625
-98.876953125
-105.28564453125
-98.876953125
-95.21484375
-101.62353515625
-111.6943359375
-108.0322265625
-95.21484375
-97.0458984375
-97.0458984375
-105.28564453125
-105.28564453125
-104.3701171875
-108.94775390625
-108.0322265625
-106.201171875
-115.3564453125
-111.6943359375
-107.11669921875
-110.77880859375
-106.201171875
-104.3701171875
-116.27197265625
-124.51171875
-116.27197265625
-126.3427734375
-108.94775390625
-109.86328125
-109.86328125
-107.11669921875
-108.94775390625
-110.77880859375
-113.525390625
-112.60986328125
-115.3564453125
-112.60986328125
-116.27197265625
-113.525390625
-113.525390625
-106.201171875
-101.62353515625
-108.94775390625
-108.94775390625
-105.28564453125
-102.5390625
-112.60986328125
-114.44091796875
-115.3564453125
-112.60986328125
-110.77880859375
-108.0322265625
-108.0322265625
-110.77880859375
-110.77880859375
-112.60986328125
-120.849609375
-125.42724609375
-115.3564453125
-118.10302734375
-122.6806640625
-111.6943359375
-117.1875
-126.3427734375
-108.94775390625
-107.11669921875
-111.6943359375
-120.849609375
-126.3427734375
-124.51171875
-125.42724609375
-124.51171875
-122.6806640625
-130.92041015625
-136.41357421875
-136.41357421875
-132.75146484375
-126.3427734375
-129.08935546875
-130.92041015625
-127.25830078125
-128.173828125
-130.0048828125
-134.58251953125
-139.16015625
-126.3427734375
-119.93408203125
-130.92041015625
-130.92041015625
-131.8359375
-130.92041015625
-130.0048828125
-124.51171875
-132.75146484375
-133.6669921875
-129.08935546875
-122.6806640625
-121.76513671875
-120.849609375
-129.08935546875
-130.92041015625
-126.3427734375
-123.59619140625
-125.42724609375
-120.849609375
-124.51171875
-130.0048828125
-126.3427734375
-124.51171875
-128.173828125
-126.3427734375
-124.51171875
-123.59619140625
-140.07568359375
-148.3154296875
-124.51171875
-125.42724609375
-130.0048828125
-127.25830078125
-120.849609375
-126.3427734375
-129.08935546875
-124.51171875
-129.08935546875
-134.58251953125
-121.76513671875
-131.8359375
-116.27197265625
-108.94775390625
-117.1875
-107.11669921875
-104.3701171875
-95.21484375
-96.13037109375
-96.13037109375
-87.890625
-86.0595703125
-86.0595703125
-75.98876953125
-85.14404296875
-92.46826171875
-76.904296875
-86.97509765625
-103.45458984375
-97.0458984375
-97.0458984375
-95.21484375
-84.228515625
-72.32666015625
-52.18505859375
-43.9453125
-52.18505859375
-54.931640625
-67.7490234375
-67.7490234375
-60.4248046875
-65.00244140625
-74.15771484375
-60.4248046875
-66.83349609375
-86.97509765625
-78.7353515625
-64.0869140625
-65.91796875
-71.4111328125
-71.4111328125
-64.0869140625
-80.56640625
-89.7216796875
-99.79248046875
-80.56640625
-80.56640625
-88.80615234375
-98.876953125
-105.28564453125
-105.28564453125
-115.3564453125
-124.51171875
-116.27197265625
-126.3427734375
-130.0048828125
-130.0048828125
-125.42724609375
-117.1875
-131.8359375
-125.42724609375
-126.3427734375
-130.92041015625
-121.76513671875
-130.0048828125
-125.42724609375
-117.1875
-125.42724609375
-122.6806640625
-116.27197265625
-116.27197265625
-119.93408203125
-120.849609375
-129.08935546875
-124.51171875
-133.6669921875
-127.25830078125
-131.8359375
-124.51171875
-119.0185546875
-124.51171875
-131.8359375
-159.3017578125
-173.9501953125
-192.2607421875
-195.00732421875
-184.9365234375
-142.822265625
-106.201171875
-43.9453125
14.6484375
65.00244140625
145.56884765625
252.685546875
389.09912109375
558.4716796875
735.16845703125
918.27392578125
1072.998046875
1198.42529296875
1300.048828125
1373.291015625
1424.560546875
1382.4462890625
1249.69482421875
1053.77197265625
876.15966796875
700.37841796875
533.75244140625
352.47802734375
230.712890625
116.27197265625
32.958984375
-6.40869140625
-30.21240234375
-64.0869140625
-78.7353515625
-84.228515625
-85.14404296875
-72.32666015625
-73.2421875
-57.67822265625
-46.69189453125
-51.26953125
-61.34033203125
-59.50927734375
-67.7490234375
-64.0869140625
-66.83349609375
-65.91796875
-60.4248046875
-67.7490234375
-65.91796875
-76.904296875
-74.15771484375
-68.66455078125
-67.7490234375
-64.0869140625
-74.15771484375
-65.00244140625
-55.84716796875
-56.7626953125
-74.15771484375
-71.4111328125
-62.255859375
-56.7626953125
-64.0869140625
-65.00244140625
-60.4248046875
-59.50927734375
-56.7626953125
-49.4384765625
-58.59375
-57.67822265625
-43.02978515625
-39.36767578125
-41.19873046875
-42.1142578125
-43.9453125
-31.1279296875
-21.97265625
-30.21240234375
-21.05712890625
-22.88818359375
-22.88818359375
-21.05712890625
-15.56396484375
-13.73291015625
-10.07080078125
-11.90185546875
-2.74658203125
0
-4.57763671875
10.07080078125
21.05712890625
21.05712890625
16.4794921875
29.296875
35.70556640625
42.1142578125
51.26953125
51.26953125
52.18505859375
54.01611328125
60.4248046875
76.904296875
74.15771484375
70.49560546875
78.7353515625
96.13037109375
101.62353515625
113.525390625
132.75146484375
137.3291015625
148.3154296875
148.3154296875
160.21728515625
187.68310546875
187.68310546875
188.5986328125
207.82470703125
215.14892578125
230.712890625
251.77001953125
269.1650390625
276.4892578125
287.4755859375
295.71533203125
309.4482421875
319.51904296875
334.16748046875
340.576171875
350.64697265625
362.548828125
371.7041015625
376.28173828125
378.11279296875
385.43701171875
382.6904296875
390.93017578125
400.08544921875
395.5078125
395.5078125
391.845703125
392.76123046875
380.859375
370.78857421875
366.2109375
348.81591796875
333.251953125
308.53271484375
294.7998046875
281.06689453125
253.60107421875
225.2197265625
196.83837890625
173.9501953125
162.04833984375
148.3154296875
115.3564453125
94.29931640625
75.0732421875
65.91796875
43.02978515625
27.4658203125
8.23974609375
-3.662109375
-13.73291015625
-30.21240234375
-38.4521484375
-54.01611328125
-57.67822265625
-68.66455078125
-78.7353515625
-78.7353515625
-80.56640625
-80.56640625
-85.14404296875
-90.63720703125
-86.97509765625
-93.3837890625
-97.96142578125
-106.201171875
-103.45458984375
-107.11669921875
-109.86328125
-103.45458984375
-105.28564453125
-99.79248046875
-101.62353515625
-100.7080078125
-102.5390625
-110.77880859375
-105.28564453125
-91.552734375
-102.5390625
-102.5390625
-96.13037109375
-99.79248046875
-109.86328125
-106.201171875
-105.28564453125
-105.28564453125
-112.60986328125
-113.525390625
-108.94775390625
-105.28564453125
-102.5390625
-102.5390625
-101.62353515625
-103.45458984375
-97.96142578125
-98.876953125
-101.62353515625
-101.62353515625
-108.0322265625
-111.6943359375
-108.0322265625
-106.201171875
-99.79248046875
-94.29931640625
-93.3837890625
-90.63720703125
-90.63720703125
-103.45458984375
-115.3564453125
-109.86328125
-99.79248046875
-99.79248046875
-96.13037109375
-93.3837890625
-99.79248046875
-87.890625
-90.63720703125
-90.63720703125
-86.97509765625
-98.876953125
-90.63720703125
-93.3837890625
-89.7216796875
-95.21484375
-95.21484375
-85.14404296875
-87.890625
-100.7080078125
-94.29931640625
-86.97509765625
-89.7216796875
-87.890625
-90.63720703125
-91.552734375
-93.3837890625
-93.3837890625
-102.5390625
-97.96142578125
-93.3837890625
-93.3837890625
-88.80615234375
-87.890625
-95.21484375
-96.13037109375
-91.552734375
-85.14404296875
-86.97509765625
-94.29931640625
-96.13037109375
-97.0458984375
-98.876953125
-102.5390625
-102.5390625
-102.5390625
-101.62353515625
-99.79248046875
-104.3701171875
-105.28564453125
-94.29931640625
-98.876953125
-104.3701171875
-100.7080078125
-97.96142578125
-109.86328125
-102.5390625
-108.0322265625
-107.11669921875
-107.11669921875
-112.60986328125
-109.86328125
-102.5390625
-115.3564453125
-118.10302734375
-111.6943359375
-106.201171875
-110.77880859375
-109.86328125
-111.6943359375
-112.60986328125
-112.60986328125
-114.44091796875
-115.3564453125
-125.42724609375
-117.1875
-128.173828125
-117.1875
-102.5390625
-117.1875
-117.1875
-106.201171875
-111.6943359375
-119.93408203125
-115.3564453125
-108.94775390625
-119.93408203125
-108.0322265625
-98.876953125
-114.44091796875
-109.86328125
-117.1875
-126.3427734375
-126.3427734375
-124.51171875
-113.525390625
-103.45458984375
-101.62353515625
-114.44091796875
-109.86328125
-110.77880859375
-107.11669921875
-101.62353515625
-119.93408203125
-125.42724609375
-115.3564453125
-111.6943359375
-123.59619140625
-121.76513671875
-113.525390625
-119.0185546875
-124.51171875
-110.77880859375
-118.10302734375
-124.51171875
-116.27197265625
-108.94775390625
-106.201171875
-111.6943359375
-112.60986328125
-113.525390625
-117.1875
-118.10302734375
-121.76513671875
-126.3427734375
-119.0185546875
-118.10302734375
-119.93408203125
-127.25830078125
-123.59619140625
-123.59619140625
-128.173828125
-119.93408203125
-118.10302734375
-118.10302734375
-117.1875
-117.1875
-111.6943359375
-108.0322265625
-116.27197265625
-119.93408203125
-116.27197265625
-107.11669921875
-114.44091796875
-116.27197265625
-127.25830078125
-127.25830078125
-114.44091796875
-125.42724609375
-112.60986328125
-108.0322265625
-119.0185546875
-115.3564453125
-122.6806640625
-121.76513671875
-123.59619140625
-110.77880859375
-106.201171875
-114.44091796875
-118.10302734375
-109.86328125
-115.3564453125
-113.525390625
-108.94775390625
-112.60986328125
-115.3564453125
-111.6943359375
-106.201171875
-107.11669921875
-96.13037109375
-95.21484375
-81.48193359375
-97.96142578125
-95.21484375
-93.3837890625
-86.97509765625
-82.3974609375
-87.890625
-85.14404296875
-87.890625
-93.3837890625
-94.29931640625
-87.890625
-86.97509765625
-80.56640625
-65.91796875
-54.01611328125
-43.02978515625
-43.9453125
-54.01611328125
-60.4248046875
-58.59375
-45.7763671875
-54.931640625
-68.66455078125
-65.91796875
-70.49560546875
-70.49560546875
-77.81982421875
-76.904296875
-75.98876953125
-65.91796875
-76.904296875
-65.00244140625
-69.580078125
-81.48193359375
-87.890625
-92.46826171875
-93.3837890625
-102.5390625
-102.5390625
-110.77880859375
-108.0322265625
-109.86328125
-110.77880859375
-100.7080078125
-123.59619140625
-135.498046875
-128.173828125
-126.3427734375
-121.76513671875
-119.93408203125
-119.93408203125
-119.0185546875
-121.76513671875
-116.27197265625
-128.173828125
-132.75146484375
-111.6943359375
-123.59619140625
-120.849609375
-111.6943359375
-109.86328125
-126.3427734375
-135.498046875
-133.6669921875
-129.08935546875
-130.92041015625
-140.07568359375
-128.173828125
-131.8359375
-136.41357421875
-146.484375
-157.470703125
-173.03466796875
-199.5849609375
-211.48681640625
-193.17626953125
-177.6123046875
-167.54150390625
-102.5390625
-17.39501953125
17.39501953125
93.3837890625
204.16259765625
313.1103515625
467.83447265625
645.44677734375
819.39697265625
997.00927734375
1118.7744140625
1217.6513671875
1290.8935546875
1340.33203125
1327.5146484375
1267.08984375
1063.8427734375
899.0478515625
729.67529296875
580.4443359375
415.6494140625
261.8408203125
135.498046875
42.1142578125
1.8310546875
-30.21240234375
-54.931640625
-96.13037109375
-109.86328125
-108.94775390625
-105.28564453125
-87.890625
-72.32666015625
-82.3974609375
-71.4111328125
-79.65087890625
-72.32666015625
-83.31298828125
-75.0732421875
-63.17138671875
-83.31298828125
-57.67822265625
-75.98876953125
-83.31298828125
-75.98876953125
-72.32666015625
-76.904296875
-81.48193359375
-89.7216796875
-84.228515625
-65.91796875
-62.255859375
-49.4384765625
-54.931640625
-61.34033203125
-75.0732421875
-59.50927734375
-47.607421875
-50.35400390625
-45.7763671875
-36.62109375
-35.70556640625
-36.62109375
-41.19873046875
-44.86083984375
-39.36767578125
-32.958984375
-28.38134765625
-26.55029296875
-28.38134765625
-19.22607421875
-10.07080078125
-6.40869140625
-6.40869140625
-10.986328125
8.23974609375
8.23974609375
18.310546875
23.8037109375
24.71923828125
5.4931640625
43.02978515625
53.1005859375
38.4521484375
41.19873046875
44.86083984375
53.1005859375
50.35400390625
65.91796875
60.4248046875
70.49560546875
73.2421875
66.83349609375
81.48193359375
96.13037109375
109.86328125
118.10302734375
114.44091796875
124.51171875
122.6806640625
142.822265625
143.73779296875
169.37255859375
157.470703125
167.54150390625
194.091796875
203.2470703125
212.40234375
217.8955078125
223.388671875
238.037109375
251.77001953125
256.34765625
264.58740234375
276.4892578125
312.19482421875
320.4345703125
311.279296875
324.0966796875
328.67431640625
342.4072265625
357.97119140625
364.3798828125
382.6904296875
395.5078125
399.169921875
394.59228515625
410.15625
427.55126953125
414.73388671875
411.07177734375
419.3115234375
422.05810546875
417.48046875
402.83203125
416.56494140625
402.83203125
396.42333984375
360.7177734375
351.5625
343.32275390625
329.58984375
351.5625
309.4482421875
273.74267578125
262.75634765625
232.5439453125
206.9091796875
182.18994140625
157.470703125
134.58251953125
110.77880859375
73.2421875
80.56640625
56.7626953125
67.7490234375
35.70556640625
33.87451171875
17.39501953125
0.91552734375
-14.6484375
-30.21240234375
-51.26953125
-38.4521484375
-35.70556640625
-50.35400390625
-52.18505859375
-62.255859375
-62.255859375
-76.904296875
-66.83349609375
-64.0869140625
-74.15771484375
-78.7353515625
-76.904296875
-85.14404296875
-82.3974609375
-83.31298828125
-93.3837890625
-94.29931640625
-83.31298828125
-84.228515625
-82.3974609375
-93.3837890625
-97.0458984375
-87.890625
-81.48193359375
-85.14404296875
-93.3837890625
-80.56640625
-90.63720703125
-86.0595703125
-79.65087890625
-86.97509765625
-75.98876953125
-73.2421875
-84.228515625
-86.97509765625
-83.31298828125
-96.13037109375
-101.62353515625
-90.63720703125
-79.65087890625
-77.81982421875
-73.2421875
-75.98876953125
-85.14404296875
-81.48193359375
-84.228515625
-81.48193359375
-75.0732421875
-65.91796875
-57.67822265625
-65.00244140625
-72.32666015625
-71.4111328125
-61.34033203125
-65.00244140625
-65.00244140625
-47.607421875
-47.607421875
-60.4248046875
-63.17138671875
-61.34033203125
-64.0869140625
-53.1005859375
-57.67822265625
-59.50927734375
-55.84716796875
-52.18505859375
-65.00244140625
-58.59375
-60.4248046875
-61.34033203125
-52.18505859375
-46.69189453125
-47.607421875
-54.01611328125
-46.69189453125
-51.26953125
-47.607421875
-57.67822265625
-54.01611328125
-53.1005859375
-64.0869140625
-65.00244140625
-67.7490234375
-79.65087890625
-69.580078125
-71.4111328125
-66.83349609375
-66.83349609375
-68.66455078125
-88.80615234375
-83.31298828125
-72.32666015625
-67.7490234375
-84.228515625
-72.32666015625
-69.580078125
-80.56640625
-86.0595703125
-83.31298828125
-90.63720703125
-86.97509765625
-89.7216796875
-87.890625
-94.29931640625
-89.7216796875
-85.14404296875
-85.14404296875
-78.7353515625
-76.904296875
-80.56640625
-82.3974609375
-83.31298828125
-88.80615234375
-97.0458984375
-94.29931640625
-89.7216796875
-86.0595703125
-90.63720703125
-97.0458984375
-108.0322265625
-101.62353515625
-109.86328125
-94.29931640625
-94.29931640625
-102.5390625
-98.876953125
-98.876953125
-97.0458984375
-102.5390625
-105.28564453125
-108.94775390625
-111.6943359375
-113.525390625
-108.0322265625
-119.93408203125
-113.525390625
-120.849609375
-127.25830078125
-123.59619140625
-120.849609375
-115.3564453125
-122.6806640625
-106.201171875
-117.1875
-121.76513671875
-118.10302734375
-123.59619140625
-113.525390625
-128.173828125
-130.0048828125
-119.93408203125
-113.525390625
-113.525390625
-101.62353515625
-114.44091796875
-111.6943359375
-116.27197265625
-116.27197265625
-114.44091796875
-101.62353515625
-113.525390625
-124.51171875
-118.10302734375
-114.44091796875
-109.86328125
-112.60986328125
-112.60986328125
-105.28564453125
-115.3564453125
-119.93408203125
-128.173828125
-127.25830078125
-119.93408203125
-120.849609375
-121.76513671875
-135.498046875
-140.07568359375
-131.8359375
-135.498046875
-120.849609375
-123.59619140625
-122.6806640625
-122.6806640625
-125.42724609375
-134.58251953125
-130.0048828125
-114.44091796875
-120.849609375
-109.86328125
-114.44091796875
-120.849609375
-124.51171875
-117.1875
-115.3564453125
-111.6943359375
-119.0185546875
-124.51171875
-111.6943359375
-90.63720703125
-100.7080078125
-98.876953125
-100.7080078125
-96.13037109375
-88.80615234375
-87.890625
-83.31298828125
-80.56640625
-78.7353515625
-75.98876953125
-74.15771484375
-86.0595703125
-90.63720703125
-78.7353515625
-89.7216796875
-85.14404296875
-73.2421875
-57.67822265625
-49.4384765625
-56.7626953125
-54.01611328125
-59.50927734375
-56.7626953125
-46.69189453125
-48.52294921875
-67.7490234375
-63.17138671875
-75.98876953125
-67.7490234375
-64.0869140625
-74.15771484375
-76.904296875
-79.65087890625
-76.904296875
-81.48193359375
-79.65087890625
-69.580078125
-82.3974609375
-94.29931640625
-87.890625
-83.31298828125
-103.45458984375
-113.525390625
-124.51171875
-120.849609375
-118.10302734375
-112.60986328125
-112.60986328125
-119.93408203125
-117.1875
-128.173828125
-133.6669921875
-126.3427734375
-131.8359375
-139.16015625
-114.44091796875
-123.59619140625
-136.41357421875
-123.59619140625
-120.849609375
-116.27197265625
-123.59619140625
-119.93408203125
-122.6806640625
-117.1875
-130.92041015625
-131.8359375
-123.59619140625
-120.849609375
-119.93408203125
-123.59619140625
-129.08935546875
-126.3427734375
-124.51171875
-136.41357421875
-152.89306640625
-158.38623046875
-179.443359375
-199.5849609375
-200.50048828125
-185.85205078125
-140.07568359375
-69.580078125
-14.6484375
30.21240234375
99.79248046875
190.4296875
309.4482421875
458.67919921875
645.44677734375
832.21435546875
1007.080078125
1137.0849609375
1232.2998046875
1306.45751953125
1376.953125
1366.88232421875
1291.80908203125
1114.19677734375
933.837890625
747.98583984375
591.4306640625
410.15625
256.34765625
139.16015625
50.35400390625
-7.32421875
-35.70556640625
-56.7626953125
-81.48193359375
-88.80615234375
-90.63720703125
-67.7490234375
-77.81982421875
-77.81982421875
-80.56640625
-81.48193359375
-71.4111328125
-47.607421875
-63.17138671875
-67.7490234375
-72.32666015625
-72.32666015625
-67.7490234375
-81.48193359375
-75.98876953125
-54.931640625
-72.32666015625
-79.65087890625
-75.98876953125
-75.98876953125
-65.00244140625
-70.49560546875
-72.32666015625
-70.49560546875
-76.904296875
-66.83349609375
-60.4248046875
-58.59375
-65.00244140625
-57.67822265625
-58.59375
-54.931640625
-54.01611328125
-59.50927734375
-53.1005859375
-43.9453125
-45.7763671875
-49.4384765625
-60.4248046875
-43.02978515625
-40.283203125
-45.7763671875
-44.86083984375
-28.38134765625
-22.88818359375
-31.1279296875
-32.04345703125
-19.22607421875
-17.39501953125
-19.22607421875
-17.39501953125
-2.74658203125
-5.4931640625
-3.662109375
-8.23974609375
-4.57763671875
4.57763671875
14.6484375
11.90185546875
0
10.07080078125
29.296875
34.7900390625
35.70556640625
49.4384765625
54.01611328125
52.18505859375
63.17138671875
73.2421875
84.228515625
91.552734375
93.3837890625
95.21484375
110.77880859375
130.92041015625
137.3291015625
142.822265625
144.6533203125
153.80859375
165.71044921875
178.52783203125
192.2607421875
200.50048828125
225.2197265625
231.62841796875
252.685546875
264.58740234375
275.57373046875
287.4755859375
292.96875
302.1240234375
318.603515625
326.84326171875
335.99853515625
370.78857421875
368.95751953125
370.78857421875
375.3662109375
383.60595703125
375.3662109375
391.845703125
394.59228515625
393.6767578125
396.42333984375
390.93017578125
386.3525390625
384.521484375
375.3662109375
368.0419921875
354.30908203125
338.7451171875
319.51904296875
296.630859375
281.06689453125
257.26318359375
238.037109375
209.65576171875
187.68310546875
166.6259765625
143.73779296875
121.76513671875
99.79248046875
74.15771484375
66.83349609375
51.26953125
31.1279296875
2.74658203125
2.74658203125
-7.32421875
-32.958984375
-45.7763671875
-51.26953125
-70.49560546875
-74.15771484375
-75.0732421875
-84.228515625
-80.56640625
-86.0595703125
-91.552734375
-86.0595703125
-86.0595703125
-93.3837890625
-98.876953125
-110.77880859375
-102.5390625
-105.28564453125
-106.201171875
-106.201171875
-102.5390625
-115.3564453125
-115.3564453125
-108.94775390625
-115.3564453125
-101.62353515625
-98.876953125
-98.876953125
-115.3564453125
-117.1875
-117.1875
-119.0185546875
-120.849609375
-108.94775390625
-104.3701171875
-125.42724609375
-121.76513671875
-119.0185546875
-126.3427734375
-120.849609375
-132.75146484375
-134.58251953125
-126.3427734375
-111.6943359375
-119.0185546875
-112.60986328125
-106.201171875
-119.93408203125
-122.6806640625
-121.76513671875
-119.0185546875
-117.1875
-134.58251953125
-127.25830078125
-107.11669921875
-113.525390625
-114.44091796875
-108.94775390625
-115.3564453125
-105.28564453125
-109.86328125
-109.86328125
-112.60986328125
-109.86328125
-109.86328125
-113.525390625
-105.28564453125
-95.21484375
-97.0458984375
-108.0322265625
-108.94775390625
-97.96142578125
-108.0322265625
-96.13037109375
-92.46826171875
-113.525390625
-114.44091796875
-99.79248046875
-106.201171875
-102.5390625
-108.0322265625
-106.201171875
-100.7080078125
-100.7080078125
-103.45458984375
-104.3701171875
-106.201171875
-111.6943359375
-108.94775390625
-110.77880859375
-113.525390625
-111.6943359375
-118.10302734375
-119.93408203125
-120.849609375
-108.0322265625
-108.94775390625
-112.60986328125
-111.6943359375
-103.45458984375
-111.6943359375
-120.849609375
-129.08935546875
-106.201171875
-112.60986328125
-113.525390625
-119.93408203125
-119.93408203125
-103.45458984375
-115.3564453125
-123.59619140625
-118.10302734375
-130.0048828125
-122.6806640625
-113.525390625
-122.6806640625
-122.6806640625
-114.44091796875
-120.849609375
-126.3427734375
-118.10302734375
-122.6806640625
-130.0048828125
-124.51171875
-126.3427734375
-123.59619140625
-125.42724609375
-127.25830078125
-127.25830078125
-122.6806640625
-127.25830078125
-139.16015625
-115.3564453125
-121.76513671875
-120.849609375
-130.0048828125
-119.93408203125
-123.59619140625
-130.0048828125
-132.75146484375
-135.498046875
-127.25830078125
-130.0048828125
-125.42724609375
-135.498046875
-134.58251953125
-130.0048828125
-141.90673828125
-141.90673828125
-122.6806640625
-132.75146484375
-129.08935546875
-120.849609375
-123.59619140625
-133.6669921875
-136.41357421875
-138.24462890625
-131.8359375
-137.3291015625
-127.25830078125
-123.59619140625
-130.0048828125
-135.498046875
-130.0048828125
-131.8359375
-135.498046875
-125.42724609375
-135.498046875
-134.58251953125
-131.8359375
-129.08935546875
-135.498046875
-132.75146484375
-125.42724609375
-130.92041015625
-131.8359375
-119.93408203125
-119.93408203125
-130.92041015625
-130.92041015625
-142.822265625
-130.92041015625
-125.42724609375
-132.75146484375
-129.08935546875
-124.51171875
-129.08935546875
-128.173828125
-133.6669921875
-129.08935546875
-125.42724609375
-120.849609375
-123.59619140625
-126.3427734375
-133.6669921875
-140.07568359375
-139.16015625
-124.51171875
-130.92041015625
-129.08935546875
-119.0185546875
-135.498046875
-148.3154296875
-149.23095703125
-135.498046875
-130.0048828125
-127.25830078125
-142.822265625
-131.8359375
-140.07568359375
-131.8359375
-126.3427734375
-128.173828125
-130.92041015625
-130.0048828125
-121.76513671875
-97.0458984375
-103.45458984375
-103.45458984375
-107.11669921875
-97.0458984375
-84.228515625
-83.31298828125
-92.46826171875
-96.13037109375
-91.552734375
-84.228515625
-80.56640625
-106.201171875
-109.86328125
-97.96142578125
-86.97509765625
-70.49560546875
-56.7626953125
-61.34033203125
-65.91796875
-65.91796875
-73.2421875
-79.65087890625
-86.97509765625
-83.31298828125
-89.7216796875
-81.48193359375
-94.29931640625
-100.7080078125
-91.552734375
-89.7216796875
-84.228515625
-83.31298828125
-92.46826171875
-87.890625
-91.552734375
-101.62353515625
-129.08935546875
-126.3427734375
-116.27197265625
-129.08935546875
-130.92041015625
-138.24462890625
-143.73779296875
-150.146484375
-166.6259765625
-167.54150390625
-151.9775390625
-150.146484375
-148.3154296875
-142.822265625
-144.6533203125
-146.484375
-148.3154296875
-136.41357421875
-139.16015625
-143.73779296875
-146.484375
-138.24462890625
-147.39990234375
-152.89306640625
-144.6533203125
-153.80859375
-141.90673828125
-141.90673828125
-139.16015625
-150.146484375
-144.6533203125
-146.484375
-148.3154296875
-160.21728515625
-152.89306640625
-148.3154296875
-159.3017578125
-171.20361328125
-185.85205078125
-198.66943359375
-229.79736328125
-216.97998046875
-188.5986328125
-160.21728515625
-113.525390625
-53.1005859375
16.4794921875
75.0732421875
151.06201171875
270.08056640625
420.22705078125
600.5859375
781.8603515625
975.9521484375
1128.84521484375
1243.2861328125
1321.10595703125
1419.98291015625
1447.44873046875
1387.939453125
1207.58056640625
1016.2353515625
823.974609375
652.77099609375
476.07421875
325.01220703125
210.5712890625
104.3701171875
32.04345703125
-18.310546875
-43.02978515625
-66.83349609375
-62.255859375
-49.4384765625
-46.69189453125
-33.87451171875
-43.9453125
-46.69189453125
-59.50927734375
-54.01611328125
-45.7763671875
-60.4248046875
-74.15771484375
-31.1279296875
-21.97265625
-42.1142578125
-58.59375
-53.1005859375
-49.4384765625
-43.02978515625
-49.4384765625
-60.4248046875
-61.34033203125
-47.607421875
-54.931640625
-63.17138671875
-53.1005859375
-9.1552734375
9.1552734375
-24.71923828125
-54.931640625
-75.0732421875
-56.7626953125
-38.4521484375
-48.52294921875
-57.67822265625
-33.87451171875
-32.04345703125
-13.73291015625
14.6484375
1.8310546875
17.39501953125
6.40869140625
4.57763671875
-40.283203125
-68.66455078125
-43.02978515625
-21.05712890625
-5.4931640625
-2.74658203125
-2.74658203125
-10.986328125
-6.40869140625
18.310546875
24.71923828125
33.87451171875
45.7763671875
71.4111328125
94.29931640625
69.580078125
43.02978515625
12.8173828125
45.7763671875
64.0869140625
68.66455078125
85.14404296875
61.34033203125
66.83349609375
49.4384765625
65.00244140625
118.10302734375
107.11669921875
124.51171875
111.6943359375
110.77880859375
140.9912109375
167.54150390625
120.849609375
100.7080078125
154.72412109375
182.18994140625
169.37255859375
149.23095703125
175.78125
257.26318359375
240.78369140625
241.69921875
243.5302734375
283.8134765625
266.41845703125
253.60107421875
282.89794921875
320.4345703125
348.81591796875
329.58984375
325.927734375
319.51904296875
344.23828125
349.7314453125
390.93017578125
362.548828125
367.12646484375
376.28173828125
378.11279296875
384.521484375
411.07177734375
433.9599609375
419.3115234375
437.6220703125
405.57861328125
365.29541015625
377.197265625
361.63330078125
348.81591796875
372.61962890625
325.01220703125
305.7861328125
249.0234375
252.685546875
259.09423828125
195.00732421875
167.54150390625
163.87939453125
154.72412109375
117.1875
114.44091796875
112.60986328125
108.94775390625
39.36767578125
1.8310546875
-31.1279296875
-28.38134765625
-45.7763671875
-75.98876953125
-29.296875
-74.15771484375
-76.904296875
-74.15771484375
-65.91796875
-54.931640625
-98.876953125
-107.11669921875
-66.83349609375
-99.79248046875
-100.7080078125
-78.7353515625
-119.93408203125
-132.75146484375
-147.39990234375
-79.65087890625
-121.76513671875
-138.24462890625
-154.72412109375
-130.0048828125
-132.75146484375
-128.173828125
-110.77880859375
-163.87939453125
-143.73779296875
-118.10302734375
-102.5390625
-104.3701171875
-107.11669921875
-136.41357421875
-173.9501953125
-127.25830078125
-162.9638671875
-113.525390625
-100.7080078125
-130.92041015625
-176.69677734375
-157.470703125
-164.794921875
-168.45703125
-135.498046875
-112.60986328125
-119.0185546875
-125.42724609375
-134.58251953125
-117.1875
-140.07568359375
-156.55517578125
-203.2470703125
-155.6396484375
-133.6669921875
-154.72412109375
-185.85205078125
-125.42724609375
-120.849609375
-185.85205078125
-166.6259765625
-148.3154296875
-119.93408203125
-110.77880859375
-153.80859375
-127.25830078125
-102.5390625
-108.94775390625
-143.73779296875
-151.06201171875
-214.2333984375
-159.3017578125
-130.92041015625
-100.7080078125
-100.7080078125
-100.7080078125
-109.86328125
-127.25830078125
-97.0458984375
-89.7216796875
-108.0322265625
-108.94775390625
-102.5390625
-140.07568359375
-151.06201171875
-140.9912109375
-110.77880859375
-87.890625
-103.45458984375
-111.6943359375
-112.60986328125
-97.0458984375
-118.10302734375
-104.3701171875
-93.3837890625
-86.0595703125
-85.14404296875
-71.4111328125
-90.63720703125
-85.14404296875
-80.56640625
-77.81982421875
-124.51171875
-111.6943359375
-95.21484375
-77.81982421875
-82.3974609375
-83.31298828125
-86.0595703125
-80.56640625
-75.0732421875
-87.890625
-110.77880859375
-86.97509765625
-69.580078125
-102.5390625
-115.3564453125
-94.29931640625
-91.552734375
-137.3291015625
-115.3564453125
-101.62353515625
-93.3837890625
-71.4111328125
-79.65087890625
-88.80615234375
-102.5390625
-107.11669921875
-97.96142578125
-90.63720703125
-85.14404296875
-107.11669921875
-93.3837890625
-98.876953125
-107.11669921875
-94.29931640625
-94.29931640625
-74.15771484375
-78.7353515625
-101.62353515625
-115.3564453125
-86.0595703125
-91.552734375
-97.96142578125
-101.62353515625
-99.79248046875
-91.552734375
-84.228515625
-84.228515625
-87.890625
-99.79248046875
-108.94775390625
-109.86328125
-84.228515625
-83.31298828125
-94.29931640625
-90.63720703125
-92.46826171875
-97.0458984375
-119.93408203125
-97.0458984375
-78.7353515625
-65.91796875
-54.931640625
-81.48193359375
-87.890625
-72.32666015625
-83.31298828125
-110.77880859375
-110.77880859375
-95.21484375
-101.62353515625
-83.31298828125
-95.21484375
-83.31298828125
-87.890625
-104.3701171875
-79.65087890625
-68.66455078125
-67.7490234375
-51.26953125
-68.66455078125
-90.63720703125
-71.4111328125
-61.34033203125
-68.66455078125
-89.7216796875
-75.98876953125
-86.97509765625
-90.63720703125
-98.876953125
-81.48193359375
-74.15771484375
-85.14404296875
-87.890625
-87.890625
-76.904296875
-76.904296875
-72.32666015625
-82.3974609375
-92.46826171875
-72.32666015625
-71.4111328125
-97.96142578125
-120.849609375
-124.51171875
-119.93408203125
-114.44091796875
-101.62353515625
-78.7353515625
-67.7490234375
-78.7353515625
-71.4111328125
-66.83349609375
-86.97509765625
-79.65087890625
-75.98876953125
-75.98876953125
-94.29931640625
-86.97509765625
-79.65087890625
-69.580078125
-71.4111328125
-71.4111328125
-89.7216796875
-92.46826171875
-80.56640625
-69.580078125
-74.15771484375
-71.4111328125
-50.35400390625
-82.3974609375
-86.97509765625
-65.00244140625
-32.958984375
-53.1005859375
-90.63720703125
-59.50927734375
-68.66455078125
-75.0732421875
-54.931640625
-47.607421875
-49.4384765625
-79.65087890625
-104.3701171875
-88.80615234375
-67.7490234375
-84.228515625
-103.45458984375
-108.0322265625
-119.93408203125
-121.76513671875
-117.1875
-131.8359375
-139.16015625
-119.93408203125
-119.93408203125
-127.25830078125
-139.16015625
-130.0048828125
-123.59619140625
-126.3427734375
-135.498046875
-130.92041015625
-142.822265625
-161.1328125
-148.3154296875
-134.58251953125
-119.93408203125
-104.3701171875
-113.525390625
-153.80859375
-152.89306640625
-151.06201171875
-147.39990234375
-154.72412109375
-147.39990234375
-112.60986328125
-88.80615234375
-99.79248046875
-127.25830078125
-129.08935546875
-153.80859375
-150.146484375
-140.9912109375
-140.9912109375
-166.6259765625
-210.5712890625
-205.99365234375
-192.2607421875
-196.83837890625
-173.9501953125
-128.173828125
-40.283203125
8.23974609375
27.4658203125
112.60986328125
250.8544921875
423.88916015625
570.37353515625
758.97216796875
922.8515625
1062.92724609375
1191.10107421875
1289.97802734375
1363.22021484375
1411.7431640625
1376.03759765625
1233.21533203125
1015.31982421875
835.87646484375
681.15234375
524.59716796875
345.15380859375
204.16259765625
86.0595703125
16.4794921875
-21.05712890625
-57.67822265625
-68.66455078125
-78.7353515625
-78.7353515625
-68.66455078125
-69.580078125
-65.00244140625
-93.3837890625
-86.97509765625
-83.31298828125
-73.2421875
-62.255859375
-56.7626953125
-87.890625
-105.28564453125
-78.7353515625
-61.34033203125
-79.65087890625
-97.96142578125
-106.201171875
-88.80615234375
-69.580078125
-82.3974609375
-74.15771484375
-63.17138671875
-51.26953125
-63.17138671875
-71.4111328125
-89.7216796875
-80.56640625
-77.81982421875
-86.97509765625
-81.48193359375
-85.14404296875
-94.29931640625
-82.3974609375
-67.7490234375
-50.35400390625
-57.67822265625
-68.66455078125
-75.98876953125
-53.1005859375
-42.1142578125
-39.36767578125
-61.34033203125
-64.0869140625
-55.84716796875
-54.01611328125
-60.4248046875
-49.4384765625
-50.35400390625
-52.18505859375
-48.52294921875
-46.69189453125
-21.97265625
5.4931640625
-15.56396484375
-26.55029296875
-20.1416015625
-14.6484375
-21.97265625
-27.4658203125
-24.71923828125
-14.6484375
-6.40869140625
0
13.73291015625
22.88818359375
21.97265625
32.04345703125
38.4521484375
25.634765625
37.53662109375
59.50927734375
75.0732421875
75.98876953125
85.14404296875
91.552734375
102.5390625
100.7080078125
106.201171875
113.525390625
128.173828125
151.9775390625
173.9501953125
190.4296875
197.75390625
217.8955078125
231.62841796875
238.95263671875
257.26318359375
248.10791015625
253.60107421875
281.06689453125
317.68798828125
313.1103515625
319.51904296875
333.251953125
343.32275390625
346.98486328125
347.900390625
355.224609375
369.873046875
359.80224609375
373.53515625
376.28173828125
388.18359375
396.42333984375
379.94384765625
360.7177734375
355.224609375
359.80224609375
337.82958984375
329.58984375
317.68798828125
294.7998046875
269.1650390625
250.8544921875
212.40234375
187.68310546875
163.87939453125
147.39990234375
139.16015625
110.77880859375
85.14404296875
67.7490234375
54.931640625
15.56396484375
16.4794921875
-4.57763671875
-28.38134765625
-43.9453125
-47.607421875
-54.01611328125
-54.01611328125
-57.67822265625
-63.17138671875
-76.904296875
-85.14404296875
-86.97509765625
-103.45458984375
-112.60986328125
-124.51171875
-124.51171875
-130.0048828125
-134.58251953125
-127.25830078125
-134.58251953125
-140.9912109375
-116.27197265625
-137.3291015625
-153.80859375
-140.07568359375
-137.3291015625
-151.06201171875
-140.07568359375
-138.24462890625
-141.90673828125
-143.73779296875
-126.3427734375
-132.75146484375
-142.822265625
-142.822265625
-140.07568359375
-146.484375
-148.3154296875
-155.6396484375
-152.89306640625
-152.89306640625
-146.484375
-140.07568359375
-136.41357421875
-124.51171875
-128.173828125
-137.3291015625
-152.89306640625
-138.24462890625
-136.41357421875
-151.9775390625
-143.73779296875
-127.25830078125
-129.08935546875
-127.25830078125
-143.73779296875
-144.6533203125
-135.498046875
-132.75146484375
-130.92041015625
-124.51171875
-129.08935546875
-130.0048828125
-138.24462890625
-128.173828125
-122.6806640625
-115.3564453125
-114.44091796875
-118.10302734375
-110.77880859375
-113.525390625
-117.1875
-111.6943359375
-111.6943359375
-100.7080078125
-111.6943359375
-118.10302734375
-120.849609375
-112.60986328125
-107.11669921875
-110.77880859375
-110.77880859375
-110.77880859375
-113.525390625
-108.94775390625
-114.44091796875
-116.27197265625
-113.525390625
-107.11669921875
-113.525390625
-107.11669921875
-108.94775390625
-112.60986328125
-112.60986328125
-113.525390625
-111.6943359375
-104.3701171875
-107.11669921875
-102.5390625
-95.21484375
-94.29931640625
-98.876953125
-113.525390625
-111.6943359375
-108.94775390625
-109.86328125
-105.28564453125
-104.3701171875
-108.0322265625
-97.0458984375
-98.876953125
-115.3564453125
-111.6943359375
-110.77880859375
-106.201171875
-110.77880859375
-118.10302734375
-108.94775390625
-107.11669921875
-119.0185546875
-119.93408203125
-123.59619140625
-131.8359375
-119.93408203125
-119.93408203125
-127.25830078125
-116.27197265625
-113.525390625
-119.93408203125
-120.849609375
-128.173828125
-123.59619140625
-127.25830078125
-130.92041015625
-132.75146484375
-122.6806640625
-125.42724609375
-137.3291015625
-129.08935546875
-121.76513671875
-122.6806640625
-122.6806640625
-119.93408203125
-119.93408203125
-112.60986328125
-116.27197265625
-127.25830078125
-129.08935546875
-116.27197265625
-108.94775390625
-115.3564453125
-115.3564453125
-115.3564453125
-120.849609375
-114.44091796875
-111.6943359375
-127.25830078125
-133.6669921875
-113.525390625
-89.7216796875
-86.97509765625
-84.228515625
-83.31298828125
-97.0458984375
-97.0458984375
-78.7353515625
-75.0732421875
-86.0595703125
-82.3974609375
-74.15771484375
-93.3837890625
-95.21484375
-81.48193359375
-84.228515625
-71.4111328125
-72.32666015625
-60.4248046875
-57.67822265625
-60.4248046875
-60.4248046875
-59.50927734375
-69.580078125
-54.931640625
-66.83349609375
-75.0732421875
-68.66455078125
-56.7626953125
-60.4248046875
-53.1005859375
-57.67822265625
-73.2421875
-73.2421875
-64.0869140625
-74.15771484375
-76.904296875
-101.62353515625
-111.6943359375
-95.21484375
-104.3701171875
-114.44091796875
-114.44091796875
-125.42724609375
-129.08935546875
-132.75146484375
-123.59619140625
-128.173828125
-130.0048828125
-139.16015625
-138.24462890625
-132.75146484375
-128.173828125
-129.08935546875
-140.9912109375
-131.8359375
-134.58251953125
-133.6669921875
-131.8359375
-144.6533203125
-135.498046875
-119.93408203125
-126.3427734375
-144.6533203125
-125.42724609375
-138.24462890625
-137.3291015625
-133.6669921875
-143.73779296875
-138.24462890625
-139.16015625
-141.90673828125
-145.56884765625
-142.822265625
-146.484375
-180.35888671875
-193.17626953125
-199.5849609375
-212.40234375
-201.416015625
-172.119140625
-123.59619140625
-46.69189453125
0.91552734375
44.86083984375
122.6806640625
237.12158203125
371.7041015625
545.654296875
739.74609375
915.52734375
1079.40673828125
1197.509765625
1291.80908203125
1385.19287109375
1423.64501953125
1380.615234375
1235.04638671875
1021.728515625
838.623046875
662.841796875
484.31396484375
306.70166015625
193.17626953125
85.14404296875
15.56396484375
-32.958984375
-55.84716796875
-85.14404296875
-101.62353515625
-87.890625
-74.15771484375
-64.0869140625
-63.17138671875
-75.98876953125
-70.49560546875
-65.91796875
-72.32666015625
-66.83349609375
-64.0869140625
-77.81982421875
-78.7353515625
-72.32666015625
-75.0732421875
-74.15771484375
-73.2421875
-75.98876953125
-80.56640625
-86.97509765625
-82.3974609375
-99.79248046875
-120.849609375
-89.7216796875
-55.84716796875
-69.580078125
-95.21484375
-97.96142578125
-88.80615234375
-76.904296875
-78.7353515625
-67.7490234375
-81.48193359375
-101.62353515625
-75.98876953125
-29.296875
-40.283203125
-55.84716796875
-43.9453125
-43.02978515625
-52.18505859375
-48.52294921875
-41.19873046875
-44.86083984375
-33.87451171875
-37.53662109375
-29.296875
-15.56396484375
-17.39501953125
-24.71923828125
-13.73291015625
-19.22607421875
-24.71923828125
-21.05712890625
-28.38134765625
-21.05712890625
-4.57763671875
-9.1552734375
2.74658203125
13.73291015625
11.90185546875
40.283203125
38.4521484375
28.38134765625
26.55029296875
26.55029296875
41.19873046875
51.26953125
65.00244140625
83.31298828125
80.56640625
90.63720703125
83.31298828125
91.552734375
120.849609375
135.498046875
147.39990234375
159.3017578125
159.3017578125
162.04833984375
180.35888671875
188.5986328125
193.17626953125
210.5712890625
234.375
236.2060546875
227.05078125
250.8544921875
273.74267578125
281.06689453125
305.7861328125
319.51904296875
320.4345703125
311.279296875
331.4208984375
363.46435546875
356.14013671875
356.14013671875
386.3525390625
395.5078125
393.6767578125
399.169921875
388.18359375
391.845703125
388.18359375
378.11279296875
368.0419921875
367.12646484375
355.224609375
348.81591796875
335.99853515625
314.94140625
288.39111328125
281.06689453125
259.09423828125
251.77001953125
230.712890625
199.5849609375
176.69677734375
140.9912109375
121.76513671875
104.3701171875
90.63720703125
74.15771484375
50.35400390625
12.8173828125
0
-0.91552734375
-11.90185546875
-28.38134765625
-39.36767578125
-48.52294921875
-60.4248046875
-65.91796875
-74.15771484375
-95.21484375
-101.62353515625
-80.56640625
-94.29931640625
-95.21484375
-85.14404296875
-102.5390625
-107.11669921875
-126.3427734375
-110.77880859375
-110.77880859375
-106.201171875
-109.86328125
-110.77880859375
-99.79248046875
-103.45458984375
-121.76513671875
-118.10302734375
-119.0185546875
-123.59619140625
-134.58251953125
-120.849609375
-115.3564453125
-106.201171875
-102.5390625
-110.77880859375
-118.10302734375
-122.6806640625
-128.173828125
-121.76513671875
-121.76513671875
-117.1875
-113.525390625
-104.3701171875
-107.11669921875
-112.60986328125
-110.77880859375
-119.93408203125
-125.42724609375
-110.77880859375
-102.5390625
-97.0458984375
-97.0458984375
-115.3564453125
-124.51171875
-109.86328125
-87.890625
-97.0458984375
-106.201171875
-97.96142578125
-94.29931640625
-103.45458984375
-90.63720703125
-99.79248046875
-107.11669921875
-110.77880859375
-96.13037109375
-97.0458984375
-115.3564453125
-132.75146484375
-131.8359375
-124.51171875
-97.0458984375
-99.79248046875
-108.0322265625
-100.7080078125
-89.7216796875
-108.0322265625
-99.79248046875
-102.5390625
-113.525390625
-109.86328125
-104.3701171875
-109.86328125
-105.28564453125
-95.21484375
-99.79248046875
-88.80615234375
-79.65087890625
-86.97509765625
-92.46826171875
-97.0458984375
-94.29931640625
-105.28564453125
-117.1875
-109.86328125
-99.79248046875
-89.7216796875
-106.201171875
-117.1875
-107.11669921875
-96.13037109375
-94.29931640625
-101.62353515625
-111.6943359375
-98.876953125
-93.3837890625
-99.79248046875
-107.11669921875
-100.7080078125
-103.45458984375
-96.13037109375
-107.11669921875
-104.3701171875
-112.60986328125
-117.1875
-108.0322265625
-108.0322265625
-130.92041015625
-130.92041015625
-119.93408203125
-122.6806640625
-116.27197265625
-124.51171875
-109.86328125
-109.86328125
-124.51171875
-100.7080078125
-92.46826171875
-110.77880859375
-124.51171875
-126.3427734375
-123.59619140625
-129.08935546875
-130.92041015625
-113.525390625
-126.3427734375
-125.42724609375
-115.3564453125
-121.76513671875
-120.849609375
-122.6806640625
-120.849609375
-115.3564453125
-116.27197265625
-101.62353515625
-85.14404296875
-85.14404296875
-72.32666015625
-75.98876953125
-81.48193359375
-88.80615234375
-62.255859375
-67.7490234375
-61.34033203125
-69.580078125
-74.15771484375
-86.0595703125
-88.80615234375
-86.0595703125
-76.904296875
-68.66455078125
-66.83349609375
-48.52294921875
-36.62109375
-42.1142578125
-51.26953125
-52.18505859375
-46.69189453125
-28.38134765625
-32.958984375
-37.53662109375
-47.607421875
-48.52294921875
-54.931640625
-72.32666015625
-81.48193359375
-78.7353515625
-95.21484375
-82.3974609375
-78.7353515625
-80.56640625
-78.7353515625
-70.49560546875
-75.0732421875
-79.65087890625
-80.56640625
-108.0322265625
-109.86328125
-117.1875
-119.0185546875
-105.28564453125
-102.5390625
-106.201171875
-118.10302734375
-118.10302734375
-113.525390625
-126.3427734375
-130.0048828125
-127.25830078125
-124.51171875
-141.90673828125
-140.9912109375
-139.16015625
-130.0048828125
-133.6669921875
-118.10302734375
-112.60986328125
-116.27197265625
-108.0322265625
-117.1875
-142.822265625
-134.58251953125
-135.498046875
-139.16015625
-112.60986328125
-120.849609375
-150.146484375
-151.9775390625
-136.41357421875
-150.146484375
-173.9501953125
-200.50048828125
-218.81103515625
-212.40234375
-192.2607421875
-142.822265625
-61.34033203125
-9.1552734375
22.88818359375
75.0732421875
179.443359375
296.630859375
452.2705078125
653.6865234375
840.4541015625
1043.701171875
1200.25634765625
1285.400390625
1367.7978515625
1436.46240234375
1461.181640625
1379.69970703125
1162.7197265625
953.9794921875
761.71875
585.9375
401.91650390625
260.92529296875
143.73779296875
47.607421875
9.1552734375
-23.8037109375
-58.59375
-81.48193359375
-78.7353515625
-68.66455078125
-58.59375
-69.580078125
-72.32666015625
-60.4248046875
-71.4111328125
-74.15771484375
-55.84716796875
-64.0869140625
-61.34033203125
-54.931640625
-69.580078125
-68.66455078125
-67.7490234375
-77.81982421875
-82.3974609375
-79.65087890625
-79.65087890625
-79.65087890625
-72.32666015625
-61.34033203125
-60.4248046875
-65.91796875
-74.15771484375
-70.49560546875
-58.59375
-76.904296875
-70.49560546875
-57.67822265625
-56.7626953125
-60.4248046875
-50.35400390625
-57.67822265625
-58.59375
-55.84716796875
-51.26953125
-50.35400390625
-59.50927734375
-52.18505859375
-40.283203125
-48.52294921875
-37.53662109375
-42.1142578125
-54.01611328125
-43.02978515625
-30.21240234375
-31.1279296875
-40.283203125
-27.4658203125
-23.8037109375
-24.71923828125
-30.21240234375
-10.07080078125
-16.4794921875
-1.8310546875
-3.662109375
-8.23974609375
-2.74658203125
0
9.1552734375
21.05712890625
23.8037109375
28.38134765625
22.88818359375
43.9453125
40.283203125
43.02978515625
60.4248046875
58.59375
72.32666015625
81.48193359375
108.94775390625
117.1875
119.0185546875
127.25830078125
145.56884765625
164.794921875
189.51416015625
170.2880859375
185.85205078125
208.740234375
220.64208984375
227.96630859375
238.95263671875
249.0234375
264.58740234375
281.06689453125
290.22216796875
297.54638671875
303.03955078125
310.36376953125
330.50537109375
340.576171875
346.98486328125
353.3935546875
368.0419921875
388.18359375
381.77490234375
390.93017578125
394.59228515625
388.18359375
400.08544921875
396.42333984375
393.6767578125
388.18359375
376.28173828125
368.0419921875
355.224609375
338.7451171875
325.01220703125
307.6171875
283.8134765625
253.60107421875
226.13525390625
203.2470703125
188.5986328125
171.20361328125
146.484375
127.25830078125
104.3701171875
86.0595703125
69.580078125
48.52294921875
34.7900390625
15.56396484375
2.74658203125
-6.40869140625
-33.87451171875
-37.53662109375
-41.19873046875
-58.59375
-56.7626953125
-65.00244140625
-70.49560546875
-79.65087890625
-87.890625
-93.3837890625
-88.80615234375
-91.552734375
-91.552734375
-104.3701171875
-105.28564453125
-107.11669921875
-101.62353515625
-98.876953125
-102.5390625
-99.79248046875
-106.201171875
-103.45458984375
-97.96142578125
-97.96142578125
-107.11669921875
-113.525390625
-110.77880859375
-103.45458984375
-99.79248046875
-103.45458984375
-104.3701171875
-105.28564453125
-99.79248046875
-101.62353515625
-109.86328125
-108.0322265625
-103.45458984375
-102.5390625
-100.7080078125
-98.876953125
-95.21484375
-102.5390625
-116.27197265625
-115.3564453125
-110.77880859375
-106.201171875
-101.62353515625
-96.13037109375
-97.0458984375
-99.79248046875
-97.96142578125
-102.5390625
-96.13037109375
-100.7080078125
-108.94775390625
-110.77880859375
-100.7080078125
-98.876953125
-111.6943359375
-109.86328125
-94.29931640625
-79.65087890625
-81.48193359375
-68.66455078125
-90.63720703125
-96.13037109375
-82.3974609375
-91.552734375
-85.14404296875
-71.4111328125
-86.97509765625
-94.29931640625
-95.21484375
-96.13037109375
-109.86328125
-96.13037109375
-77.81982421875
-86.97509765625
-86.0595703125
-79.65087890625
-90.63720703125
-87.890625
-77.81982421875
-95.21484375
-95.21484375
-90.63720703125
-99.79248046875
-97.0458984375
-92.46826171875
-98.876953125
-96.13037109375
-109.86328125
-105.28564453125
-100.7080078125
-97.0458984375
-96.13037109375
-97.96142578125
-86.97509765625
-103.45458984375
-107.11669921875
-119.93408203125
-113.525390625
-106.201171875
-56.7626953125
-75.0732421875
-104.3701171875
-117.1875
-83.31298828125
-74.15771484375
-79.65087890625
-84.228515625
-111.6943359375
-146.484375
-111.6943359375
-51.26953125
-69.580078125
-70.49560546875
-88.80615234375
-100.7080078125
-65.00244140625
-81.48193359375
-100.7080078125
-90.63720703125
-76.904296875
-98.876953125
-102.5390625
-99.79248046875
-92.46826171875
-97.0458984375
-110.77880859375
-100.7080078125
-92.46826171875
-101.62353515625
-115.3564453125
-109.86328125
-106.201171875
-97.96142578125
-105.28564453125
-116.27197265625
-99.79248046875
-75.98876953125
-75.98876953125
-105.28564453125
-114.44091796875
-113.525390625
-121.76513671875
-114.44091796875
-87.890625
-89.7216796875
-92.46826171875
-88.80615234375
-102.5390625
-104.3701171875
-97.0458984375
-89.7216796875
-98.876953125
-109.86328125
-99.79248046875
-96.13037109375
-78.7353515625
-71.4111328125
-74.15771484375
-79.65087890625
-89.7216796875
-90.63720703125
-92.46826171875
-80.56640625
-68.66455078125
-69.580078125
-70.49560546875
-63.17138671875
-56.7626953125
-67.7490234375
-57.67822265625
-66.83349609375
-65.91796875
-63.17138671875
-60.4248046875
-65.91796875
-69.580078125
-56.7626953125
-44.86083984375
-38.4521484375
-43.9453125
-44.86083984375
-32.958984375
-30.21240234375
-45.7763671875
-60.4248046875
-47.607421875
-29.296875
-28.38134765625
-34.7900390625
-38.4521484375
-48.52294921875
-43.02978515625
-43.9453125
-54.931640625
-57.67822265625
-61.34033203125
-79.65087890625
-86.97509765625
-83.31298828125
-80.56640625
-86.0595703125
-102.5390625
-99.79248046875
-97.0458984375
-109.86328125
-118.10302734375
-109.86328125
-112.60986328125
-109.86328125
-110.77880859375
-102.5390625
-101.62353515625
-100.7080078125
-101.62353515625
-90.63720703125
-91.552734375
-94.29931640625
-103.45458984375
-98.876953125
-106.201171875
-107.11669921875
-112.60986328125
-101.62353515625
-97.0458984375
-103.45458984375
-105.28564453125
-101.62353515625
-107.11669921875
-101.62353515625
-97.96142578125
-108.94775390625
-118.10302734375
-123.59619140625
-140.07568359375
-162.9638671875
-171.20361328125
-164.794921875
-172.119140625
-169.37255859375
-146.484375
-110.77880859375
-68.66455078125
-1.8310546875
57.67822265625
125.42724609375
238.037109375
389.09912109375
561.21826171875
752.5634765625
925.59814453125
1091.30859375
1233.21533203125
1337.58544921875
1410.82763671875
1462.09716796875
1428.22265625
1302.79541015625
1083.06884765625
882.568359375
702.20947265625
532.8369140625
359.80224609375
228.8818359375
130.92041015625
53.1005859375
15.56396484375
-13.73291015625
-37.53662109375
-70.49560546875
-65.91796875
-66.83349609375
-72.32666015625
-61.34033203125
-41.19873046875
-46.69189453125
-55.84716796875
-46.69189453125
-37.53662109375
-33.87451171875
-27.4658203125
-35.70556640625
-55.84716796875
-53.1005859375
-56.7626953125
-67.7490234375
-71.4111328125
-83.31298828125
-68.66455078125
-65.91796875
-63.17138671875
-57.67822265625
-55.84716796875
-54.01611328125
-62.255859375
-73.2421875
-89.7216796875
-75.0732421875
-47.607421875
-64.0869140625
-61.34033203125
-56.7626953125
-53.1005859375
-39.36767578125
-58.59375
-51.26953125
-39.36767578125
-43.02978515625
-50.35400390625
-38.4521484375
-34.7900390625
-32.958984375
-32.04345703125
-32.04345703125
-26.55029296875
-31.1279296875
-19.22607421875
-13.73291015625
-30.21240234375
-29.296875
-10.986328125
12.8173828125
15.56396484375
11.90185546875
1.8310546875
13.73291015625
10.986328125
14.6484375
20.1416015625
35.70556640625
40.283203125
38.4521484375
42.1142578125
43.02978515625
47.607421875
49.4384765625
68.66455078125
85.14404296875
93.3837890625
97.0458984375
91.552734375
106.201171875
119.93408203125
123.59619140625
147.39990234375
153.80859375
165.71044921875
173.03466796875
183.10546875
199.5849609375
204.16259765625
214.2333984375
208.740234375
237.12158203125
268.24951171875
265.5029296875
290.22216796875
286.56005859375
297.54638671875
314.94140625
334.16748046875
350.64697265625
367.12646484375
363.46435546875
369.873046875
379.94384765625
388.18359375
381.77490234375
392.76123046875
405.57861328125
405.57861328125
401.0009765625
408.3251953125
407.40966796875
397.3388671875
375.3662109375
373.53515625
376.28173828125
369.873046875
352.47802734375
345.15380859375
329.58984375
314.94140625
286.56005859375
257.26318359375
240.78369140625
225.2197265625
195.00732421875
172.119140625
142.822265625
118.10302734375
108.0322265625
84.228515625
59.50927734375
45.7763671875
33.87451171875
14.6484375
10.986328125
10.986328125
1.8310546875
-5.4931640625
-14.6484375
-25.634765625
-32.04345703125
-35.70556640625
-50.35400390625
-57.67822265625
-52.18505859375
-54.931640625
-72.32666015625
-71.4111328125
-75.98876953125
-75.0732421875
-82.3974609375
-82.3974609375
-93.3837890625
-94.29931640625
-93.3837890625
-84.228515625
-89.7216796875
-107.11669921875
-95.21484375
-102.5390625
-106.201171875
-104.3701171875
-105.28564453125
-94.29931640625
-92.46826171875
-108.0322265625
-108.94775390625
-120.849609375
-109.86328125
-93.3837890625
-105.28564453125
-119.93408203125
-120.849609375
-101.62353515625
-95.21484375
-111.6943359375
-120.849609375
-120.849609375
-116.27197265625
-121.76513671875
-112.60986328125
-107.11669921875
-123.59619140625
-130.0048828125
-128.173828125
-114.44091796875
-113.525390625
-119.93408203125
-114.44091796875
-109.86328125
-110.77880859375
-122.6806640625
-113.525390625
-106.201171875
-109.86328125
-109.86328125
-106.201171875
-119.0185546875
-121.76513671875
-123.59619140625
-115.3564453125
-123.59619140625
-116.27197265625
-127.25830078125
-132.75146484375
-124.51171875
-124.51171875
-130.0048828125
-118.10302734375
-108.0322265625
-116.27197265625
-126.3427734375
-138.24462890625
-127.25830078125
-115.3564453125
-119.0185546875
-126.3427734375
-124.51171875
-123.59619140625
-121.76513671875
-122.6806640625
-135.498046875
-143.73779296875
-108.94775390625
-107.11669921875
-120.849609375
-124.51171875
-121.76513671875
-117.1875
-106.201171875
-105.28564453125
-113.525390625
-120.849609375
-131.8359375
-128.173828125
-130.92041015625
-128.173828125
-119.93408203125
-123.59619140625
-130.0048828125
-125.42724609375
-125.42724609375
-126.3427734375
-127.25830078125
-123.59619140625
-119.0185546875
-119.93408203125
-113.525390625
-119.93408203125
-128.173828125
-120.849609375
-125.42724609375
-130.0048828125
-142.822265625
-133.6669921875
-120.849609375
-123.59619140625
-119.93408203125
-125.42724609375
-131.8359375
-130.0048828125
-130.0048828125
-139.16015625
-144.6533203125
-147.39990234375
-142.822265625
-140.9912109375
-127.25830078125
-136.41357421875
-134.58251953125
-141.90673828125
-132.75146484375
-133.6669921875
-141.90673828125
-145.56884765625
-125.42724609375
-132.75146484375
-130.92041015625
-127.25830078125
-138.24462890625
-142.822265625
-146.484375
-141.90673828125
-139.16015625
-134.58251953125
-122.6806640625
-130.0048828125
-138.24462890625
-132.75146484375
-122.6806640625
-129.08935546875
-132.75146484375
-137.3291015625
-138.24462890625
-130.92041015625
-140.07568359375
-139.16015625
-138.24462890625
-149.23095703125
-136.41357421875
-119.0185546875
-140.07568359375
-145.56884765625
-149.23095703125
-159.3017578125
-125.42724609375
-126.3427734375
-133.6669921875
-142.822265625
-128.173828125
-126.3427734375
-133.6669921875
-149.23095703125
-144.6533203125
-134.58251953125
-132.75146484375
-126.3427734375
-123.59619140625
-122.6806640625
-123.59619140625
-119.0185546875
-104.3701171875
-110.77880859375
-106.201171875
-111.6943359375
-104.3701171875
-95.21484375
-101.62353515625
-104.3701171875
-111.6943359375
-108.0322265625
-105.28564453125
-115.3564453125
-114.44091796875
-101.62353515625
-90.63720703125
-89.7216796875
-73.2421875
-64.0869140625
-68.66455078125
-76.904296875
-79.65087890625
-70.49560546875
-69.580078125
-65.00244140625
-77.81982421875
-90.63720703125
-75.0732421875
-75.0732421875
-77.81982421875
-81.48193359375
-85.14404296875
-86.0595703125
-84.228515625
-82.3974609375
-86.0595703125
-90.63720703125
-95.21484375
-97.0458984375
-103.45458984375
-108.0322265625
-105.28564453125
-118.10302734375
-127.25830078125
-132.75146484375
-130.92041015625
-130.0048828125
-130.92041015625
-133.6669921875
-139.16015625
-149.23095703125
-141.90673828125
-139.16015625
-134.58251953125
-128.173828125
-143.73779296875
-139.16015625
-140.9912109375
-143.73779296875
-141.90673828125
-144.6533203125
-147.39990234375
-139.16015625
-135.498046875
-140.07568359375
-140.07568359375
-141.90673828125
-142.822265625
-140.9912109375
-151.06201171875
-140.9912109375
-136.41357421875
-144.6533203125
-148.3154296875
-147.39990234375
-168.45703125
-189.51416015625
-204.16259765625
-227.05078125
-202.33154296875
-160.21728515625
-118.10302734375
-59.50927734375
-10.07080078125
43.02978515625
110.77880859375
193.17626953125
338.7451171875
510.8642578125
695.80078125
888.97705078125
1053.77197265625
1166.3818359375
1248.779296875
1322.021484375
1384.27734375
1355.89599609375
1214.90478515625
1002.50244140625
822.1435546875
655.517578125
489.80712890625
310.36376953125
184.02099609375
84.228515625
14.6484375
-30.21240234375
-38.4521484375
-63.17138671875
-109.86328125
-107.11669921875
-93.3837890625
-100.7080078125
-99.79248046875
-75.98876953125
-76.904296875
-82.3974609375
-83.31298828125
-84.228515625
-87.890625
-81.48193359375
-79.65087890625
-78.7353515625
-90.63720703125
-86.0595703125
-86.97509765625
-77.81982421875
-76.904296875
-80.56640625
-85.14404296875
-85.14404296875
-91.552734375
-98.876953125
-96.13037109375
-84.228515625
-78.7353515625
-75.0732421875
-66.83349609375
-73.2421875
-70.49560546875
-53.1005859375
-56.7626953125
-58.59375
-54.931640625
-49.4384765625
-46.69189453125
-49.4384765625
-49.4384765625
-50.35400390625
-46.69189453125
-44.86083984375
-47.607421875
-53.1005859375
-46.69189453125
-42.1142578125
-40.283203125
-44.86083984375
-47.607421875
-38.4521484375
-27.4658203125
-15.56396484375
-26.55029296875
-28.38134765625
-15.56396484375
-5.4931640625
-0.91552734375
6.40869140625
13.73291015625
14.6484375
16.4794921875
12.8173828125
10.07080078125
24.71923828125
42.1142578125
43.02978515625
50.35400390625
53.1005859375
51.26953125
64.0869140625
71.4111328125
77.81982421875
91.552734375
103.45458984375
99.79248046875
112.60986328125
113.525390625
123.59619140625
129.08935546875
151.06201171875
171.20361328125
181.2744140625
178.52783203125
184.9365234375
209.65576171875
222.47314453125
233.45947265625
247.1923828125
263.671875
270.08056640625
269.1650390625
281.06689453125
307.6171875
311.279296875
320.4345703125
326.84326171875
343.32275390625
355.224609375
364.3798828125
357.0556640625
350.64697265625
359.80224609375
363.46435546875
371.7041015625
378.11279296875
380.859375
376.28173828125
379.94384765625
367.12646484375
346.0693359375
324.0966796875
326.84326171875
310.36376953125
294.7998046875
271.91162109375
260.92529296875
251.77001953125
209.65576171875
182.18994140625
153.80859375
140.07568359375
124.51171875
87.890625
65.00244140625
43.9453125
30.21240234375
17.39501953125
10.07080078125
-14.6484375
-30.21240234375
-26.55029296875
-15.56396484375
-15.56396484375
-34.7900390625
-34.7900390625
-51.26953125
-54.931640625
-54.931640625
-58.59375
-81.48193359375
-75.0732421875
-78.7353515625
-80.56640625
-85.14404296875
-79.65087890625
-82.3974609375
-76.904296875
-83.31298828125
-102.5390625
-94.29931640625
-90.63720703125
-90.63720703125
-97.0458984375
-91.552734375
-85.14404296875
-101.62353515625
-119.0185546875
-91.552734375
-80.56640625
-99.79248046875
-106.201171875
-99.79248046875
-108.0322265625
-85.14404296875
-96.13037109375
-100.7080078125
-115.3564453125
-130.92041015625
-90.63720703125
-76.904296875
-86.0595703125
-87.890625
-86.0595703125
-78.7353515625
-81.48193359375
-82.3974609375
-86.0595703125
-99.79248046875
-97.0458984375
-86.0595703125
-87.890625
-98.876953125
-88.80615234375
-86.97509765625
-85.14404296875
-93.3837890625
-94.29931640625
-87.890625
-101.62353515625
-88.80615234375
-84.228515625
-84.228515625
-92.46826171875
-84.228515625
-84.228515625
-69.580078125
-64.0869140625
-74.15771484375
-85.14404296875
-95.21484375
-89.7216796875
-86.97509765625
-80.56640625
-92.46826171875
-87.890625
-90.63720703125
-75.98876953125
-75.98876953125
-87.890625
-91.552734375
-110.77880859375
-91.552734375
-84.228515625
-95.21484375
-108.0322265625
-84.228515625
-96.13037109375
-84.228515625
-83.31298828125
-70.49560546875
-86.97509765625
-92.46826171875
-91.552734375
-84.228515625
-80.56640625
-97.96142578125
-101.62353515625
-82.3974609375
-91.552734375
-96.13037109375
-103.45458984375
-105.28564453125
-108.94775390625
-104.3701171875
-107.11669921875
-105.28564453125
-110.77880859375
-97.96142578125
-97.0458984375
-98.876953125
-90.63720703125
-95.21484375
-94.29931640625
-105.28564453125
-105.28564453125
-100.7080078125
-105.28564453125
-104.3701171875
-118.10302734375
-98.876953125
-104.3701171875
-87.890625
-84.228515625
-94.29931640625
-92.46826171875
-87.890625
-104.3701171875
-106.201171875
-107.11669921875
-106.201171875
-96.13037109375
-104.3701171875
-114.44091796875
-122.6806640625
-107.11669921875
-108.0322265625
-98.876953125
-76.904296875
-87.890625
-94.29931640625
-101.62353515625
-108.0322265625
-99.79248046875
-107.11669921875
-119.93408203125
-117.1875
-95.21484375
-98.876953125
-95.21484375
-101.62353515625
-117.1875
-110.77880859375
-105.28564453125
-102.5390625
-97.96142578125
-104.3701171875
-109.86328125
-111.6943359375
-110.77880859375
-110.77880859375
-102.5390625
-96.13037109375
-88.80615234375
-92.46826171875
-108.0322265625
-118.10302734375
-126.3427734375
-119.93408203125
-112.60986328125
-101.62353515625
-116.27197265625
-107.11669921875
-97.0458984375
-101.62353515625
-103.45458984375
-103.45458984375
-94.29931640625
-88.80615234375
-89.7216796875
-94.29931640625
-78.7353515625
-74.15771484375
-82.3974609375
-86.97509765625
-70.49560546875
-65.91796875
-70.49560546875
-75.0732421875
-73.2421875
-69.580078125
-86.0595703125
-102.5390625
-86.0595703125
-71.4111328125
-64.0869140625
-48.52294921875
-47.607421875
-41.19873046875
-46.69189453125
-56.7626953125
-58.59375
-56.7626953125
-50.35400390625
-55.84716796875
-54.931640625
-47.607421875
-52.18505859375
-61.34033203125
-55.84716796875
-51.26953125
-49.4384765625
-50.35400390625
-66.83349609375
-72.32666015625
-88.80615234375
-88.80615234375
-90.63720703125
-95.21484375
-99.79248046875
-109.86328125
-117.1875
-118.10302734375
-126.3427734375
-117.1875
-123.59619140625
-131.8359375
-125.42724609375
-115.3564453125
-120.849609375
-122.6806640625
-122.6806640625
-118.10302734375
-117.1875
-131.8359375
-131.8359375
-117.1875
-130.0048828125
-139.16015625
-141.90673828125
-133.6669921875
-124.51171875
-122.6806640625
-111.6943359375
-105.28564453125
-119.93408203125
-121.76513671875
-135.498046875
-136.41357421875
-132.75146484375
-130.92041015625
-140.9912109375
-139.16015625
-131.8359375
-148.3154296875
-182.18994140625
-197.75390625
-205.99365234375
-215.14892578125
-209.65576171875
-171.20361328125
-110.77880859375
-47.607421875
10.986328125
66.83349609375
149.23095703125
271.91162109375
418.39599609375
592.34619140625
766.29638671875
929.26025390625
1072.998046875
1187.43896484375
1257.01904296875
1310.11962890625
1332.09228515625
1265.2587890625
1092.22412109375
918.27392578125
735.16845703125
568.54248046875
418.39599609375
279.23583984375
144.6533203125
40.283203125
0
-26.55029296875
-48.52294921875
-74.15771484375
-93.3837890625
-107.11669921875
-111.6943359375
-109.86328125
-101.62353515625
-97.0458984375
-94.29931640625
-89.7216796875
-84.228515625
-79.65087890625
-65.91796875
-81.48193359375
-78.7353515625
-81.48193359375
-79.65087890625
-87.890625
-70.49560546875
-67.7490234375
-70.49560546875
-75.98876953125
-80.56640625
-69.580078125
-72.32666015625
-92.46826171875
-90.63720703125
-61.34033203125
-61.34033203125
-56.7626953125
-75.0732421875
-94.29931640625
-64.0869140625
-42.1142578125
-56.7626953125
-58.59375
-32.04345703125
-48.52294921875
-48.52294921875
-43.9453125
-45.7763671875
-48.52294921875
-43.9453125
-43.02978515625
-44.86083984375
-51.26953125
-39.36767578125
-44.86083984375
-42.1142578125
-24.71923828125
-5.4931640625
-23.8037109375
-23.8037109375
-21.97265625
-20.1416015625
-6.40869140625
-1.8310546875
-2.74658203125
-1.8310546875
-7.32421875
1.8310546875
11.90185546875
14.6484375
24.71923828125
26.55029296875
32.958984375
54.931640625
73.2421875
4.57763671875
-11.90185546875
41.19873046875
67.7490234375
65.00244140625
74.15771484375
82.3974609375
85.14404296875
102.5390625
110.77880859375
111.6943359375
122.6806640625
129.08935546875
160.21728515625
170.2880859375
177.6123046875
186.767578125
190.4296875
202.33154296875
218.81103515625
230.712890625
253.60107421875
260.92529296875
260.009765625
272.8271484375
299.37744140625
303.03955078125
293.88427734375
314.02587890625
327.7587890625
321.35009765625
323.18115234375
344.23828125
345.15380859375
347.900390625
368.0419921875
368.95751953125
341.49169921875
337.82958984375
355.224609375
357.0556640625
334.16748046875
329.58984375
314.94140625
304.87060546875
292.96875
278.3203125
260.009765625
240.78369140625
211.48681640625
160.21728515625
133.6669921875
136.41357421875
130.0048828125
107.11669921875
94.29931640625
62.255859375
38.4521484375
32.04345703125
9.1552734375
-9.1552734375
-3.662109375
-11.90185546875
-32.04345703125
-43.02978515625
-43.9453125
-53.1005859375
-60.4248046875
-76.904296875
-92.46826171875
-97.96142578125
-89.7216796875
-96.13037109375
-102.5390625
-115.3564453125
-124.51171875
-117.1875
-101.62353515625
-118.10302734375
-113.525390625
-121.76513671875
-125.42724609375
-126.3427734375
-130.0048828125
-134.58251953125
-118.10302734375
-114.44091796875
-121.76513671875
-123.59619140625
-130.92041015625
-140.07568359375
-119.93408203125
-121.76513671875
-116.27197265625
-107.11669921875
-109.86328125
-119.0185546875
-111.6943359375
-111.6943359375
-118.10302734375
-127.25830078125
-126.3427734375
-125.42724609375
-120.849609375
-108.0322265625
-101.62353515625
-108.0322265625
-118.10302734375
-121.76513671875
-120.849609375
-120.849609375
-120.849609375
-108.0322265625
-107.11669921875
-97.96142578125
-106.201171875
-133.6669921875
-111.6943359375
-99.79248046875
-110.77880859375
-106.201171875
-108.94775390625
-104.3701171875
-105.28564453125
-101.62353515625
-102.5390625
-108.0322265625
-100.7080078125
-97.0458984375
-106.201171875
-107.11669921875
-94.29931640625
-86.97509765625
-99.79248046875
-99.79248046875
-96.13037109375
-90.63720703125
-94.29931640625
-98.876953125
-109.86328125
-118.10302734375
-110.77880859375
-93.3837890625
-97.96142578125
-97.96142578125
-83.31298828125
-91.552734375
-106.201171875
-108.0322265625
-114.44091796875
-117.1875
-106.201171875
-115.3564453125
-116.27197265625
-111.6943359375
-91.552734375
-105.28564453125
-119.93408203125
-122.6806640625
-116.27197265625
-124.51171875
-120.849609375
-109.86328125
-114.44091796875
-106.201171875
-111.6943359375
-107.11669921875
-111.6943359375
-121.76513671875
-118.10302734375
-132.75146484375
-138.24462890625
-140.07568359375
-132.75146484375
-123.59619140625
-117.1875
-113.525390625
-114.44091796875
-114.44091796875
-128.173828125
-129.08935546875
-133.6669921875
-121.76513671875
-116.27197265625
-116.27197265625
-121.76513671875
-127.25830078125
-120.849609375
-128.173828125
-145.56884765625
-121.76513671875
-124.51171875
-121.76513671875
-125.42724609375
-116.27197265625
-111.6943359375
-119.0185546875
-128.173828125
-127.25830078125
-130.92041015625
-144.6533203125
-129.08935546875
-122.6806640625
-134.58251953125
-135.498046875
-134.58251953125
-135.498046875
-142.822265625
-134.58251953125
-137.3291015625
-149.23095703125
-127.25830078125
-113.525390625
-130.0048828125
-148.3154296875
-149.23095703125
-139.16015625
-130.0048828125
-124.51171875
-137.3291015625
-133.6669921875
-127.25830078125
-129.08935546875
-127.25830078125
-136.41357421875
-127.25830078125
-125.42724609375
-125.42724609375
-132.75146484375
-121.76513671875
-126.3427734375
-119.0185546875
-115.3564453125
-109.86328125
-102.5390625
-108.0322265625
-103.45458984375
-102.5390625
-101.62353515625
-96.13037109375
-103.45458984375
-114.44091796875
-113.525390625
-111.6943359375
-97.96142578125
-87.890625
-90.63720703125
-90.63720703125
-84.228515625
-74.15771484375
-73.2421875
-67.7490234375
-81.48193359375
-86.0595703125
-83.31298828125
-67.7490234375
-57.67822265625
-76.904296875
-68.66455078125
-74.15771484375
-83.31298828125
-86.0595703125
-100.7080078125
-97.96142578125
-61.34033203125
-58.59375
-94.29931640625
-78.7353515625
-83.31298828125
-90.63720703125
-102.5390625
-110.77880859375
-114.44091796875
-109.86328125
-116.27197265625
-126.3427734375
-142.822265625
-146.484375
-142.822265625
-127.25830078125
-117.1875
-135.498046875
-139.16015625
-137.3291015625
-145.56884765625
-133.6669921875
-140.9912109375
-148.3154296875
-146.484375
-123.59619140625
-139.16015625
-150.146484375
-132.75146484375
-140.9912109375
-134.58251953125
-137.3291015625
-136.41357421875
-138.24462890625
-132.75146484375
-144.6533203125
-148.3154296875
-156.55517578125
-143.73779296875
-132.75146484375
-139.16015625
-148.3154296875
-143.73779296875
-144.6533203125
-165.71044921875
-193.17626953125
-201.416015625
-221.5576171875
-213.31787109375
-185.85205078125
-119.93408203125
-47.607421875
0.91552734375
45.7763671875
112.60986328125
252.685546875
394.59228515625
548.40087890625
721.435546875
904.541015625
1060.1806640625
1181.0302734375
1253.35693359375
1303.7109375
1330.26123046875
1277.16064453125
1110.53466796875
910.0341796875
766.29638671875
603.33251953125
433.04443359375
280.1513671875
143.73779296875
29.296875
-34.7900390625
-68.66455078125
-84.228515625
-86.97509765625
-109.86328125
-124.51171875
-120.849609375
-108.94775390625
-110.77880859375
-97.0458984375
-92.46826171875
-108.0322265625
-108.94775390625
-99.79248046875
-94.29931640625
-93.3837890625
-85.14404296875
-93.3837890625
-99.79248046875
-101.62353515625
-93.3837890625
-86.97509765625
-93.3837890625
-101.62353515625
-105.28564453125
-88.80615234375
-74.15771484375
-79.65087890625
-91.552734375
-81.48193359375
-68.66455078125
-73.2421875
-79.65087890625
-81.48193359375
-74.15771484375
-68.66455078125
-66.83349609375
-65.00244140625
-75.0732421875
-68.66455078125
-59.50927734375
-57.67822265625
-64.0869140625
-40.283203125
-32.04345703125
-38.4521484375
-31.1279296875
-30.21240234375
-34.7900390625
-44.86083984375
-38.4521484375
-29.296875
-31.1279296875
-29.296875
-16.4794921875
-9.1552734375
-10.986328125
-2.74658203125
-16.4794921875
-11.90185546875
-7.32421875
2.74658203125
0
5.4931640625
4.57763671875
14.6484375
32.04345703125
43.9453125
47.607421875
45.7763671875
55.84716796875
48.52294921875
54.931640625
62.255859375
84.228515625
88.80615234375
95.21484375
92.46826171875
117.1875
128.173828125
135.498046875
140.07568359375
133.6669921875
141.90673828125
161.1328125
171.20361328125
192.2607421875
203.2470703125
212.40234375
236.2060546875
250.8544921875
252.685546875
247.1923828125
266.41845703125
300.29296875
292.96875
314.94140625
332.33642578125
327.7587890625
342.4072265625
335.99853515625
336.9140625
345.15380859375
352.47802734375
357.0556640625
366.2109375
355.224609375
363.46435546875
366.2109375
364.3798828125
357.97119140625
338.7451171875
318.603515625
320.4345703125
313.1103515625
301.20849609375
293.88427734375
272.8271484375
244.44580078125
201.416015625
183.10546875
170.2880859375
144.6533203125
119.0185546875
109.86328125
75.98876953125
54.931640625
36.62109375
29.296875
31.1279296875
4.57763671875
-6.40869140625
-21.05712890625
-43.9453125
-49.4384765625
-58.59375
-60.4248046875
-61.34033203125
-78.7353515625
-77.81982421875
-70.49560546875
-109.86328125
-117.1875
-103.45458984375
-104.3701171875
-103.45458984375
-103.45458984375
-98.876953125
-106.201171875
-99.79248046875
-120.849609375
-119.0185546875
-99.79248046875
-86.97509765625
-91.552734375
-104.3701171875
-100.7080078125
-103.45458984375
-114.44091796875
-119.0185546875
-111.6943359375
-124.51171875
-122.6806640625
-121.76513671875
-107.11669921875
-106.201171875
-117.1875
-113.525390625
-107.11669921875
-119.93408203125
-119.0185546875
-107.11669921875
-126.3427734375
-122.6806640625
-117.1875
-112.60986328125
-116.27197265625
-105.28564453125
-103.45458984375
-102.5390625
-114.44091796875
-111.6943359375
-119.93408203125
-117.1875
-100.7080078125
-97.0458984375
-92.46826171875
-95.21484375
-99.79248046875
-95.21484375
-89.7216796875
-93.3837890625
-96.13037109375
-94.29931640625
-99.79248046875
-86.97509765625
-100.7080078125
-97.96142578125
-88.80615234375
-88.80615234375
-79.65087890625
-83.31298828125
-96.13037109375
-89.7216796875
-79.65087890625
-78.7353515625
-73.2421875
-75.98876953125
-67.7490234375
-79.65087890625
-81.48193359375
-87.890625
-97.0458984375
-89.7216796875
-82.3974609375
-86.97509765625
-88.80615234375
-77.81982421875
-75.98876953125
-85.14404296875
-89.7216796875
-101.62353515625
-112.60986328125
-102.5390625
-86.0595703125
-88.80615234375
-90.63720703125
-96.13037109375
-94.29931640625
-91.552734375
-90.63720703125
-104.3701171875
-134.58251953125
-132.75146484375
-110.77880859375
-100.7080078125
-90.63720703125
-81.48193359375
-98.876953125
-89.7216796875
-95.21484375
-111.6943359375
-106.201171875
-109.86328125
-97.0458984375
-93.3837890625
-91.552734375
-86.97509765625
-105.28564453125
-107.11669921875
-114.44091796875
-114.44091796875
-122.6806640625
-119.93408203125
-119.0185546875
-102.5390625
-98.876953125
-108.0322265625
-121.76513671875
-100.7080078125
-97.96142578125
-109.86328125
-113.525390625
-114.44091796875
-102.5390625
-109.86328125
-116.27197265625
-106.201171875
-104.3701171875
-104.3701171875
-107.11669921875
-107.11669921875
-117.1875
-130.0048828125
-121.76513671875
-114.44091796875
-116.27197265625
-101.62353515625
-108.0322265625
-106.201171875
-102.5390625
-108.94775390625
-109.86328125
-112.60986328125
-112.60986328125
-122.6806640625
-120.849609375
-98.876953125
-107.11669921875
-104.3701171875
-103.45458984375
-99.79248046875
-113.525390625
-118.10302734375
-110.77880859375
-110.77880859375
-111.6943359375
-100.7080078125
-95.21484375
-100.7080078125
-100.7080078125
-109.86328125
-126.3427734375
-107.11669921875
-108.94775390625
-117.1875
-112.60986328125
-102.5390625
-107.11669921875
-106.201171875
-109.86328125
-125.42724609375
-123.59619140625
-112.60986328125
-110.77880859375
-97.96142578125
-96.13037109375
-104.3701171875
-102.5390625
-107.11669921875
-116.27197265625
-112.60986328125
-118.10302734375
-108.0322265625
-102.5390625
-93.3837890625
-81.48193359375
-73.2421875
-65.00244140625
-69.580078125
-75.0732421875
-76.904296875
-80.56640625
-66.83349609375
-71.4111328125
-90.63720703125
-86.0595703125
-62.255859375
-75.98876953125
-76.904296875
-65.91796875
-65.91796875
-57.67822265625
-52.18505859375
-37.53662109375
-36.62109375
-43.9453125
-45.7763671875
-41.19873046875
-55.84716796875
-55.84716796875
-54.931640625
-69.580078125
-66.83349609375
-69.580078125
-67.7490234375
-58.59375
-57.67822265625
-61.34033203125
-71.4111328125
-78.7353515625
-87.890625
-93.3837890625
-104.3701171875
-97.96142578125
-92.46826171875
-97.96142578125
-105.28564453125
-99.79248046875
-109.86328125
-116.27197265625
-118.10302734375
-145.56884765625
-140.9912109375
-141.90673828125
-148.3154296875
-135.498046875
-114.44091796875
-105.28564453125
-117.1875
-130.0048828125
-123.59619140625
-124.51171875
-129.08935546875
-121.76513671875
-119.0185546875
-119.0185546875
-120.849609375
-131.8359375
-119.93408203125
-130.0048828125
-136.41357421875
-135.498046875
-139.16015625
-122.6806640625
-115.3564453125
-119.0185546875
-113.525390625
-131.8359375
-145.56884765625
-156.55517578125
-177.6123046875
-200.50048828125
-199.5849609375
-169.37255859375
-148.3154296875
-95.21484375
-16.4794921875
30.21240234375
86.97509765625
172.119140625
279.23583984375
407.40966796875
575.86669921875
766.29638671875
951.23291015625
1117.85888671875
1218.56689453125
1296.38671875
1363.22021484375
1387.939453125
1330.26123046875
1154.47998046875
960.38818359375
808.41064453125
649.10888671875
481.5673828125
323.18115234375
199.5849609375
91.552734375
29.296875
-21.05712890625
-46.69189453125
-64.0869140625
-71.4111328125
-74.15771484375
-74.15771484375
-76.904296875
-72.32666015625
-55.84716796875
-53.1005859375
-52.18505859375
-63.17138671875
-54.931640625
-56.7626953125
-49.4384765625
-61.34033203125
-55.84716796875
-60.4248046875
-65.00244140625
-56.7626953125
-63.17138671875
-79.65087890625
-75.98876953125
-65.91796875
-64.0869140625
-56.7626953125
-47.607421875
-52.18505859375
-50.35400390625
-41.19873046875
-40.283203125
-56.7626953125
-60.4248046875
-54.01611328125
-53.1005859375
-42.1142578125
-40.283203125
-32.04345703125
-39.36767578125
-43.9453125
-34.7900390625
-46.69189453125
-39.36767578125
-36.62109375
-34.7900390625
-15.56396484375
-21.05712890625
-32.04345703125
-27.4658203125
-9.1552734375
-18.310546875
-24.71923828125
-29.296875
-9.1552734375
18.310546875
14.6484375
15.56396484375
15.56396484375
10.07080078125
5.4931640625
12.8173828125
10.986328125
13.73291015625
34.7900390625
46.69189453125
43.02978515625
48.52294921875
47.607421875
48.52294921875
69.580078125
75.98876953125
74.15771484375
70.49560546875
85.14404296875
99.79248046875
103.45458984375
123.59619140625
131.8359375
130.92041015625
149.23095703125
157.470703125
157.470703125
168.45703125
181.2744140625
200.50048828125
210.5712890625
226.13525390625
228.8818359375
241.69921875
252.685546875
253.60107421875
253.60107421875
272.8271484375
288.39111328125
298.4619140625
315.85693359375
331.4208984375
333.251953125
340.576171875
340.576171875
343.32275390625
344.23828125
357.97119140625
368.95751953125
375.3662109375
372.61962890625
378.11279296875
387.26806640625
385.43701171875
371.7041015625
364.3798828125
347.900390625
333.251953125
331.4208984375
322.265625
310.36376953125
288.39111328125
261.8408203125
251.77001953125
225.2197265625
203.2470703125
189.51416015625
172.119140625
142.822265625
128.173828125
119.93408203125
97.0458984375
73.2421875
52.18505859375
17.39501953125
21.97265625
-3.662109375
-10.986328125
-5.4931640625
-16.4794921875
-33.87451171875
-34.7900390625
-50.35400390625
-51.26953125
-67.7490234375
-74.15771484375
-79.65087890625
-77.81982421875
-69.580078125
-71.4111328125
-74.15771484375
-72.32666015625
-85.14404296875
-91.552734375
-85.14404296875
-99.79248046875
-98.876953125
-93.3837890625
-86.0595703125
-86.0595703125
-87.890625
-78.7353515625
-80.56640625
-89.7216796875
-94.29931640625
-92.46826171875
-89.7216796875
-94.29931640625
-85.14404296875
-89.7216796875
-86.0595703125
-68.66455078125
-82.3974609375
-90.63720703125
-86.97509765625
-90.63720703125
-94.29931640625
-94.29931640625
-80.56640625
-79.65087890625
-81.48193359375
-75.0732421875
-82.3974609375
-86.97509765625
-88.80615234375
-76.904296875
-86.97509765625
-82.3974609375
-81.48193359375
-84.228515625
-81.48193359375
-95.21484375
-85.14404296875
-78.7353515625
-85.14404296875
-86.97509765625
-86.0595703125
-76.904296875
-75.0732421875
-71.4111328125
-78.7353515625
-75.98876953125
-65.00244140625
-79.65087890625
-79.65087890625
-69.580078125
-86.0595703125
-90.63720703125
-77.81982421875
-65.00244140625
-67.7490234375
-64.0869140625
-62.255859375
-69.580078125
-61.34033203125
-63.17138671875
-77.81982421875
-75.98876953125
-66.83349609375
-75.0732421875
-56.7626953125
-48.52294921875
-54.931640625
-62.255859375
-65.00244140625
-57.67822265625
-69.580078125
-68.66455078125
-65.91796875
-68.66455078125
-62.255859375
-64.0869140625
-62.255859375
-78.7353515625
-78.7353515625
-75.0732421875
-94.29931640625
-88.80615234375
-67.7490234375
-80.56640625
-74.15771484375
-77.81982421875
-73.2421875
-74.15771484375
-84.228515625
-83.31298828125
-96.13037109375
-91.552734375
-84.228515625
-75.0732421875
-76.904296875
-59.50927734375
-65.00244140625
-85.14404296875
-86.0595703125
-79.65087890625
-77.81982421875
-86.97509765625
-90.63720703125
-95.21484375
-95.21484375
-75.98876953125
-85.14404296875
-87.890625
-81.48193359375
-89.7216796875
-96.13037109375
-86.97509765625
-89.7216796875
-89.7216796875
-86.97509765625
-85.14404296875
-78.7353515625
-90.63720703125
-86.0595703125
-88.80615234375
-107.11669921875
-101.62353515625
-97.0458984375
-99.79248046875
-89.7216796875
-79.65087890625
-83.31298828125
-88.80615234375
-86.97509765625
-85.14404296875
-98.876953125
-99.79248046875
-97.0458984375
-86.97509765625
-90.63720703125
-83.31298828125
-78.7353515625
-90.63720703125
-94.29931640625
-90.63720703125
-97.0458984375
-95.21484375
-89.7216796875
-93.3837890625
-89.7216796875
-84.228515625
-91.552734375
-96.13037109375
-87.890625
-86.0595703125
-104.3701171875
-108.94775390625
-96.13037109375
-98.876953125
-92.46826171875
-87.890625
-80.56640625
-81.48193359375
-86.97509765625
-100.7080078125
-108.94775390625
-98.876953125
-96.13037109375
-85.14404296875
-85.14404296875
-85.14404296875
-90.63720703125
-97.96142578125
-104.3701171875
-96.13037109375
-108.0322265625
-97.96142578125
-100.7080078125
-100.7080078125
-91.552734375
-84.228515625
-79.65087890625
-97.0458984375
-106.201171875
-103.45458984375
-108.0322265625
-101.62353515625
-108.0322265625
-103.45458984375
-91.552734375
-90.63720703125
-98.876953125
-90.63720703125
-92.46826171875
-87.890625
-89.7216796875
-86.97509765625
-97.0458984375
-97.96142578125
-90.63720703125
-78.7353515625
-90.63720703125
-98.876953125
-95.21484375
-93.3837890625
-95.21484375
-97.0458984375
-78.7353515625
-70.49560546875
-74.15771484375
-65.00244140625
-65.91796875
-58.59375
-43.9453125
-46.69189453125
-68.66455078125
-64.0869140625
-50.35400390625
-57.67822265625
-65.00244140625
-64.0869140625
-64.0869140625
-65.91796875
-57.67822265625
-51.26953125
-43.02978515625
-33.87451171875
-38.4521484375
-32.958984375
-24.71923828125
-22.88818359375
-26.55029296875
-38.4521484375
-31.1279296875
-43.9453125
-56.7626953125
-53.1005859375
-41.19873046875
-40.283203125
-40.283203125
-34.7900390625
-39.36767578125
-54.931640625
-53.1005859375
-63.17138671875
-64.0869140625
-59.50927734375
-65.91796875
-65.91796875
-61.34033203125
-66.83349609375
-72.32666015625
-81.48193359375
-78.7353515625
-88.80615234375
-95.21484375
-98.876953125
-102.5390625
-86.97509765625
-94.29931640625
-97.96142578125
-91.552734375
-103.45458984375
-100.7080078125
-99.79248046875
-101.62353515625
-100.7080078125
-90.63720703125
-89.7216796875
-93.3837890625
-85.14404296875
-83.31298828125
-87.890625
-94.29931640625
-102.5390625
-108.94775390625
-108.94775390625
-97.96142578125
-94.29931640625
-105.28564453125
-90.63720703125
-99.79248046875
-103.45458984375
-119.0185546875
-140.9912109375
-168.45703125
-175.78125
-166.6259765625
-142.822265625
-93.3837890625
-22.88818359375
44.86083984375
97.96142578125
156.55517578125
242.61474609375
365.29541015625
531.005859375
721.435546875
909.11865234375
1067.5048828125
1212.158203125
1318.359375
1392.51708984375
1472.16796875
1447.44873046875
1337.58544921875
1135.25390625
965.88134765625
785.5224609375
617.0654296875
444.03076171875
310.36376953125
177.6123046875
81.48193359375
41.19873046875
-4.57763671875
-25.634765625
-41.19873046875
-46.69189453125
-55.84716796875
-39.36767578125
-32.04345703125
-32.958984375
-32.958984375
-42.1142578125
-39.36767578125
-29.296875
-34.7900390625
-38.4521484375
-43.9453125
-30.21240234375
-29.296875
-35.70556640625
-40.283203125
-38.4521484375
-46.69189453125
-47.607421875
-47.607421875
-44.86083984375
-39.36767578125
-32.04345703125
-32.04345703125
-41.19873046875
-47.607421875
-40.283203125
-36.62109375
-38.4521484375
-26.55029296875
-17.39501953125
-14.6484375
-20.1416015625
-20.1416015625
-21.05712890625
-18.310546875
-14.6484375
-19.22607421875
-22.88818359375
-17.39501953125
-10.07080078125
-10.07080078125
8.23974609375
1.8310546875
-3.662109375
-2.74658203125
-1.8310546875
-1.8310546875
1.8310546875
17.39501953125
15.56396484375
17.39501953125
31.1279296875
35.70556640625
34.7900390625
23.8037109375
18.310546875
24.71923828125
34.7900390625
43.9453125
52.18505859375
58.59375
70.49560546875
77.81982421875
75.98876953125
70.49560546875
83.31298828125
77.81982421875
85.14404296875
97.0458984375
110.77880859375
121.76513671875
136.41357421875
151.9775390625
141.90673828125
151.06201171875
163.87939453125
163.87939453125
175.78125
193.17626953125
212.40234375
222.47314453125
241.69921875
248.10791015625
242.61474609375
245.361328125
271.91162109375
292.96875
301.20849609375
305.7861328125
324.0966796875
344.23828125
365.29541015625
371.7041015625
375.3662109375
374.45068359375
377.197265625
381.77490234375
387.26806640625
401.91650390625
410.15625
409.24072265625
419.3115234375
422.05810546875
416.56494140625
412.90283203125
411.07177734375
398.25439453125
381.77490234375
379.0283203125
375.3662109375
358.88671875
351.5625
320.4345703125
303.955078125
275.57373046875
251.77001953125
236.2060546875
219.7265625
191.34521484375
174.86572265625
150.146484375
128.173828125
101.62353515625
87.890625
83.31298828125
51.26953125
28.38134765625
36.62109375
27.4658203125
3.662109375
-8.23974609375
-3.662109375
-7.32421875
-21.97265625
-35.70556640625
-39.36767578125
-42.1142578125
-49.4384765625
-45.7763671875
-50.35400390625
-54.01611328125
-49.4384765625
-48.52294921875
-66.83349609375
-66.83349609375
-67.7490234375
-75.0732421875
-74.15771484375
-67.7490234375
-68.66455078125
-66.83349609375
-57.67822265625
-65.91796875
-73.2421875
-79.65087890625
-74.15771484375
-72.32666015625
-74.15771484375
-69.580078125
-65.00244140625
-70.49560546875
-61.34033203125
-61.34033203125
-67.7490234375
-55.84716796875
-72.32666015625
-75.0732421875
-75.98876953125
-57.67822265625
-67.7490234375
-62.255859375
-57.67822265625
-51.26953125
-60.4248046875
-59.50927734375
-60.4248046875
-71.4111328125
-68.66455078125
-68.66455078125
-62.255859375
-53.1005859375
-49.4384765625
-54.931640625
-60.4248046875
-64.0869140625
-55.84716796875
-63.17138671875
-61.34033203125
-55.84716796875
-51.26953125
-54.931640625
-50.35400390625
-50.35400390625
-59.50927734375
-54.01611328125
-60.4248046875
-65.00244140625
-59.50927734375
-57.67822265625
-59.50927734375
-53.1005859375
-44.86083984375
-56.7626953125
-56.7626953125
-54.01611328125
-49.4384765625
-53.1005859375
-55.84716796875
-43.9453125
-42.1142578125
-46.69189453125
-41.19873046875
-53.1005859375
-64.0869140625
-41.19873046875
-36.62109375
-62.255859375
-65.91796875
-61.34033203125
-50.35400390625
-42.1142578125
-32.958984375
-35.70556640625
-36.62109375
-49.4384765625
-58.59375
-70.49560546875
-55.84716796875
-54.01611328125
-59.50927734375
-60.4248046875
-45.7763671875
-49.4384765625
-52.18505859375
-58.59375
-66.83349609375
-70.49560546875
-79.65087890625
-72.32666015625
-56.7626953125
-66.83349609375
-54.01611328125
-49.4384765625
-59.50927734375
-72.32666015625
-67.7490234375
-72.32666015625
-67.7490234375
-66.83349609375
-62.255859375
-63.17138671875
-59.50927734375
-77.81982421875
-77.81982421875
-77.81982421875
-75.0732421875
-79.65087890625
-80.56640625
-74.15771484375
-71.4111328125
-62.255859375
-56.7626953125
-62.255859375
-66.83349609375
-73.2421875
-64.0869140625
-74.15771484375
-76.904296875
-69.580078125
-68.66455078125
-70.49560546875
-70.49560546875
-69.580078125
-76.904296875
-73.2421875
-73.2421875
-94.29931640625
-85.14404296875
-73.2421875
-68.66455078125
-71.4111328125
-64.0869140625
-64.0869140625
-75.98876953125
-79.65087890625
-75.98876953125
-82.3974609375
-79.65087890625
-71.4111328125
-63.17138671875
-69.580078125
-65.91796875
-63.17138671875
-70.49560546875
-73.2421875
-85.14404296875
-88.80615234375
-76.904296875
-70.49560546875
-69.580078125
-68.66455078125
-69.580078125
-72.32666015625
-74.15771484375
-71.4111328125
-72.32666015625
-75.98876953125
-92.46826171875
-80.56640625
-68.66455078125
-70.49560546875
-68.66455078125
-62.255859375
-70.49560546875
-76.904296875
-72.32666015625
-86.0595703125
-81.48193359375
-71.4111328125
-75.98876953125
-75.0732421875
-68.66455078125
-70.49560546875
-72.32666015625
-65.00244140625
-65.91796875
-78.7353515625
-67.7490234375
-66.83349609375
-67.7490234375
-74.15771484375
-65.91796875
-73.2421875
-71.4111328125
-66.83349609375
-64.0869140625
-87.890625
-78.7353515625
-73.2421875
-64.0869140625
-65.00244140625
-60.4248046875
-59.50927734375
-63.17138671875
-79.65087890625
-79.65087890625
-81.48193359375
-86.0595703125
-86.97509765625
-78.7353515625
-57.67822265625
-60.4248046875
-70.49560546875
-71.4111328125
-70.49560546875
-74.15771484375
-84.228515625
-82.3974609375
-66.83349609375
-65.91796875
-72.32666015625
-65.91796875
-62.255859375
-66.83349609375
-71.4111328125
-71.4111328125
-65.91796875
-62.255859375
-56.7626953125
-45.7763671875
-37.53662109375
-36.62109375
-44.86083984375
-39.36767578125
-26.55029296875
-32.04345703125
-36.62109375
-42.1142578125
-36.62109375
-35.70556640625
-34.7900390625
-32.04345703125
-31.1279296875
-30.21240234375
-27.4658203125
-21.97265625
-10.986328125
-16.4794921875
-13.73291015625
-15.56396484375
-17.39501953125
-7.32421875
-3.662109375
-20.1416015625
-15.56396484375
0
-20.1416015625
-29.296875
-21.05712890625
-17.39501953125
-18.310546875
-13.73291015625
-20.1416015625
-25.634765625
-22.88818359375
-36.62109375
-49.4384765625
-44.86083984375
-37.53662109375
-34.7900390625
-43.02978515625
-49.4384765625
-54.931640625
-62.255859375
-59.50927734375
-74.15771484375
-76.904296875
-80.56640625
-79.65087890625
-69.580078125
-73.2421875
-67.7490234375
-66.83349609375
-75.98876953125
-77.81982421875
-72.32666015625
-88.80615234375
-81.48193359375
-83.31298828125
-77.81982421875
-75.0732421875
-65.91796875
-69.580078125
-73.2421875
-72.32666015625
-74.15771484375
-75.98876953125
-95.21484375
-80.56640625
-77.81982421875
-79.65087890625
-75.0732421875
-73.2421875
-97.96142578125
-112.60986328125
-117.1875
-144.6533203125
-163.87939453125
-140.9912109375
-111.6943359375
-65.91796875
-5.4931640625
48.52294921875
99.79248046875
167.54150390625
276.4892578125
419.3115234375
576.7822265625
759.8876953125
948.486328125
1116.02783203125
1259.765625
1366.88232421875
1456.60400390625
1506.04248046875
1478.57666015625
1372.37548828125
1168.212890625
987.85400390625
802.91748046875
630.79833984375
455.9326171875
320.4345703125
188.5986328125
95.21484375
60.4248046875
19.22607421875
-9.1552734375
-16.4794921875
-13.73291015625
-13.73291015625
2.74658203125
13.73291015625
1.8310546875
-9.1552734375
-9.1552734375
-21.97265625
-19.22607421875
-18.310546875
-17.39501953125
-17.39501953125
-10.07080078125
-8.23974609375
-10.986328125
-11.90185546875
-6.40869140625
-8.23974609375
-13.73291015625
-11.90185546875
-9.1552734375
-2.74658203125
0.91552734375
-2.74658203125
-5.4931640625
-9.1552734375
-2.74658203125
-20.1416015625
-19.22607421875
-9.1552734375
11.90185546875
16.4794921875
16.4794921875
27.4658203125
7.32421875
-6.40869140625
-0.91552734375
13.73291015625
19.22607421875
12.8173828125
21.05712890625
24.71923828125
36.62109375
43.9453125
36.62109375
33.87451171875
33.87451171875
38.4521484375
32.04345703125
34.7900390625
44.86083984375
45.7763671875
57.67822265625
65.00244140625
55.84716796875
55.84716796875
74.15771484375
75.0732421875
70.49560546875
71.4111328125
82.3974609375
88.80615234375
93.3837890625
116.27197265625
127.25830078125
120.849609375
117.1875
123.59619140625
119.93408203125
138.24462890625
148.3154296875
161.1328125
169.37255859375
167.54150390625
182.18994140625
184.9365234375
195.9228515625
195.9228515625
211.48681640625
232.5439453125
237.12158203125
248.10791015625
273.74267578125
279.23583984375
281.06689453125
300.29296875
314.94140625
316.7724609375
317.68798828125
341.49169921875
362.548828125
375.3662109375
384.521484375
392.76123046875
403.74755859375
415.6494140625
412.90283203125
409.24072265625
410.15625
429.38232421875
450.439453125
453.18603515625
453.18603515625
456.84814453125
449.52392578125
455.9326171875
442.19970703125
433.9599609375
437.6220703125
430.2978515625
420.22705078125
410.15625
395.5078125
379.94384765625
355.224609375
327.7587890625
317.68798828125
296.630859375
271.91162109375
248.10791015625
218.81103515625
201.416015625
185.85205078125
164.794921875
142.822265625
125.42724609375
97.0458984375
76.904296875
65.91796875
56.7626953125
45.7763671875
26.55029296875
21.97265625
23.8037109375
2.74658203125
-6.40869140625
-19.22607421875
-32.04345703125
-35.70556640625
-32.958984375
-30.21240234375
-34.7900390625
-26.55029296875
-35.70556640625
-54.01611328125
-58.59375
-53.1005859375
-61.34033203125
-58.59375
-53.1005859375
-51.26953125
-58.59375
-42.1142578125
-43.9453125
-49.4384765625
-54.931640625
-59.50927734375
-72.32666015625
-58.59375
-49.4384765625
-54.01611328125
-56.7626953125
-55.84716796875
-58.59375
-53.1005859375
-57.67822265625
-62.255859375
-72.32666015625
-67.7490234375
-64.0869140625
-57.67822265625
-74.15771484375
-60.4248046875
-53.1005859375
-67.7490234375
-72.32666015625
-72.32666015625
-72.32666015625
-70.49560546875
-58.59375
-60.4248046875
-65.00244140625
-53.1005859375
-47.607421875
-56.7626953125
-64.0869140625
-60.4248046875
-74.15771484375
-68.66455078125
-58.59375
-54.931640625
-63.17138671875
-62.255859375
-59.50927734375
-57.67822265625
-54.931640625
-52.18505859375
-65.00244140625
-58.59375
-59.50927734375
-53.1005859375
-58.59375
-52.18505859375
-54.01611328125
-57.67822265625
-66.83349609375
-68.66455078125
-71.4111328125
-75.0732421875
-75.98876953125
-67.7490234375
-58.59375
-65.91796875
-69.580078125
-65.91796875
-65.00244140625
-67.7490234375
-75.98876953125
-74.15771484375
-74.15771484375
-64.0869140625
-58.59375
-66.83349609375
-63.17138671875
-74.15771484375
-79.65087890625
-78.7353515625
-92.46826171875
-95.21484375
-76.904296875
-70.49560546875
-75.0732421875
-62.255859375
-63.17138671875
-72.32666015625
-73.2421875
-78.7353515625
-94.29931640625
-89.7216796875
-75.0732421875
-75.0732421875
-70.49560546875
-65.91796875
-70.49560546875
-75.0732421875
-75.98876953125
-74.15771484375
-81.48193359375
-79.65087890625
-76.904296875
-68.66455078125
-68.66455078125
-80.56640625
-78.7353515625
-85.14404296875
-85.14404296875
-86.0595703125
-93.3837890625
-81.48193359375
-81.48193359375
-86.0595703125
-86.97509765625
-74.15771484375
-70.49560546875
-78.7353515625
-80.56640625
-85.14404296875
-98.876953125
-97.96142578125
-83.31298828125
-68.66455078125
-72.32666015625
-75.98876953125
-74.15771484375
-71.4111328125
-74.15771484375
-87.890625
-96.13037109375
-95.21484375
-87.890625
-78.7353515625
-74.15771484375
-74.15771484375
-74.15771484375
-77.81982421875
-86.0595703125
-89.7216796875
-97.0458984375
-88.80615234375
-81.48193359375
-71.4111328125
-74.15771484375
-75.0732421875
-69.580078125
-79.65087890625
-82.3974609375
-86.0595703125
-87.890625
-92.46826171875
-97.96142578125
-89.7216796875
-74.15771484375
-87.890625
-72.32666015625
-84.228515625
-86.0595703125
-84.228515625
-96.13037109375
-97.0458984375
-78.7353515625
-72.32666015625
-79.65087890625
-77.81982421875
-74.15771484375
-84.228515625
-74.15771484375
-73.2421875
-86.97509765625
-84.228515625
-83.31298828125
-85.14404296875
-86.97509765625
-79.65087890625
-80.56640625
-89.7216796875
-87.890625
-77.81982421875
-86.0595703125
-101.62353515625
-86.0595703125
-69.580078125
-72.32666015625
-70.49560546875
-65.00244140625
-68.66455078125
-80.56640625
-81.48193359375
-89.7216796875
-91.552734375
-88.80615234375
-79.65087890625
-79.65087890625
-74.15771484375
-75.0732421875
-79.65087890625
-84.228515625
-94.29931640625
-98.876953125
-94.29931640625
-80.56640625
-75.0732421875
-85.14404296875
-83.31298828125
-77.81982421875
-78.7353515625
-68.66455078125
-76.904296875
-95.21484375
-93.3837890625
-90.63720703125
-79.65087890625
-77.81982421875
-73.2421875
-71.4111328125
-73.2421875
-80.56640625
-81.48193359375
-89.7216796875
-96.13037109375
-77.81982421875
-81.48193359375
-77.81982421875
-65.00244140625
-59.50927734375
-73.2421875
-69.580078125
-72.32666015625
-79.65087890625
-64.0869140625
-52.18505859375
-49.4384765625
-49.4384765625
-39.36767578125
-32.04345703125
-42.1142578125
-48.52294921875
-56.7626953125
-65.91796875
-73.2421875
-56.7626953125
-45.7763671875
-39.36767578125
-38.4521484375
-26.55029296875
-26.55029296875
-28.38134765625
-27.4658203125
-30.21240234375
-40.283203125
-29.296875
-27.4658203125
-22.88818359375
-10.07080078125
-10.986328125
-30.21240234375
-34.7900390625
-25.634765625
-25.634765625
-40.283203125
-33.87451171875
-27.4658203125
-40.283203125
-45.7763671875
-45.7763671875
-50.35400390625
-54.01611328125
-53.1005859375
-71.4111328125
-81.48193359375
-76.904296875
-80.56640625
-69.580078125
-69.580078125
-71.4111328125
-85.14404296875
-101.62353515625
-95.21484375
-105.28564453125
-110.77880859375
-97.0458984375
-86.97509765625
-89.7216796875
-86.97509765625
-79.65087890625
-95.21484375
-94.29931640625
-87.890625
-92.46826171875
-88.80615234375
-92.46826171875
-84.228515625
-78.7353515625
-82.3974609375
-78.7353515625
-78.7353515625
-87.890625
-88.80615234375
-91.552734375
-101.62353515625
-106.201171875
-114.44091796875
-122.6806640625
-138.24462890625
-149.23095703125
-162.9638671875
-163.87939453125
-130.0048828125
-90.63720703125
-28.38134765625
46.69189453125
104.3701171875
171.20361328125
270.08056640625
415.6494140625
567.626953125
743.408203125
936.58447265625
1108.70361328125
1224.06005859375
1305.5419921875
1381.53076171875
1438.29345703125
1409.912109375
1296.38671875
1100.4638671875
921.93603515625
748.9013671875
578.61328125
393.6767578125
255.43212890625
147.39990234375
63.17138671875
29.296875
8.23974609375
-15.56396484375
-43.9453125
-55.84716796875
-65.00244140625
-58.59375
-48.52294921875
-34.7900390625
-32.958984375
-26.55029296875
-31.1279296875
-31.1279296875
-38.4521484375
-37.53662109375
-43.9453125
-34.7900390625
-25.634765625
-25.634765625
-34.7900390625
-27.4658203125
-22.88818359375
-32.04345703125
-35.70556640625
-33.87451171875
-37.53662109375
-48.52294921875
-45.7763671875
-29.296875
-25.634765625
-22.88818359375
-24.71923828125
-29.296875
-35.70556640625
-24.71923828125
-29.296875
-28.38134765625
-19.22607421875
-3.662109375
-9.1552734375
-10.07080078125
-5.4931640625
-9.1552734375
-5.4931640625
-4.57763671875
-8.23974609375
-5.4931640625
1.8310546875
-6.40869140625
0.91552734375
3.662109375
10.986328125
15.56396484375
13.73291015625
18.310546875
20.1416015625
18.310546875
26.55029296875
24.71923828125
32.958984375
38.4521484375
52.18505859375
47.607421875
49.4384765625
55.84716796875
59.50927734375
52.18505859375
62.255859375
68.66455078125
85.14404296875
101.62353515625
102.5390625
97.0458984375
104.3701171875
114.44091796875
107.11669921875
113.525390625
130.92041015625
143.73779296875
151.9775390625
163.87939453125
174.86572265625
189.51416015625
202.33154296875
207.82470703125
214.2333984375
216.97998046875
228.8818359375
241.69921875
252.685546875
277.40478515625
283.8134765625
293.88427734375
306.70166015625
328.67431640625
331.4208984375
339.66064453125
346.98486328125
351.5625
361.63330078125
379.94384765625
391.845703125
388.18359375
390.0146484375
398.25439453125
399.169921875
397.3388671875
399.169921875
404.6630859375
402.83203125
404.6630859375
396.42333984375
390.93017578125
371.7041015625
361.63330078125
343.32275390625
329.58984375
325.01220703125
307.6171875
287.4755859375
276.4892578125
263.671875
216.064453125
195.9228515625
184.9365234375
157.470703125
130.0048828125
117.1875
102.5390625
83.31298828125
77.81982421875
70.49560546875
37.53662109375
27.4658203125
14.6484375
1.8310546875
-10.986328125
-22.88818359375
-32.04345703125
-39.36767578125
-31.1279296875
-38.4521484375
-38.4521484375
-49.4384765625
-67.7490234375
-69.580078125
-77.81982421875
-83.31298828125
-84.228515625
-69.580078125
-75.0732421875
-69.580078125
-68.66455078125
-65.91796875
-75.0732421875
-84.228515625
-95.21484375
-89.7216796875
-84.228515625
-77.81982421875
-72.32666015625
-71.4111328125
-69.580078125
-78.7353515625
-81.48193359375
-86.97509765625
-79.65087890625
-75.0732421875
-75.0732421875
-69.580078125
-68.66455078125
-74.15771484375
-83.31298828125
-80.56640625
-73.2421875
-82.3974609375
-88.80615234375
-81.48193359375
-85.14404296875
-77.81982421875
-67.7490234375
-62.255859375
-70.49560546875
-73.2421875
-70.49560546875
-74.15771484375
-75.98876953125
-75.98876953125
-71.4111328125
-63.17138671875
-62.255859375
-50.35400390625
-65.91796875
-69.580078125
-74.15771484375
-69.580078125
-66.83349609375
-58.59375
-54.931640625
-57.67822265625
-54.931640625
-56.7626953125
-58.59375
-69.580078125
-67.7490234375
-74.15771484375
-75.98876953125
-56.7626953125
-58.59375
-73.2421875
-51.26953125
-47.607421875
-52.18505859375
-59.50927734375
-62.255859375
-60.4248046875
-74.15771484375
-73.2421875
-64.0869140625
-66.83349609375
-63.17138671875
-59.50927734375
-65.00244140625
-76.904296875
-76.904296875
-70.49560546875
-70.49560546875
-72.32666015625
-65.00244140625
-69.580078125
-54.931640625
-61.34033203125
-73.2421875
-75.98876953125
-77.81982421875
-82.3974609375
-82.3974609375
-88.80615234375
-81.48193359375
-81.48193359375
-85.14404296875
-75.98876953125
-80.56640625
-84.228515625
-82.3974609375
-93.3837890625
-83.31298828125
-79.65087890625
-83.31298828125
-81.48193359375
-73.2421875
-79.65087890625
-82.3974609375
-82.3974609375
-86.97509765625
-87.890625
-92.46826171875
-84.228515625
-78.7353515625
-85.14404296875
-75.0732421875
-77.81982421875
-87.890625
-98.876953125
-93.3837890625
-92.46826171875
-92.46826171875
-81.48193359375
-79.65087890625
-83.31298828125
-83.31298828125
-77.81982421875
-68.66455078125
-97.0458984375
-100.7080078125
-91.552734375
-99.79248046875
-96.13037109375
-82.3974609375
-86.0595703125
-67.7490234375
-86.0595703125
-89.7216796875
-89.7216796875
-83.31298828125
-89.7216796875
-105.28564453125
-93.3837890625
-83.31298828125
-75.98876953125
-91.552734375
-92.46826171875
-91.552734375
-101.62353515625
-97.96142578125
-104.3701171875
-108.0322265625
-104.3701171875
-102.5390625
-98.876953125
-92.46826171875
-91.552734375
-89.7216796875
-91.552734375
-93.3837890625
-97.96142578125
-109.86328125
-105.28564453125
-100.7080078125
-86.0595703125
-75.98876953125
-94.29931640625
-101.62353515625
-79.65087890625
-73.2421875
-98.876953125
-108.94775390625
-97.96142578125
-92.46826171875
-88.80615234375
-83.31298828125
-80.56640625
-87.890625
-86.0595703125
-93.3837890625
-101.62353515625
-100.7080078125
-94.29931640625
-95.21484375
-91.552734375
-89.7216796875
-84.228515625
-89.7216796875
-86.97509765625
-89.7216796875
-106.201171875
-109.86328125
-88.80615234375
-93.3837890625
-90.63720703125
-82.3974609375
-77.81982421875
-89.7216796875
-86.0595703125
-80.56640625
-82.3974609375
-94.29931640625
-88.80615234375
-83.31298828125
-84.228515625
-88.80615234375
-75.98876953125
-75.98876953125
-80.56640625
-76.904296875
-75.0732421875
-78.7353515625
-65.91796875
-57.67822265625
-54.01611328125
-59.50927734375
-53.1005859375
-62.255859375
-64.0869140625
-64.0869140625
-76.904296875
-78.7353515625
-69.580078125
-58.59375
-43.9453125
-35.70556640625
-27.4658203125
-31.1279296875
-43.9453125
-46.69189453125
-41.19873046875
-35.70556640625
-29.296875
-30.21240234375
-27.4658203125
-30.21240234375
-35.70556640625
-34.7900390625
-35.70556640625
-45.7763671875
-52.18505859375
-51.26953125
-48.52294921875
-56.7626953125
-53.1005859375
-60.4248046875
-52.18505859375
-50.35400390625
-73.2421875
-88.80615234375
-88.80615234375
-103.45458984375
-97.96142578125
-94.29931640625
-91.552734375
-89.7216796875
-92.46826171875
-103.45458984375
-105.28564453125
-91.552734375
-100.7080078125
-110.77880859375
-105.28564453125
-100.7080078125
-104.3701171875
-104.3701171875
-87.890625
-92.46826171875
-91.552734375
-90.63720703125
-96.13037109375
-105.28564453125
-94.29931640625
-99.79248046875
-103.45458984375
-102.5390625
-100.7080078125
-102.5390625
-108.0322265625
-107.11669921875
-114.44091796875
-130.0048828125
-124.51171875
-130.0048828125
-151.06201171875
-171.20361328125
-175.78125
-157.470703125
-130.92041015625
-80.56640625
-22.88818359375
36.62109375
108.94775390625
203.2470703125
325.01220703125
473.32763671875
650.0244140625
823.05908203125
996.09375
1139.83154296875
1239.6240234375
1300.048828125
1379.69970703125
1408.0810546875
1342.1630859375
1175.537109375
983.2763671875
812.98828125
654.60205078125
470.5810546875
307.6171875
176.69677734375
80.56640625
28.38134765625
1.8310546875
-20.1416015625
-40.283203125
-54.931640625
-64.0869140625
-63.17138671875
-67.7490234375
-73.2421875
-64.0869140625
-61.34033203125
-45.7763671875
-47.607421875
-49.4384765625
-50.35400390625
-45.7763671875
-43.9453125
-51.26953125
-54.01611328125
-49.4384765625
-51.26953125
-46.69189453125
-44.86083984375
-50.35400390625
-55.84716796875
-55.84716796875
-54.01611328125
-66.83349609375
-46.69189453125
-44.86083984375
-47.607421875
-39.36767578125
-35.70556640625
-27.4658203125
-31.1279296875
-33.87451171875
-42.1142578125
-39.36767578125
-44.86083984375
-39.36767578125
-37.53662109375
-22.88818359375
-30.21240234375
-21.05712890625
-21.97265625
-18.310546875
-21.05712890625
-20.1416015625
-18.310546875
-9.1552734375
-8.23974609375
-11.90185546875
-1.8310546875
2.74658203125
4.57763671875
10.07080078125
18.310546875
9.1552734375
4.57763671875
5.4931640625
18.310546875
18.310546875
28.38134765625
42.1142578125
37.53662109375
36.62109375
48.52294921875
45.7763671875
55.84716796875
69.580078125
75.0732421875
63.17138671875
81.48193359375
94.29931640625
95.21484375
98.876953125
110.77880859375
113.525390625
113.525390625
123.59619140625
135.498046875
155.6396484375
171.20361328125
182.18994140625
188.5986328125
205.99365234375
212.40234375
212.40234375
213.31787109375
232.5439453125
247.1923828125
265.5029296875
276.4892578125
292.96875
299.37744140625
301.20849609375
310.36376953125
318.603515625
333.251953125
348.81591796875
358.88671875
371.7041015625
367.12646484375
378.11279296875
368.0419921875
381.77490234375
386.3525390625
379.0283203125
369.873046875
379.0283203125
387.26806640625
377.197265625
370.78857421875
374.45068359375
358.88671875
339.66064453125
310.36376953125
290.22216796875
286.56005859375
260.009765625
240.78369140625
244.44580078125
215.14892578125
197.75390625
165.71044921875
138.24462890625
120.849609375
111.6943359375
85.14404296875
61.34033203125
49.4384765625
33.87451171875
16.4794921875
0.91552734375
-15.56396484375
-25.634765625
-41.19873046875
-51.26953125
-53.1005859375
-53.1005859375
-56.7626953125
-69.580078125
-71.4111328125
-71.4111328125
-75.0732421875
-81.48193359375
-85.14404296875
-88.80615234375
-94.29931640625
-93.3837890625
-100.7080078125
-99.79248046875
-106.201171875
-95.21484375
-101.62353515625
-109.86328125
-100.7080078125
-105.28564453125
-112.60986328125
-114.44091796875
-112.60986328125
-105.28564453125
-104.3701171875
-102.5390625
-102.5390625
-111.6943359375
-99.79248046875
-82.3974609375
-98.876953125
-98.876953125
-90.63720703125
-92.46826171875
-96.13037109375
-97.0458984375
-97.96142578125
-97.0458984375
-97.0458984375
-96.13037109375
-104.3701171875
-97.96142578125
-103.45458984375
-99.79248046875
-94.29931640625
-97.0458984375
-98.876953125
-97.0458984375
-99.79248046875
-92.46826171875
-88.80615234375
-97.0458984375
-89.7216796875
-86.97509765625
-93.3837890625
-89.7216796875
-95.21484375
-95.21484375
-93.3837890625
-92.46826171875
-86.97509765625
-90.63720703125
-87.890625
-86.0595703125
-76.904296875
-77.81982421875
-92.46826171875
-93.3837890625
-83.31298828125
-94.29931640625
-86.0595703125
-87.890625
-81.48193359375
-91.552734375
-89.7216796875
-77.81982421875
-87.890625
-87.890625
-82.3974609375
-84.228515625
-86.0595703125
-86.0595703125
-91.552734375
-95.21484375
-95.21484375
-93.3837890625
-93.3837890625
-94.29931640625
-87.890625
-94.29931640625
-99.79248046875
-99.79248046875
-99.79248046875
-90.63720703125
-94.29931640625
-102.5390625
-97.96142578125
-92.46826171875
-98.876953125
-97.96142578125
-96.13037109375
-98.876953125
-97.0458984375
-100.7080078125
-98.876953125
-104.3701171875
-108.0322265625
-99.79248046875
-98.876953125
-102.5390625
-114.44091796875
-111.6943359375
-105.28564453125
-103.45458984375
-114.44091796875
-107.11669921875
-94.29931640625
-96.13037109375
-111.6943359375
-113.525390625
-110.77880859375
-116.27197265625
-116.27197265625
-117.1875
-119.93408203125
-111.6943359375
-105.28564453125
-111.6943359375
-108.94775390625
-108.94775390625
-109.86328125
-113.525390625
-104.3701171875
-104.3701171875
-108.94775390625
-105.28564453125
-111.6943359375
-111.6943359375
-110.77880859375
-109.86328125
-108.94775390625
-112.60986328125
-112.60986328125
-116.27197265625
-114.44091796875
-107.11669921875
-112.60986328125
-119.0185546875
-122.6806640625
-118.10302734375
-119.0185546875
-117.1875
-118.10302734375
-112.60986328125
-107.11669921875
-119.93408203125
-130.92041015625
-119.0185546875
-104.3701171875
-98.876953125
-97.96142578125
-101.62353515625
-108.0322265625
-106.201171875
-110.77880859375
-120.849609375
-130.0048828125
-115.3564453125
-98.876953125
-112.60986328125
-120.849609375
-119.93408203125
-116.27197265625
-119.0185546875
-114.44091796875
-108.94775390625
-112.60986328125
-107.11669921875
-107.11669921875
-112.60986328125
-117.1875
-108.0322265625
-109.86328125
-114.44091796875
-115.3564453125
-110.77880859375
-104.3701171875
-110.77880859375
