ECG
-23.8037109375
-14.6484375
0
-2.74658203125
-6.40869140625
-14.6484375
-10.986328125
-5.4931640625
-16.4794921875
-17.39501953125
-19.22607421875
-13.73291015625
-8.23974609375
-14.6484375
-16.4794921875
-20.1416015625
-22.88818359375
-23.8037109375
-19.22607421875
-25.634765625
-34.7900390625
-32.958984375
-41.19873046875
-48.52294921875
-52.18505859375
-60.4248046875
-72.32666015625
-69.580078125
-72.32666015625
-70.49560546875
-73.2421875
-72.32666015625
-80.56640625
-75.98876953125
-80.56640625
-86.0595703125
-77.81982421875
-78.7353515625
-76.904296875
-77.81982421875
-74.15771484375
-75.0732421875
-77.81982421875
-78.7353515625
-78.7353515625
-77.81982421875
-83.31298828125
-86.97509765625
-85.14404296875
-76.904296875
-74.15771484375
-74.15771484375
-77.81982421875
-76.904296875
-82.3974609375
-78.7353515625
-83.31298828125
-94.29931640625
-96.13037109375
-97.0458984375
-107.11669921875
-119.0185546875
-130.0048828125
-146.484375
-154.72412109375
-130.92041015625
-87.890625
-27.4658203125
49.4384765625
117.1875
189.51416015625
286.56005859375
425.72021484375
587.7685546875
773.62060546875
955.810546875
1126.0986328125
1248.779296875
1333.92333984375
1405.33447265625
1451.11083984375
1424.560546875
1301.8798828125
1086.73095703125
921.0205078125
764.46533203125
594.17724609375
417.48046875
292.96875
168.45703125
88.80615234375
46.69189453125
27.4658203125
2.74658203125
-22.88818359375
-27.4658203125
-33.87451171875
-36.62109375
-28.38134765625
-21.05712890625
-13.73291015625
-15.56396484375
-10.07080078125
-7.32421875
-17.39501953125
-20.1416015625
-11.90185546875
-20.1416015625
-29.296875
-27.4658203125
-24.71923828125
-21.05712890625
-27.4658203125
-18.310546875
-28.38134765625
-20.1416015625
-21.97265625
-21.97265625
-18.310546875
-18.310546875
-17.39501953125
-17.39501953125
-7.32421875
-8.23974609375
-10.986328125
-21.05712890625
-10.986328125
-4.57763671875
-5.4931640625
-14.6484375
-1.8310546875
1.8310546875
7.32421875
8.23974609375
7.32421875
18.310546875
14.6484375
22.88818359375
20.1416015625
21.05712890625
19.22607421875
19.22607421875
21.97265625
26.55029296875
25.634765625
24.71923828125
31.1279296875
32.04345703125
43.02978515625
44.86083984375
50.35400390625
60.4248046875
56.7626953125
53.1005859375
61.34033203125
67.7490234375
73.2421875
80.56640625
85.14404296875
92.46826171875
96.13037109375
106.201171875
112.60986328125
116.27197265625
119.0185546875
130.92041015625
135.498046875
132.75146484375
145.56884765625
157.470703125
168.45703125
173.9501953125
194.091796875
202.33154296875
204.16259765625
216.97998046875
233.45947265625
235.29052734375
247.1923828125
257.26318359375
270.99609375
281.06689453125
293.88427734375
314.94140625
324.0966796875
344.23828125
347.900390625
338.7451171875
358.88671875
374.45068359375
379.94384765625
380.859375
389.09912109375
390.0146484375
405.57861328125
400.08544921875
406.494140625
415.6494140625
409.24072265625
417.48046875
412.90283203125
401.0009765625
401.0009765625
389.09912109375
380.859375
360.7177734375
357.97119140625
338.7451171875
328.67431640625
305.7861328125
285.64453125
271.91162109375
253.60107421875
225.2197265625
195.9228515625
174.86572265625
162.04833984375
130.0048828125
110.77880859375
98.876953125
81.48193359375
65.00244140625
63.17138671875
54.931640625
41.19873046875
17.39501953125
7.32421875
0.91552734375
-8.23974609375
-19.22607421875
-25.634765625
-32.04345703125
-30.21240234375
-30.21240234375
-39.36767578125
-44.86083984375
-47.607421875
-51.26953125
-50.35400390625
-54.01611328125
-60.4248046875
-62.255859375
-58.59375
-65.91796875
-62.255859375
-66.83349609375
-65.91796875
-64.0869140625
-67.7490234375
-58.59375
-58.59375
-63.17138671875
-60.4248046875
-56.7626953125
-54.931640625
-59.50927734375
-64.0869140625
-72.32666015625
-69.580078125
-58.59375
-60.4248046875
-58.59375
-57.67822265625
-55.84716796875
-59.50927734375
-58.59375
-56.7626953125
-63.17138671875
-52.18505859375
-51.26953125
-60.4248046875
-59.50927734375
-59.50927734375
-53.1005859375
-48.52294921875
-49.4384765625
-48.52294921875
-59.50927734375
-73.2421875
-59.50927734375
-54.931640625
-54.931640625
-54.931640625
-53.1005859375
-46.69189453125
-44.86083984375
-43.02978515625
-49.4384765625
-47.607421875
-47.607421875
-48.52294921875
-43.9453125
-43.9453125
-43.02978515625
-43.9453125
-41.19873046875
-43.02978515625
-45.7763671875
-44.86083984375
-50.35400390625
-43.9453125
-43.9453125
-41.19873046875
-41.19873046875
-37.53662109375
-49.4384765625
-47.607421875
-52.18505859375
-46.69189453125
-44.86083984375
-50.35400390625
-54.01611328125
-46.69189453125
-43.02978515625
-53.1005859375
-53.1005859375
-59.50927734375
-59.50927734375
-58.59375
-55.84716796875
-57.67822265625
-61.34033203125
-71.4111328125
-67.7490234375
-71.4111328125
-67.7490234375
-66.83349609375
-74.15771484375
-64.0869140625
-53.1005859375
-62.255859375
-65.00244140625
-65.91796875
-64.0869140625
-66.83349609375
-65.91796875
-72.32666015625
-65.00244140625
-67.7490234375
-66.83349609375
-66.83349609375
-72.32666015625
-68.66455078125
-63.17138671875
-70.49560546875
-75.0732421875
-74.15771484375
-76.904296875
-79.65087890625
-73.2421875
-80.56640625
-81.48193359375
-81.48193359375
-85.14404296875
-90.63720703125
-84.228515625
-90.63720703125
-94.29931640625
-88.80615234375
-85.14404296875
-91.552734375
-101.62353515625
-95.21484375
-90.63720703125
-92.46826171875
-94.29931640625
-94.29931640625
-101.62353515625
-102.5390625
-99.79248046875
-98.876953125
-97.96142578125
-92.46826171875
-98.876953125
-93.3837890625
-87.890625
-88.80615234375
-97.0458984375
-88.80615234375
-92.46826171875
-94.29931640625
-88.80615234375
-96.13037109375
-94.29931640625
-89.7216796875
-84.228515625
-74.15771484375
-86.97509765625
-91.552734375
-86.0595703125
-85.14404296875
-85.14404296875
-84.228515625
-84.228515625
-81.48193359375
-80.56640625
-82.3974609375
-93.3837890625
-96.13037109375
-105.28564453125
-99.79248046875
-93.3837890625
-84.228515625
-90.63720703125
-88.80615234375
-83.31298828125
-87.890625
-90.63720703125
-86.97509765625
-79.65087890625
-90.63720703125
-86.97509765625
-87.890625
-81.48193359375
-86.0595703125
-85.14404296875
-87.890625
-89.7216796875
-81.48193359375
-84.228515625
-91.552734375
-86.97509765625
-82.3974609375
-77.81982421875
-86.97509765625
-98.876953125
-93.3837890625
-77.81982421875
-88.80615234375
-86.97509765625
-83.31298828125
-83.31298828125
-77.81982421875
-81.48193359375
-86.97509765625
-79.65087890625
-79.65087890625
-85.14404296875
-82.3974609375
-85.14404296875
-91.552734375
-78.7353515625
-82.3974609375
-86.0595703125
-83.31298828125
-86.0595703125
-79.65087890625
-84.228515625
-75.0732421875
-80.56640625
-87.890625
-81.48193359375
-73.2421875
-76.904296875
-67.7490234375
-60.4248046875
-54.931640625
-51.26953125
-43.9453125
-44.86083984375
-46.69189453125
-48.52294921875
-44.86083984375
-55.84716796875
-55.84716796875
-47.607421875
-54.01611328125
-64.0869140625
-53.1005859375
-35.70556640625
-29.296875
-21.97265625
-13.73291015625
-23.8037109375
-29.296875
-21.05712890625
-22.88818359375
-25.634765625
-32.958984375
-29.296875
-22.88818359375
-23.8037109375
-31.1279296875
-32.04345703125
-32.04345703125
-41.19873046875
-33.87451171875
-39.36767578125
-30.21240234375
-36.62109375
-43.9453125
-57.67822265625
-54.931640625
-54.931640625
-66.83349609375
-68.66455078125
-75.98876953125
-77.81982421875
-79.65087890625
-81.48193359375
-77.81982421875
-85.14404296875
-85.14404296875
-95.21484375
-102.5390625
-95.21484375
-90.63720703125
-96.13037109375
-85.14404296875
-79.65087890625
-95.21484375
-93.3837890625
-88.80615234375
-90.63720703125
-84.228515625
-90.63720703125
-97.96142578125
-93.3837890625
-93.3837890625
-90.63720703125
-84.228515625
-91.552734375
-93.3837890625
-81.48193359375
-88.80615234375
-90.63720703125
-91.552734375
-106.201171875
-115.3564453125
-115.3564453125
-130.0048828125
-141.90673828125
-156.55517578125
-162.9638671875
-155.6396484375
-123.59619140625
-62.255859375
0
59.50927734375
126.3427734375
214.2333984375
334.16748046875
498.046875
670.166015625
847.7783203125
1034.5458984375
1185.60791015625
1284.48486328125
1355.89599609375
1429.13818359375
1437.3779296875
1370.54443359375
1182.861328125
997.00927734375
833.1298828125
667.41943359375
490.72265625
336.9140625
219.7265625
116.27197265625
55.84716796875
23.8037109375
7.32421875
-20.1416015625
-48.52294921875
-48.52294921875
-32.958984375
-40.283203125
-32.958984375
-29.296875
-28.38134765625
-31.1279296875
-31.1279296875
-25.634765625
-32.04345703125
-32.04345703125
-32.04345703125
-34.7900390625
-34.7900390625
-32.958984375
-36.62109375
-34.7900390625
-32.958984375
-36.62109375
-41.19873046875
-44.86083984375
-34.7900390625
-41.19873046875
-41.19873046875
-35.70556640625
-34.7900390625
-32.04345703125
-28.38134765625
-27.4658203125
-23.8037109375
-22.88818359375
-22.88818359375
-25.634765625
-25.634765625
-15.56396484375
-10.07080078125
-4.57763671875
-9.1552734375
-10.986328125
-2.74658203125
-2.74658203125
-0.91552734375
-0.91552734375
10.986328125
17.39501953125
18.310546875
19.22607421875
19.22607421875
13.73291015625
19.22607421875
21.05712890625
21.97265625
27.4658203125
32.04345703125
32.958984375
41.19873046875
41.19873046875
46.69189453125
54.01611328125
57.67822265625
54.931640625
64.0869140625
60.4248046875
70.49560546875
78.7353515625
83.31298828125
85.14404296875
86.0595703125
97.0458984375
106.201171875
117.1875
128.173828125
130.0048828125
145.56884765625
156.55517578125
165.71044921875
169.37255859375
173.9501953125
185.85205078125
193.17626953125
212.40234375
224.30419921875
227.05078125
248.10791015625
265.5029296875
270.99609375
280.1513671875
292.96875
302.1240234375
315.85693359375
323.18115234375
336.9140625
346.0693359375
349.7314453125
359.80224609375
377.197265625
382.6904296875
384.521484375
387.26806640625
392.76123046875
396.42333984375
402.83203125
390.0146484375
397.3388671875
399.169921875
392.76123046875
394.59228515625
386.3525390625
382.6904296875
359.80224609375
345.15380859375
335.0830078125
323.18115234375
303.955078125
286.56005859375
261.8408203125
234.375
217.8955078125
200.50048828125
173.03466796875
155.6396484375
133.6669921875
111.6943359375
89.7216796875
75.98876953125
59.50927734375
45.7763671875
36.62109375
21.97265625
11.90185546875
7.32421875
-12.8173828125
-18.310546875
-23.8037109375
-37.53662109375
-42.1142578125
-42.1142578125
-51.26953125
-60.4248046875
-65.00244140625
-64.0869140625
-66.83349609375
-69.580078125
-66.83349609375
-74.15771484375
-70.49560546875
-68.66455078125
-68.66455078125
-72.32666015625
-77.81982421875
-76.904296875
-79.65087890625
-81.48193359375
-87.890625
-83.31298828125
-70.49560546875
-76.904296875
-75.98876953125
-85.14404296875
-84.228515625
-73.2421875
-82.3974609375
-85.14404296875
-84.228515625
-79.65087890625
-72.32666015625
-70.49560546875
-65.91796875
-70.49560546875
-70.49560546875
-75.98876953125
-79.65087890625
-80.56640625
-76.904296875
-79.65087890625
-75.98876953125
-76.904296875
-76.904296875
-77.81982421875
-72.32666015625
-65.00244140625
-68.66455078125
-73.2421875
-72.32666015625
-65.00244140625
-65.91796875
-75.0732421875
-68.66455078125
-65.00244140625
-64.0869140625
-64.0869140625
-61.34033203125
-66.83349609375
-71.4111328125
-65.91796875
-65.00244140625
-64.0869140625
-69.580078125
-74.15771484375
-63.17138671875
-62.255859375
-63.17138671875
-64.0869140625
-60.4248046875
-66.83349609375
-65.00244140625
-71.4111328125
-66.83349609375
-56.7626953125
-58.59375
-57.67822265625
-55.84716796875
-51.26953125
-51.26953125
-65.00244140625
-71.4111328125
-65.00244140625
-65.00244140625
-61.34033203125
-65.00244140625
-65.00244140625
-62.255859375
-67.7490234375
-70.49560546875
-73.2421875
-67.7490234375
-72.32666015625
-75.98876953125
-69.580078125
-75.0732421875
-83.31298828125
-77.81982421875
-86.0595703125
-91.552734375
-89.7216796875
-83.31298828125
-74.15771484375
-69.580078125
-73.2421875
-78.7353515625
-86.97509765625
-83.31298828125
-77.81982421875
-68.66455078125
-72.32666015625
-79.65087890625
-78.7353515625
-75.0732421875
-77.81982421875
-85.14404296875
-86.0595703125
-82.3974609375
-79.65087890625
-86.0595703125
-87.890625
-88.80615234375
-89.7216796875
-85.14404296875
-84.228515625
-87.890625
-82.3974609375
-88.80615234375
-96.13037109375
-93.3837890625
-88.80615234375
-84.228515625
-81.48193359375
-78.7353515625
-85.14404296875
-91.552734375
-91.552734375
-87.890625
-97.0458984375
-97.0458984375
-90.63720703125
-85.14404296875
-91.552734375
-90.63720703125
-86.97509765625
-93.3837890625
-89.7216796875
-87.890625
-92.46826171875
-98.876953125
-93.3837890625
-95.21484375
-92.46826171875
-98.876953125
-100.7080078125
-95.21484375
-85.14404296875
-85.14404296875
-89.7216796875
-88.80615234375
-89.7216796875
-84.228515625
-89.7216796875
-89.7216796875
-88.80615234375
-92.46826171875
-86.97509765625
-82.3974609375
-90.63720703125
-94.29931640625
-87.890625
-94.29931640625
-90.63720703125
-93.3837890625
-91.552734375
-94.29931640625
-95.21484375
-86.97509765625
-96.13037109375
-96.13037109375
-92.46826171875
-89.7216796875
-93.3837890625
-88.80615234375
-87.890625
-89.7216796875
-96.13037109375
-105.28564453125
-99.79248046875
-90.63720703125
-95.21484375
-94.29931640625
-86.0595703125
-93.3837890625
-98.876953125
-101.62353515625
-91.552734375
-85.14404296875
-91.552734375
-92.46826171875
-93.3837890625
-91.552734375
-84.228515625
-85.14404296875
-93.3837890625
-94.29931640625
-94.29931640625
-93.3837890625
-91.552734375
-94.29931640625
-87.890625
-91.552734375
-94.29931640625
-91.552734375
-87.890625
-92.46826171875
-93.3837890625
-85.14404296875
-96.13037109375
-93.3837890625
-97.96142578125
-97.0458984375
-93.3837890625
-100.7080078125
-104.3701171875
-103.45458984375
-93.3837890625
-85.14404296875
-94.29931640625
-87.890625
-91.552734375
-94.29931640625
-86.0595703125
-81.48193359375
-81.48193359375
-72.32666015625
-70.49560546875
-65.00244140625
-65.00244140625
-61.34033203125
-52.18505859375
-45.7763671875
-54.931640625
-49.4384765625
-55.84716796875
-52.18505859375
-54.931640625
-54.931640625
-65.00244140625
-62.255859375
-52.18505859375
-47.607421875
-47.607421875
-25.634765625
-19.22607421875
-29.296875
-32.04345703125
-35.70556640625
-33.87451171875
-21.97265625
-23.8037109375
-25.634765625
-37.53662109375
-25.634765625
-30.21240234375
-33.87451171875
-37.53662109375
-49.4384765625
-54.01611328125
-46.69189453125
-44.86083984375
-54.01611328125
-58.59375
-59.50927734375
-72.32666015625
-72.32666015625
-77.81982421875
-81.48193359375
-79.65087890625
-73.2421875
-86.0595703125
-89.7216796875
-86.97509765625
-87.890625
-92.46826171875
-99.79248046875
-94.29931640625
-98.876953125
-98.876953125
-86.97509765625
-97.0458984375
-95.21484375
-86.97509765625
-86.97509765625
-90.63720703125
-91.552734375
-94.29931640625
-91.552734375
-101.62353515625
-94.29931640625
-89.7216796875
-94.29931640625
-93.3837890625
-93.3837890625
-97.96142578125
-96.13037109375
-90.63720703125
-89.7216796875
-102.5390625
-111.6943359375
-108.0322265625
-101.62353515625
-115.3564453125
-128.173828125
-141.90673828125
-158.38623046875
-164.794921875
-157.470703125
-128.173828125
-58.59375
9.1552734375
69.580078125
131.8359375
219.7265625
348.81591796875
498.046875
683.89892578125
873.4130859375
1054.6875
1208.49609375
1322.93701171875
1411.7431640625
1491.39404296875
1499.6337890625
1424.560546875
1246.03271484375
1051.94091796875
852.35595703125
683.89892578125
511.77978515625
355.224609375
238.037109375
132.75146484375
79.65087890625
24.71923828125
-2.74658203125
-23.8037109375
-27.4658203125
-33.87451171875
-33.87451171875
-22.88818359375
-14.6484375
-14.6484375
-21.05712890625
-25.634765625
-26.55029296875
-26.55029296875
-31.1279296875
-36.62109375
-28.38134765625
-27.4658203125
-38.4521484375
-40.283203125
-41.19873046875
-34.7900390625
-38.4521484375
-35.70556640625
-43.02978515625
-42.1142578125
-36.62109375
-30.21240234375
-26.55029296875
-34.7900390625
-33.87451171875
-33.87451171875
-30.21240234375
-27.4658203125
-37.53662109375
-34.7900390625
-29.296875
-26.55029296875
-22.88818359375
-23.8037109375
-17.39501953125
-14.6484375
-18.310546875
-12.8173828125
-9.1552734375
-10.07080078125
-4.57763671875
-0.91552734375
-7.32421875
-5.4931640625
4.57763671875
8.23974609375
13.73291015625
15.56396484375
12.8173828125
9.1552734375
23.8037109375
23.8037109375
22.88818359375
32.04345703125
31.1279296875
32.958984375
42.1142578125
44.86083984375
43.9453125
47.607421875
58.59375
68.66455078125
67.7490234375
74.15771484375
85.14404296875
89.7216796875
96.13037109375
97.96142578125
102.5390625
106.201171875
130.92041015625
129.08935546875
135.498046875
143.73779296875
157.470703125
169.37255859375
181.2744140625
186.767578125
198.66943359375
226.13525390625
224.30419921875
232.5439453125
246.27685546875
249.93896484375
269.1650390625
282.89794921875
292.96875
304.87060546875
317.68798828125
323.18115234375
335.99853515625
347.900390625
353.3935546875
365.29541015625
369.873046875
368.95751953125
384.521484375
389.09912109375
387.26806640625
393.6767578125
402.83203125
413.818359375
409.24072265625
410.15625
406.494140625
402.83203125
396.42333984375
385.43701171875
369.873046875
360.7177734375
341.49169921875
334.16748046875
314.02587890625
295.71533203125
277.40478515625
252.685546875
230.712890625
208.740234375
182.18994140625
170.2880859375
146.484375
119.0185546875
96.13037109375
81.48193359375
70.49560546875
57.67822265625
40.283203125
18.310546875
-0.91552734375
-5.4931640625
-12.8173828125
-20.1416015625
-24.71923828125
-36.62109375
-46.69189453125
-49.4384765625
-56.7626953125
-50.35400390625
-57.67822265625
-61.34033203125
-65.91796875
-69.580078125
-71.4111328125
-70.49560546875
-62.255859375
-74.15771484375
-73.2421875
-75.0732421875
-77.81982421875
-83.31298828125
-93.3837890625
-79.65087890625
-82.3974609375
-88.80615234375
-84.228515625
-87.890625
-79.65087890625
-81.48193359375
-77.81982421875
-74.15771484375
-69.580078125
-75.0732421875
-75.0732421875
-77.81982421875
-73.2421875
-71.4111328125
-73.2421875
-82.3974609375
-82.3974609375
-85.14404296875
-73.2421875
-75.98876953125
-75.0732421875
-74.15771484375
-69.580078125
-65.91796875
-72.32666015625
-82.3974609375
-79.65087890625
-69.580078125
-72.32666015625
-70.49560546875
-75.0732421875
-67.7490234375
-65.00244140625
-61.34033203125
-68.66455078125
-67.7490234375
-66.83349609375
-74.15771484375
-71.4111328125
-70.49560546875
-66.83349609375
-62.255859375
-66.83349609375
-68.66455078125
-65.91796875
-58.59375
-69.580078125
-68.66455078125
-65.91796875
-65.91796875
-60.4248046875
-57.67822265625
-60.4248046875
-64.0869140625
-69.580078125
-61.34033203125
-63.17138671875
-62.255859375
-65.91796875
-65.00244140625
-61.34033203125
-69.580078125
-66.83349609375
-68.66455078125
-67.7490234375
-72.32666015625
-67.7490234375
-66.83349609375
-59.50927734375
-58.59375
-65.00244140625
-65.00244140625
-63.17138671875
-66.83349609375
-71.4111328125
-70.49560546875
-65.91796875
-72.32666015625
-66.83349609375
-73.2421875
-69.580078125
-73.2421875
-69.580078125
-75.98876953125
-72.32666015625
-67.7490234375
-81.48193359375
-86.0595703125
-80.56640625
-82.3974609375
-87.890625
-81.48193359375
-80.56640625
-80.56640625
-67.7490234375
-78.7353515625
-84.228515625
-86.97509765625
-83.31298828125
-78.7353515625
-84.228515625
-87.890625
-89.7216796875
-91.552734375
-86.0595703125
-79.65087890625
-78.7353515625
-90.63720703125
-94.29931640625
-89.7216796875
-88.80615234375
-93.3837890625
-95.21484375
-92.46826171875
-85.14404296875
-93.3837890625
-97.0458984375
-101.62353515625
-96.13037109375
-90.63720703125
-89.7216796875
-89.7216796875
-96.13037109375
-91.552734375
-91.552734375
-94.29931640625
-90.63720703125
-85.14404296875
-82.3974609375
-91.552734375
-83.31298828125
-88.80615234375
-86.0595703125
-87.890625
-94.29931640625
-95.21484375
-98.876953125
-90.63720703125
-95.21484375
-94.29931640625
-91.552734375
-96.13037109375
-87.890625
-93.3837890625
-88.80615234375
-86.0595703125
-84.228515625
-89.7216796875
-93.3837890625
-88.80615234375
-84.228515625
-86.97509765625
-88.80615234375
-93.3837890625
-91.552734375
-92.46826171875
-93.3837890625
-92.46826171875
-88.80615234375
-89.7216796875
-91.552734375
-98.876953125
-90.63720703125
-86.97509765625
-95.21484375
-98.876953125
-94.29931640625
-93.3837890625
-94.29931640625
-92.46826171875
-91.552734375
-86.97509765625
-88.80615234375
-96.13037109375
-93.3837890625
-88.80615234375
-89.7216796875
-90.63720703125
-90.63720703125
-92.46826171875
-91.552734375
-85.14404296875
-89.7216796875
-87.890625
-88.80615234375
-88.80615234375
-92.46826171875
-94.29931640625
-90.63720703125
-86.97509765625
-93.3837890625
-89.7216796875
-86.0595703125
-93.3837890625
-97.96142578125
-96.13037109375
-91.552734375
-90.63720703125
-87.890625
-86.0595703125
-86.0595703125
-83.31298828125
-90.63720703125
-105.28564453125
-99.79248046875
-91.552734375
-86.97509765625
-89.7216796875
-90.63720703125
-92.46826171875
-88.80615234375
-93.3837890625
-98.876953125
-97.96142578125
-97.0458984375
-95.21484375
-97.0458984375
-89.7216796875
-84.228515625
-86.0595703125
-86.0595703125
-88.80615234375
-88.80615234375
-94.29931640625
-98.876953125
-95.21484375
-90.63720703125
-89.7216796875
-96.13037109375
-98.876953125
-98.876953125
-98.876953125
-95.21484375
-91.552734375
-90.63720703125
-92.46826171875
-85.14404296875
-71.4111328125
-69.580078125
-68.66455078125
-78.7353515625
-75.98876953125
-68.66455078125
-67.7490234375
-55.84716796875
-51.26953125
-47.607421875
-51.26953125
-54.01611328125
-69.580078125
-65.91796875
-73.2421875
-68.66455078125
-70.49560546875
-64.0869140625
-32.958984375
-12.8173828125
-19.22607421875
-21.05712890625
-22.88818359375
-22.88818359375
-24.71923828125
-27.4658203125
-28.38134765625
-30.21240234375
-35.70556640625
-38.4521484375
-49.4384765625
-42.1142578125
-30.21240234375
-33.87451171875
-26.55029296875
-32.04345703125
-37.53662109375
-43.9453125
-53.1005859375
-54.01611328125
-55.84716796875
-60.4248046875
-68.66455078125
-79.65087890625
-81.48193359375
-84.228515625
-87.890625
-85.14404296875
-82.3974609375
-94.29931640625
-90.63720703125
-96.13037109375
-105.28564453125
-98.876953125
-101.62353515625
-94.29931640625
-95.21484375
-93.3837890625
-85.14404296875
-97.96142578125
-101.62353515625
-97.96142578125
-98.876953125
-100.7080078125
-94.29931640625
-91.552734375
-94.29931640625
-89.7216796875
-97.96142578125
-92.46826171875
-100.7080078125
-101.62353515625
-99.79248046875
-104.3701171875
-106.201171875
-101.62353515625
-95.21484375
-113.525390625
-127.25830078125
-142.822265625
-157.470703125
-167.54150390625
-173.03466796875
-161.1328125
-120.849609375
-63.17138671875
3.662109375
71.4111328125
122.6806640625
205.078125
333.251953125
484.31396484375
667.41943359375
853.271484375
1040.95458984375
1181.0302734375
1300.048828125
1394.34814453125
1465.75927734375
1472.16796875
1426.3916015625
1268.00537109375
1066.58935546875
870.66650390625
682.06787109375
504.45556640625
348.81591796875
236.2060546875
123.59619140625
62.255859375
24.71923828125
-10.07080078125
-34.7900390625
-51.26953125
-45.7763671875
-50.35400390625
-41.19873046875
-43.9453125
-40.283203125
-32.958984375
-38.4521484375
-28.38134765625
-19.22607421875
-34.7900390625
-34.7900390625
-40.283203125
-44.86083984375
-32.958984375
-40.283203125
-59.50927734375
-65.00244140625
-64.0869140625
-103.45458984375
-119.93408203125
-106.201171875
-97.96142578125
-132.75146484375
-147.39990234375
-102.5390625
-85.14404296875
-61.34033203125
-2.74658203125
38.4521484375
31.1279296875
14.6484375
21.05712890625
20.1416015625
-4.57763671875
-10.07080078125
4.57763671875
13.73291015625
1.8310546875
3.662109375
10.986328125
10.07080078125
1.8310546875
3.662109375
18.310546875
0.91552734375
3.662109375
6.40869140625
-5.4931640625
-3.662109375
9.1552734375
17.39501953125
8.23974609375
-18.310546875
-22.88818359375
-13.73291015625
-3.662109375
-25.634765625
-43.02978515625
-11.90185546875
17.39501953125
32.04345703125
52.18505859375
46.69189453125
54.931640625
52.18505859375
54.01611328125
67.7490234375
65.00244140625
57.67822265625
85.14404296875
129.08935546875
136.41357421875
140.07568359375
156.55517578125
172.119140625
184.9365234375
190.4296875
164.794921875
133.6669921875
133.6669921875
144.6533203125
169.37255859375
224.30419921875
244.44580078125
265.5029296875
269.1650390625
275.57373046875
259.09423828125
296.630859375
314.02587890625
327.7587890625
343.32275390625
357.97119140625
348.81591796875
325.927734375
338.7451171875
333.251953125
347.900390625
377.197265625
395.5078125
401.91650390625
396.42333984375
358.88671875
357.0556640625
366.2109375
383.60595703125
378.11279296875
376.28173828125
357.97119140625
326.84326171875
294.7998046875
287.4755859375
301.20849609375
283.8134765625
233.45947265625
213.31787109375
214.2333984375
205.078125
162.9638671875
157.470703125
205.078125
199.5849609375
148.3154296875
97.0458984375
68.66455078125
33.87451171875
6.40869140625
42.1142578125
36.62109375
-13.73291015625
-49.4384765625
-31.1279296875
1.8310546875
-6.40869140625
-16.4794921875
-31.1279296875
-42.1142578125
-44.86083984375
-84.228515625
-98.876953125
-91.552734375
-99.79248046875
-98.876953125
-58.59375
-50.35400390625
-58.59375
-67.7490234375
-65.91796875
-87.890625
-104.3701171875
-99.79248046875
-94.29931640625
-101.62353515625
-90.63720703125
-114.44091796875
-119.0185546875
-98.876953125
-95.21484375
-115.3564453125
-123.59619140625
-120.849609375
-108.94775390625
-106.201171875
-98.876953125
-89.7216796875
-74.15771484375
-102.5390625
-140.9912109375
-140.07568359375
-140.9912109375
-119.0185546875
-94.29931640625
-68.66455078125
-46.69189453125
-47.607421875
-70.49560546875
-77.81982421875
-85.14404296875
-92.46826171875
-114.44091796875
-121.76513671875
-141.90673828125
-140.07568359375
-140.9912109375
-101.62353515625
-59.50927734375
-58.59375
-64.0869140625
-70.49560546875
-66.83349609375
-56.7626953125
-62.255859375
-65.00244140625
-83.31298828125
-102.5390625
-107.11669921875
-100.7080078125
-92.46826171875
-111.6943359375
-88.80615234375
-82.3974609375
-75.0732421875
-83.31298828125
-107.11669921875
-114.44091796875
-94.29931640625
-98.876953125
-106.201171875
-65.91796875
-56.7626953125
-66.83349609375
-85.14404296875
-72.32666015625
-52.18505859375
-71.4111328125
-93.3837890625
-83.31298828125
-90.63720703125
-88.80615234375
-57.67822265625
-39.36767578125
-58.59375
-76.904296875
-80.56640625
-108.94775390625
-92.46826171875
-75.98876953125
-77.81982421875
-79.65087890625
-86.0595703125
-90.63720703125
-97.0458984375
-102.5390625
-87.890625
-75.0732421875
-86.97509765625
-107.11669921875
-98.876953125
-94.29931640625
-109.86328125
-111.6943359375
-100.7080078125
-98.876953125
-87.890625
-59.50927734375
-65.91796875
-77.81982421875
-85.14404296875
-97.0458984375
-98.876953125
-99.79248046875
-97.0458984375
-88.80615234375
-76.904296875
-89.7216796875
-100.7080078125
-95.21484375
-86.0595703125
-95.21484375
-107.11669921875
-108.0322265625
-108.0322265625
-101.62353515625
-105.28564453125
-94.29931640625
-108.94775390625
-101.62353515625
-82.3974609375
-82.3974609375
-118.10302734375
-111.6943359375
-86.97509765625
-117.1875
-132.75146484375
-128.173828125
-137.3291015625
-116.27197265625
-104.3701171875
-71.4111328125
-90.63720703125
-122.6806640625
-99.79248046875
-80.56640625
-88.80615234375
-100.7080078125
-107.11669921875
-105.28564453125
-101.62353515625
-83.31298828125
-78.7353515625
-94.29931640625
-103.45458984375
-111.6943359375
-116.27197265625
-108.94775390625
-112.60986328125
-111.6943359375
-108.94775390625
-75.0732421875
-69.580078125
-97.96142578125
-108.94775390625
-105.28564453125
-118.10302734375
-121.76513671875
-94.29931640625
-98.876953125
-119.0185546875
-141.90673828125
-135.498046875
-124.51171875
-131.8359375
-131.8359375
-97.96142578125
-91.552734375
-108.94775390625
-120.849609375
-108.94775390625
-92.46826171875
-99.79248046875
-91.552734375
-69.580078125
-66.83349609375
-79.65087890625
-94.29931640625
-109.86328125
-126.3427734375
-141.90673828125
-108.0322265625
-112.60986328125
-110.77880859375
-114.44091796875
-114.44091796875
-100.7080078125
-94.29931640625
-89.7216796875
-107.11669921875
-108.0322265625
-89.7216796875
-75.0732421875
-97.96142578125
-108.0322265625
-96.13037109375
-107.11669921875
-115.3564453125
-113.525390625
-100.7080078125
-99.79248046875
-104.3701171875
-109.86328125
-115.3564453125
-129.08935546875
-149.23095703125
-132.75146484375
-134.58251953125
-131.8359375
-112.60986328125
-87.890625
-112.60986328125
-127.25830078125
-111.6943359375
-97.0458984375
-89.7216796875
-75.0732421875
-68.66455078125
-88.80615234375
-113.525390625
-120.849609375
-109.86328125
-102.5390625
-98.876953125
-95.21484375
-89.7216796875
-99.79248046875
-113.525390625
-114.44091796875
-106.201171875
-105.28564453125
-94.29931640625
-81.48193359375
-86.97509765625
-79.65087890625
-63.17138671875
-60.4248046875
-62.255859375
-68.66455078125
-93.3837890625
-94.29931640625
-71.4111328125
-74.15771484375
-72.32666015625
-98.876953125
-113.525390625
-103.45458984375
-81.48193359375
-54.01611328125
-16.4794921875
4.57763671875
-22.88818359375
-34.7900390625
-27.4658203125
-38.4521484375
-51.26953125
-45.7763671875
-54.01611328125
-68.66455078125
-76.904296875
-65.91796875
-67.7490234375
-66.83349609375
-60.4248046875
-42.1142578125
-36.62109375
-43.02978515625
-50.35400390625
-75.0732421875
-76.904296875
-82.3974609375
-103.45458984375
-97.0458984375
-86.0595703125
-110.77880859375
-118.10302734375
-130.0048828125
-123.59619140625
-113.525390625
-88.80615234375
-90.63720703125
-104.3701171875
-109.86328125
-108.94775390625
-112.60986328125
-129.08935546875
-139.16015625
-143.73779296875
-130.92041015625
-114.44091796875
-86.0595703125
-77.81982421875
-86.97509765625
-101.62353515625
-116.27197265625
-118.10302734375
-137.3291015625
-131.8359375
-106.201171875
-100.7080078125
-106.201171875
-117.1875
-113.525390625
-115.3564453125
-129.08935546875
-129.08935546875
-130.0048828125
-148.3154296875
-151.06201171875
-159.3017578125
-183.10546875
-177.6123046875
-153.80859375
-103.45458984375
-33.87451171875
21.97265625
82.3974609375
176.69677734375
284.72900390625
414.73388671875
577.69775390625
739.74609375
903.62548828125
1049.1943359375
1183.77685546875
1300.048828125
1370.54443359375
1376.953125
1333.0078125
1202.08740234375
1001.5869140625
839.53857421875
678.40576171875
517.27294921875
376.28173828125
264.58740234375
139.16015625
53.1005859375
7.32421875
-25.634765625
-47.607421875
-73.2421875
-93.3837890625
-91.552734375
-68.66455078125
-46.69189453125
-40.283203125
-40.283203125
-40.283203125
-42.1142578125
-43.02978515625
-43.9453125
-35.70556640625
-53.1005859375
-60.4248046875
-59.50927734375
-88.80615234375
-97.0458984375
-87.890625
-92.46826171875
-83.31298828125
-76.904296875
-57.67822265625
-17.39501953125
-39.36767578125
-50.35400390625
-44.86083984375
-54.931640625
-54.931640625
-32.958984375
-15.56396484375
-13.73291015625
-32.958984375
-46.69189453125
-44.86083984375
-48.52294921875
-43.02978515625
-31.1279296875
1.8310546875
-0.91552734375
-10.986328125
-30.21240234375
-36.62109375
-29.296875
-39.36767578125
-41.19873046875
-27.4658203125
-48.52294921875
-48.52294921875
-21.97265625
0.91552734375
-5.4931640625
10.07080078125
48.52294921875
42.1142578125
27.4658203125
17.39501953125
14.6484375
10.07080078125
14.6484375
24.71923828125
29.296875
29.296875
24.71923828125
32.958984375
68.66455078125
74.15771484375
68.66455078125
71.4111328125
79.65087890625
90.63720703125
90.63720703125
75.98876953125
61.34033203125
61.34033203125
90.63720703125
124.51171875
154.72412109375
164.794921875
160.21728515625
148.3154296875
155.6396484375
157.470703125
174.86572265625
184.02099609375
205.078125
222.47314453125
226.13525390625
241.69921875
280.1513671875
279.23583984375
269.1650390625
276.4892578125
297.54638671875
305.7861328125
325.01220703125
340.576171875
337.82958984375
335.0830078125
341.49169921875
362.548828125
381.77490234375
389.09912109375
371.7041015625
368.0419921875
362.548828125
348.81591796875
342.4072265625
356.14013671875
354.30908203125
346.98486328125
360.7177734375
356.14013671875
337.82958984375
299.37744140625
260.009765625
254.5166015625
257.26318359375
238.037109375
196.83837890625
171.20361328125
154.72412109375
138.24462890625
126.3427734375
108.94775390625
95.21484375
75.0732421875
43.9453125
9.1552734375
21.05712890625
21.05712890625
5.4931640625
-10.07080078125
-9.1552734375
-4.57763671875
-11.90185546875
-51.26953125
-71.4111328125
-86.0595703125
-103.45458984375
-97.96142578125
-80.56640625
-71.4111328125
-56.7626953125
-74.15771484375
-89.7216796875
-74.15771484375
-84.228515625
-86.0595703125
-87.890625
-87.890625
-97.0458984375
-110.77880859375
-109.86328125
-110.77880859375
-108.94775390625
-104.3701171875
-91.552734375
-89.7216796875
-97.0458984375
-105.28564453125
-109.86328125
-108.0322265625
-119.0185546875
-129.08935546875
-112.60986328125
-86.97509765625
-77.81982421875
-73.2421875
-77.81982421875
-79.65087890625
-92.46826171875
-96.13037109375
-82.3974609375
-79.65087890625
-90.63720703125
-99.79248046875
-90.63720703125
-68.66455078125
-70.49560546875
-65.00244140625
-86.0595703125
-99.79248046875
-85.14404296875
-74.15771484375
-81.48193359375
-93.3837890625
-105.28564453125
-97.96142578125
-100.7080078125
-93.3837890625
-75.0732421875
-84.228515625
-83.31298828125
-80.56640625
-93.3837890625
-89.7216796875
-69.580078125
-76.904296875
-103.45458984375
-114.44091796875
-108.0322265625
-89.7216796875
-70.49560546875
-57.67822265625
-43.02978515625
-40.283203125
-72.32666015625
-87.890625
-93.3837890625
-103.45458984375
-92.46826171875
-105.28564453125
-104.3701171875
-62.255859375
-43.02978515625
-62.255859375
-59.50927734375
-74.15771484375
-96.13037109375
-113.525390625
-113.525390625
-89.7216796875
-71.4111328125
-58.59375
-78.7353515625
-104.3701171875
-119.0185546875
-116.27197265625
-97.96142578125
-80.56640625
-97.0458984375
-94.29931640625
-83.31298828125
-81.48193359375
-92.46826171875
-65.00244140625
-50.35400390625
-74.15771484375
-85.14404296875
-91.552734375
-109.86328125
-112.60986328125
-108.0322265625
-104.3701171875
-115.3564453125
-109.86328125
-90.63720703125
-101.62353515625
-112.60986328125
-97.96142578125
-108.94775390625
-106.201171875
-113.525390625
-119.93408203125
-136.41357421875
-121.76513671875
-126.3427734375
-134.58251953125
-119.93408203125
-121.76513671875
-102.5390625
-94.29931640625
-102.5390625
-105.28564453125
-112.60986328125
-98.876953125
-95.21484375
-97.96142578125
-89.7216796875
-83.31298828125
-86.0595703125
-102.5390625
-116.27197265625
-120.849609375
-126.3427734375
-139.16015625
-135.498046875
-132.75146484375
-124.51171875
-111.6943359375
-102.5390625
-107.11669921875
-104.3701171875
-82.3974609375
-78.7353515625
-92.46826171875
-110.77880859375
-121.76513671875
-137.3291015625
-140.07568359375
-134.58251953125
-130.0048828125
-86.97509765625
-83.31298828125
-91.552734375
-95.21484375
-97.96142578125
-110.77880859375
-116.27197265625
-113.525390625
-129.08935546875
-139.16015625
-133.6669921875
-131.8359375
-135.498046875
-123.59619140625
-102.5390625
-123.59619140625
-123.59619140625
-97.0458984375
-98.876953125
-106.201171875
-115.3564453125
-134.58251953125
-146.484375
-128.173828125
-131.8359375
-137.3291015625
-129.08935546875
-123.59619140625
-128.173828125
-132.75146484375
-126.3427734375
-77.81982421875
-71.4111328125
-97.0458984375
-96.13037109375
-99.79248046875
-105.28564453125
-102.5390625
-108.0322265625
-129.08935546875
-110.77880859375
-109.86328125
-108.0322265625
-101.62353515625
-75.0732421875
-92.46826171875
-97.0458984375
-95.21484375
-104.3701171875
-114.44091796875
-98.876953125
-65.91796875
-62.255859375
-75.98876953125
-81.48193359375
-91.552734375
-82.3974609375
-103.45458984375
-108.0322265625
-96.13037109375
-85.14404296875
-95.21484375
-94.29931640625
-61.34033203125
-59.50927734375
-59.50927734375
-72.32666015625
-84.228515625
-75.0732421875
-66.83349609375
-60.4248046875
-46.69189453125
-44.86083984375
-73.2421875
-94.29931640625
-81.48193359375
-48.52294921875
-37.53662109375
-15.56396484375
-21.05712890625
-38.4521484375
-42.1142578125
-43.02978515625
-51.26953125
-69.580078125
-83.31298828125
-68.66455078125
-76.904296875
-112.60986328125
-127.25830078125
-116.27197265625
-110.77880859375
-102.5390625
-98.876953125
-98.876953125
-114.44091796875
-119.93408203125
-129.08935546875
-142.822265625
-141.90673828125
-140.9912109375
-146.484375
-135.498046875
-101.62353515625
-100.7080078125
-109.86328125
-134.58251953125
-140.07568359375
-121.76513671875
-115.3564453125
-121.76513671875
-84.228515625
-86.97509765625
-95.21484375
-97.96142578125
-126.3427734375
-133.6669921875
-137.3291015625
-137.3291015625
-114.44091796875
-106.201171875
-130.92041015625
-143.73779296875
-136.41357421875
-156.55517578125
-154.72412109375
-175.78125
-206.9091796875
-198.66943359375
-177.6123046875
-137.3291015625
-60.4248046875
18.310546875
58.59375
124.51171875
239.8681640625
379.0283203125
547.4853515625
728.759765625
924.6826171875
1088.56201171875
1180.11474609375
1246.9482421875
1363.22021484375
1408.99658203125
1344.90966796875
1221.3134765625
1037.29248046875
858.7646484375
716.85791015625
556.640625
364.3798828125
236.2060546875
114.44091796875
23.8037109375
3.662109375
-17.39501953125
-43.9453125
-68.66455078125
-72.32666015625
-83.31298828125
-101.62353515625
-113.525390625
-86.0595703125
-75.98876953125
-96.13037109375
-84.228515625
-67.7490234375
-57.67822265625
-41.19873046875
-61.34033203125
-86.0595703125
-68.66455078125
-74.15771484375
-77.81982421875
-68.66455078125
-31.1279296875
-27.4658203125
-48.52294921875
-58.59375
-84.228515625
-76.904296875
-69.580078125
-73.2421875
-83.31298828125
-84.228515625
-73.2421875
-62.255859375
-45.7763671875
-27.4658203125
-43.9453125
-49.4384765625
-48.52294921875
-66.83349609375
-64.0869140625
-62.255859375
-58.59375
-40.283203125
-65.91796875
-75.98876953125
-69.580078125
-65.00244140625
-54.01611328125
-25.634765625
3.662109375
1.8310546875
-34.7900390625
-43.9453125
-41.19873046875
-27.4658203125
0.91552734375
20.1416015625
23.8037109375
2.74658203125
-3.662109375
5.4931640625
4.57763671875
4.57763671875
13.73291015625
15.56396484375
26.55029296875
21.97265625
5.4931640625
-1.8310546875
16.4794921875
37.53662109375
29.296875
33.87451171875
58.59375
117.1875
136.41357421875
121.76513671875
131.8359375
125.42724609375
104.3701171875
120.849609375
130.0048828125
142.822265625
179.443359375
196.83837890625
173.9501953125
184.02099609375
199.5849609375
210.5712890625
242.61474609375
268.24951171875
269.1650390625
271.91162109375
283.8134765625
292.05322265625
283.8134765625
277.40478515625
295.71533203125
314.02587890625
323.18115234375
323.18115234375
329.58984375
345.15380859375
353.3935546875
376.28173828125
397.3388671875
409.24072265625
372.61962890625
346.0693359375
342.4072265625
341.49169921875
351.5625
359.80224609375
350.64697265625
321.35009765625
302.1240234375
252.685546875
234.375
221.5576171875
239.8681640625
238.95263671875
200.50048828125
187.68310546875
147.39990234375
108.0322265625
103.45458984375
79.65087890625
47.607421875
8.23974609375
18.310546875
21.05712890625
14.6484375
-0.91552734375
-19.22607421875
-21.05712890625
-31.1279296875
-32.958984375
-24.71923828125
-43.9453125
-54.931640625
-92.46826171875
-114.44091796875
-104.3701171875
-120.849609375
-124.51171875
-102.5390625
-79.65087890625
-94.29931640625
-84.228515625
-91.552734375
-108.94775390625
-105.28564453125
-126.3427734375
-144.6533203125
-151.9775390625
-166.6259765625
-157.470703125
-160.21728515625
-114.44091796875
-108.94775390625
-111.6943359375
-87.890625
-68.66455078125
-71.4111328125
-98.876953125
-109.86328125
-135.498046875
-146.484375
-133.6669921875
-108.0322265625
-90.63720703125
-94.29931640625
-94.29931640625
-119.93408203125
-167.54150390625
-168.45703125
-137.3291015625
-132.75146484375
-120.849609375
-75.0732421875
-72.32666015625
-106.201171875
-110.77880859375
-136.41357421875
-158.38623046875
-146.484375
-130.92041015625
-106.201171875
-75.98876953125
-89.7216796875
-111.6943359375
-100.7080078125
-123.59619140625
-142.822265625
-130.0048828125
-135.498046875
-130.92041015625
-91.552734375
-78.7353515625
-90.63720703125
-102.5390625
-120.849609375
-126.3427734375
-104.3701171875
-72.32666015625
-85.14404296875
-102.5390625
-89.7216796875
-97.0458984375
-98.876953125
-114.44091796875
-139.16015625
-148.3154296875
-153.80859375
-134.58251953125
-79.65087890625
-41.19873046875
-55.84716796875
-79.65087890625
-99.79248046875
-121.76513671875
-130.0048828125
-139.16015625
-143.73779296875
-161.1328125
-151.9775390625
-136.41357421875
-109.86328125
-114.44091796875
-109.86328125
-80.56640625
-90.63720703125
-110.77880859375
-140.9912109375
-124.51171875
-127.25830078125
-129.08935546875
-113.525390625
-84.228515625
-90.63720703125
-124.51171875
-133.6669921875
-132.75146484375
-140.07568359375
-137.3291015625
-117.1875
-110.77880859375
-121.76513671875
-125.42724609375
-158.38623046875
-165.71044921875
-157.470703125
-125.42724609375
-130.0048828125
-140.9912109375
-127.25830078125
-127.25830078125
-114.44091796875
-115.3564453125
-126.3427734375
-119.0185546875
-122.6806640625
-147.39990234375
-184.9365234375
-198.66943359375
-187.68310546875
-159.3017578125
-149.23095703125
-130.92041015625
-141.90673828125
-151.06201171875
-139.16015625
-115.3564453125
-114.44091796875
-131.8359375
-124.51171875
-107.11669921875
-109.86328125
-105.28564453125
-112.60986328125
-108.94775390625
-106.201171875
-135.498046875
-150.146484375
-124.51171875
-108.0322265625
-119.93408203125
-124.51171875
-126.3427734375
-142.822265625
-163.87939453125
-155.6396484375
-146.484375
-149.23095703125
-135.498046875
-164.794921875
-193.17626953125
-225.2197265625
-252.685546875
-241.69921875
-175.78125
-118.10302734375
-119.93408203125
-124.51171875
-114.44091796875
-92.46826171875
-75.0732421875
-91.552734375
-123.59619140625
-158.38623046875
-152.89306640625
-121.76513671875
-110.77880859375
-115.3564453125
-147.39990234375
-158.38623046875
-173.9501953125
-161.1328125
-151.06201171875
-142.822265625
-126.3427734375
-125.42724609375
-136.41357421875
-165.71044921875
-184.02099609375
-193.17626953125
-219.7265625
-189.51416015625
-119.0185546875
-136.41357421875
-160.21728515625
-157.470703125
-132.75146484375
-130.92041015625
-136.41357421875
-133.6669921875
-126.3427734375
-161.1328125
-179.443359375
-182.18994140625
-181.2744140625
-119.0185546875
-108.94775390625
-126.3427734375
-137.3291015625
-140.07568359375
-130.0048828125
-122.6806640625
-107.11669921875
-101.62353515625
-108.0322265625
-123.59619140625
-129.08935546875
-121.76513671875
-115.3564453125
-105.28564453125
-68.66455078125
-86.0595703125
-119.93408203125
-123.59619140625
-129.08935546875
-146.484375
-149.23095703125
-140.9912109375
-120.849609375
-86.97509765625
-39.36767578125
-38.4521484375
-65.91796875
-66.83349609375
-78.7353515625
-73.2421875
-63.17138671875
-85.14404296875
-112.60986328125
-101.62353515625
-91.552734375
-115.3564453125
-122.6806640625
-111.6943359375
-100.7080078125
-93.3837890625
-111.6943359375
-84.228515625
-81.48193359375
-105.28564453125
-122.6806640625
-118.10302734375
-145.56884765625
-162.9638671875
-177.6123046875
-197.75390625
-146.484375
-94.29931640625
-133.6669921875
-173.03466796875
-180.35888671875
-129.08935546875
-108.94775390625
-146.484375
-146.484375
-142.822265625
-152.89306640625
-164.794921875
-164.794921875
-166.6259765625
-176.69677734375
-152.89306640625
-144.6533203125
-144.6533203125
-143.73779296875
-143.73779296875
-151.06201171875
-157.470703125
-170.2880859375
-182.18994140625
-152.89306640625
-135.498046875
-132.75146484375
-160.21728515625
-172.119140625
-181.2744140625
-214.2333984375
-227.96630859375
-239.8681640625
-216.97998046875
-222.47314453125
-229.79736328125
-219.7265625
-178.52783203125
-141.90673828125
-106.201171875
-42.1142578125
31.1279296875
51.26953125
113.525390625
207.82470703125
339.66064453125
531.005859375
728.759765625
921.0205078125
1094.970703125
1229.55322265625
1322.021484375
1398.92578125
1436.46240234375
1391.6015625
1264.34326171875
1062.01171875
866.0888671875
677.490234375
458.67919921875
274.658203125
157.470703125
17.39501953125
-63.17138671875
-54.931640625
-36.62109375
-82.3974609375
-135.498046875
-149.23095703125
-132.75146484375
-117.1875
-78.7353515625
-72.32666015625
-54.931640625
-48.52294921875
-46.69189453125
-41.19873046875
-48.52294921875
-48.52294921875
-61.34033203125
-61.34033203125
-58.59375
-73.2421875
-90.63720703125
-111.6943359375
-134.58251953125
-120.849609375
-119.93408203125
-119.93408203125
-104.3701171875
-47.607421875
-61.34033203125
-75.0732421875
-69.580078125
-69.580078125
-73.2421875
-75.98876953125
-82.3974609375
-97.0458984375
-107.11669921875
-122.6806640625
-141.90673828125
-162.9638671875
-130.92041015625
-65.00244140625
-73.2421875
-76.904296875
-79.65087890625
-84.228515625
-54.01611328125
-59.50927734375
-51.26953125
-20.1416015625
-32.958984375
-60.4248046875
-57.67822265625
-55.84716796875
-53.1005859375
-31.1279296875
-9.1552734375
-31.1279296875
-45.7763671875
-28.38134765625
-32.04345703125
-58.59375
-63.17138671875
-30.21240234375
-1.8310546875
7.32421875
14.6484375
32.04345703125
34.7900390625
23.8037109375
22.88818359375
15.56396484375
17.39501953125
1.8310546875
-11.90185546875
-33.87451171875
-41.19873046875
-40.283203125
23.8037109375
54.01611328125
83.31298828125
130.0048828125
163.87939453125
164.794921875
163.87939453125
161.1328125
173.03466796875
201.416015625
205.99365234375
227.05078125
255.43212890625
262.75634765625
268.24951171875
270.99609375
272.8271484375
270.99609375
269.1650390625
278.3203125
274.658203125
277.40478515625
282.89794921875
320.4345703125
316.7724609375
311.279296875
312.19482421875
300.29296875
314.02587890625
352.47802734375
363.46435546875
335.0830078125
334.16748046875
323.18115234375
308.53271484375
281.06689453125
266.41845703125
278.3203125
284.72900390625
273.74267578125
278.3203125
249.0234375
246.27685546875
211.48681640625
179.443359375
168.45703125
133.6669921875
134.58251953125
146.484375
133.6669921875
99.79248046875
70.49560546875
45.7763671875
21.05712890625
-5.4931640625
-39.36767578125
-49.4384765625
-37.53662109375
-50.35400390625
-71.4111328125
-95.21484375
-90.63720703125
-100.7080078125
-104.3701171875
-104.3701171875
-121.76513671875
-139.16015625
-162.9638671875
-178.52783203125
-194.091796875
-191.34521484375
-157.470703125
-171.20361328125
-172.119140625
-168.45703125
-168.45703125
-177.6123046875
-196.83837890625
-116.27197265625
-93.3837890625
-106.201171875
-107.11669921875
-74.15771484375
-68.66455078125
-104.3701171875
-115.3564453125
-138.24462890625
-141.90673828125
-136.41357421875
-134.58251953125
-131.8359375
-134.58251953125
-127.25830078125
-124.51171875
-124.51171875
-128.173828125
-136.41357421875
-152.89306640625
-165.71044921875
-182.18994140625
-188.5986328125
-212.40234375
-207.82470703125
-210.5712890625
-175.78125
-132.75146484375
-103.45458984375
-105.28564453125
-120.849609375
-143.73779296875
-151.9775390625
-169.37255859375
-184.02099609375
-193.17626953125
-162.04833984375
-131.8359375
-119.0185546875
-74.15771484375
-66.83349609375
-71.4111328125
-86.0595703125
-130.0048828125
-153.80859375
-160.21728515625
-175.78125
-158.38623046875
-102.5390625
-99.79248046875
-102.5390625
-109.86328125
-110.77880859375
-99.79248046875
-111.6943359375
-128.173828125
-156.55517578125
-163.87939453125
-189.51416015625
-189.51416015625
-162.9638671875
-147.39990234375
-125.42724609375
-105.28564453125
-104.3701171875
-113.525390625
-117.1875
-126.3427734375
-133.6669921875
-160.21728515625
-166.6259765625
-157.470703125
-147.39990234375
-135.498046875
-121.76513671875
-130.92041015625
-106.201171875
-117.1875
-136.41357421875
-150.146484375
-162.04833984375
-169.37255859375
-216.064453125
-218.81103515625
-217.8955078125
-172.119140625
-155.6396484375
-130.92041015625
-92.46826171875
-128.173828125
-158.38623046875
-100.7080078125
-55.84716796875
-102.5390625
-145.56884765625
-187.68310546875
-205.078125
-215.14892578125
-163.87939453125
-110.77880859375
-108.0322265625
-70.49560546875
-73.2421875
-118.10302734375
-145.56884765625
-151.9775390625
-159.3017578125
-147.39990234375
-146.484375
-135.498046875
-135.498046875
-120.849609375
-129.08935546875
-170.2880859375
-200.50048828125
-213.31787109375
-198.66943359375
-169.37255859375
-153.80859375
-164.794921875
-140.07568359375
-133.6669921875
-184.9365234375
-189.51416015625
-167.54150390625
-181.2744140625
-216.064453125
-247.1923828125
-255.43212890625
-185.85205078125
-164.794921875
-134.58251953125
-64.0869140625
-96.13037109375
-156.55517578125
-204.16259765625
-221.5576171875
-199.5849609375
-138.24462890625
-71.4111328125
-115.3564453125
-138.24462890625
-133.6669921875
-132.75146484375
-118.10302734375
-119.93408203125
-129.08935546875
-155.6396484375
-150.146484375
-151.06201171875
-154.72412109375
-154.72412109375
-163.87939453125
-187.68310546875
-191.34521484375
-174.86572265625
-180.35888671875
-169.37255859375
-169.37255859375
-157.470703125
-126.3427734375
-141.90673828125
-165.71044921875
-189.51416015625
-182.18994140625
-173.03466796875
-200.50048828125
-230.712890625
-275.57373046875
-240.78369140625
-219.7265625
-198.66943359375
-136.41357421875
-71.4111328125
-78.7353515625
-117.1875
-130.92041015625
-155.6396484375
-184.02099609375
-195.9228515625
-205.078125
-195.00732421875
-160.21728515625
-91.552734375
-86.0595703125
-114.44091796875
-137.3291015625
-146.484375
-170.2880859375
-159.3017578125
-158.38623046875
-140.07568359375
-117.1875
-133.6669921875
-149.23095703125
-155.6396484375
-156.55517578125
-199.5849609375
-241.69921875
-231.62841796875
-194.091796875
-157.470703125
-127.25830078125
-107.11669921875
-102.5390625
-90.63720703125
-85.14404296875
-114.44091796875
-158.38623046875
-175.78125
-185.85205078125
-197.75390625
-184.02099609375
-139.16015625
-47.607421875
-58.59375
-83.31298828125
-89.7216796875
-82.3974609375
-86.97509765625
-71.4111328125
-75.0732421875
-79.65087890625
-71.4111328125
-71.4111328125
-75.98876953125
-86.0595703125
-76.904296875
-92.46826171875
-104.3701171875
-86.0595703125
-85.14404296875
-124.51171875
-139.16015625
-141.90673828125
-155.6396484375
-147.39990234375
-121.76513671875
-131.8359375
-155.6396484375
-165.71044921875
-162.9638671875
-147.39990234375
-171.20361328125
-171.20361328125
-101.62353515625
-100.7080078125
-154.72412109375
-190.4296875
-194.091796875
-200.50048828125
-183.10546875
-165.71044921875
-149.23095703125
-134.58251953125
-110.77880859375
-109.86328125
-162.04833984375
-187.68310546875
-186.767578125
-196.83837890625
-172.119140625
-135.498046875
-124.51171875
-113.525390625
-111.6943359375
-129.08935546875
-151.9775390625
-171.20361328125
-184.9365234375
-184.9365234375
-172.119140625
-171.20361328125
-159.3017578125
-163.87939453125
-162.9638671875
-174.86572265625
-190.4296875
-231.62841796875
-238.037109375
-266.41845703125
-332.33642578125
-311.279296875
-233.45947265625
-139.16015625
-65.00244140625
1.8310546875
50.35400390625
99.79248046875
189.51416015625
324.0966796875
527.34375
744.32373046875
944.82421875
1105.04150390625
1224.06005859375
1320.1904296875
1396.17919921875
1433.7158203125
1426.3916015625
1311.95068359375
1061.09619140625
856.01806640625
667.41943359375
470.5810546875
309.4482421875
238.037109375
111.6943359375
26.55029296875
6.40869140625
-11.90185546875
-74.15771484375
-101.62353515625
-105.28564453125
-111.6943359375
-105.28564453125
-75.98876953125
-97.96142578125
-127.25830078125
-117.1875
-114.44091796875
-140.9912109375
-122.6806640625
-66.83349609375
-47.607421875
-97.96142578125
-120.849609375
-119.0185546875
-124.51171875
-108.0322265625
-124.51171875
-136.41357421875
-152.89306640625
-132.75146484375
-102.5390625
-102.5390625
-85.14404296875
-81.48193359375
-100.7080078125
-105.28564453125
-116.27197265625
-128.173828125
-120.849609375
-116.27197265625
-114.44091796875
-119.93408203125
-126.3427734375
-117.1875
-101.62353515625
-106.201171875
-98.876953125
-92.46826171875
-91.552734375
-96.13037109375
-94.29931640625
-98.876953125
-119.0185546875
-129.08935546875
-114.44091796875
-110.77880859375
-109.86328125
-69.580078125
-42.1142578125
-39.36767578125
-47.607421875
-65.91796875
-75.0732421875
-55.84716796875
-16.4794921875
-26.55029296875
-33.87451171875
-51.26953125
-60.4248046875
-44.86083984375
-44.86083984375
-23.8037109375
-4.57763671875
-2.74658203125
-3.662109375
3.662109375
23.8037109375
22.88818359375
26.55029296875
43.9453125
43.02978515625
25.634765625
3.662109375
22.88818359375
25.634765625
43.9453125
89.7216796875
143.73779296875
133.6669921875
140.9912109375
143.73779296875
140.07568359375
129.08935546875
134.58251953125
159.3017578125
177.6123046875
208.740234375
239.8681640625
255.43212890625
251.77001953125
252.685546875
261.8408203125
264.58740234375
255.43212890625
262.75634765625
277.40478515625
282.89794921875
282.89794921875
290.22216796875
287.4755859375
299.37744140625
322.265625
324.0966796875
320.4345703125
314.94140625
303.955078125
316.7724609375
308.53271484375
281.06689453125
262.75634765625
249.93896484375
230.712890625
232.5439453125
213.31787109375
198.66943359375
184.9365234375
161.1328125
119.0185546875
82.3974609375
68.66455078125
61.34033203125
69.580078125
55.84716796875
42.1142578125
20.1416015625
3.662109375
-31.1279296875
-48.52294921875
-57.67822265625
-72.32666015625
-86.0595703125
-94.29931640625
-100.7080078125
-111.6943359375
-140.9912109375
-139.16015625
-138.24462890625
-146.484375
-151.9775390625
-156.55517578125
-162.04833984375
-173.03466796875
-177.6123046875
-174.86572265625
-186.767578125
-189.51416015625
-173.03466796875
-158.38623046875
-143.73779296875
-161.1328125
-178.52783203125
-189.51416015625
-166.6259765625
-162.9638671875
-171.20361328125
-164.794921875
-162.9638671875
-159.3017578125
-149.23095703125
-152.89306640625
-165.71044921875
-158.38623046875
-145.56884765625
-129.08935546875
-145.56884765625
-152.89306640625
-147.39990234375
-153.80859375
-159.3017578125
-175.78125
-173.03466796875
-160.21728515625
-147.39990234375
-147.39990234375
-159.3017578125
-157.470703125
-161.1328125
-166.6259765625
-163.87939453125
-151.06201171875
-137.3291015625
-156.55517578125
-161.1328125
-158.38623046875
-170.2880859375
-147.39990234375
-149.23095703125
-144.6533203125
-140.9912109375
-159.3017578125
-156.55517578125
-159.3017578125
-164.794921875
-157.470703125
-156.55517578125
-151.9775390625
-155.6396484375
-159.3017578125
-173.03466796875
-151.06201171875
-141.90673828125
-141.90673828125
-142.822265625
-145.56884765625
-151.9775390625
-145.56884765625
-143.73779296875
-149.23095703125
-165.71044921875
-166.6259765625
-164.794921875
-165.71044921875
-160.21728515625
-142.822265625
-132.75146484375
-148.3154296875
-156.55517578125
-157.470703125
-159.3017578125
-149.23095703125
-143.73779296875
-159.3017578125
-151.9775390625
-148.3154296875
-152.89306640625
-166.6259765625
-165.71044921875
-156.55517578125
-159.3017578125
-166.6259765625
-155.6396484375
-158.38623046875
-160.21728515625
-164.794921875
-167.54150390625
-160.21728515625
-156.55517578125
-151.9775390625
-151.06201171875
-162.04833984375
-165.71044921875
-160.21728515625
-167.54150390625
-163.87939453125
-160.21728515625
-160.21728515625
-176.69677734375
-182.18994140625
-196.83837890625
-186.767578125
-179.443359375
-178.52783203125
-172.119140625
-176.69677734375
-178.52783203125
-168.45703125
-174.86572265625
-172.119140625
-189.51416015625
-190.4296875
-191.34521484375
-182.18994140625
-170.2880859375
-171.20361328125
-168.45703125
-165.71044921875
-173.03466796875
-181.2744140625
-180.35888671875
-175.78125
-171.20361328125
-167.54150390625
-180.35888671875
-181.2744140625
-175.78125
-170.2880859375
-170.2880859375
-165.71044921875
-163.87939453125
-161.1328125
-162.9638671875
-173.03466796875
-172.119140625
-163.87939453125
-162.04833984375
-169.37255859375
-175.78125
-178.52783203125
-176.69677734375
-170.2880859375
-169.37255859375
-167.54150390625
-169.37255859375
-174.86572265625
-183.10546875
-184.9365234375
-172.119140625
-161.1328125
-162.9638671875
-167.54150390625
-178.52783203125
-183.10546875
-173.9501953125
-175.78125
-193.17626953125
-200.50048828125
-170.2880859375
-155.6396484375
-164.794921875
-162.04833984375
-155.6396484375
-165.71044921875
-165.71044921875
-156.55517578125
-177.6123046875
-187.68310546875
-185.85205078125
-182.18994140625
-176.69677734375
-176.69677734375
-171.20361328125
-161.1328125
-158.38623046875
-163.87939453125
-151.9775390625
-150.146484375
-155.6396484375
-168.45703125
-172.119140625
-175.78125
-180.35888671875
-173.03466796875
-162.04833984375
-154.72412109375
-159.3017578125
-165.71044921875
-167.54150390625
-162.04833984375
-166.6259765625
-173.9501953125
-179.443359375
-178.52783203125
-179.443359375
-176.69677734375
-154.72412109375
-143.73779296875
-155.6396484375
-171.20361328125
-174.86572265625
-183.10546875
-175.78125
-163.87939453125
-170.2880859375
-158.38623046875
-142.822265625
-145.56884765625
-148.3154296875
-166.6259765625
-155.6396484375
-139.16015625
-130.0048828125
-127.25830078125
-129.08935546875
-140.07568359375
-145.56884765625
-143.73779296875
-115.3564453125
-115.3564453125
-125.42724609375
-140.9912109375
-141.90673828125
-136.41357421875
-119.93408203125
-117.1875
-102.5390625
-103.45458984375
-94.29931640625
-97.0458984375
-95.21484375
-96.13037109375
-89.7216796875
-94.29931640625
-108.94775390625
-106.201171875
-100.7080078125
-106.201171875
-113.525390625
-110.77880859375
-106.201171875
-107.11669921875
-97.96142578125
-107.11669921875
-106.201171875
-112.60986328125
-132.75146484375
-140.9912109375
-134.58251953125
-132.75146484375
-140.07568359375
-148.3154296875
-165.71044921875
-171.20361328125
-152.89306640625
-162.9638671875
-173.9501953125
-175.78125
-173.9501953125
-177.6123046875
-171.20361328125
-172.119140625
-174.86572265625
-179.443359375
-174.86572265625
-168.45703125
-154.72412109375
-150.146484375
-157.470703125
-150.146484375
-150.146484375
-153.80859375
-162.9638671875
-162.04833984375
-158.38623046875
-157.470703125
-169.37255859375
-168.45703125
-162.9638671875
-170.2880859375
-173.03466796875
-169.37255859375
-155.6396484375
-160.21728515625
-169.37255859375
-176.69677734375
-195.9228515625
-214.2333984375
-221.5576171875
-229.79736328125
-213.31787109375
-196.83837890625
-140.07568359375
-67.7490234375
-0.91552734375
54.931640625
140.07568359375
284.72900390625
452.2705078125
637.20703125
826.72119140625
974.12109375
1093.1396484375
1193.84765625
1283.5693359375
1349.4873046875
1373.291015625
1320.1904296875
1121.52099609375
916.44287109375
726.01318359375
552.978515625
368.95751953125
243.5302734375
150.146484375
56.7626953125
-1.8310546875
-43.02978515625
-67.7490234375
-97.0458984375
-118.10302734375
-131.8359375
-120.849609375
-108.0322265625
-103.45458984375
-96.13037109375
-101.62353515625
-109.86328125
-100.7080078125
-104.3701171875
-92.46826171875
-73.2421875
-93.3837890625
-108.0322265625
-105.28564453125
-111.6943359375
-113.525390625
-130.92041015625
-115.3564453125
-111.6943359375
-112.60986328125
-109.86328125
-100.7080078125
-94.29931640625
-89.7216796875
-85.14404296875
-94.29931640625
-93.3837890625
-83.31298828125
-79.65087890625
-93.3837890625
-91.552734375
-81.48193359375
-80.56640625
-75.98876953125
-67.7490234375
-75.0732421875
-73.2421875
-65.91796875
-59.50927734375
-59.50927734375
-59.50927734375
-71.4111328125
-80.56640625
-67.7490234375
-54.01611328125
-59.50927734375
-51.26953125
-45.7763671875
-48.52294921875
-55.84716796875
-54.01611328125
-51.26953125
-52.18505859375
-33.87451171875
-22.88818359375
-13.73291015625
-12.8173828125
-10.07080078125
-11.90185546875
-20.1416015625
-8.23974609375
6.40869140625
10.07080078125
10.07080078125
25.634765625
25.634765625
30.21240234375
40.283203125
43.02978515625
44.86083984375
43.9453125
45.7763671875
56.7626953125
64.0869140625
92.46826171875
104.3701171875
101.62353515625
106.201171875
115.3564453125
137.3291015625
161.1328125
165.71044921875
169.37255859375
174.86572265625
177.6123046875
195.9228515625
222.47314453125
232.5439453125
247.1923828125
239.8681640625
250.8544921875
258.1787109375
269.1650390625
270.08056640625
281.06689453125
297.54638671875
314.94140625
322.265625
321.35009765625
321.35009765625
333.251953125
343.32275390625
335.99853515625
327.7587890625
320.4345703125
310.36376953125
311.279296875
314.02587890625
307.6171875
301.20849609375
289.306640625
275.57373046875
252.685546875
232.5439453125
196.83837890625
173.9501953125
154.72412109375
144.6533203125
143.73779296875
139.16015625
133.6669921875
97.96142578125
54.01611328125
24.71923828125
6.40869140625
10.986328125
3.662109375
-19.22607421875
-30.21240234375
-51.26953125
-58.59375
-66.83349609375
-72.32666015625
-76.904296875
-78.7353515625
-88.80615234375
-108.94775390625
-109.86328125
-118.10302734375
-111.6943359375
-112.60986328125
-120.849609375
-136.41357421875
-142.822265625
-130.92041015625
-133.6669921875
-151.06201171875
-134.58251953125
-110.77880859375
-117.1875
-129.08935546875
-118.10302734375
-126.3427734375
-124.51171875
-135.498046875
-135.498046875
-137.3291015625
-140.9912109375
-144.6533203125
-139.16015625
-138.24462890625
-137.3291015625
-137.3291015625
-140.07568359375
-141.90673828125
-146.484375
-138.24462890625
-140.9912109375
-141.90673828125
-138.24462890625
-130.92041015625
-140.9912109375
-129.08935546875
-126.3427734375
-139.16015625
-146.484375
-147.39990234375
-145.56884765625
-144.6533203125
-130.92041015625
-119.93408203125
-112.60986328125
-118.10302734375
-117.1875
-123.59619140625
-126.3427734375
-121.76513671875
-118.10302734375
-119.0185546875
-108.0322265625
-113.525390625
-115.3564453125
-107.11669921875
-118.10302734375
-125.42724609375
-125.42724609375
-124.51171875
-132.75146484375
-130.0048828125
-117.1875
-114.44091796875
-104.3701171875
-107.11669921875
-120.849609375
-138.24462890625
-131.8359375
-126.3427734375
-124.51171875
-126.3427734375
-129.08935546875
-121.76513671875
-124.51171875
-132.75146484375
-133.6669921875
-130.92041015625
-136.41357421875
-138.24462890625
-131.8359375
-132.75146484375
-122.6806640625
-119.0185546875
-129.08935546875
-133.6669921875
-124.51171875
-124.51171875
-143.73779296875
-147.39990234375
-151.06201171875
-156.55517578125
-145.56884765625
-131.8359375
-124.51171875
-137.3291015625
-147.39990234375
-132.75146484375
-118.10302734375
-121.76513671875
-129.08935546875
-136.41357421875
-136.41357421875
-132.75146484375
-137.3291015625
-143.73779296875
-140.9912109375
-139.16015625
-142.822265625
-148.3154296875
-138.24462890625
-128.173828125
-137.3291015625
-145.56884765625
-146.484375
-153.80859375
-158.38623046875
-160.21728515625
-148.3154296875
-131.8359375
-121.76513671875
-144.6533203125
-147.39990234375
-136.41357421875
-129.08935546875
-147.39990234375
-136.41357421875
-130.0048828125
-141.90673828125
-139.16015625
-131.8359375
-135.498046875
-136.41357421875
-141.90673828125
-149.23095703125
-147.39990234375
-145.56884765625
-152.89306640625
-151.06201171875
-151.9775390625
-141.90673828125
-139.16015625
-146.484375
-139.16015625
-136.41357421875
-146.484375
-152.89306640625
-142.822265625
-147.39990234375
-153.80859375
-159.3017578125
-164.794921875
-160.21728515625
-144.6533203125
-148.3154296875
-145.56884765625
-145.56884765625
-141.90673828125
-154.72412109375
-154.72412109375
-151.06201171875
-147.39990234375
-143.73779296875
-140.9912109375
-139.16015625
-147.39990234375
-141.90673828125
-144.6533203125
-147.39990234375
-152.89306640625
-144.6533203125
-151.06201171875
-143.73779296875
-128.173828125
-133.6669921875
-147.39990234375
-143.73779296875
-141.90673828125
-136.41357421875
-139.16015625
-148.3154296875
-145.56884765625
-140.07568359375
-140.9912109375
-148.3154296875
-153.80859375
-132.75146484375
-139.16015625
-145.56884765625
-144.6533203125
-142.822265625
-138.24462890625
-149.23095703125
-145.56884765625
-151.9775390625
-143.73779296875
-140.9912109375
-142.822265625
-142.822265625
-132.75146484375
-130.0048828125
-135.498046875
-137.3291015625
-122.6806640625
-124.51171875
-131.8359375
-128.173828125
-139.16015625
-131.8359375
-121.76513671875
-112.60986328125
-110.77880859375
-112.60986328125
-109.86328125
-109.86328125
-106.201171875
-102.5390625
-114.44091796875
-109.86328125
-106.201171875
-103.45458984375
-97.0458984375
-95.21484375
-84.228515625
-73.2421875
-76.904296875
-63.17138671875
-74.15771484375
-78.7353515625
-81.48193359375
-78.7353515625
-79.65087890625
-79.65087890625
-81.48193359375
-83.31298828125
-86.0595703125
-85.14404296875
-86.0595703125
-99.79248046875
-103.45458984375
-99.79248046875
-91.552734375
-99.79248046875
-111.6943359375
-123.59619140625
-130.0048828125
-131.8359375
-137.3291015625
-132.75146484375
-130.92041015625
-144.6533203125
-152.89306640625
-152.89306640625
-153.80859375
-155.6396484375
-150.146484375
-147.39990234375
-149.23095703125
-150.146484375
-161.1328125
-158.38623046875
-152.89306640625
-163.87939453125
-159.3017578125
-156.55517578125
-151.06201171875
-140.07568359375
-144.6533203125
-147.39990234375
-148.3154296875
-148.3154296875
-152.89306640625
-159.3017578125
-157.470703125
-158.38623046875
-150.146484375
-151.9775390625
-150.146484375
-159.3017578125
-167.54150390625
-174.86572265625
-191.34521484375
-199.5849609375
-209.65576171875
-215.14892578125
-205.078125
-162.9638671875
-100.7080078125
-32.958984375
26.55029296875
90.63720703125
205.99365234375
352.47802734375
507.2021484375
690.3076171875
878.90625
1052.8564453125
1179.19921875
1266.17431640625
1336.669921875
1398.92578125
1372.37548828125
1258.85009765625
1053.77197265625
865.17333984375
687.56103515625
524.59716796875
357.0556640625
216.064453125
92.46826171875
10.07080078125
-27.4658203125
-45.7763671875
-77.81982421875
-109.86328125
-118.10302734375
-102.5390625
-102.5390625
-108.0322265625
-96.13037109375
-86.0595703125
-97.96142578125
-100.7080078125
-91.552734375
-95.21484375
-96.13037109375
-86.97509765625
-86.97509765625
-92.46826171875
-91.552734375
-91.552734375
-98.876953125
-116.27197265625
-109.86328125
-90.63720703125
-77.81982421875
-86.0595703125
-77.81982421875
-76.904296875
-76.904296875
-78.7353515625
-87.890625
-84.228515625
-66.83349609375
-63.17138671875
-73.2421875
-74.15771484375
-77.81982421875
-71.4111328125
-66.83349609375
-65.91796875
-63.17138671875
-63.17138671875
-64.0869140625
-60.4248046875
-58.59375
-65.00244140625
-64.0869140625
-42.1142578125
-40.283203125
-54.931640625
-54.01611328125
-52.18505859375
-38.4521484375
-41.19873046875
-41.19873046875
-34.7900390625
-34.7900390625
-45.7763671875
-36.62109375
-21.05712890625
-12.8173828125
-14.6484375
-18.310546875
-5.4931640625
2.74658203125
-1.8310546875
7.32421875
10.07080078125
11.90185546875
25.634765625
32.04345703125
31.1279296875
40.283203125
49.4384765625
60.4248046875
64.0869140625
74.15771484375
73.2421875
90.63720703125
99.79248046875
104.3701171875
117.1875
135.498046875
149.23095703125
166.6259765625
173.9501953125
173.9501953125
179.443359375
206.9091796875
209.65576171875
214.2333984375
227.05078125
227.05078125
249.93896484375
275.57373046875
280.1513671875
292.96875
307.6171875
308.53271484375
315.85693359375
316.7724609375
323.18115234375
329.58984375
327.7587890625
330.50537109375
332.33642578125
331.4208984375
325.927734375
335.0830078125
341.49169921875
325.01220703125
314.94140625
314.02587890625
303.955078125
286.56005859375
276.4892578125
266.41845703125
257.26318359375
236.2060546875
207.82470703125
186.767578125
165.71044921875
146.484375
130.0048828125
119.0185546875
90.63720703125
64.0869140625
39.36767578125
36.62109375
27.4658203125
13.73291015625
-3.662109375
-20.1416015625
-31.1279296875
-45.7763671875
-54.931640625
-67.7490234375
-75.0732421875
-83.31298828125
-100.7080078125
-102.5390625
-94.29931640625
-100.7080078125
-105.28564453125
-112.60986328125
-115.3564453125
-107.11669921875
-126.3427734375
-130.0048828125
-119.93408203125
-126.3427734375
-124.51171875
-122.6806640625
-128.173828125
-133.6669921875
-131.8359375
-130.92041015625
-144.6533203125
-134.58251953125
-139.16015625
-145.56884765625
-143.73779296875
-147.39990234375
-143.73779296875
-146.484375
-139.16015625
-129.08935546875
-140.07568359375
-142.822265625
-140.9912109375
-138.24462890625
-138.24462890625
-140.07568359375
-142.822265625
-140.07568359375
-134.58251953125
-139.16015625
-133.6669921875
-129.08935546875
-128.173828125
-119.0185546875
-119.93408203125
-118.10302734375
-119.93408203125
-123.59619140625
-120.849609375
-122.6806640625
-124.51171875
-128.173828125
-129.08935546875
-121.76513671875
-117.1875
-108.0322265625
-109.86328125
-119.0185546875
-115.3564453125
-116.27197265625
-117.1875
-119.93408203125
-119.0185546875
-119.93408203125
-123.59619140625
-115.3564453125
-114.44091796875
-121.76513671875
-119.0185546875
-122.6806640625
-121.76513671875
-117.1875
-123.59619140625
-133.6669921875
-140.07568359375
-132.75146484375
-130.0048828125
-127.25830078125
-124.51171875
-126.3427734375
-129.08935546875
-116.27197265625
-116.27197265625
-128.173828125
-130.92041015625
-122.6806640625
-118.10302734375
-130.0048828125
-124.51171875
-131.8359375
-134.58251953125
-125.42724609375
-120.849609375
-119.0185546875
-120.849609375
-123.59619140625
-126.3427734375
-120.849609375
-123.59619140625
-135.498046875
-146.484375
-151.9775390625
-140.9912109375
-137.3291015625
-137.3291015625
-130.92041015625
-128.173828125
-128.173828125
-134.58251953125
-146.484375
-142.822265625
-143.73779296875
-140.9912109375
-140.07568359375
-149.23095703125
-137.3291015625
-140.07568359375
-132.75146484375
-144.6533203125
-161.1328125
-160.21728515625
-162.04833984375
-156.55517578125
-157.470703125
-152.89306640625
-150.146484375
-148.3154296875
-151.9775390625
-143.73779296875
-148.3154296875
-155.6396484375
-151.9775390625
-153.80859375
-157.470703125
-151.9775390625
-143.73779296875
-139.16015625
-157.470703125
-162.04833984375
-155.6396484375
-157.470703125
-154.72412109375
-154.72412109375
-160.21728515625
-155.6396484375
-159.3017578125
-160.21728515625
-160.21728515625
-155.6396484375
-152.89306640625
-159.3017578125
-150.146484375
-130.92041015625
-151.9775390625
-161.1328125
-151.9775390625
-155.6396484375
-153.80859375
-162.9638671875
-165.71044921875
-162.9638671875
-149.23095703125
-152.89306640625
-147.39990234375
-150.146484375
-151.9775390625
-156.55517578125
-152.89306640625
-159.3017578125
-173.03466796875
-165.71044921875
-158.38623046875
-169.37255859375
-168.45703125
-168.45703125
-161.1328125
-156.55517578125
-161.1328125
-168.45703125
-169.37255859375
-159.3017578125
-163.87939453125
-154.72412109375
-151.9775390625
-151.9775390625
-154.72412109375
-161.1328125
-160.21728515625
-156.55517578125
-152.89306640625
-152.89306640625
-151.9775390625
-154.72412109375
-147.39990234375
-137.3291015625
-142.822265625
-143.73779296875
-150.146484375
-158.38623046875
-162.04833984375
-153.80859375
-151.06201171875
-151.9775390625
-153.80859375
-144.6533203125
-149.23095703125
-152.89306640625
-143.73779296875
-140.9912109375
-144.6533203125
-160.21728515625
-163.87939453125
-151.9775390625
-155.6396484375
-161.1328125
-157.470703125
-154.72412109375
-155.6396484375
-157.470703125
-165.71044921875
-169.37255859375
-162.04833984375
-165.71044921875
-168.45703125
-161.1328125
-160.21728515625
-160.21728515625
-162.04833984375
-158.38623046875
-168.45703125
-171.20361328125
-152.89306640625
-157.470703125
-162.9638671875
-159.3017578125
-153.80859375
-143.73779296875
-140.07568359375
-142.822265625
-151.06201171875
-162.9638671875
-146.484375
-124.51171875
-126.3427734375
-122.6806640625
-120.849609375
-108.94775390625
-105.28564453125
-99.79248046875
-111.6943359375
-113.525390625
-101.62353515625
-115.3564453125
-127.25830078125
-128.173828125
-113.525390625
-109.86328125
-90.63720703125
-85.14404296875
-88.80615234375
-100.7080078125
-97.0458984375
-102.5390625
-101.62353515625
-92.46826171875
-92.46826171875
-93.3837890625
-92.46826171875
-96.13037109375
-109.86328125
-108.94775390625
-111.6943359375
-116.27197265625
-106.201171875
-106.201171875
-106.201171875
-117.1875
-119.93408203125
-115.3564453125
-122.6806640625
-119.0185546875
-126.3427734375
-140.9912109375
-143.73779296875
-133.6669921875
-146.484375
-140.9912109375
-140.07568359375
-136.41357421875
-148.3154296875
-156.55517578125
-157.470703125
-157.470703125
-161.1328125
-155.6396484375
-154.72412109375
-161.1328125
-156.55517578125
-150.146484375
-151.9775390625
-160.21728515625
-163.87939453125
-161.1328125
-157.470703125
-151.9775390625
-155.6396484375
-156.55517578125
-158.38623046875
-164.794921875
-170.2880859375
-165.71044921875
-162.9638671875
-162.04833984375
-168.45703125
-170.2880859375
-173.9501953125
-179.443359375
-199.5849609375
-204.16259765625
-219.7265625
-232.5439453125
-217.8955078125
-192.2607421875
-140.9912109375
-81.48193359375
-14.6484375
47.607421875
118.10302734375
235.29052734375
383.60595703125
565.7958984375
748.9013671875
932.0068359375
1094.970703125
1222.22900390625
1325.68359375
1410.82763671875
1441.0400390625
1391.6015625
1246.9482421875
1040.95458984375
843.20068359375
658.26416015625
496.2158203125
327.7587890625
202.33154296875
90.63720703125
16.4794921875
-24.71923828125
-59.50927734375
-89.7216796875
-118.10302734375
-105.28564453125
-98.876953125
-98.876953125
-91.552734375
-76.904296875
-86.0595703125
-90.63720703125
-88.80615234375
-100.7080078125
-101.62353515625
-100.7080078125
-112.60986328125
-111.6943359375
-95.21484375
-86.97509765625
-78.7353515625
-92.46826171875
-95.21484375
-95.21484375
-95.21484375
-96.13037109375
-93.3837890625
-88.80615234375
-90.63720703125
-99.79248046875
-94.29931640625
-96.13037109375
-94.29931640625
-86.97509765625
-86.97509765625
-76.904296875
-65.91796875
-73.2421875
-80.56640625
-85.14404296875
-88.80615234375
-77.81982421875
-81.48193359375
-76.904296875
-72.32666015625
-71.4111328125
-76.904296875
-72.32666015625
-68.66455078125
-68.66455078125
-67.7490234375
-56.7626953125
-50.35400390625
-51.26953125
-44.86083984375
-37.53662109375
-36.62109375
-42.1142578125
-31.1279296875
-34.7900390625
-26.55029296875
-18.310546875
-11.90185546875
-8.23974609375
-6.40869140625
0
1.8310546875
7.32421875
10.986328125
16.4794921875
22.88818359375
28.38134765625
31.1279296875
36.62109375
40.283203125
47.607421875
54.931640625
66.83349609375
80.56640625
89.7216796875
100.7080078125
117.1875
122.6806640625
129.08935546875
138.24462890625
144.6533203125
159.3017578125
168.45703125
177.6123046875
192.2607421875
205.99365234375
209.65576171875
219.7265625
227.96630859375
244.44580078125
263.671875
263.671875
279.23583984375
291.1376953125
292.05322265625
303.955078125
315.85693359375
323.18115234375
328.67431640625
337.82958984375
334.16748046875
335.99853515625
341.49169921875
344.23828125
342.4072265625
343.32275390625
332.33642578125
315.85693359375
312.19482421875
312.19482421875
304.87060546875
292.05322265625
287.4755859375
269.1650390625
240.78369140625
223.388671875
205.99365234375
183.10546875
161.1328125
145.56884765625
121.76513671875
101.62353515625
87.890625
58.59375
35.70556640625
10.07080078125
-4.57763671875
-15.56396484375
-33.87451171875
-46.69189453125
-50.35400390625
-58.59375
-66.83349609375
-73.2421875
-82.3974609375
-87.890625
-94.29931640625
-108.94775390625
-112.60986328125
-110.77880859375
-115.3564453125
-116.27197265625
-114.44091796875
-118.10302734375
-124.51171875
-124.51171875
-126.3427734375
-126.3427734375
-132.75146484375
-133.6669921875
-133.6669921875
-134.58251953125
-137.3291015625
-136.41357421875
-140.9912109375
-148.3154296875
-135.498046875
-130.92041015625
-130.0048828125
-140.07568359375
-145.56884765625
-142.822265625
-130.0048828125
-122.6806640625
-127.25830078125
-128.173828125
-142.822265625
-138.24462890625
-140.07568359375
-148.3154296875
-140.9912109375
-147.39990234375
-153.80859375
-146.484375
-137.3291015625
-133.6669921875
-118.10302734375
-113.525390625
-119.93408203125
-115.3564453125
-119.93408203125
-124.51171875
-130.0048828125
-125.42724609375
-119.93408203125
-133.6669921875
-125.42724609375
-119.0185546875
-122.6806640625
-119.93408203125
-126.3427734375
-118.10302734375
-111.6943359375
-116.27197265625
-121.76513671875
-124.51171875
-131.8359375
-127.25830078125
-133.6669921875
-128.173828125
-128.173828125
-124.51171875
-124.51171875
-122.6806640625
-114.44091796875
-123.59619140625
-118.10302734375
-126.3427734375
-131.8359375
-123.59619140625
-113.525390625
-114.44091796875
-129.08935546875
-123.59619140625
-127.25830078125
-126.3427734375
-132.75146484375
-139.16015625
-134.58251953125
-130.0048828125
-136.41357421875
-135.498046875
-121.76513671875
-119.93408203125
-123.59619140625
-130.0048828125
-133.6669921875
-134.58251953125
-133.6669921875
-137.3291015625
-135.498046875
-137.3291015625
-133.6669921875
-138.24462890625
-140.07568359375
-142.822265625
-151.06201171875
-140.9912109375
-150.146484375
-159.3017578125
-144.6533203125
-134.58251953125
-155.6396484375
-146.484375
-142.822265625
-144.6533203125
-144.6533203125
-140.07568359375
-138.24462890625
-152.89306640625
-157.470703125
-153.80859375
-145.56884765625
-148.3154296875
-150.146484375
-150.146484375
-154.72412109375
-161.1328125
-161.1328125
-155.6396484375
-151.9775390625
-156.55517578125
-159.3017578125
-141.90673828125
-151.9775390625
-152.89306640625
-147.39990234375
-154.72412109375
-155.6396484375
-151.06201171875
-146.484375
-142.822265625
-151.9775390625
-162.04833984375
-156.55517578125
-149.23095703125
-159.3017578125
-163.87939453125
-158.38623046875
-156.55517578125
-163.87939453125
-156.55517578125
-149.23095703125
-157.470703125
-170.2880859375
-173.9501953125
-166.6259765625
-163.87939453125
-160.21728515625
-154.72412109375
-155.6396484375
-150.146484375
-145.56884765625
-143.73779296875
-153.80859375
-158.38623046875
-165.71044921875
-169.37255859375
-165.71044921875
-152.89306640625
-166.6259765625
-166.6259765625
-166.6259765625
-165.71044921875
-163.87939453125
-164.794921875
-155.6396484375
-153.80859375
-162.04833984375
-162.04833984375
-155.6396484375
-149.23095703125
-156.55517578125
-165.71044921875
-167.54150390625
-153.80859375
-151.9775390625
-160.21728515625
-172.119140625
-173.03466796875
-167.54150390625
-158.38623046875
-151.9775390625
-153.80859375
-162.04833984375
-163.87939453125
-158.38623046875
-159.3017578125
-156.55517578125
-162.04833984375
-163.87939453125
-170.2880859375
-169.37255859375
-161.1328125
-166.6259765625
-163.87939453125
-162.04833984375
-164.794921875
-154.72412109375
-153.80859375
-159.3017578125
-158.38623046875
-155.6396484375
-158.38623046875
-153.80859375
-161.1328125
-167.54150390625
-172.119140625
-162.04833984375
-155.6396484375
-160.21728515625
-166.6259765625
-161.1328125
-155.6396484375
-156.55517578125
-153.80859375
-162.04833984375
-167.54150390625
-162.04833984375
-150.146484375
-141.90673828125
-146.484375
-147.39990234375
-149.23095703125
-158.38623046875
-157.470703125
-149.23095703125
-155.6396484375
-157.470703125
-159.3017578125
-169.37255859375
-166.6259765625
-155.6396484375
-147.39990234375
-140.9912109375
-137.3291015625
-132.75146484375
-126.3427734375
-113.525390625
-124.51171875
-118.10302734375
-113.525390625
-119.0185546875
-119.0185546875
-118.10302734375
-114.44091796875
-119.93408203125
-125.42724609375
-128.173828125
-127.25830078125
-127.25830078125
-117.1875
-86.97509765625
-80.56640625
-89.7216796875
-91.552734375
-90.63720703125
-89.7216796875
-88.80615234375
-101.62353515625
-99.79248046875
-97.96142578125
-105.28564453125
-107.11669921875
-107.11669921875
-108.94775390625
-109.86328125
-116.27197265625
-111.6943359375
-102.5390625
-103.45458984375
-112.60986328125
-118.10302734375
-128.173828125
-131.8359375
-127.25830078125
-134.58251953125
-144.6533203125
-150.146484375
-147.39990234375
-148.3154296875
-151.9775390625
-155.6396484375
-157.470703125
-156.55517578125
-167.54150390625
-163.87939453125
-163.87939453125
-175.78125
-166.6259765625
-159.3017578125
-149.23095703125
-149.23095703125
-149.23095703125
-153.80859375
-153.80859375
-150.146484375
-146.484375
-156.55517578125
-157.470703125
-158.38623046875
-155.6396484375
-160.21728515625
-176.69677734375
-181.2744140625
-166.6259765625
-165.71044921875
-162.9638671875
-164.794921875
-154.72412109375
-155.6396484375
-171.20361328125
-192.2607421875
-202.33154296875
-214.2333984375
-227.05078125
-217.8955078125
-191.34521484375
-130.92041015625
-68.66455078125
-10.986328125
48.52294921875
139.16015625
253.60107421875
405.57861328125
589.599609375
775.45166015625
961.3037109375
1117.85888671875
1243.2861328125
1338.5009765625
1429.13818359375
1454.77294921875
1399.84130859375
1235.04638671875
1025.390625
825.8056640625
652.77099609375
466.9189453125
311.279296875
200.50048828125
81.48193359375
19.22607421875
-25.634765625
-52.18505859375
-85.14404296875
-93.3837890625
-98.876953125
-99.79248046875
-77.81982421875
-74.15771484375
-75.98876953125
-81.48193359375
-91.552734375
-95.21484375
-108.94775390625
-105.28564453125
-97.0458984375
-96.13037109375
-102.5390625
-104.3701171875
-108.0322265625
-119.0185546875
-107.11669921875
-104.3701171875
-104.3701171875
-110.77880859375
-117.1875
-102.5390625
-99.79248046875
-97.0458984375
-93.3837890625
-93.3837890625
-92.46826171875
-89.7216796875
-97.0458984375
-107.11669921875
-94.29931640625
-97.0458984375
-85.14404296875
-84.228515625
-80.56640625
-77.81982421875
-77.81982421875
-82.3974609375
-81.48193359375
-79.65087890625
-81.48193359375
-85.14404296875
-86.0595703125
-84.228515625
-73.2421875
-73.2421875
-61.34033203125
-54.931640625
-39.36767578125
-42.1142578125
-54.931640625
-52.18505859375
-49.4384765625
-43.02978515625
-39.36767578125
-33.87451171875
-29.296875
-23.8037109375
-21.05712890625
-19.22607421875
-12.8173828125
-8.23974609375
-2.74658203125
3.662109375
9.1552734375
9.1552734375
10.986328125
16.4794921875
16.4794921875
36.62109375
41.19873046875
50.35400390625
62.255859375
66.83349609375
75.98876953125
92.46826171875
106.201171875
113.525390625
114.44091796875
125.42724609375
132.75146484375
148.3154296875
161.1328125
176.69677734375
194.091796875
198.66943359375
210.5712890625
218.81103515625
225.2197265625
241.69921875
255.43212890625
270.99609375
283.8134765625
284.72900390625
292.05322265625
300.29296875
303.955078125
313.1103515625
315.85693359375
327.7587890625
334.16748046875
335.99853515625
335.99853515625
338.7451171875
328.67431640625
336.9140625
334.16748046875
333.251953125
324.0966796875
314.02587890625
308.53271484375
297.54638671875
281.06689453125
267.333984375
244.44580078125
224.30419921875
206.9091796875
179.443359375
163.87939453125
136.41357421875
109.86328125
92.46826171875
75.0732421875
47.607421875
28.38134765625
14.6484375
-3.662109375
-12.8173828125
-26.55029296875
-42.1142578125
-62.255859375
-65.00244140625
-71.4111328125
-85.14404296875
-101.62353515625
-108.0322265625
-111.6943359375
-116.27197265625
-122.6806640625
-127.25830078125
-135.498046875
-140.9912109375
-134.58251953125
-138.24462890625
-132.75146484375
-124.51171875
-136.41357421875
-134.58251953125
-136.41357421875
-141.90673828125
-150.146484375
-151.06201171875
-153.80859375
-158.38623046875
-156.55517578125
-149.23095703125
-151.06201171875
-148.3154296875
-145.56884765625
-148.3154296875
-146.484375
-144.6533203125
-140.07568359375
-138.24462890625
-142.822265625
-144.6533203125
-144.6533203125
-140.07568359375
-146.484375
-150.146484375
-148.3154296875
-142.822265625
-137.3291015625
-144.6533203125
-150.146484375
-142.822265625
-138.24462890625
-136.41357421875
-140.07568359375
-137.3291015625
-138.24462890625
-135.498046875
-139.16015625
-139.16015625
-141.90673828125
-142.822265625
-144.6533203125
-144.6533203125
-139.16015625
-134.58251953125
-142.822265625
-142.822265625
-140.07568359375
-142.822265625
-135.498046875
-125.42724609375
-127.25830078125
-128.173828125
-133.6669921875
-132.75146484375
-133.6669921875
-139.16015625
-141.90673828125
-131.8359375
-136.41357421875
-136.41357421875
-137.3291015625
-137.3291015625
-135.498046875
-139.16015625
-140.9912109375
-142.822265625
-133.6669921875
-135.498046875
-138.24462890625
-129.08935546875
-128.173828125
-135.498046875
-137.3291015625
-149.23095703125
-146.484375
-145.56884765625
-151.06201171875
-146.484375
-149.23095703125
-142.822265625
-139.16015625
-135.498046875
-140.07568359375
-140.07568359375
-142.822265625
-147.39990234375
-149.23095703125
-149.23095703125
-151.06201171875
-145.56884765625
-137.3291015625
-137.3291015625
-148.3154296875
-153.80859375
-160.21728515625
-156.55517578125
-153.80859375
-156.55517578125
-158.38623046875
-161.1328125
-151.06201171875
-144.6533203125
-151.9775390625
-151.06201171875
-152.89306640625
-148.3154296875
-153.80859375
-161.1328125
-168.45703125
-165.71044921875
-162.9638671875
-155.6396484375
-156.55517578125
-156.55517578125
-162.9638671875
-155.6396484375
-147.39990234375
-147.39990234375
-145.56884765625
-149.23095703125
-150.146484375
-169.37255859375
-163.87939453125
-160.21728515625
-162.9638671875
-154.72412109375
-158.38623046875
-160.21728515625
-159.3017578125
-153.80859375
-152.89306640625
-155.6396484375
-162.9638671875
-162.9638671875
-161.1328125
-158.38623046875
-160.21728515625
-161.1328125
-156.55517578125
-155.6396484375
-154.72412109375
-171.20361328125
-161.1328125
-161.1328125
-166.6259765625
-173.9501953125
-162.04833984375
-171.20361328125
-172.119140625
-151.9775390625
-164.794921875
-169.37255859375
-162.9638671875
-158.38623046875
-160.21728515625
-163.87939453125
-164.794921875
-163.87939453125
-157.470703125
-156.55517578125
-165.71044921875
-163.87939453125
-162.9638671875
-158.38623046875
-165.71044921875
-164.794921875
-162.9638671875
-172.119140625
-172.119140625
-155.6396484375
-152.89306640625
-158.38623046875
-155.6396484375
-161.1328125
-159.3017578125
-164.794921875
-161.1328125
-158.38623046875
-153.80859375
-152.89306640625
-153.80859375
-160.21728515625
-163.87939453125
-160.21728515625
-161.1328125
-166.6259765625
-169.37255859375
-162.9638671875
-157.470703125
-159.3017578125
-163.87939453125
-154.72412109375
-145.56884765625
-148.3154296875
-151.06201171875
-156.55517578125
-171.20361328125
-159.3017578125
-157.470703125
-164.794921875
-162.04833984375
-166.6259765625
-164.794921875
-165.71044921875
-164.794921875
-160.21728515625
-162.04833984375
-154.72412109375
-162.9638671875
-162.04833984375
-164.794921875
-162.9638671875
-155.6396484375
-150.146484375
-157.470703125
-155.6396484375
-154.72412109375
-151.06201171875
-153.80859375
-157.470703125
-157.470703125
-151.06201171875
-145.56884765625
-151.9775390625
-157.470703125
-154.72412109375
-162.04833984375
-158.38623046875
-154.72412109375
-159.3017578125
-158.38623046875
-175.78125
-151.06201171875
-149.23095703125
-153.80859375
-150.146484375
-142.822265625
-131.8359375
-133.6669921875
-126.3427734375
-133.6669921875
-126.3427734375
-125.42724609375
-130.92041015625
-126.3427734375
-121.76513671875
-135.498046875
-127.25830078125
-135.498046875
-140.07568359375
-140.07568359375
-128.173828125
-121.76513671875
-119.93408203125
-117.1875
-101.62353515625
-100.7080078125
-105.28564453125
-89.7216796875
-94.29931640625
-88.80615234375
-88.80615234375
-87.890625
-99.79248046875
-98.876953125
-86.97509765625
-96.13037109375
-108.94775390625
-119.93408203125
-99.79248046875
-81.48193359375
-89.7216796875
-108.94775390625
-111.6943359375
-126.3427734375
-118.10302734375
-120.849609375
-129.08935546875
-141.90673828125
-140.9912109375
-143.73779296875
-142.822265625
-142.822265625
-156.55517578125
-155.6396484375
-162.04833984375
-158.38623046875
-163.87939453125
-159.3017578125
-155.6396484375
-158.38623046875
-166.6259765625
-160.21728515625
-156.55517578125
-168.45703125
-166.6259765625
-166.6259765625
-163.87939453125
-163.87939453125
-160.21728515625
-166.6259765625
-169.37255859375
-167.54150390625
-170.2880859375
-167.54150390625
-164.794921875
-156.55517578125
-159.3017578125
-162.04833984375
-158.38623046875
-158.38623046875
-160.21728515625
-174.86572265625
-173.9501953125
-198.66943359375
-220.64208984375
-229.79736328125
-240.78369140625
-228.8818359375
-189.51416015625
-138.24462890625
-67.7490234375
0.91552734375
58.59375
127.25830078125
249.93896484375
392.76123046875
563.04931640625
746.15478515625
932.92236328125
1076.66015625
1195.6787109375
1272.5830078125
1352.23388671875
1387.02392578125
1342.1630859375
1176.45263671875
972.2900390625
783.69140625
611.572265625
446.77734375
282.89794921875
162.04833984375
60.4248046875
-9.1552734375
-39.36767578125
-60.4248046875
-96.13037109375
-118.10302734375
-104.3701171875
-104.3701171875
-118.10302734375
-108.94775390625
-99.79248046875
-92.46826171875
-95.21484375
-99.79248046875
-104.3701171875
-101.62353515625
-96.13037109375
-102.5390625
-105.28564453125
-107.11669921875
-106.201171875
-108.94775390625
-106.201171875
-112.60986328125
-110.77880859375
-104.3701171875
-103.45458984375
-93.3837890625
-97.0458984375
-102.5390625
-97.96142578125
-103.45458984375
-105.28564453125
-104.3701171875
-93.3837890625
-91.552734375
-97.96142578125
-106.201171875
-103.45458984375
-92.46826171875
-93.3837890625
-97.0458984375
-97.0458984375
-89.7216796875
-86.97509765625
-81.48193359375
-78.7353515625
-86.0595703125
-80.56640625
-75.98876953125
-85.14404296875
-91.552734375
-84.228515625
-79.65087890625
-75.0732421875
-69.580078125
-57.67822265625
-57.67822265625
-62.255859375
-65.91796875
-58.59375
-55.84716796875
-48.52294921875
-38.4521484375
-40.283203125
-43.02978515625
-34.7900390625
-41.19873046875
-35.70556640625
-19.22607421875
-13.73291015625
-1.8310546875
7.32421875
0.91552734375
11.90185546875
25.634765625
32.958984375
31.1279296875
32.958984375
51.26953125
60.4248046875
73.2421875
77.81982421875
91.552734375
108.94775390625
119.93408203125
127.25830078125
128.173828125
133.6669921875
154.72412109375
169.37255859375
184.9365234375
198.66943359375
208.740234375
213.31787109375
217.8955078125
232.5439453125
239.8681640625
247.1923828125
256.34765625
267.333984375
269.1650390625
291.1376953125
289.306640625
292.96875
306.70166015625
312.19482421875
319.51904296875
326.84326171875
325.01220703125
321.35009765625
324.0966796875
315.85693359375
314.02587890625
303.03955078125
302.1240234375
300.29296875
282.89794921875
260.009765625
250.8544921875
232.5439453125
207.82470703125
184.9365234375
163.87939453125
140.07568359375
119.0185546875
108.94775390625
93.3837890625
65.91796875
47.607421875
34.7900390625
14.6484375
-0.91552734375
-13.73291015625
-36.62109375
-49.4384765625
-59.50927734375
-68.66455078125
-79.65087890625
-77.81982421875
-89.7216796875
-99.79248046875
-102.5390625
-113.525390625
-130.92041015625
-119.0185546875
-120.849609375
-131.8359375
-120.849609375
-129.08935546875
-141.90673828125
-145.56884765625
-140.07568359375
-138.24462890625
-148.3154296875
-147.39990234375
-140.9912109375
-156.55517578125
-165.71044921875
-155.6396484375
-160.21728515625
-157.470703125
-155.6396484375
-152.89306640625
-153.80859375
-156.55517578125
-156.55517578125
-162.9638671875
-150.146484375
-138.24462890625
-151.9775390625
-157.470703125
-152.89306640625
-148.3154296875
-150.146484375
-151.06201171875
-148.3154296875
-154.72412109375
-149.23095703125
-145.56884765625
-155.6396484375
-156.55517578125
-152.89306640625
-147.39990234375
-140.07568359375
-147.39990234375
-156.55517578125
-158.38623046875
-151.06201171875
-151.06201171875
-151.9775390625
-143.73779296875
-139.16015625
-134.58251953125
-132.75146484375
-143.73779296875
-140.9912109375
-131.8359375
-138.24462890625
-136.41357421875
-137.3291015625
-140.07568359375
-143.73779296875
-141.90673828125
-138.24462890625
-132.75146484375
-130.0048828125
-133.6669921875
-138.24462890625
-148.3154296875
-136.41357421875
-140.07568359375
-141.90673828125
-152.89306640625
-158.38623046875
-140.07568359375
-129.08935546875
-130.0048828125
-123.59619140625
-130.92041015625
-132.75146484375
-133.6669921875
-142.822265625
-143.73779296875
-142.822265625
-139.16015625
-141.90673828125
-134.58251953125
-147.39990234375
-151.06201171875
-149.23095703125
-151.06201171875
-149.23095703125
-147.39990234375
-146.484375
-140.9912109375
-150.146484375
-155.6396484375
-155.6396484375
-154.72412109375
-157.470703125
-156.55517578125
-157.470703125
-158.38623046875
-162.04833984375
-162.9638671875
-155.6396484375
-163.87939453125
-163.87939453125
-162.04833984375
-167.54150390625
-155.6396484375
-158.38623046875
-157.470703125
-160.21728515625
-166.6259765625
-168.45703125
-173.9501953125
-167.54150390625
-164.794921875
-162.9638671875
-169.37255859375
-162.9638671875
-159.3017578125
-162.04833984375
-169.37255859375
-162.04833984375
-170.2880859375
-168.45703125
-154.72412109375
-148.3154296875
-163.87939453125
-165.71044921875
-160.21728515625
-162.04833984375
-160.21728515625
-162.9638671875
-176.69677734375
-173.03466796875
-168.45703125
-167.54150390625
-165.71044921875
-167.54150390625
-159.3017578125
-158.38623046875
-162.9638671875
-162.04833984375
-164.794921875
-165.71044921875
-167.54150390625
-175.78125
-178.52783203125
-169.37255859375
-163.87939453125
-166.6259765625
-164.794921875
-161.1328125
-158.38623046875
-166.6259765625
-168.45703125
-175.78125
-182.18994140625
-173.03466796875
-162.04833984375
-162.9638671875
-164.794921875
-163.87939453125
-169.37255859375
-170.2880859375
-168.45703125
-164.794921875
-163.87939453125
-164.794921875
-158.38623046875
-162.04833984375
-165.71044921875
-166.6259765625
-161.1328125
-162.9638671875
-155.6396484375
-164.794921875
-184.02099609375
-190.4296875
-176.69677734375
-168.45703125
-180.35888671875
-184.02099609375
-173.9501953125
-165.71044921875
-167.54150390625
-167.54150390625
-164.794921875
-170.2880859375
-175.78125
-171.20361328125
-161.1328125
-163.87939453125
-157.470703125
-157.470703125
-157.470703125
-170.2880859375
-171.20361328125
-174.86572265625
-176.69677734375
-184.02099609375
-189.51416015625
-180.35888671875
-164.794921875
-163.87939453125
-167.54150390625
-164.794921875
-166.6259765625
-169.37255859375
-165.71044921875
-163.87939453125
-165.71044921875
-166.6259765625
-173.03466796875
-166.6259765625
-161.1328125
-165.71044921875
-166.6259765625
-165.71044921875
-159.3017578125
-159.3017578125
-149.23095703125
-141.90673828125
-144.6533203125
-145.56884765625
-147.39990234375
-135.498046875
-133.6669921875
-119.93408203125
-124.51171875
-131.8359375
-126.3427734375
-128.173828125
-135.498046875
-145.56884765625
-145.56884765625
-142.822265625
-150.146484375
-137.3291015625
-104.3701171875
-100.7080078125
-102.5390625
-105.28564453125
-107.11669921875
-97.0458984375
-87.890625
-97.0458984375
-107.11669921875
-109.86328125
-108.94775390625
-118.10302734375
-106.201171875
-111.6943359375
-115.3564453125
-126.3427734375
-127.25830078125
-119.93408203125
-123.59619140625
-131.8359375
-140.07568359375
-136.41357421875
-145.56884765625
-151.06201171875
-166.6259765625
-160.21728515625
-162.04833984375
-165.71044921875
-164.794921875
-162.9638671875
-171.20361328125
-177.6123046875
-178.52783203125
-184.02099609375
-182.18994140625
-172.119140625
-172.119140625
-175.78125
-166.6259765625
-168.45703125
-174.86572265625
-165.71044921875
-166.6259765625
-171.20361328125
-173.9501953125
-171.20361328125
-173.9501953125
-173.9501953125
-175.78125
-174.86572265625
-174.86572265625
-174.86572265625
-181.2744140625
-184.9365234375
-187.68310546875
-181.2744140625
-182.18994140625
-185.85205078125
-191.34521484375
-210.5712890625
-234.375
-238.95263671875
-240.78369140625
-240.78369140625
-222.47314453125
-168.45703125
-105.28564453125
-47.607421875
5.4931640625
80.56640625
203.2470703125
342.4072265625
517.27294921875
704.9560546875
889.892578125
1057.43408203125
1182.861328125
1276.2451171875
1336.669921875
1375.1220703125
1340.33203125
1205.74951171875
992.431640625
802.91748046875
627.13623046875
472.412109375
305.7861328125
178.52783203125
55.84716796875
-25.634765625
-57.67822265625
-76.904296875
-104.3701171875
-127.25830078125
-131.8359375
-128.173828125
-125.42724609375
-125.42724609375
-123.59619140625
-113.525390625
-119.0185546875
-116.27197265625
-110.77880859375
-111.6943359375
-115.3564453125
-112.60986328125
-110.77880859375
-122.6806640625
-119.93408203125
-125.42724609375
-130.92041015625
-117.1875
-104.3701171875
-112.60986328125
-114.44091796875
-110.77880859375
-101.62353515625
-102.5390625
-111.6943359375
-117.1875
-113.525390625
-110.77880859375
-108.0322265625
-105.28564453125
-101.62353515625
-100.7080078125
-100.7080078125
-101.62353515625
-96.13037109375
-101.62353515625
-98.876953125
-87.890625
-87.890625
-90.63720703125
-92.46826171875
-86.0595703125
-80.56640625
-86.97509765625
-86.0595703125
-86.0595703125
-83.31298828125
-74.15771484375
-70.49560546875
-58.59375
-61.34033203125
-68.66455078125
-63.17138671875
-70.49560546875
-65.91796875
-46.69189453125
-54.01611328125
-43.9453125
-35.70556640625
-40.283203125
-36.62109375
-24.71923828125
-10.986328125
-1.8310546875
-1.8310546875
0
9.1552734375
11.90185546875
21.05712890625
29.296875
28.38134765625
39.36767578125
62.255859375
65.91796875
74.15771484375
86.0595703125
86.97509765625
92.46826171875
100.7080078125
116.27197265625
130.0048828125
138.24462890625
155.6396484375
161.1328125
173.9501953125
184.9365234375
193.17626953125
201.416015625
218.81103515625
229.79736328125
235.29052734375
249.0234375
260.92529296875
260.92529296875
270.08056640625
283.8134765625
301.20849609375
303.03955078125
296.630859375
305.7861328125
322.265625
324.0966796875
317.68798828125
320.4345703125
333.251953125
331.4208984375
327.7587890625
330.50537109375
315.85693359375
296.630859375
284.72900390625
275.57373046875
262.75634765625
234.375
207.82470703125
190.4296875
183.10546875
165.71044921875
154.72412109375
132.75146484375
108.94775390625
84.228515625
60.4248046875
40.283203125
16.4794921875
3.662109375
-10.986328125
-25.634765625
-44.86083984375
-60.4248046875
-75.0732421875
-78.7353515625
-95.21484375
-108.94775390625
-116.27197265625
-117.1875
-119.0185546875
-132.75146484375
-133.6669921875
-141.90673828125
-144.6533203125
-148.3154296875
-152.89306640625
-144.6533203125
-141.90673828125
-147.39990234375
-152.89306640625
-160.21728515625
-156.55517578125
-161.1328125
-164.794921875
-149.23095703125
-158.38623046875
-166.6259765625
-164.794921875
-159.3017578125
-151.9775390625
-153.80859375
-160.21728515625
-165.71044921875
-159.3017578125
-157.470703125
-152.89306640625
-156.55517578125
-162.04833984375
-162.9638671875
-155.6396484375
-162.04833984375
-150.146484375
-151.9775390625
-154.72412109375
-141.90673828125
-137.3291015625
-140.9912109375
-146.484375
-150.146484375
-149.23095703125
-140.9912109375
-147.39990234375
-149.23095703125
-148.3154296875
-151.06201171875
-140.9912109375
-140.9912109375
-144.6533203125
-145.56884765625
-148.3154296875
-148.3154296875
-144.6533203125
-145.56884765625
-144.6533203125
-140.07568359375
-140.07568359375
-154.72412109375
-145.56884765625
-145.56884765625
-150.146484375
-146.484375
-130.92041015625
-127.25830078125
-133.6669921875
-137.3291015625
-137.3291015625
-140.9912109375
-142.822265625
-137.3291015625
-141.90673828125
-137.3291015625
-136.41357421875
-138.24462890625
-138.24462890625
-138.24462890625
-139.16015625
-147.39990234375
-147.39990234375
-144.6533203125
-142.822265625
-140.9912109375
-140.07568359375
-130.92041015625
-139.16015625
-151.9775390625
-151.9775390625
-152.89306640625
-140.9912109375
-132.75146484375
-144.6533203125
-143.73779296875
-150.146484375
-148.3154296875
-157.470703125
-151.9775390625
-151.06201171875
-160.21728515625
-162.04833984375
-157.470703125
-148.3154296875
-155.6396484375
-157.470703125
-149.23095703125
-162.04833984375
-161.1328125
-155.6396484375
-164.794921875
-160.21728515625
-161.1328125
-159.3017578125
-157.470703125
-148.3154296875
-158.38623046875
-157.470703125
-162.04833984375
-168.45703125
-172.119140625
-175.78125
-172.119140625
-166.6259765625
-165.71044921875
-169.37255859375
-155.6396484375
-152.89306640625
-161.1328125
-162.04833984375
-165.71044921875
-168.45703125
-171.20361328125
-170.2880859375
-175.78125
-167.54150390625
-173.9501953125
-177.6123046875
-165.71044921875
-162.04833984375
-173.03466796875
-175.78125
-172.119140625
-166.6259765625
-164.794921875
-168.45703125
-169.37255859375
-165.71044921875
-163.87939453125
-161.1328125
-173.9501953125
-176.69677734375
-165.71044921875
-156.55517578125
-162.9638671875
-165.71044921875
-158.38623046875
-153.80859375
-157.470703125
-164.794921875
-172.119140625
-175.78125
-162.9638671875
-161.1328125
-167.54150390625
-163.87939453125
-154.72412109375
-156.55517578125
-163.87939453125
-160.21728515625
-158.38623046875
-162.9638671875
-161.1328125
-162.9638671875
-165.71044921875
-162.04833984375
-170.2880859375
-182.18994140625
-170.2880859375
-162.04833984375
-168.45703125
-168.45703125
-172.119140625
-173.03466796875
-171.20361328125
-159.3017578125
-151.06201171875
-158.38623046875
-160.21728515625
-162.04833984375
-172.119140625
-167.54150390625
-163.87939453125
-179.443359375
-171.20361328125
-165.71044921875
-161.1328125
-154.72412109375
-158.38623046875
-162.9638671875
-164.794921875
-160.21728515625
-162.9638671875
-167.54150390625
-166.6259765625
-168.45703125
-169.37255859375
-168.45703125
-167.54150390625
-150.146484375
-158.38623046875
-162.04833984375
-159.3017578125
-152.89306640625
-161.1328125
-163.87939453125
-162.04833984375
-156.55517578125
-160.21728515625
-177.6123046875
-171.20361328125
-155.6396484375
-151.9775390625
-155.6396484375
-156.55517578125
-149.23095703125
-152.89306640625
-162.9638671875
-161.1328125
-150.146484375
-142.822265625
-140.07568359375
-141.90673828125
-153.80859375
-139.16015625
-139.16015625
-139.16015625
-128.173828125
-122.6806640625
-132.75146484375
-131.8359375
-132.75146484375
-139.16015625
-140.07568359375
-140.07568359375
-117.1875
-114.44091796875
-102.5390625
-94.29931640625
-94.29931640625
-103.45458984375
-108.94775390625
-106.201171875
-97.0458984375
-97.96142578125
-98.876953125
-103.45458984375
-103.45458984375
-107.11669921875
-106.201171875
-104.3701171875
-102.5390625
-111.6943359375
-113.525390625
-110.77880859375
-116.27197265625
-125.42724609375
-128.173828125
-138.24462890625
-135.498046875
-139.16015625
-143.73779296875
-144.6533203125
-152.89306640625
-153.80859375
-149.23095703125
-148.3154296875
-154.72412109375
-162.9638671875
-162.04833984375
-171.20361328125
-173.03466796875
-175.78125
-177.6123046875
-176.69677734375
-163.87939453125
-166.6259765625
-169.37255859375
-170.2880859375
-171.20361328125
-167.54150390625
-164.794921875
-158.38623046875
-160.21728515625
-167.54150390625
-166.6259765625
-173.03466796875
-173.03466796875
-171.20361328125
-169.37255859375
-176.69677734375
-172.119140625
-173.9501953125
-177.6123046875
-175.78125
-179.443359375
-180.35888671875
-205.99365234375
-225.2197265625
-239.8681640625
-256.34765625
-236.2060546875
-201.416015625
-151.06201171875
-87.890625
-19.22607421875
44.86083984375
125.42724609375
243.5302734375
392.76123046875
579.52880859375
758.97216796875
952.1484375
1111.4501953125
1229.55322265625
1333.0078125
1423.64501953125
1440.12451171875
1382.4462890625
1203.0029296875
994.2626953125
807.4951171875
631.7138671875
442.19970703125
288.39111328125
178.52783203125
60.4248046875
1.8310546875
-32.958984375
-65.91796875
-97.96142578125
-108.0322265625
-106.201171875
-102.5390625
-96.13037109375
-87.890625
-80.56640625
-85.14404296875
-93.3837890625
-86.97509765625
-97.96142578125
-113.525390625
-107.11669921875
-103.45458984375
-106.201171875
-109.86328125
-108.94775390625
-114.44091796875
-111.6943359375
-101.62353515625
-111.6943359375
-115.3564453125
-116.27197265625
-117.1875
-120.849609375
-117.1875
-98.876953125
-105.28564453125
-109.86328125
-106.201171875
-106.201171875
-109.86328125
-106.201171875
-99.79248046875
-95.21484375
-89.7216796875
-90.63720703125
-87.890625
-87.890625
-86.0595703125
-80.56640625
-84.228515625
-81.48193359375
-84.228515625
-75.98876953125
-69.580078125
-64.0869140625
-71.4111328125
-75.98876953125
-75.98876953125
-71.4111328125
-61.34033203125
-56.7626953125
-55.84716796875
-56.7626953125
-51.26953125
-44.86083984375
-37.53662109375
-32.04345703125
-34.7900390625
-34.7900390625
-24.71923828125
-14.6484375
-6.40869140625
-4.57763671875
-8.23974609375
-6.40869140625
3.662109375
8.23974609375
25.634765625
25.634765625
25.634765625
40.283203125
54.931640625
58.59375
66.83349609375
75.0732421875
75.98876953125
86.97509765625
102.5390625
118.10302734375
129.08935546875
143.73779296875
161.1328125
167.54150390625
180.35888671875
190.4296875
197.75390625
208.740234375
220.64208984375
227.05078125
238.037109375
250.8544921875
267.333984375
270.99609375
278.3203125
285.64453125
301.20849609375
302.1240234375
327.7587890625
337.82958984375
335.0830078125
340.576171875
339.66064453125
334.16748046875
346.0693359375
347.900390625
336.9140625
325.927734375
333.251953125
319.51904296875
308.53271484375
298.4619140625
276.4892578125
265.5029296875
255.43212890625
223.388671875
208.740234375
183.10546875
167.54150390625
144.6533203125
120.849609375
97.96142578125
75.98876953125
57.67822265625
47.607421875
24.71923828125
3.662109375
-10.07080078125
-22.88818359375
-37.53662109375
-48.52294921875
-55.84716796875
-68.66455078125
-89.7216796875
-94.29931640625
-96.13037109375
-100.7080078125
-106.201171875
-116.27197265625
-121.76513671875
-133.6669921875
-137.3291015625
-135.498046875
-140.9912109375
-135.498046875
-141.90673828125
-144.6533203125
-146.484375
-150.146484375
-155.6396484375
-148.3154296875
-149.23095703125
-145.56884765625
-146.484375
-142.822265625
-149.23095703125
-153.80859375
-148.3154296875
-148.3154296875
-149.23095703125
-147.39990234375
-154.72412109375
-153.80859375
-154.72412109375
-155.6396484375
-145.56884765625
-146.484375
-147.39990234375
-147.39990234375
-155.6396484375
-161.1328125
-154.72412109375
-151.9775390625
-147.39990234375
-155.6396484375
-159.3017578125
-157.470703125
-155.6396484375
-148.3154296875
-143.73779296875
-144.6533203125
-144.6533203125
-135.498046875
-137.3291015625
-137.3291015625
-142.822265625
-154.72412109375
-136.41357421875
-132.75146484375
-142.822265625
-140.07568359375
-142.822265625
-140.9912109375
-136.41357421875
-130.0048828125
-132.75146484375
-141.90673828125
-129.08935546875
-125.42724609375
-129.08935546875
-132.75146484375
-135.498046875
-136.41357421875
-144.6533203125
-145.56884765625
-142.822265625
-144.6533203125
-140.07568359375
-129.08935546875
-130.0048828125
-139.16015625
-135.498046875
-125.42724609375
-132.75146484375
-130.92041015625
-133.6669921875
-135.498046875
-124.51171875
-130.0048828125
-139.16015625
-138.24462890625
-139.16015625
-135.498046875
-134.58251953125
-138.24462890625
-138.24462890625
-142.822265625
-146.484375
-140.9912109375
-141.90673828125
-141.90673828125
-135.498046875
-138.24462890625
-141.90673828125
-139.16015625
-139.16015625
-140.07568359375
-140.9912109375
-146.484375
-147.39990234375
-149.23095703125
-142.822265625
-140.07568359375
-140.07568359375
-141.90673828125
-143.73779296875
-146.484375
-150.146484375
-137.3291015625
-147.39990234375
-160.21728515625
-143.73779296875
-144.6533203125
-161.1328125
-167.54150390625
-162.9638671875
-155.6396484375
-156.55517578125
-161.1328125
-158.38623046875
-151.9775390625
-153.80859375
-150.146484375
-148.3154296875
-157.470703125
-152.89306640625
-153.80859375
-161.1328125
-158.38623046875
-155.6396484375
-152.89306640625
-153.80859375
-160.21728515625
-160.21728515625
-146.484375
-146.484375
-159.3017578125
-163.87939453125
-162.04833984375
-162.04833984375
-158.38623046875
-158.38623046875
-151.06201171875
-146.484375
-152.89306640625
-156.55517578125
-157.470703125
-154.72412109375
-156.55517578125
-161.1328125
-167.54150390625
-158.38623046875
-160.21728515625
-154.72412109375
-145.56884765625
-145.56884765625
-151.06201171875
-151.9775390625
-150.146484375
-151.06201171875
-153.80859375
-152.89306640625
-159.3017578125
-152.89306640625
-156.55517578125
-163.87939453125
-160.21728515625
-152.89306640625
-152.89306640625
-157.470703125
-151.9775390625
-145.56884765625
-149.23095703125
-151.06201171875
-149.23095703125
-155.6396484375
-166.6259765625
-165.71044921875
-157.470703125
-152.89306640625
-147.39990234375
-149.23095703125
-158.38623046875
-166.6259765625
-167.54150390625
-158.38623046875
-149.23095703125
-153.80859375
-157.470703125
-151.9775390625
-152.89306640625
-151.9775390625
-151.9775390625
-152.89306640625
-147.39990234375
-147.39990234375
-151.9775390625
-157.470703125
-161.1328125
-160.21728515625
-166.6259765625
-169.37255859375
-153.80859375
-145.56884765625
-145.56884765625
-148.3154296875
-155.6396484375
-148.3154296875
-149.23095703125
-152.89306640625
-160.21728515625
-164.794921875
-156.55517578125
-153.80859375
-151.9775390625
-140.07568359375
-140.9912109375
-143.73779296875
-143.73779296875
-144.6533203125
-154.72412109375
-157.470703125
-152.89306640625
-145.56884765625
-132.75146484375
-125.42724609375
-123.59619140625
-119.0185546875
-114.44091796875
-121.76513671875
-122.6806640625
-118.10302734375
-122.6806640625
-128.173828125
-113.525390625
-119.93408203125
-129.08935546875
-134.58251953125
-140.07568359375
-129.08935546875
-111.6943359375
-110.77880859375
-89.7216796875
-77.81982421875
-78.7353515625
-89.7216796875
-86.0595703125
-85.14404296875
-94.29931640625
-102.5390625
-103.45458984375
-101.62353515625
-101.62353515625
-89.7216796875
-86.97509765625
-97.0458984375
-105.28564453125
-104.3701171875
-105.28564453125
-108.0322265625
-106.201171875
-110.77880859375
-115.3564453125
-117.1875
-121.76513671875
-128.173828125
-135.498046875
-138.24462890625
-132.75146484375
-145.56884765625
-152.89306640625
-154.72412109375
-151.06201171875
-153.80859375
-156.55517578125
-173.9501953125
-169.37255859375
-151.9775390625
-157.470703125
-165.71044921875
-151.9775390625
-151.06201171875
-162.04833984375
-151.9775390625
-150.146484375
-160.21728515625
-173.03466796875
-162.9638671875
-161.1328125
-160.21728515625
-147.39990234375
-147.39990234375
-147.39990234375
-154.72412109375
-154.72412109375
-151.06201171875
-158.38623046875
-156.55517578125
-156.55517578125
-172.119140625
-170.2880859375
-175.78125
-207.82470703125
-206.9091796875
-209.65576171875
-225.2197265625
-211.48681640625
-169.37255859375
-107.11669921875
-44.86083984375
14.6484375
70.49560546875
153.80859375
282.89794921875
447.69287109375
628.0517578125
802.001953125
987.85400390625
1131.591796875
1226.806640625
1299.13330078125
1368.71337890625
1368.71337890625
1296.38671875
1104.1259765625
910.94970703125
734.2529296875
570.37353515625
392.76123046875
238.95263671875
130.92041015625
26.55029296875
-22.88818359375
-39.36767578125
-55.84716796875
-86.97509765625
-110.77880859375
-113.525390625
-107.11669921875
-112.60986328125
-110.77880859375
-101.62353515625
-102.5390625
-105.28564453125
-91.552734375
-89.7216796875
-96.13037109375
-97.0458984375
-103.45458984375
-108.94775390625
-103.45458984375
-100.7080078125
-99.79248046875
-97.96142578125
-106.201171875
-96.13037109375
-98.876953125
-99.79248046875
-91.552734375
-100.7080078125
-103.45458984375
-107.11669921875
-95.21484375
-88.80615234375
-90.63720703125
-93.3837890625
-99.79248046875
-94.29931640625
-93.3837890625
-83.31298828125
-73.2421875
-78.7353515625
-79.65087890625
-74.15771484375
-72.32666015625
-74.15771484375
-69.580078125
-60.4248046875
-63.17138671875
-70.49560546875
-67.7490234375
-53.1005859375
-50.35400390625
-43.9453125
-43.02978515625
-48.52294921875
-53.1005859375
-52.18505859375
-47.607421875
-34.7900390625
-29.296875
-28.38134765625
-24.71923828125
-21.05712890625
-20.1416015625
-2.74658203125
0
-5.4931640625
-8.23974609375
-5.4931640625
5.4931640625
7.32421875
13.73291015625
27.4658203125
38.4521484375
40.283203125
51.26953125
57.67822265625
70.49560546875
77.81982421875
80.56640625
85.14404296875
110.77880859375
118.10302734375
116.27197265625
114.44091796875
128.173828125
144.6533203125
162.9638671875
182.18994140625
204.16259765625
209.65576171875
222.47314453125
233.45947265625
247.1923828125
259.09423828125
265.5029296875
266.41845703125
279.23583984375
280.1513671875
298.4619140625
308.53271484375
318.603515625
331.4208984375
335.0830078125
335.99853515625
337.82958984375
340.576171875
341.49169921875
343.32275390625
345.15380859375
352.47802734375
350.64697265625
346.0693359375
337.82958984375
326.84326171875
319.51904296875
296.630859375
286.56005859375
266.41845703125
250.8544921875
239.8681640625
220.64208984375
199.5849609375
178.52783203125
144.6533203125
124.51171875
101.62353515625
89.7216796875
72.32666015625
51.26953125
34.7900390625
16.4794921875
1.8310546875
-10.07080078125
-26.55029296875
-40.283203125
-55.84716796875
-64.0869140625
-76.904296875
-76.904296875
-81.48193359375
-82.3974609375
-93.3837890625
-95.21484375
-101.62353515625
-111.6943359375
-119.0185546875
-120.849609375
-115.3564453125
-118.10302734375
-114.44091796875
-124.51171875
-126.3427734375
-124.51171875
-125.42724609375
-125.42724609375
-130.0048828125
-136.41357421875
-139.16015625
-140.9912109375
-130.0048828125
-130.0048828125
-124.51171875
-129.08935546875
-129.08935546875
-135.498046875
-140.9912109375
-145.56884765625
-137.3291015625
-133.6669921875
-135.498046875
-140.07568359375
-140.07568359375
-137.3291015625
-138.24462890625
-136.41357421875
-136.41357421875
-128.173828125
-121.76513671875
-131.8359375
-132.75146484375
-130.0048828125
-124.51171875
-130.92041015625
-133.6669921875
-134.58251953125
-126.3427734375
-117.1875
-121.76513671875
-124.51171875
-121.76513671875
-117.1875
-109.86328125
-111.6943359375
-111.6943359375
-108.94775390625
-109.86328125
-113.525390625
-119.0185546875
-119.0185546875
-109.86328125
-111.6943359375
-105.28564453125
-108.0322265625
-119.0185546875
-122.6806640625
-115.3564453125
-119.93408203125
-121.76513671875
-120.849609375
-116.27197265625
-119.0185546875
-117.1875
-121.76513671875
-121.76513671875
-125.42724609375
-123.59619140625
-128.173828125
-129.08935546875
-122.6806640625
-123.59619140625
-114.44091796875
-127.25830078125
-130.0048828125
-128.173828125
-130.92041015625
-130.0048828125
-123.59619140625
-113.525390625
-107.11669921875
-124.51171875
-128.173828125
-130.92041015625
-119.0185546875
-125.42724609375
-133.6669921875
-142.822265625
-136.41357421875
-133.6669921875
-141.90673828125
-134.58251953125
-130.92041015625
-125.42724609375
-124.51171875
-129.08935546875
-130.0048828125
-118.10302734375
-139.16015625
-145.56884765625
-140.9912109375
-136.41357421875
-132.75146484375
-130.92041015625
-130.0048828125
-136.41357421875
-147.39990234375
-151.06201171875
-146.484375
-138.24462890625
-140.9912109375
-138.24462890625
-138.24462890625
-143.73779296875
-144.6533203125
-144.6533203125
-141.90673828125
-150.146484375
-147.39990234375
-144.6533203125
-144.6533203125
-141.90673828125
-131.8359375
-134.58251953125
-143.73779296875
-150.146484375
-144.6533203125
-135.498046875
-143.73779296875
-141.90673828125
-137.3291015625
-141.90673828125
-150.146484375
-145.56884765625
-147.39990234375
-156.55517578125
-151.06201171875
-143.73779296875
-143.73779296875
-134.58251953125
-138.24462890625
-140.9912109375
-142.822265625
-145.56884765625
-143.73779296875
-140.9912109375
-146.484375
-153.80859375
-153.80859375
-153.80859375
-144.6533203125
-146.484375
-152.89306640625
-150.146484375
-148.3154296875
-141.90673828125
-145.56884765625
-146.484375
-152.89306640625
-150.146484375
-153.80859375
-150.146484375
-151.9775390625
-148.3154296875
-146.484375
-150.146484375
-144.6533203125
-137.3291015625
-140.07568359375
-151.06201171875
-147.39990234375
-152.89306640625
-158.38623046875
-149.23095703125
-137.3291015625
-149.23095703125
-145.56884765625
-145.56884765625
-155.6396484375
-153.80859375
-151.06201171875
-148.3154296875
-147.39990234375
-140.9912109375
-137.3291015625
-141.90673828125
-146.484375
-153.80859375
-152.89306640625
-151.06201171875
-154.72412109375
-152.89306640625
-155.6396484375
-156.55517578125
-148.3154296875
-160.21728515625
-156.55517578125
-148.3154296875
-145.56884765625
-152.89306640625
-150.146484375
-143.73779296875
-141.90673828125
-137.3291015625
-133.6669921875
-151.06201171875
-148.3154296875
-138.24462890625
-140.9912109375
-139.16015625
-132.75146484375
-130.92041015625
-131.8359375
-124.51171875
-118.10302734375
-114.44091796875
-110.77880859375
-112.60986328125
-118.10302734375
-114.44091796875
-117.1875
-120.849609375
-122.6806640625
-130.92041015625
-112.60986328125
-103.45458984375
-101.62353515625
-91.552734375
-80.56640625
-87.890625
-96.13037109375
-95.21484375
-94.29931640625
-93.3837890625
-93.3837890625
-88.80615234375
-88.80615234375
-88.80615234375
-104.3701171875
-101.62353515625
-90.63720703125
-78.7353515625
-78.7353515625
-85.14404296875
-108.0322265625
-106.201171875
-109.86328125
-113.525390625
-126.3427734375
-130.92041015625
-130.92041015625
-136.41357421875
-137.3291015625
-139.16015625
-137.3291015625
-143.73779296875
-140.9912109375
-140.9912109375
-153.80859375
-158.38623046875
-154.72412109375
-157.470703125
-152.89306640625
-156.55517578125
-164.794921875
-149.23095703125
-149.23095703125
-145.56884765625
-148.3154296875
-161.1328125
-162.9638671875
-154.72412109375
-146.484375
-155.6396484375
-156.55517578125
-164.794921875
-151.9775390625
-143.73779296875
-155.6396484375
-151.06201171875
-150.146484375
-155.6396484375
-168.45703125
-166.6259765625
-162.9638671875
-173.9501953125
-177.6123046875
-194.091796875
-218.81103515625
-228.8818359375
-230.712890625
-214.2333984375
-178.52783203125
-119.0185546875
-44.86083984375
19.22607421875
97.96142578125
192.2607421875
318.603515625
468.75
644.53125
833.1298828125
1009.82666015625
1145.32470703125
1249.69482421875
1312.8662109375
1375.1220703125
1354.98046875
1241.455078125
1034.5458984375
859.68017578125
695.80078125
531.005859375
355.224609375
224.30419921875
106.201171875
16.4794921875
-25.634765625
-56.7626953125
-74.15771484375
-96.13037109375
-116.27197265625
-122.6806640625
-116.27197265625
-109.86328125
-107.11669921875
-103.45458984375
-96.13037109375
-92.46826171875
-94.29931640625
-98.876953125
-103.45458984375
-99.79248046875
-96.13037109375
-101.62353515625
-108.0322265625
-107.11669921875
-104.3701171875
-104.3701171875
-102.5390625
-108.0322265625
-111.6943359375
-104.3701171875
-110.77880859375
-108.94775390625
-105.28564453125
-102.5390625
-97.0458984375
-100.7080078125
-97.0458984375
-97.0458984375
-100.7080078125
-105.28564453125
-94.29931640625
-75.98876953125
-75.98876953125
-98.876953125
-96.13037109375
-87.890625
-85.14404296875
-81.48193359375
-75.98876953125
-75.98876953125
-67.7490234375
-63.17138671875
-53.1005859375
-62.255859375
-71.4111328125
-73.2421875
-64.0869140625
-49.4384765625
-45.7763671875
-39.36767578125
-38.4521484375
-41.19873046875
-32.04345703125
-32.04345703125
-36.62109375
-33.87451171875
-20.1416015625
-14.6484375
-17.39501953125
-1.8310546875
-1.8310546875
2.74658203125
-5.4931640625
-1.8310546875
16.4794921875
36.62109375
33.87451171875
32.04345703125
41.19873046875
54.01611328125
58.59375
69.580078125
74.15771484375
86.0595703125
94.29931640625
95.21484375
99.79248046875
126.3427734375
142.822265625
153.80859375
171.20361328125
181.2744140625
184.9365234375
200.50048828125
206.9091796875
214.2333984375
224.30419921875
241.69921875
260.009765625
260.92529296875
279.23583984375
288.39111328125
292.05322265625
302.1240234375
306.70166015625
308.53271484375
319.51904296875
320.4345703125
337.82958984375
351.5625
