ECG
24.71923828125
21.97265625
17.39501953125
25.634765625
27.4658203125
34.7900390625
38.4521484375
38.4521484375
29.296875
28.38134765625
25.634765625
15.56396484375
12.8173828125
17.39501953125
11.90185546875
14.6484375
21.05712890625
23.8037109375
12.8173828125
10.986328125
-0.91552734375
-10.986328125
-12.8173828125
-15.56396484375
-10.986328125
-6.40869140625
-5.4931640625
-5.4931640625
-15.56396484375
-24.71923828125
-32.04345703125
-41.19873046875
-41.19873046875
-41.19873046875
-43.02978515625
-39.36767578125
-26.55029296875
-25.634765625
-27.4658203125
-30.21240234375
-37.53662109375
-51.26953125
-47.607421875
-47.607421875
-54.931640625
-42.1142578125
-33.87451171875
-32.958984375
-35.70556640625
-39.36767578125
-46.69189453125
-52.18505859375
-59.50927734375
-53.1005859375
-42.1142578125
-38.4521484375
-36.62109375
-33.87451171875
-30.21240234375
-38.4521484375
-37.53662109375
-53.1005859375
-54.01611328125
-45.7763671875
-37.53662109375
-36.62109375
-27.4658203125
-24.71923828125
-34.7900390625
-39.36767578125
-35.70556640625
-48.52294921875
-51.26953125
-49.4384765625
-43.9453125
-38.4521484375
-30.21240234375
-29.296875
-36.62109375
-38.4521484375
-35.70556640625
-38.4521484375
-39.36767578125
-35.70556640625
-33.87451171875
-24.71923828125
-20.1416015625
-23.8037109375
-27.4658203125
-27.4658203125
-22.88818359375
-32.958984375
-45.7763671875
-40.283203125
-30.21240234375
-28.38134765625
-21.05712890625
-22.88818359375
-32.958984375
-34.7900390625
-32.958984375
-39.36767578125
-43.02978515625
-39.36767578125
-40.283203125
-36.62109375
-29.296875
-29.296875
-34.7900390625
-32.958984375
-38.4521484375
-49.4384765625
-52.18505859375
-49.4384765625
-50.35400390625
-39.36767578125
-36.62109375
-35.70556640625
-42.1142578125
-44.86083984375
-51.26953125
-64.0869140625
-65.00244140625
-54.01611328125
-48.52294921875
-52.18505859375
-44.86083984375
-44.86083984375
-54.01611328125
-53.1005859375
-53.1005859375
-65.00244140625
-70.49560546875
-67.7490234375
-64.0869140625
-64.0869140625
-54.931640625
-43.9453125
-51.26953125
-55.84716796875
-54.01611328125
-47.607421875
-46.69189453125
-32.04345703125
-29.296875
-17.39501953125
0
10.07080078125
8.23974609375
0
5.4931640625
0
-1.8310546875
6.40869140625
13.73291015625
31.1279296875
40.283203125
60.4248046875
69.580078125
68.66455078125
51.26953125
36.62109375
37.53662109375
45.7763671875
51.26953125
67.7490234375
81.48193359375
78.7353515625
73.2421875
56.7626953125
47.607421875
29.296875
5.4931640625
-17.39501953125
-38.4521484375
-51.26953125
-43.9453125
-43.9453125
-52.18505859375
-65.00244140625
-72.32666015625
-87.890625
-94.29931640625
-92.46826171875
-90.63720703125
-82.3974609375
-82.3974609375
-81.48193359375
-86.97509765625
-97.0458984375
-105.28564453125
-109.86328125
-106.201171875
-115.3564453125
-106.201171875
-97.96142578125
-94.29931640625
-98.876953125
-101.62353515625
-117.1875
-116.27197265625
-119.93408203125
-123.59619140625
-119.93408203125
-119.0185546875
-119.93408203125
-108.94775390625
-105.28564453125
-117.1875
-116.27197265625
-114.44091796875
-120.849609375
-119.0185546875
-109.86328125
-105.28564453125
-115.3564453125
-105.28564453125
-104.3701171875
-99.79248046875
-109.86328125
-108.94775390625
-117.1875
-130.92041015625
-129.08935546875
-140.9912109375
-145.56884765625
-157.470703125
-159.3017578125
-169.37255859375
-162.04833984375
-149.23095703125
-108.0322265625
-71.4111328125
-22.88818359375
74.15771484375
225.2197265625
381.77490234375
573.1201171875
735.16845703125
915.52734375
1019.8974609375
1087.646484375
1148.0712890625
1218.56689453125
1217.6513671875
1125.18310546875
921.0205078125
663.75732421875
355.224609375
66.83349609375
-128.173828125
-235.29052734375
-262.75634765625
-257.26318359375
-265.5029296875
-241.69921875
-208.740234375
-189.51416015625
-163.87939453125
-142.822265625
-119.93408203125
-114.44091796875
-109.86328125
-96.13037109375
-87.890625
-85.14404296875
-75.98876953125
-76.904296875
-89.7216796875
-81.48193359375
-92.46826171875
-105.28564453125
-102.5390625
-87.890625
-87.890625
-82.3974609375
-71.4111328125
-68.66455078125
-70.49560546875
-75.98876953125
-83.31298828125
-91.552734375
-87.890625
-79.65087890625
-69.580078125
-64.0869140625
-63.17138671875
-60.4248046875
-70.49560546875
-66.83349609375
-61.34033203125
-64.0869140625
-61.34033203125
-58.59375
-49.4384765625
-60.4248046875
-46.69189453125
-35.70556640625
-35.70556640625
-43.9453125
-37.53662109375
-44.86083984375
-53.1005859375
-38.4521484375
-33.87451171875
-24.71923828125
-19.22607421875
-9.1552734375
-12.8173828125
-12.8173828125
-5.4931640625
-12.8173828125
-14.6484375
0
2.74658203125
9.1552734375
13.73291015625
31.1279296875
22.88818359375
19.22607421875
18.310546875
11.90185546875
15.56396484375
17.39501953125
21.05712890625
25.634765625
34.7900390625
38.4521484375
32.04345703125
30.21240234375
25.634765625
21.05712890625
16.4794921875
19.22607421875
19.22607421875
24.71923828125
27.4658203125
28.38134765625
21.05712890625
21.05712890625
12.8173828125
5.4931640625
0.91552734375
9.1552734375
11.90185546875
21.97265625
19.22607421875
15.56396484375
9.1552734375
-2.74658203125
-1.8310546875
-12.8173828125
-15.56396484375
-13.73291015625
-12.8173828125
-25.634765625
-5.4931640625
-6.40869140625
-18.310546875
-30.21240234375
-39.36767578125
-54.931640625
-59.50927734375
-48.52294921875
-44.86083984375
-53.1005859375
-48.52294921875
-52.18505859375
-62.255859375
-63.17138671875
-65.00244140625
-71.4111328125
-76.904296875
-79.65087890625
-76.904296875
-74.15771484375
-67.7490234375
-64.0869140625
-72.32666015625
-87.890625
-83.31298828125
-86.0595703125
-90.63720703125
-83.31298828125
-82.3974609375
-82.3974609375
-71.4111328125
-74.15771484375
-75.98876953125
-78.7353515625
-82.3974609375
-86.0595703125
-86.97509765625
-86.97509765625
-78.7353515625
-74.15771484375
-64.0869140625
-65.00244140625
-71.4111328125
-81.48193359375
-77.81982421875
-88.80615234375
-88.80615234375
-79.65087890625
-69.580078125
-71.4111328125
-59.50927734375
-59.50927734375
-67.7490234375
-71.4111328125
-65.00244140625
-75.0732421875
-73.2421875
-70.49560546875
-67.7490234375
-58.59375
-52.18505859375
-46.69189453125
-59.50927734375
-60.4248046875
-60.4248046875
-61.34033203125
-73.2421875
-60.4248046875
-55.84716796875
-53.1005859375
-45.7763671875
-41.19873046875
-43.9453125
-42.1142578125
-42.1142578125
-45.7763671875
-45.7763671875
-24.71923828125
-12.8173828125
-4.57763671875
4.57763671875
17.39501953125
18.310546875
23.8037109375
18.310546875
4.57763671875
2.74658203125
10.986328125
21.97265625
27.4658203125
40.283203125
54.931640625
66.83349609375
75.98876953125
80.56640625
67.7490234375
51.26953125
56.7626953125
61.34033203125
71.4111328125
75.0732421875
82.3974609375
77.81982421875
80.56640625
75.98876953125
64.0869140625
45.7763671875
40.283203125
13.73291015625
-10.986328125
-18.310546875
-27.4658203125
-34.7900390625
-43.9453125
-50.35400390625
-65.00244140625
-65.91796875
-65.91796875
-70.49560546875
-67.7490234375
-66.83349609375
-64.0869140625
-75.0732421875
-86.0595703125
-87.890625
-93.3837890625
-106.201171875
-97.96142578125
-102.5390625
-101.62353515625
-90.63720703125
-86.97509765625
-96.13037109375
-96.13037109375
-102.5390625
-123.59619140625
-122.6806640625
-112.60986328125
-106.201171875
-108.0322265625
-108.94775390625
-105.28564453125
-113.525390625
-108.0322265625
-120.849609375
-133.6669921875
-135.498046875
-121.76513671875
-118.10302734375
-118.10302734375
-108.94775390625
-108.94775390625
-113.525390625
-119.0185546875
-123.59619140625
-124.51171875
-128.173828125
-123.59619140625
-117.1875
-118.10302734375
-113.525390625
-107.11669921875
-130.0048828125
-146.484375
-160.21728515625
-177.6123046875
-189.51416015625
-198.66943359375
-184.9365234375
-155.6396484375
-107.11669921875
-63.17138671875
-29.296875
66.83349609375
229.79736328125
392.76123046875
582.275390625
765.380859375
953.06396484375
1055.60302734375
1139.83154296875
1213.9892578125
1257.9345703125
1257.9345703125
1179.19921875
957.6416015625
692.138671875
381.77490234375
85.14404296875
-114.44091796875
-217.8955078125
-245.361328125
-245.361328125
-253.60107421875
-248.10791015625
-227.96630859375
-200.50048828125
-178.52783203125
-148.3154296875
-122.6806640625
-97.96142578125
-75.98876953125
-82.3974609375
-82.3974609375
-82.3974609375
-92.46826171875
-94.29931640625
-88.80615234375
-91.552734375
-88.80615234375
-71.4111328125
-62.255859375
-80.56640625
-78.7353515625
-81.48193359375
-79.65087890625
-82.3974609375
-75.98876953125
-75.0732421875
-65.91796875
-61.34033203125
-61.34033203125
-65.91796875
-66.83349609375
-67.7490234375
-73.2421875
-72.32666015625
-64.0869140625
-55.84716796875
-59.50927734375
-54.931640625
-52.18505859375
-58.59375
-50.35400390625
-47.607421875
-54.931640625
-59.50927734375
-50.35400390625
-43.9453125
-39.36767578125
-29.296875
-24.71923828125
-26.55029296875
-21.97265625
-21.97265625
-27.4658203125
-22.88818359375
-16.4794921875
-10.986328125
-8.23974609375
2.74658203125
12.8173828125
3.662109375
10.986328125
15.56396484375
5.4931640625
2.74658203125
8.23974609375
21.05712890625
23.8037109375
22.88818359375
32.958984375
31.1279296875
26.55029296875
25.634765625
22.88818359375
20.1416015625
26.55029296875
31.1279296875
30.21240234375
33.87451171875
36.62109375
27.4658203125
26.55029296875
28.38134765625
20.1416015625
13.73291015625
22.88818359375
27.4658203125
16.4794921875
32.04345703125
32.04345703125
21.97265625
13.73291015625
15.56396484375
3.662109375
-3.662109375
-0.91552734375
-4.57763671875
7.32421875
11.90185546875
4.57763671875
-4.57763671875
-14.6484375
-10.986328125
-25.634765625
-40.283203125
-34.7900390625
-32.04345703125
-35.70556640625
-35.70556640625
-31.1279296875
-43.9453125
-54.01611328125
-54.931640625
-65.91796875
-70.49560546875
-67.7490234375
-72.32666015625
-66.83349609375
-60.4248046875
-62.255859375
-68.66455078125
-78.7353515625
-83.31298828125
-82.3974609375
-84.228515625
-88.80615234375
-86.97509765625
-83.31298828125
-78.7353515625
-78.7353515625
-76.904296875
-86.97509765625
-88.80615234375
-97.96142578125
-103.45458984375
-96.13037109375
-90.63720703125
-85.14404296875
-75.98876953125
-73.2421875
-81.48193359375
-82.3974609375
-86.0595703125
-93.3837890625
-95.21484375
-88.80615234375
-77.81982421875
-76.904296875
-81.48193359375
-75.98876953125
-73.2421875
-71.4111328125
-70.49560546875
-78.7353515625
-72.32666015625
-70.49560546875
-64.0869140625
-64.0869140625
-57.67822265625
-55.84716796875
-53.1005859375
-71.4111328125
-64.0869140625
-59.50927734375
-63.17138671875
-61.34033203125
-52.18505859375
-41.19873046875
-39.36767578125
-30.21240234375
-28.38134765625
-21.05712890625
-18.310546875
-13.73291015625
-12.8173828125
-0.91552734375
14.6484375
18.310546875
32.958984375
28.38134765625
26.55029296875
21.05712890625
22.88818359375
19.22607421875
17.39501953125
33.87451171875
49.4384765625
65.00244140625
89.7216796875
90.63720703125
74.15771484375
70.49560546875
68.66455078125
62.255859375
65.00244140625
75.0732421875
77.81982421875
75.0732421875
75.98876953125
67.7490234375
55.84716796875
47.607421875
36.62109375
-0.91552734375
-32.04345703125
-41.19873046875
-42.1142578125
-45.7763671875
-41.19873046875
-42.1142578125
-59.50927734375
-69.580078125
-75.0732421875
-85.14404296875
-96.13037109375
-91.552734375
-90.63720703125
-86.0595703125
-76.904296875
-83.31298828125
-88.80615234375
-97.96142578125
-105.28564453125
-116.27197265625
-116.27197265625
-109.86328125
-109.86328125
-110.77880859375
-108.0322265625
-110.77880859375
-120.849609375
-121.76513671875
-119.93408203125
-134.58251953125
-136.41357421875
-131.8359375
-126.3427734375
-126.3427734375
-130.0048828125
-131.8359375
-142.822265625
-143.73779296875
-137.3291015625
-143.73779296875
-146.484375
-136.41357421875
-136.41357421875
-129.08935546875
-119.0185546875
-119.0185546875
-127.25830078125
-134.58251953125
-131.8359375
-138.24462890625
-141.90673828125
-140.07568359375
-136.41357421875
-144.6533203125
-143.73779296875
-147.39990234375
-172.119140625
-189.51416015625
-197.75390625
-207.82470703125
-184.9365234375
-149.23095703125
-103.45458984375
-57.67822265625
34.7900390625
171.20361328125
331.4208984375
523.681640625
695.80078125
878.90625
999.755859375
1083.984375
1157.2265625
1230.46875
1253.35693359375
1195.6787109375
1027.2216796875
757.14111328125
462.34130859375
139.16015625
-97.0458984375
-216.064453125
-263.671875
-258.1787109375
-254.5166015625
-248.10791015625
-245.361328125
-220.64208984375
-201.416015625
-194.091796875
-168.45703125
-140.9912109375
-124.51171875
-115.3564453125
-101.62353515625
-89.7216796875
-96.13037109375
-105.28564453125
-107.11669921875
-111.6943359375
-115.3564453125
-105.28564453125
-107.11669921875
-106.201171875
-92.46826171875
-88.80615234375
-100.7080078125
-108.94775390625
-110.77880859375
-109.86328125
-110.77880859375
-108.94775390625
-102.5390625
-89.7216796875
-83.31298828125
-81.48193359375
-80.56640625
-76.904296875
-78.7353515625
-93.3837890625
-96.13037109375
-84.228515625
-81.48193359375
-79.65087890625
-62.255859375
-68.66455078125
-74.15771484375
-80.56640625
-69.580078125
-73.2421875
-69.580078125
-62.255859375
-54.931640625
-48.52294921875
-43.9453125
-44.86083984375
-44.86083984375
-49.4384765625
-48.52294921875
-46.69189453125
-44.86083984375
-43.9453125
-32.04345703125
-26.55029296875
-21.05712890625
-24.71923828125
-23.8037109375
-31.1279296875
-28.38134765625
-32.958984375
-35.70556640625
-20.1416015625
-21.05712890625
-13.73291015625
-15.56396484375
-12.8173828125
-13.73291015625
-12.8173828125
-15.56396484375
-30.21240234375
-29.296875
-31.1279296875
-39.36767578125
-44.86083984375
-52.18505859375
-58.59375
-66.83349609375
-80.56640625
-95.21484375
-115.3564453125
-116.27197265625
-106.201171875
-110.77880859375
-118.10302734375
-119.0185546875
-128.173828125
-140.9912109375
-144.6533203125
-153.80859375
-179.443359375
-180.35888671875
-181.2744140625
-183.10546875
-186.767578125
-182.18994140625
-182.18994140625
-193.17626953125
-205.99365234375
-215.14892578125
-231.62841796875
-220.64208984375
-194.091796875
-173.9501953125
-140.9912109375
-122.6806640625
-121.76513671875
-116.27197265625
-121.76513671875
-126.3427734375
-114.44091796875
-126.3427734375
-118.10302734375
-115.3564453125
-104.3701171875
-101.62353515625
-92.46826171875
-103.45458984375
-93.3837890625
-91.552734375
-103.45458984375
-108.0322265625
-100.7080078125
-96.13037109375
-85.14404296875
-79.65087890625
-85.14404296875
-78.7353515625
-80.56640625
-84.228515625
-93.3837890625
-93.3837890625
-82.3974609375
-86.0595703125
-74.15771484375
-64.0869140625
-62.255859375
-69.580078125
-67.7490234375
-62.255859375
-72.32666015625
-65.00244140625
-66.83349609375
-70.49560546875
-63.17138671875
-51.26953125
-44.86083984375
-38.4521484375
-42.1142578125
-44.86083984375
-49.4384765625
-44.86083984375
-36.62109375
-27.4658203125
-24.71923828125
-17.39501953125
-13.73291015625
-22.88818359375
-23.8037109375
-18.310546875
-30.21240234375
-23.8037109375
-14.6484375
-12.8173828125
-5.4931640625
2.74658203125
6.40869140625
4.57763671875
-2.74658203125
-5.4931640625
-13.73291015625
-17.39501953125
-6.40869140625
5.4931640625
4.57763671875
10.07080078125
5.4931640625
-10.986328125
-16.4794921875
-15.56396484375
-25.634765625
-24.71923828125
-14.6484375
17.39501953125
54.931640625
97.96142578125
151.06201171875
249.0234375
400.08544921875
584.1064453125
768.12744140625
936.58447265625
1074.8291015625
1157.2265625
1233.21533203125
1266.17431640625
1293.64013671875
1247.86376953125
1090.39306640625
836.7919921875
575.86669921875
243.5302734375
0
-151.9775390625
-210.5712890625
-203.2470703125
-191.34521484375
-188.5986328125
-182.18994140625
-165.71044921875
-162.9638671875
-148.3154296875
-111.6943359375
-85.14404296875
-75.0732421875
-62.255859375
-65.00244140625
-72.32666015625
-78.7353515625
-83.31298828125
-98.876953125
-93.3837890625
-94.29931640625
-90.63720703125
-95.21484375
-83.31298828125
-84.228515625
-93.3837890625
-100.7080078125
-97.0458984375
-107.11669921875
-108.94775390625
-109.86328125
-105.28564453125
-98.876953125
-89.7216796875
-82.3974609375
-89.7216796875
-97.0458984375
-92.46826171875
-97.96142578125
-102.5390625
-106.201171875
-92.46826171875
-90.63720703125
-85.14404296875
-76.904296875
-79.65087890625
-95.21484375
-86.0595703125
-93.3837890625
-89.7216796875
-89.7216796875
-75.0732421875
-73.2421875
-70.49560546875
-67.7490234375
-65.91796875
-70.49560546875
-68.66455078125
-77.81982421875
-68.66455078125
-60.4248046875
-68.66455078125
-64.0869140625
-41.19873046875
-28.38134765625
-41.19873046875
-43.02978515625
-42.1142578125
-47.607421875
-48.52294921875
-44.86083984375
-40.283203125
-34.7900390625
-26.55029296875
-23.8037109375
-29.296875
-32.04345703125
-23.8037109375
-37.53662109375
-40.283203125
-34.7900390625
-33.87451171875
-29.296875
-30.21240234375
-24.71923828125
-32.958984375
-37.53662109375
-35.70556640625
-39.36767578125
-42.1142578125
-44.86083984375
-47.607421875
-42.1142578125
-34.7900390625
-36.62109375
-43.9453125
-51.26953125
-62.255859375
-74.15771484375
-75.0732421875
-80.56640625
-79.65087890625
-83.31298828125
-76.904296875
-75.0732421875
-77.81982421875
-86.97509765625
-97.0458984375
-108.94775390625
-113.525390625
-110.77880859375
-103.45458984375
-98.876953125
-108.94775390625
-117.1875
-125.42724609375
-128.173828125
-137.3291015625
-140.9912109375
-141.90673828125
-135.498046875
-130.92041015625
-130.0048828125
-119.0185546875
-124.51171875
-130.92041015625
-134.58251953125
-136.41357421875
-141.90673828125
-150.146484375
-151.06201171875
-145.56884765625
-131.8359375
-119.93408203125
-117.1875
-120.849609375
-128.173828125
-138.24462890625
-141.90673828125
-143.73779296875
-135.498046875
-130.92041015625
-128.173828125
-122.6806640625
-119.93408203125
-108.94775390625
-134.58251953125
-132.75146484375
-140.07568359375
-140.9912109375
-129.08935546875
-122.6806640625
-126.3427734375
-111.6943359375
-117.1875
-123.59619140625
-120.849609375
-121.76513671875
-133.6669921875
-130.0048828125
-122.6806640625
-119.93408203125
-110.77880859375
-105.28564453125
-109.86328125
-109.86328125
-113.525390625
-119.0185546875
-130.92041015625
-128.173828125
-119.93408203125
-117.1875
-114.44091796875
-106.201171875
-104.3701171875
-115.3564453125
-119.0185546875
-127.25830078125
-129.08935546875
-128.173828125
-123.59619140625
-119.0185546875
-120.849609375
-108.0322265625
-107.11669921875
-109.86328125
-112.60986328125
-128.173828125
-139.16015625
-137.3291015625
-129.08935546875
-117.1875
-119.0185546875
-120.849609375
-119.0185546875
-126.3427734375
-128.173828125
-121.76513671875
-138.24462890625
-134.58251953125
-119.93408203125
-125.42724609375
-132.75146484375
-124.51171875
-125.42724609375
-121.76513671875
-136.41357421875
-134.58251953125
-142.822265625
-144.6533203125
-146.484375
-145.56884765625
-136.41357421875
-120.849609375
-111.6943359375
-119.93408203125
-132.75146484375
-125.42724609375
-122.6806640625
-124.51171875
-112.60986328125
-104.3701171875
-86.97509765625
-75.0732421875
-67.7490234375
-81.48193359375
-82.3974609375
-71.4111328125
-83.31298828125
-74.15771484375
-56.7626953125
-51.26953125
-59.50927734375
-48.52294921875
-25.634765625
-28.38134765625
-32.958984375
-22.88818359375
-19.22607421875
-18.310546875
-10.07080078125
-15.56396484375
-13.73291015625
1.8310546875
-0.91552734375
-9.1552734375
-18.310546875
-38.4521484375
-49.4384765625
-62.255859375
-65.00244140625
-90.63720703125
-99.79248046875
-92.46826171875
-100.7080078125
-110.77880859375
-120.849609375
-127.25830078125
-140.07568359375
-140.9912109375
-136.41357421875
-143.73779296875
-140.07568359375
-140.9912109375
-138.24462890625
-141.90673828125
-137.3291015625
-136.41357421875
-151.06201171875
-153.80859375
-156.55517578125
-152.89306640625
-153.80859375
-140.07568359375
-144.6533203125
-145.56884765625
-147.39990234375
-152.89306640625
-166.6259765625
-170.2880859375
-160.21728515625
-156.55517578125
-157.470703125
-146.484375
-147.39990234375
-157.470703125
-160.21728515625
-162.9638671875
-166.6259765625
-162.04833984375
-162.04833984375
-157.470703125
-162.04833984375
-151.06201171875
-141.90673828125
-147.39990234375
-147.39990234375
-153.80859375
-165.71044921875
-166.6259765625
-175.78125
-181.2744140625
-188.5986328125
-186.767578125
-182.18994140625
-166.6259765625
-145.56884765625
-110.77880859375
-86.97509765625
-27.4658203125
111.6943359375
284.72900390625
449.52392578125
625.30517578125
797.42431640625
933.837890625
1019.8974609375
1083.06884765625
1124.267578125
1159.97314453125
1160.888671875
1053.77197265625
854.18701171875
617.98095703125
332.33642578125
49.4384765625
-125.42724609375
-213.31787109375
-254.5166015625
-280.1513671875
-302.1240234375
-302.1240234375
-301.20849609375
-269.1650390625
-225.2197265625
-220.64208984375
-201.416015625
-195.9228515625
-186.767578125
-184.02099609375
-163.87939453125
-146.484375
-141.90673828125
-133.6669921875
-133.6669921875
-143.73779296875
-148.3154296875
-143.73779296875
-152.89306640625
-160.21728515625
-149.23095703125
-140.9912109375
-145.56884765625
-133.6669921875
-139.16015625
-143.73779296875
-136.41357421875
-139.16015625
-149.23095703125
-140.9912109375
-130.92041015625
-129.08935546875
-129.08935546875
-120.849609375
-109.86328125
-119.93408203125
-130.0048828125
-130.0048828125
-130.92041015625
-135.498046875
-116.27197265625
-104.3701171875
-109.86328125
-101.62353515625
-97.0458984375
-106.201171875
-108.94775390625
-108.94775390625
-113.525390625
-108.94775390625
-102.5390625
-104.3701171875
-99.79248046875
-79.65087890625
-72.32666015625
-85.14404296875
-81.48193359375
-98.876953125
-110.77880859375
-93.3837890625
-75.98876953125
-75.98876953125
-72.32666015625
-55.84716796875
-49.4384765625
-60.4248046875
-56.7626953125
-54.931640625
-60.4248046875
-62.255859375
-51.26953125
-56.7626953125
-59.50927734375
-43.02978515625
-28.38134765625
-42.1142578125
-43.02978515625
-42.1142578125
-57.67822265625
-43.9453125
-36.62109375
-38.4521484375
-39.36767578125
-26.55029296875
-30.21240234375
-30.21240234375
-36.62109375
-33.87451171875
-39.36767578125
-37.53662109375
-38.4521484375
-36.62109375
-39.36767578125
-22.88818359375
-21.05712890625
-23.8037109375
-32.04345703125
-39.36767578125
-54.931640625
-53.1005859375
-44.86083984375
-56.7626953125
-50.35400390625
-50.35400390625
-50.35400390625
-58.59375
-68.66455078125
-75.98876953125
-82.3974609375
-91.552734375
-81.48193359375
-86.0595703125
-90.63720703125
-96.13037109375
-88.80615234375
-91.552734375
-96.13037109375
-107.11669921875
-116.27197265625
-114.44091796875
-118.10302734375
-119.93408203125
-119.0185546875
-115.3564453125
-109.86328125
-109.86328125
-113.525390625
-108.94775390625
-114.44091796875
-115.3564453125
-125.42724609375
-127.25830078125
-114.44091796875
-107.11669921875
-109.86328125
-114.44091796875
-115.3564453125
-117.1875
-121.76513671875
-123.59619140625
-110.77880859375
-110.77880859375
-111.6943359375
-104.3701171875
-104.3701171875
-109.86328125
-108.0322265625
-100.7080078125
-113.525390625
-118.10302734375
-111.6943359375
-109.86328125
-105.28564453125
-90.63720703125
-95.21484375
-107.11669921875
-111.6943359375
-111.6943359375
-114.44091796875
-115.3564453125
-97.96142578125
-96.13037109375
-90.63720703125
-72.32666015625
-60.4248046875
-60.4248046875
-62.255859375
-57.67822265625
-60.4248046875
-56.7626953125
-44.86083984375
-39.36767578125
-36.62109375
-35.70556640625
-34.7900390625
-35.70556640625
-26.55029296875
-21.05712890625
-21.97265625
-10.07080078125
10.986328125
20.1416015625
33.87451171875
35.70556640625
33.87451171875
31.1279296875
27.4658203125
26.55029296875
24.71923828125
27.4658203125
30.21240234375
29.296875
33.87451171875
44.86083984375
27.4658203125
10.07080078125
-16.4794921875
-39.36767578125
-65.00244140625
-67.7490234375
-76.904296875
-78.7353515625
-75.98876953125
-71.4111328125
-72.32666015625
-84.228515625
-98.876953125
-114.44091796875
-119.93408203125
-119.93408203125
-121.76513671875
-119.0185546875
-110.77880859375
-105.28564453125
-111.6943359375
-122.6806640625
-133.6669921875
-133.6669921875
-145.56884765625
-148.3154296875
-144.6533203125
-147.39990234375
-142.822265625
-141.90673828125
-146.484375
-156.55517578125
-150.146484375
-149.23095703125
-159.3017578125
-161.1328125
-154.72412109375
-159.3017578125
-165.71044921875
-151.06201171875
-152.89306640625
-160.21728515625
-159.3017578125
-159.3017578125
-168.45703125
-172.119140625
-167.54150390625
-163.87939453125
-158.38623046875
-157.470703125
-157.470703125
-154.72412109375
-164.794921875
-170.2880859375
-173.03466796875
-178.52783203125
-173.9501953125
-184.9365234375
-199.5849609375
-195.9228515625
-216.97998046875
-230.712890625
-229.79736328125
-219.7265625
-197.75390625
-158.38623046875
-122.6806640625
-44.86083984375
99.79248046875
273.74267578125
456.84814453125
631.7138671875
815.73486328125
968.6279296875
1042.78564453125
1120.60546875
1175.537109375
1213.9892578125
1195.6787109375
1092.22412109375
882.568359375
604.248046875
282.89794921875
-12.8173828125
-189.51416015625
-250.8544921875
-270.08056640625
-282.89794921875
-286.56005859375
-273.74267578125
-252.685546875
-237.12158203125
-213.31787109375
-193.17626953125
-184.9365234375
-170.2880859375
-152.89306640625
-152.89306640625
-145.56884765625
-122.6806640625
-126.3427734375
-139.16015625
-150.146484375
-140.07568359375
-152.89306640625
-151.06201171875
-143.73779296875
-131.8359375
-138.24462890625
-138.24462890625
-126.3427734375
-123.59619140625
-127.25830078125
-130.0048828125
-135.498046875
-143.73779296875
-134.58251953125
-130.92041015625
-128.173828125
-115.3564453125
-118.10302734375
-122.6806640625
-112.60986328125
-106.201171875
-123.59619140625
-120.849609375
-108.0322265625
-112.60986328125
-103.45458984375
-92.46826171875
-94.29931640625
-93.3837890625
-103.45458984375
-101.62353515625
-102.5390625
-104.3701171875
-95.21484375
-86.97509765625
-81.48193359375
-81.48193359375
-70.49560546875
-73.2421875
-80.56640625
-70.49560546875
-74.15771484375
-75.0732421875
-62.255859375
-57.67822265625
-59.50927734375
-46.69189453125
-43.9453125
-44.86083984375
-47.607421875
-51.26953125
-60.4248046875
-65.00244140625
-53.1005859375
-47.607421875
-49.4384765625
-38.4521484375
-35.70556640625
-45.7763671875
-58.59375
-54.931640625
-62.255859375
-67.7490234375
-59.50927734375
-50.35400390625
-54.01611328125
-47.607421875
-43.02978515625
-47.607421875
-56.7626953125
-57.67822265625
-69.580078125
-74.15771484375
-69.580078125
-62.255859375
-55.84716796875
-49.4384765625
-44.86083984375
-54.931640625
-68.66455078125
-70.49560546875
-74.15771484375
-81.48193359375
-73.2421875
-83.31298828125
-87.890625
-74.15771484375
-80.56640625
-90.63720703125
-107.11669921875
-101.62353515625
-114.44091796875
-121.76513671875
-121.76513671875
-121.76513671875
-124.51171875
-108.0322265625
-108.94775390625
-121.76513671875
-136.41357421875
-131.8359375
-145.56884765625
-143.73779296875
-142.822265625
-137.3291015625
-135.498046875
-131.8359375
-133.6669921875
-136.41357421875
-133.6669921875
-139.16015625
-154.72412109375
-150.146484375
-145.56884765625
-153.80859375
-145.56884765625
-139.16015625
-144.6533203125
-143.73779296875
-150.146484375
-151.9775390625
-158.38623046875
-155.6396484375
-143.73779296875
-136.41357421875
-146.484375
-146.484375
-140.07568359375
-141.90673828125
-134.58251953125
-148.3154296875
-155.6396484375
-153.80859375
-142.822265625
-137.3291015625
-130.0048828125
-125.42724609375
-128.173828125
-127.25830078125
-122.6806640625
-104.3701171875
-105.28564453125
-106.201171875
-89.7216796875
-85.14404296875
-75.98876953125
-57.67822265625
-52.18505859375
-61.34033203125
-58.59375
-58.59375
-65.91796875
-58.59375
-46.69189453125
-41.19873046875
-35.70556640625
0
10.986328125
1.8310546875
-4.57763671875
-1.8310546875
-7.32421875
-4.57763671875
0.91552734375
4.57763671875
13.73291015625
23.8037109375
17.39501953125
10.986328125
6.40869140625
-1.8310546875
-23.8037109375
-44.86083984375
-58.59375
-74.15771484375
-79.65087890625
-79.65087890625
-82.3974609375
-94.29931640625
-101.62353515625
-108.0322265625
-124.51171875
-130.92041015625
-135.498046875
-140.07568359375
-135.498046875
-125.42724609375
-129.08935546875
-140.9912109375
-143.73779296875
-152.89306640625
-163.87939453125
-162.04833984375
-162.04833984375
-162.9638671875
-160.21728515625
-153.80859375
-151.06201171875
-162.04833984375
-167.54150390625
-166.6259765625
-184.02099609375
-191.34521484375
-184.02099609375
-177.6123046875
-174.86572265625
-170.2880859375
-172.119140625
-174.86572265625
-178.52783203125
-186.767578125
-189.51416015625
-189.51416015625
-185.85205078125
-188.5986328125
-181.2744140625
-170.2880859375
-166.6259765625
-172.119140625
-173.03466796875
-175.78125
-189.51416015625
-190.4296875
-184.02099609375
-174.86572265625
-182.18994140625
-170.2880859375
-177.6123046875
-200.50048828125
-206.9091796875
-219.7265625
-249.0234375
-255.43212890625
-254.5166015625
-238.95263671875
-205.99365234375
-154.72412109375
-118.10302734375
-54.931640625
60.4248046875
214.2333984375
375.3662109375
555.72509765625
741.5771484375
912.78076171875
1036.376953125
1125.18310546875
1189.27001953125
1228.6376953125
1213.9892578125
1116.943359375
902.7099609375
614.31884765625
288.39111328125
-2.74658203125
-196.83837890625
-274.658203125
-295.71533203125
-305.7861328125
-300.29296875
-301.20849609375
-281.982421875
-249.0234375
-223.388671875
-196.83837890625
-173.9501953125
-154.72412109375
-151.06201171875
-154.72412109375
-150.146484375
-149.23095703125
-159.3017578125
-151.9775390625
-152.89306640625
-155.6396484375
-149.23095703125
-139.16015625
-143.73779296875
-141.90673828125
-148.3154296875
-144.6533203125
-156.55517578125
-155.6396484375
-150.146484375
-149.23095703125
-144.6533203125
-134.58251953125
-122.6806640625
-130.92041015625
-133.6669921875
-133.6669921875
-139.16015625
-133.6669921875
-135.498046875
-124.51171875
-122.6806640625
-116.27197265625
-109.86328125
-122.6806640625
-121.76513671875
-119.0185546875
-117.1875
-132.75146484375
-121.76513671875
-114.44091796875
-109.86328125
-92.46826171875
-91.552734375
-92.46826171875
-94.29931640625
-99.79248046875
-100.7080078125
-100.7080078125
-96.13037109375
-84.228515625
-75.98876953125
-62.255859375
-59.50927734375
-61.34033203125
-56.7626953125
-60.4248046875
-71.4111328125
-64.0869140625
-54.01611328125
-51.26953125
-53.1005859375
-39.36767578125
-35.70556640625
-38.4521484375
-35.70556640625
-33.87451171875
-54.01611328125
-56.7626953125
-40.283203125
-31.1279296875
-32.958984375
-27.4658203125
-29.296875
-32.04345703125
-27.4658203125
-42.1142578125
-53.1005859375
-44.86083984375
-42.1142578125
-41.19873046875
-36.62109375
-35.70556640625
-32.04345703125
-43.02978515625
-52.18505859375
-51.26953125
-55.84716796875
-59.50927734375
-53.1005859375
-60.4248046875
-66.83349609375
-57.67822265625
-55.84716796875
-64.0869140625
-74.15771484375
-86.0595703125
-98.876953125
-106.201171875
-96.13037109375
-102.5390625
-101.62353515625
-94.29931640625
-105.28564453125
-111.6943359375
-122.6806640625
-120.849609375
-132.75146484375
-136.41357421875
-130.0048828125
-136.41357421875
-140.9912109375
-122.6806640625
-128.173828125
-136.41357421875
-137.3291015625
-144.6533203125
-154.72412109375
-156.55517578125
-151.06201171875
-149.23095703125
-153.80859375
-144.6533203125
-143.73779296875
-138.24462890625
-146.484375
-151.06201171875
-162.04833984375
-169.37255859375
-158.38623046875
-151.9775390625
-155.6396484375
-144.6533203125
-147.39990234375
-150.146484375
-158.38623046875
-152.89306640625
-170.2880859375
-171.20361328125
-164.794921875
-155.6396484375
-153.80859375
-140.07568359375
-140.9912109375
-149.23095703125
-155.6396484375
-144.6533203125
-144.6533203125
-148.3154296875
-136.41357421875
-128.173828125
-112.60986328125
-94.29931640625
-89.7216796875
-90.63720703125
-82.3974609375
-76.904296875
-79.65087890625
-75.0732421875
-54.931640625
-53.1005859375
-47.607421875
-32.958984375
-34.7900390625
-32.04345703125
-25.634765625
-24.71923828125
-24.71923828125
-20.1416015625
4.57763671875
10.07080078125
11.90185546875
23.8037109375
30.21240234375
21.05712890625
18.310546875
22.88818359375
19.22607421875
19.22607421875
15.56396484375
20.1416015625
11.90185546875
23.8037109375
10.986328125
-10.986328125
-29.296875
-52.18505859375
-75.98876953125
-85.14404296875
-79.65087890625
-90.63720703125
-88.80615234375
-97.0458984375
-104.3701171875
-114.44091796875
-123.59619140625
-129.08935546875
-131.8359375
-140.07568359375
-135.498046875
-133.6669921875
-139.16015625
-137.3291015625
-137.3291015625
-138.24462890625
-153.80859375
-157.470703125
-166.6259765625
-171.20361328125
-164.794921875
-158.38623046875
-162.04833984375
-162.9638671875
-162.9638671875
-170.2880859375
-172.119140625
-176.69677734375
-187.68310546875
-184.02099609375
-181.2744140625
-179.443359375
-176.69677734375
-175.78125
-170.2880859375
-182.18994140625
-181.2744140625
-185.85205078125
-200.50048828125
-198.66943359375
-181.2744140625
-176.69677734375
-173.9501953125
-172.119140625
-173.03466796875
-179.443359375
-186.767578125
-189.51416015625
-191.34521484375
-200.50048828125
-195.00732421875
-193.17626953125
-202.33154296875
-205.99365234375
-216.97998046875
-235.29052734375
-252.685546875
-258.1787109375
-244.44580078125
-219.7265625
-165.71044921875
-123.59619140625
-68.66455078125
61.34033203125
223.388671875
399.169921875
580.4443359375
769.04296875
942.07763671875
1038.2080078125
1119.68994140625
1191.10107421875
1231.38427734375
1222.22900390625
1104.1259765625
849.609375
543.8232421875
208.740234375
-73.2421875
-258.1787109375
-331.4208984375
-339.66064453125
-328.67431640625
-303.955078125
-273.74267578125
-253.60107421875
-235.29052734375
-211.48681640625
-200.50048828125
-180.35888671875
-168.45703125
-162.04833984375
-150.146484375
-142.822265625
-151.06201171875
-158.38623046875
-154.72412109375
-154.72412109375
-167.54150390625
-167.54150390625
-158.38623046875
-158.38623046875
-156.55517578125
-151.06201171875
-152.89306640625
-151.9775390625
-152.89306640625
-152.89306640625
-155.6396484375
-154.72412109375
-147.39990234375
-142.822265625
-140.07568359375
-135.498046875
-131.8359375
-129.08935546875
-131.8359375
-134.58251953125
-144.6533203125
-139.16015625
-138.24462890625
-132.75146484375
-120.849609375
-109.86328125
-106.201171875
-119.93408203125
-115.3564453125
-108.0322265625
-120.849609375
-120.849609375
-109.86328125
-99.79248046875
-100.7080078125
-91.552734375
-85.14404296875
-86.0595703125
-85.14404296875
-90.63720703125
-88.80615234375
-82.3974609375
-80.56640625
-67.7490234375
-59.50927734375
-50.35400390625
-48.52294921875
-50.35400390625
-53.1005859375
-54.931640625
-59.50927734375
-58.59375
-50.35400390625
-43.9453125
-43.9453125
-27.4658203125
-27.4658203125
-32.04345703125
-38.4521484375
-44.86083984375
-54.931640625
-55.84716796875
-43.02978515625
-37.53662109375
-43.02978515625
-32.958984375
-31.1279296875
-40.283203125
-41.19873046875
-48.52294921875
-59.50927734375
-56.7626953125
-60.4248046875
-50.35400390625
-46.69189453125
-39.36767578125
-46.69189453125
-50.35400390625
-66.83349609375
-65.00244140625
-68.66455078125
-77.81982421875
-80.56640625
-87.890625
-82.3974609375
-82.3974609375
-86.97509765625
-98.876953125
-99.79248046875
-112.60986328125
-118.10302734375
-121.76513671875
-119.93408203125
-117.1875
-129.08935546875
-123.59619140625
-124.51171875
-130.92041015625
-137.3291015625
-144.6533203125
-152.89306640625
-159.3017578125
-151.06201171875
-153.80859375
-151.06201171875
-143.73779296875
-143.73779296875
-149.23095703125
-148.3154296875
-157.470703125
-169.37255859375
-169.37255859375
-165.71044921875
-155.6396484375
-167.54150390625
-159.3017578125
-155.6396484375
-161.1328125
-164.794921875
-165.71044921875
-174.86572265625
-173.9501953125
-171.20361328125
-173.03466796875
-167.54150390625
-162.9638671875
-154.72412109375
-161.1328125
-164.794921875
-166.6259765625
-174.86572265625
-177.6123046875
-170.2880859375
-163.87939453125
-153.80859375
-153.80859375
-148.3154296875
-148.3154296875
-159.3017578125
-159.3017578125
-158.38623046875
-157.470703125
-148.3154296875
-149.23095703125
-146.484375
-136.41357421875
-130.0048828125
-120.849609375
-120.849609375
-118.10302734375
-114.44091796875
-106.201171875
-89.7216796875
-75.98876953125
-62.255859375
-43.02978515625
-43.9453125
-43.9453125
-39.36767578125
-38.4521484375
-52.18505859375
-55.84716796875
-43.9453125
-35.70556640625
-22.88818359375
-4.57763671875
12.8173828125
12.8173828125
17.39501953125
10.07080078125
2.74658203125
-7.32421875
0.91552734375
14.6484375
18.310546875
22.88818359375
21.97265625
19.22607421875
6.40869140625
1.8310546875
-15.56396484375
-24.71923828125
-39.36767578125
-53.1005859375
-71.4111328125
-73.2421875
-82.3974609375
-88.80615234375
-108.0322265625
-114.44091796875
-130.0048828125
-131.8359375
-126.3427734375
-133.6669921875
-134.58251953125
-129.08935546875
-133.6669921875
-135.498046875
-137.3291015625
-146.484375
-164.794921875
-167.54150390625
-163.87939453125
-160.21728515625
-159.3017578125
-153.80859375
-163.87939453125
-173.03466796875
-170.2880859375
-171.20361328125
-190.4296875
-190.4296875
-173.03466796875
-184.02099609375
-181.2744140625
-172.119140625
-166.6259765625
-179.443359375
-187.68310546875
-186.767578125
-190.4296875
-195.00732421875
-186.767578125
-186.767578125
-185.85205078125
-180.35888671875
-176.69677734375
-179.443359375
-183.10546875
-181.2744140625
-195.9228515625
-196.83837890625
-188.5986328125
-187.68310546875
-184.9365234375
-177.6123046875
-180.35888671875
-192.2607421875
-202.33154296875
-207.82470703125
-220.64208984375
-242.61474609375
-244.44580078125
-257.26318359375
-241.69921875
-201.416015625
-168.45703125
-129.08935546875
-91.552734375
-2.74658203125
153.80859375
320.4345703125
512.6953125
693.9697265625
885.31494140625
1026.30615234375
1116.02783203125
1174.62158203125
1225.89111328125
1208.49609375
1125.18310546875
904.541015625
620.7275390625
298.4619140625
3.662109375
-197.75390625
-302.1240234375
-338.7451171875
-325.927734375
-316.7724609375
-305.7861328125
-278.3203125
-249.0234375
-224.30419921875
-199.5849609375
-169.37255859375
-151.9775390625
-156.55517578125
-157.470703125
-155.6396484375
-165.71044921875
-168.45703125
-159.3017578125
-151.9775390625
-147.39990234375
-147.39990234375
-140.07568359375
-151.06201171875
-157.470703125
-154.72412109375
-157.470703125
-159.3017578125
-156.55517578125
-147.39990234375
-136.41357421875
-131.8359375
-130.0048828125
-131.8359375
-142.822265625
-142.822265625
-141.90673828125
-144.6533203125
-137.3291015625
-131.8359375
-130.0048828125
-117.1875
-118.10302734375
-117.1875
-121.76513671875
-121.76513671875
-132.75146484375
-127.25830078125
-121.76513671875
-109.86328125
-109.86328125
-95.21484375
-87.890625
-90.63720703125
-99.79248046875
-97.96142578125
-95.21484375
-96.13037109375
-87.890625
-89.7216796875
-85.14404296875
-72.32666015625
-65.00244140625
-65.91796875
-65.91796875
-59.50927734375
-65.00244140625
-62.255859375
-60.4248046875
-52.18505859375
-43.9453125
-30.21240234375
-28.38134765625
-40.283203125
-39.36767578125
-32.04345703125
-45.7763671875
-41.19873046875
-43.9453125
-29.296875
-35.70556640625
-31.1279296875
-22.88818359375
-25.634765625
-38.4521484375
-38.4521484375
-51.26953125
-50.35400390625
-38.4521484375
-32.958984375
-32.04345703125
-31.1279296875
-29.296875
-43.9453125
-45.7763671875
-43.02978515625
-55.84716796875
-61.34033203125
-52.18505859375
-64.0869140625
-54.931640625
-52.18505859375
-52.18505859375
-59.50927734375
-70.49560546875
-75.98876953125
-92.46826171875
-93.3837890625
-97.0458984375
-98.876953125
-93.3837890625
-97.96142578125
-92.46826171875
-106.201171875
-111.6943359375
-126.3427734375
-145.56884765625
-139.16015625
-131.8359375
-135.498046875
-138.24462890625
-128.173828125
-123.59619140625
-142.822265625
-154.72412109375
-155.6396484375
-162.9638671875
-176.69677734375
-152.89306640625
-150.146484375
-157.470703125
-158.38623046875
-157.470703125
-152.89306640625
-158.38623046875
-165.71044921875
-163.87939453125
-172.119140625
-164.794921875
-167.54150390625
-170.2880859375
-153.80859375
-154.72412109375
-166.6259765625
-165.71044921875
-167.54150390625
-175.78125
-179.443359375
-173.03466796875
-166.6259765625
-156.55517578125
-160.21728515625
-161.1328125
-157.470703125
-160.21728515625
-165.71044921875
-166.6259765625
-164.794921875
-154.72412109375
-148.3154296875
-140.9912109375
-134.58251953125
-142.822265625
-137.3291015625
-138.24462890625
-142.822265625
-147.39990234375
-143.73779296875
-131.8359375
-132.75146484375
-128.173828125
-121.76513671875
-112.60986328125
-121.76513671875
-121.76513671875
-118.10302734375
-130.0048828125
-124.51171875
-117.1875
-111.6943359375
-110.77880859375
-96.13037109375
-89.7216796875
-104.3701171875
-98.876953125
-86.0595703125
-89.7216796875
-81.48193359375
-70.49560546875
-63.17138671875
-45.7763671875
-32.958984375
-27.4658203125
-36.62109375
-44.86083984375
-34.7900390625
-37.53662109375
-48.52294921875
-32.958984375
-25.634765625
-26.55029296875
-7.32421875
5.4931640625
10.986328125
15.56396484375
9.1552734375
-12.8173828125
-20.1416015625
-5.4931640625
-2.74658203125
8.23974609375
10.07080078125
10.07080078125
3.662109375
-5.4931640625
-11.90185546875
-30.21240234375
-43.02978515625
-57.67822265625
-84.228515625
-102.5390625
-103.45458984375
-104.3701171875
-106.201171875
-114.44091796875
-132.75146484375
-151.9775390625
-147.39990234375
-149.23095703125
-151.06201171875
-145.56884765625
-138.24462890625
-151.06201171875
-165.71044921875
-163.87939453125
-164.794921875
-178.52783203125
-179.443359375
-175.78125
-173.03466796875
-173.03466796875
-173.03466796875
-175.78125
-178.52783203125
-183.10546875
-187.68310546875
-193.17626953125
-194.091796875
-192.2607421875
-196.83837890625
-194.091796875
-180.35888671875
-180.35888671875
-188.5986328125
-191.34521484375
-187.68310546875
-205.078125
-205.078125
-200.50048828125
-190.4296875
-188.5986328125
-182.18994140625
-173.9501953125
-192.2607421875
-203.2470703125
-194.091796875
-199.5849609375
-207.82470703125
-195.9228515625
-189.51416015625
-191.34521484375
-189.51416015625
-192.2607421875
-195.9228515625
-199.5849609375
-220.64208984375
-250.8544921875
-255.43212890625
-251.77001953125
-246.27685546875
-219.7265625
-167.54150390625
-117.1875
-85.14404296875
-17.39501953125
135.498046875
275.57373046875
462.34130859375
644.53125
829.4677734375
969.54345703125
1051.025390625
1113.28125
1187.43896484375
1187.43896484375
1100.4638671875
904.541015625
638.12255859375
342.4072265625
52.18505859375
-140.07568359375
-264.58740234375
-296.630859375
-312.19482421875
-299.37744140625
-306.70166015625
-312.19482421875
-290.22216796875
-255.43212890625
-232.5439453125
-205.078125
-183.10546875
-167.54150390625
-169.37255859375
-170.2880859375
-173.9501953125
-181.2744140625
-184.02099609375
-173.9501953125
-166.6259765625
-164.794921875
-159.3017578125
-162.9638671875
-159.3017578125
-165.71044921875
-163.87939453125
-164.794921875
-169.37255859375
-165.71044921875
-160.21728515625
-152.89306640625
-140.07568359375
-142.822265625
-142.822265625
-151.06201171875
-140.07568359375
-151.9775390625
-154.72412109375
-147.39990234375
-147.39990234375
-142.822265625
-132.75146484375
-121.76513671875
-128.173828125
-133.6669921875
-129.08935546875
-141.90673828125
-138.24462890625
-130.92041015625
-120.849609375
-119.93408203125
-111.6943359375
-105.28564453125
-108.0322265625
-110.77880859375
-106.201171875
-114.44091796875
-106.201171875
-98.876953125
-100.7080078125
-97.0458984375
-81.48193359375
-86.97509765625
-81.48193359375
-81.48193359375
-75.98876953125
-79.65087890625
-74.15771484375
-61.34033203125
-55.84716796875
-57.67822265625
-49.4384765625
-39.36767578125
-42.1142578125
-56.7626953125
-57.67822265625
-60.4248046875
-59.50927734375
-54.01611328125
-48.52294921875
-50.35400390625
-45.7763671875
-41.19873046875
-50.35400390625
-55.84716796875
-52.18505859375
-61.34033203125
-68.66455078125
-52.18505859375
-53.1005859375
-52.18505859375
-45.7763671875
-54.931640625
-57.67822265625
-63.17138671875
-63.17138671875
-75.98876953125
-72.32666015625
-72.32666015625
-69.580078125
-74.15771484375
-78.7353515625
-87.890625
-92.46826171875
-87.890625
-91.552734375
-114.44091796875
-116.27197265625
-108.94775390625
-111.6943359375
-111.6943359375
-108.94775390625
-116.27197265625
-123.59619140625
-127.25830078125
-140.07568359375
-145.56884765625
-149.23095703125
-140.07568359375
-140.9912109375
-149.23095703125
-144.6533203125
-148.3154296875
-157.470703125
-155.6396484375
-171.20361328125
-173.9501953125
-169.37255859375
-162.9638671875
-158.38623046875
-158.38623046875
-160.21728515625
-160.21728515625
-158.38623046875
-172.119140625
-177.6123046875
-193.17626953125
-190.4296875
-184.02099609375
-181.2744140625
-160.21728515625
-164.794921875
-172.119140625
-177.6123046875
-181.2744140625
-177.6123046875
-190.4296875
-194.091796875
-182.18994140625
-177.6123046875
-181.2744140625
-164.794921875
-170.2880859375
-173.9501953125
-177.6123046875
-176.69677734375
-185.85205078125
-184.02099609375
-164.794921875
-162.9638671875
-167.54150390625
-155.6396484375
-151.06201171875
-151.9775390625
-156.55517578125
-162.9638671875
-177.6123046875
-165.71044921875
-151.06201171875
-146.484375
-145.56884765625
-128.173828125
-143.73779296875
-137.3291015625
-130.92041015625
-133.6669921875
-152.89306640625
-140.07568359375
-131.8359375
-130.92041015625
-126.3427734375
-115.3564453125
-110.77880859375
-121.76513671875
-125.42724609375
-128.173828125
-135.498046875
-134.58251953125
-130.0048828125
-128.173828125
-122.6806640625
-112.60986328125
-109.86328125
-112.60986328125
-104.3701171875
-100.7080078125
-107.11669921875
-90.63720703125
-86.0595703125
-71.4111328125
-72.32666015625
-63.17138671875
-66.83349609375
-67.7490234375
-68.66455078125
-71.4111328125
-80.56640625
-74.15771484375
-57.67822265625
-43.02978515625
-38.4521484375
-12.8173828125
-5.4931640625
-13.73291015625
-23.8037109375
-30.21240234375
-37.53662109375
-37.53662109375
-31.1279296875
-25.634765625
-11.90185546875
-15.56396484375
-26.55029296875
-31.1279296875
-33.87451171875
-52.18505859375
-95.21484375
-117.1875
-115.3564453125
-118.10302734375
-126.3427734375
-118.10302734375
-117.1875
-137.3291015625
-140.07568359375
-152.89306640625
-168.45703125
-177.6123046875
-169.37255859375
-165.71044921875
-162.04833984375
-146.484375
-156.55517578125
-165.71044921875
-166.6259765625
-181.2744140625
-186.767578125
-184.02099609375
-195.00732421875
-191.34521484375
-194.091796875
-185.85205078125
-181.2744140625
-185.85205078125
-189.51416015625
-192.2607421875
-205.99365234375
-199.5849609375
-199.5849609375
-192.2607421875
-200.50048828125
-195.00732421875
-195.9228515625
-197.75390625
-195.00732421875
-200.50048828125
-215.14892578125
-213.31787109375
-200.50048828125
-191.34521484375
-186.767578125
-187.68310546875
-177.6123046875
-185.85205078125
-193.17626953125
-198.66943359375
-210.5712890625
-213.31787109375
-205.078125
-201.416015625
-199.5849609375
-188.5986328125
-204.16259765625
-216.064453125
-217.8955078125
-228.8818359375
-237.12158203125
-237.12158203125
-220.64208984375
-191.34521484375
-163.87939453125
-109.86328125
-67.7490234375
-10.07080078125
130.0048828125
290.22216796875
453.18603515625
619.81201171875
809.326171875
937.5
1010.7421875
1062.01171875
1119.68994140625
1134.33837890625
1079.40673828125
926.513671875
683.89892578125
429.38232421875
128.173828125
-99.79248046875
-207.82470703125
-247.1923828125
-271.91162109375
-300.29296875
-317.68798828125
-314.02587890625
-299.37744140625
-269.1650390625
-242.61474609375
-227.05078125
-205.99365234375
-183.10546875
-170.2880859375
-171.20361328125
-172.119140625
-167.54150390625
-184.02099609375
-181.2744140625
-173.03466796875
-159.3017578125
-165.71044921875
-151.9775390625
-152.89306640625
-153.80859375
-160.21728515625
-164.794921875
-168.45703125
-167.54150390625
-155.6396484375
-156.55517578125
-159.3017578125
-149.23095703125
-140.9912109375
-147.39990234375
-155.6396484375
-149.23095703125
-151.06201171875
-154.72412109375
-149.23095703125
-140.9912109375
-136.41357421875
-131.8359375
-126.3427734375
-135.498046875
-130.92041015625
-131.8359375
-142.822265625
-136.41357421875
-112.60986328125
-119.93408203125
-117.1875
-105.28564453125
-112.60986328125
-115.3564453125
-111.6943359375
-95.21484375
-98.876953125
-103.45458984375
-109.86328125
-97.0458984375
-80.56640625
-80.56640625
-79.65087890625
-82.3974609375
-85.14404296875
-75.98876953125
-76.904296875
-83.31298828125
-83.31298828125
-76.904296875
-63.17138671875
-52.18505859375
-52.18505859375
-55.84716796875
-64.0869140625
-65.91796875
-65.91796875
-57.67822265625
-56.7626953125
-54.01611328125
-47.607421875
-38.4521484375
-51.26953125
-53.1005859375
-47.607421875
-53.1005859375
-64.0869140625
-65.00244140625
-61.34033203125
-58.59375
-44.86083984375
-44.86083984375
-37.53662109375
-53.1005859375
-54.01611328125
-57.67822265625
-77.81982421875
-79.65087890625
-71.4111328125
-75.0732421875
-78.7353515625
-72.32666015625
-77.81982421875
-81.48193359375
-86.0595703125
-97.0458984375
-112.60986328125
-118.10302734375
-118.10302734375
-122.6806640625
-124.51171875
-123.59619140625
-124.51171875
-130.92041015625
-123.59619140625
-136.41357421875
-151.06201171875
-160.21728515625
-149.23095703125
-151.06201171875
-144.6533203125
-143.73779296875
-144.6533203125
-151.06201171875
-157.470703125
-159.3017578125
-175.78125
-180.35888671875
-173.9501953125
-162.9638671875
-158.38623046875
-155.6396484375
-162.9638671875
-167.54150390625
-169.37255859375
-175.78125
-181.2744140625
-177.6123046875
-169.37255859375
-173.9501953125
-175.78125
-162.04833984375
-163.87939453125
-178.52783203125
-173.03466796875
-168.45703125
-178.52783203125
-184.9365234375
-173.9501953125
-176.69677734375
-186.767578125
-173.03466796875
-171.20361328125
-173.03466796875
-167.54150390625
-174.86572265625
-181.2744140625
-179.443359375
-171.20361328125
-163.87939453125
-158.38623046875
-140.07568359375
-142.822265625
-148.3154296875
-151.9775390625
-155.6396484375
-165.71044921875
-161.1328125
-155.6396484375
-145.56884765625
-140.07568359375
-125.42724609375
-118.10302734375
-126.3427734375
-132.75146484375
-127.25830078125
-137.3291015625
-138.24462890625
-127.25830078125
-121.76513671875
-112.60986328125
-102.5390625
-102.5390625
-102.5390625
-97.96142578125
-92.46826171875
-101.62353515625
-97.0458984375
-80.56640625
-70.49560546875
-65.91796875
-49.4384765625
-54.931640625
-58.59375
-52.18505859375
-45.7763671875
-54.931640625
-45.7763671875
-39.36767578125
-26.55029296875
-18.310546875
-0.91552734375
13.73291015625
10.986328125
12.8173828125
6.40869140625
-11.90185546875
-12.8173828125
3.662109375
7.32421875
10.07080078125
20.1416015625
12.8173828125
-2.74658203125
-18.310546875
-21.05712890625
-36.62109375
-61.34033203125
-77.81982421875
-93.3837890625
-96.13037109375
-93.3837890625
-95.21484375
-101.62353515625
-112.60986328125
-122.6806640625
-140.07568359375
-147.39990234375
-140.9912109375
-142.822265625
-138.24462890625
-133.6669921875
-140.9912109375
-145.56884765625
-148.3154296875
-158.38623046875
-167.54150390625
-170.2880859375
-170.2880859375
-166.6259765625
-160.21728515625
-162.04833984375
-162.9638671875
-168.45703125
-175.78125
-180.35888671875
-181.2744140625
-182.18994140625
-187.68310546875
-178.52783203125
-181.2744140625
-169.37255859375
-173.03466796875
-181.2744140625
-178.52783203125
-182.18994140625
-196.83837890625
-195.00732421875
-187.68310546875
-184.02099609375
-182.18994140625
-180.35888671875
-176.69677734375
-177.6123046875
-188.5986328125
-195.00732421875
-195.9228515625
-195.00732421875
-184.9365234375
-183.10546875
-180.35888671875
-158.38623046875
-165.71044921875
-173.9501953125
-178.52783203125
-196.83837890625
-209.65576171875
-216.97998046875
-213.31787109375
-214.2333984375
-201.416015625
-175.78125
-147.39990234375
-108.94775390625
-75.98876953125
-21.05712890625
83.31298828125
240.78369140625
420.22705078125
595.0927734375
769.95849609375
928.3447265625
1024.47509765625
1079.40673828125
1138.00048828125
1164.55078125
1129.7607421875
997.9248046875
778.1982421875
525.5126953125
217.8955078125
-30.21240234375
-170.2880859375
-240.78369140625
-271.91162109375
-281.06689453125
-302.1240234375
-302.1240234375
-282.89794921875
-245.361328125
-224.30419921875
-195.9228515625
-181.2744140625
-169.37255859375
-159.3017578125
-148.3154296875
-160.21728515625
-159.3017578125
-155.6396484375
-149.23095703125
-142.822265625
-136.41357421875
-131.8359375
-140.9912109375
-150.146484375
-143.73779296875
-152.89306640625
-151.9775390625
-142.822265625
-135.498046875
-132.75146484375
-127.25830078125
-126.3427734375
-135.498046875
-136.41357421875
-135.498046875
-143.73779296875
-149.23095703125
-139.16015625
-130.92041015625
-125.42724609375
-108.94775390625
-108.0322265625
-111.6943359375
-110.77880859375
-113.525390625
-126.3427734375
-123.59619140625
-114.44091796875
-113.525390625
-108.0322265625
-90.63720703125
-92.46826171875
-98.876953125
-93.3837890625
-93.3837890625
-100.7080078125
-98.876953125
-86.97509765625
-73.2421875
-71.4111328125
-62.255859375
-56.7626953125
-66.83349609375
-57.67822265625
-55.84716796875
-78.7353515625
-69.580078125
-53.1005859375
-44.86083984375
-35.70556640625
-22.88818359375
-23.8037109375
-25.634765625
-25.634765625
-22.88818359375
-29.296875
-31.1279296875
-28.38134765625
-27.4658203125
-14.6484375
-7.32421875
-8.23974609375
-12.8173828125
-17.39501953125
-13.73291015625
-26.55029296875
-24.71923828125
-19.22607421875
-28.38134765625
-26.55029296875
-20.1416015625
-21.05712890625
-21.97265625
-30.21240234375
-36.62109375
-43.9453125
-41.19873046875
-33.87451171875
-37.53662109375
-35.70556640625
-40.283203125
-40.283203125
-60.4248046875
-67.7490234375
-65.91796875
-84.228515625
-87.890625
-83.31298828125
-82.3974609375
-87.890625
-82.3974609375
-86.97509765625
-99.79248046875
-114.44091796875
-110.77880859375
-123.59619140625
-131.8359375
-134.58251953125
-127.25830078125
-125.42724609375
-120.849609375
-119.93408203125
-130.0048828125
-136.41357421875
-149.23095703125
-157.470703125
-151.06201171875
-145.56884765625
-144.6533203125
-145.56884765625
-137.3291015625
-149.23095703125
-154.72412109375
-154.72412109375
-155.6396484375
-171.20361328125
-164.794921875
-160.21728515625
-157.470703125
-155.6396484375
-148.3154296875
-152.89306640625
-160.21728515625
-160.21728515625
-157.470703125
-166.6259765625
-167.54150390625
-163.87939453125
-152.89306640625
-154.72412109375
-151.9775390625
-150.146484375
-154.72412109375
-160.21728515625
-157.470703125
-168.45703125
-171.20361328125
-163.87939453125
-157.470703125
-152.89306640625
-143.73779296875
-144.6533203125
-148.3154296875
-152.89306640625
-158.38623046875
-158.38623046875
-162.9638671875
-152.89306640625
-151.9775390625
-143.73779296875
-125.42724609375
-125.42724609375
-132.75146484375
-132.75146484375
-140.9912109375
-146.484375
-138.24462890625
-122.6806640625
-117.1875
-106.201171875
-97.96142578125
-79.65087890625
-73.2421875
-72.32666015625
-65.00244140625
-70.49560546875
-65.00244140625
-54.01611328125
-44.86083984375
-43.02978515625
-33.87451171875
-35.70556640625
-28.38134765625
-32.04345703125
-40.283203125
-38.4521484375
-28.38134765625
-10.07080078125
2.74658203125
7.32421875
18.310546875
17.39501953125
11.90185546875
7.32421875
6.40869140625
0
-0.91552734375
-0.91552734375
-2.74658203125
-0.91552734375
-0.91552734375
-7.32421875
-18.310546875
-42.1142578125
-66.83349609375
-87.890625
-98.876953125
-95.21484375
-98.876953125
-108.0322265625
-99.79248046875
-106.201171875
-124.51171875
-130.0048828125
-136.41357421875
-145.56884765625
-144.6533203125
-134.58251953125
-140.9912109375
-142.822265625
-138.24462890625
-133.6669921875
-141.90673828125
-157.470703125
-160.21728515625
-166.6259765625
-172.119140625
-169.37255859375
-157.470703125
-162.04833984375
-153.80859375
-158.38623046875
-171.20361328125
-173.9501953125
-176.69677734375
-182.18994140625
-189.51416015625
-179.443359375
-176.69677734375
-173.9501953125
-170.2880859375
-168.45703125
-176.69677734375
-181.2744140625
-184.02099609375
-187.68310546875
-185.85205078125
-180.35888671875
-178.52783203125
-177.6123046875
-163.87939453125
-173.03466796875
-173.03466796875
-173.9501953125
-178.52783203125
-180.35888671875
-181.2744140625
-181.2744140625
-176.69677734375
-178.52783203125
-167.54150390625
-175.78125
-184.02099609375
-195.00732421875
-207.82470703125
-223.388671875
-234.375
-213.31787109375
-184.9365234375
-142.822265625
-90.63720703125
-48.52294921875
16.4794921875
162.04833984375
320.4345703125
492.5537109375
666.50390625
851.4404296875
990.6005859375
1072.08251953125
1144.4091796875
1210.3271484375
1205.74951171875
1122.4365234375
923.76708984375
636.29150390625
333.251953125
47.607421875
-154.72412109375
-262.75634765625
-293.88427734375
-311.279296875
-312.19482421875
-306.70166015625
-282.89794921875
-257.26318359375
-240.78369140625
-222.47314453125
-196.83837890625
-162.04833984375
-145.56884765625
-148.3154296875
-151.06201171875
-150.146484375
-153.80859375
-162.04833984375
-161.1328125
-151.06201171875
-152.89306640625
-151.06201171875
-139.16015625
-130.92041015625
-138.24462890625
-136.41357421875
-139.16015625
-152.89306640625
-153.80859375
-148.3154296875
-141.90673828125
-139.16015625
-130.0048828125
-127.25830078125
-136.41357421875
-130.92041015625
-136.41357421875
-144.6533203125
-140.9912109375
-127.25830078125
-128.173828125
-119.93408203125
-111.6943359375
-115.3564453125
-116.27197265625
-114.44091796875
-115.3564453125
-126.3427734375
-121.76513671875
-108.0322265625
-102.5390625
-102.5390625
-95.21484375
-92.46826171875
-82.3974609375
-89.7216796875
-92.46826171875
-94.29931640625
-81.48193359375
-77.81982421875
-75.98876953125
-62.255859375
-54.01611328125
-52.18505859375
-48.52294921875
-43.9453125
-45.7763671875
-47.607421875
-46.69189453125
-35.70556640625
-32.04345703125
-26.55029296875
-12.8173828125
-10.07080078125
-16.4794921875
-29.296875
-30.21240234375
-51.26953125
-69.580078125
-72.32666015625
-74.15771484375
-74.15771484375
-74.15771484375
-82.3974609375
-83.31298828125
-88.80615234375
-96.13037109375
-120.849609375
-130.92041015625
-124.51171875
-117.1875
-121.76513671875
-115.3564453125
-126.3427734375
-142.822265625
-151.9775390625
-156.55517578125
-172.119140625
-188.5986328125
-193.17626953125
-201.416015625
-205.99365234375
-195.9228515625
-198.66943359375
-194.091796875
-188.5986328125
-157.470703125
-147.39990234375
-135.498046875
-132.75146484375
-131.8359375
-115.3564453125
-105.28564453125
-109.86328125
-110.77880859375
-125.42724609375
-123.59619140625
-128.173828125
-130.0048828125
-129.08935546875
-130.0048828125
-120.849609375
-112.60986328125
-106.201171875
-111.6943359375
-119.93408203125
-116.27197265625
-120.849609375
-116.27197265625
-108.94775390625
-108.94775390625
-110.77880859375
-105.28564453125
-108.94775390625
-103.45458984375
-105.28564453125
-104.3701171875
-116.27197265625
-118.10302734375
-106.201171875
-97.96142578125
-103.45458984375
-95.21484375
-104.3701171875
-108.94775390625
-108.0322265625
-99.79248046875
-108.94775390625
-108.94775390625
-105.28564453125
-104.3701171875
-97.96142578125
-83.31298828125
-84.228515625
-93.3837890625
-94.29931640625
-89.7216796875
-101.62353515625
-98.876953125
-84.228515625
-76.904296875
-80.56640625
-76.904296875
-71.4111328125
-78.7353515625
-81.48193359375
-74.15771484375
-86.0595703125
-82.3974609375
-75.98876953125
-63.17138671875
-51.26953125
-42.1142578125
-45.7763671875
-52.18505859375
-48.52294921875
-41.19873046875
-55.84716796875
-53.1005859375
-43.9453125
-31.1279296875
-28.38134765625
-15.56396484375
-19.22607421875
-32.958984375
-38.4521484375
-35.70556640625
-57.67822265625
-65.91796875
-67.7490234375
-67.7490234375
-59.50927734375
-26.55029296875
-5.4931640625
2.74658203125
26.55029296875
112.60986328125
252.685546875
466.9189453125
680.23681640625
867.00439453125
1010.7421875
1111.4501953125
1197.509765625
1262.51220703125
1267.08984375
1168.212890625
964.05029296875
670.166015625
323.18115234375
43.02978515625
-142.822265625
-239.8681640625
-264.58740234375
-260.009765625
-232.5439453125
-216.064453125
-204.16259765625
-188.5986328125
-155.6396484375
-128.173828125
-102.5390625
-90.63720703125
-90.63720703125
-96.13037109375
-106.201171875
-104.3701171875
-110.77880859375
-120.849609375
-115.3564453125
-117.1875
-118.10302734375
-108.0322265625
-108.94775390625
-114.44091796875
-121.76513671875
-121.76513671875
-134.58251953125
-130.92041015625
-123.59619140625
-124.51171875
-120.849609375
-109.86328125
-108.0322265625
-117.1875
-113.525390625
-119.0185546875
-127.25830078125
-129.08935546875
-128.173828125
-124.51171875
-113.525390625
-106.201171875
-105.28564453125
-108.0322265625
-105.28564453125
-114.44091796875
-120.849609375
-115.3564453125
-108.0322265625
-106.201171875
-95.21484375
-89.7216796875
-91.552734375
-93.3837890625
-88.80615234375
-91.552734375
-98.876953125
-93.3837890625
-84.228515625
-84.228515625
-74.15771484375
-61.34033203125
-64.0869140625
-58.59375
-51.26953125
-61.34033203125
-69.580078125
-62.255859375
-56.7626953125
-46.69189453125
-40.283203125
-29.296875
-31.1279296875
-32.04345703125
-38.4521484375
-40.283203125
-42.1142578125
-43.02978515625
-44.86083984375
-38.4521484375
-28.38134765625
-16.4794921875
-22.88818359375
-29.296875
-33.87451171875
-26.55029296875
-41.19873046875
-46.69189453125
-37.53662109375
-29.296875
-35.70556640625
-19.22607421875
-28.38134765625
-49.4384765625
-46.69189453125
-46.69189453125
-59.50927734375
-58.59375
-49.4384765625
-59.50927734375
-60.4248046875
-54.931640625
-60.4248046875
-73.2421875
-87.890625
-85.14404296875
-96.13037109375
-105.28564453125
-105.28564453125
-108.94775390625
-119.0185546875
-104.3701171875
-99.79248046875
-110.77880859375
-110.77880859375
-118.10302734375
-135.498046875
-134.58251953125
-127.25830078125
-124.51171875
-129.08935546875
-117.1875
-118.10302734375
-129.08935546875
-132.75146484375
-131.8359375
-141.90673828125
-139.16015625
-132.75146484375
-121.76513671875
-122.6806640625
-121.76513671875
-119.93408203125
-123.59619140625
-124.51171875
-131.8359375
-140.07568359375
-140.07568359375
-133.6669921875
-127.25830078125
-124.51171875
-113.525390625
-108.0322265625
-109.86328125
-110.77880859375
-109.86328125
-120.849609375
-128.173828125
-119.93408203125
-112.60986328125
-108.94775390625
-104.3701171875
-105.28564453125
-108.0322265625
-112.60986328125
-104.3701171875
-120.849609375
-119.93408203125
-116.27197265625
-114.44091796875
-104.3701171875
-99.79248046875
-98.876953125
-106.201171875
-105.28564453125
-101.62353515625
-116.27197265625
-112.60986328125
-108.0322265625
-106.201171875
-109.86328125
-94.29931640625
-97.0458984375
-104.3701171875
-102.5390625
-111.6943359375
-128.173828125
-122.6806640625
-117.1875
-116.27197265625
-108.94775390625
-99.79248046875
-109.86328125
-116.27197265625
-118.10302734375
-117.1875
-130.0048828125
-133.6669921875
-123.59619140625
-119.93408203125
-123.59619140625
-116.27197265625
-120.849609375
-120.849609375
-122.6806640625
-125.42724609375
-141.90673828125
-142.822265625
-133.6669921875
-128.173828125
-125.42724609375
-124.51171875
-125.42724609375
-129.08935546875
-134.58251953125
-132.75146484375
-143.73779296875
-145.56884765625
-141.90673828125
-140.9912109375
-133.6669921875
-123.59619140625
-131.8359375
-134.58251953125
-141.90673828125
-145.56884765625
-156.55517578125
-155.6396484375
-147.39990234375
-135.498046875
-129.08935546875
-129.08935546875
-130.0048828125
-131.8359375
-133.6669921875
-141.90673828125
-150.146484375
-146.484375
-151.06201171875
-146.484375
-144.6533203125
-138.24462890625
-140.9912109375
-139.16015625
-141.90673828125
-150.146484375
-157.470703125
-150.146484375
-142.822265625
-144.6533203125
-145.56884765625
-138.24462890625
-134.58251953125
-142.822265625
-151.06201171875
-143.73779296875
-149.23095703125
-159.3017578125
-151.06201171875
-147.39990234375
-147.39990234375
-141.90673828125
-140.9912109375
-138.24462890625
-146.484375
-155.6396484375
-168.45703125
-164.794921875
-148.3154296875
-152.89306640625
-145.56884765625
-142.822265625
-140.9912109375
-144.6533203125
-137.3291015625
-141.90673828125
-151.06201171875
-155.6396484375
-150.146484375
-141.90673828125
-140.9912109375
-134.58251953125
-138.24462890625
-139.16015625
-134.58251953125
-136.41357421875
-155.6396484375
-151.06201171875
-144.6533203125
-141.90673828125
-138.24462890625
-134.58251953125
-134.58251953125
-139.16015625
-140.9912109375
-141.90673828125
-159.3017578125
-158.38623046875
-152.89306640625
-142.822265625
-141.90673828125
-137.3291015625
-142.822265625
-140.9912109375
-140.9912109375
-142.822265625
-154.72412109375
-154.72412109375
-142.822265625
-140.9912109375
-141.90673828125
-133.6669921875
-136.41357421875
-140.9912109375
-141.90673828125
-147.39990234375
-161.1328125
-155.6396484375
-146.484375
-142.822265625
-140.07568359375
-133.6669921875
-136.41357421875
-144.6533203125
-148.3154296875
-148.3154296875
-162.9638671875
-169.37255859375
-156.55517578125
-148.3154296875
-148.3154296875
-136.41357421875
-139.16015625
-145.56884765625
-157.470703125
-159.3017578125
-154.72412109375
-147.39990234375
-147.39990234375
-150.146484375
-150.146484375
-140.07568359375
-134.58251953125
-143.73779296875
-151.9775390625
-138.24462890625
-151.06201171875
-154.72412109375
-142.822265625
-139.16015625
-126.3427734375
-113.525390625
-110.77880859375
-108.94775390625
-98.876953125
-91.552734375
-91.552734375
-89.7216796875
-86.0595703125
-81.48193359375
-80.56640625
-75.0732421875
-82.3974609375
-74.15771484375
-74.15771484375
-78.7353515625
-78.7353515625
-75.0732421875
-55.84716796875
-52.18505859375
-55.84716796875
-49.4384765625
-41.19873046875
-43.9453125
-47.607421875
-40.283203125
-50.35400390625
-50.35400390625
-36.62109375
-37.53662109375
-34.7900390625
-35.70556640625
-57.67822265625
-71.4111328125
-89.7216796875
-97.0458984375
-115.3564453125
-119.93408203125
-117.1875
-120.849609375
-112.60986328125
-110.77880859375
-118.10302734375
-123.59619140625
-130.92041015625
-136.41357421875
-146.484375
-142.822265625
-137.3291015625
-134.58251953125
-134.58251953125
-129.08935546875
-135.498046875
-145.56884765625
-140.07568359375
-145.56884765625
-160.21728515625
-157.470703125
-151.06201171875
-151.9775390625
-151.06201171875
-148.3154296875
-148.3154296875
-150.146484375
-151.9775390625
-155.6396484375
-164.794921875
-159.3017578125
-156.55517578125
-151.06201171875
-140.9912109375
-135.498046875
-140.07568359375
-153.80859375
-156.55517578125
-158.38623046875
-155.6396484375
-142.822265625
-140.07568359375
-146.484375
-150.146484375
-149.23095703125
-153.80859375
-173.03466796875
-186.767578125
-193.17626953125
-181.2744140625
-153.80859375
-105.28564453125
-65.00244140625
-34.7900390625
58.59375
194.091796875
334.16748046875
502.62451171875
667.41943359375
838.623046875
975.03662109375
1054.6875
1141.66259765625
1214.90478515625
1211.24267578125
1122.4365234375
942.9931640625
652.77099609375
359.80224609375
67.7490234375
-143.73779296875
-268.24951171875
-320.4345703125
-321.35009765625
-307.6171875
-299.37744140625
-273.74267578125
-237.12158203125
-210.5712890625
-200.50048828125
-163.87939453125
-155.6396484375
-141.90673828125
-139.16015625
-129.08935546875
-132.75146484375
-132.75146484375
-134.58251953125
-140.07568359375
-140.07568359375
-144.6533203125
-142.822265625
-131.8359375
-130.0048828125
-132.75146484375
-123.59619140625
-124.51171875
-129.08935546875
-132.75146484375
-140.9912109375
-149.23095703125
-140.07568359375
-132.75146484375
-129.08935546875
-117.1875
-111.6943359375
-111.6943359375
-116.27197265625
-111.6943359375
-119.0185546875
-133.6669921875
-119.0185546875
-114.44091796875
-106.201171875
-96.13037109375
-100.7080078125
-106.201171875
-107.11669921875
-98.876953125
-116.27197265625
-114.44091796875
-107.11669921875
-103.45458984375
-97.96142578125
-81.48193359375
-80.56640625
-86.97509765625
-90.63720703125
-77.81982421875
-90.63720703125
-86.97509765625
-85.14404296875
-71.4111328125
-67.7490234375
-53.1005859375
-53.1005859375
-50.35400390625
-45.7763671875
-49.4384765625
-59.50927734375
-56.7626953125
-54.931640625
-40.283203125
-29.296875
-21.97265625
-11.90185546875
-21.97265625
-25.634765625
-25.634765625
-34.7900390625
-35.70556640625
-23.8037109375
-25.634765625
-13.73291015625
-0.91552734375
-4.57763671875
-5.4931640625
-9.1552734375
-14.6484375
-21.05712890625
-19.22607421875
-16.4794921875
-13.73291015625
-13.73291015625
-4.57763671875
-2.74658203125
-9.1552734375
-13.73291015625
-22.88818359375
-34.7900390625
-22.88818359375
-26.55029296875
-28.38134765625
-30.21240234375
-23.8037109375
-28.38134765625
-38.4521484375
-42.1142578125
-53.1005859375
-66.83349609375
-64.0869140625
-63.17138671875
-56.7626953125
-61.34033203125
-55.84716796875
-72.32666015625
-76.904296875
-84.228515625
-86.97509765625
-104.3701171875
-108.94775390625
-100.7080078125
-102.5390625
-95.21484375
-90.63720703125
-100.7080078125
-108.94775390625
-105.28564453125
-108.94775390625
-135.498046875
-144.6533203125
-130.0048828125
-119.93408203125
-115.3564453125
-104.3701171875
-116.27197265625
-126.3427734375
-118.10302734375
-122.6806640625
-135.498046875
-137.3291015625
-129.08935546875
-125.42724609375
-123.59619140625
-117.1875
-123.59619140625
-130.92041015625
-122.6806640625
-128.173828125
-134.58251953125
-141.90673828125
-139.16015625
-132.75146484375
-119.0185546875
-116.27197265625
-113.525390625
-124.51171875
-128.173828125
-132.75146484375
-140.07568359375
-136.41357421875
-125.42724609375
-121.76513671875
-118.10302734375
-108.0322265625
-109.86328125
-121.76513671875
-130.0048828125
-122.6806640625
-134.58251953125
-137.3291015625
-119.93408203125
-118.10302734375
-112.60986328125
-104.3701171875
-113.525390625
-113.525390625
-115.3564453125
-119.0185546875
-128.173828125
-126.3427734375
-116.27197265625
-113.525390625
-109.86328125
-98.876953125
-105.28564453125
-108.0322265625
-117.1875
-109.86328125
-117.1875
-114.44091796875
-106.201171875
-107.11669921875
-96.13037109375
-95.21484375
-97.96142578125
-101.62353515625
-108.94775390625
-104.3701171875
-116.27197265625
-113.525390625
-105.28564453125
-100.7080078125
-97.0458984375
-93.3837890625
-90.63720703125
-89.7216796875
-104.3701171875
-108.0322265625
-124.51171875
-128.173828125
-123.59619140625
-116.27197265625
-109.86328125
-102.5390625
-103.45458984375
-105.28564453125
-108.0322265625
-115.3564453125
-124.51171875
-123.59619140625
-117.1875
-120.849609375
-125.42724609375
-113.525390625
-115.3564453125
-125.42724609375
-128.173828125
-135.498046875
-136.41357421875
-140.9912109375
-140.07568359375
-123.59619140625
-120.849609375
-121.76513671875
-119.0185546875
-117.1875
-112.60986328125
-109.86328125
-116.27197265625
-113.525390625
-98.876953125
-77.81982421875
-73.2421875
-64.0869140625
-68.66455078125
-68.66455078125
-71.4111328125
-73.2421875
-71.4111328125
-66.83349609375
-61.34033203125
-38.4521484375
-21.05712890625
-13.73291015625
-15.56396484375
-19.22607421875
-21.97265625
-22.88818359375
-32.958984375
-23.8037109375
-24.71923828125
-17.39501953125
-20.1416015625
-21.05712890625
-21.05712890625
-32.958984375
-54.931640625
-71.4111328125
-102.5390625
-111.6943359375
-124.51171875
-115.3564453125
-117.1875
-113.525390625
-121.76513671875
-138.24462890625
-151.9775390625
-151.9775390625
-161.1328125
-160.21728515625
-167.54150390625
-163.87939453125
-160.21728515625
-158.38623046875
-157.470703125
-171.20361328125
-174.86572265625
-170.2880859375
-186.767578125
-187.68310546875
-183.10546875
-175.78125
-176.69677734375
-170.2880859375
-173.9501953125
-176.69677734375
-178.52783203125
-186.767578125
-194.091796875
-200.50048828125
-195.9228515625
-184.02099609375
-180.35888671875
-169.37255859375
-179.443359375
-185.85205078125
-184.02099609375
-182.18994140625
-195.00732421875
-194.091796875
-196.83837890625
-181.2744140625
-183.10546875
-169.37255859375
-172.119140625
-174.86572265625
-180.35888671875
-183.10546875
-201.416015625
-193.17626953125
-201.416015625
-215.14892578125
-215.14892578125
-209.65576171875
-203.2470703125
-179.443359375
-154.72412109375
-114.44091796875
-89.7216796875
-29.296875
105.28564453125
261.8408203125
428.466796875
604.248046875
788.26904296875
919.189453125
1001.5869140625
1058.349609375
1105.95703125
1135.25390625
1109.619140625
973.20556640625
730.5908203125
488.8916015625
196.83837890625
-52.18505859375
-194.091796875
-265.5029296875
-297.54638671875
-312.19482421875
-312.19482421875
-302.1240234375
-285.64453125
-248.10791015625
-238.95263671875
-222.47314453125
-203.2470703125
-190.4296875
-184.9365234375
-176.69677734375
-165.71044921875
-160.21728515625
-155.6396484375
-155.6396484375
-151.06201171875
-159.3017578125
-161.1328125
-153.80859375
-173.03466796875
-175.78125
-161.1328125
-153.80859375
-156.55517578125
-141.90673828125
-140.9912109375
-145.56884765625
-152.89306640625
-149.23095703125
-157.470703125
-160.21728515625
-145.56884765625
-137.3291015625
-130.92041015625
-119.93408203125
-120.849609375
-134.58251953125
-132.75146484375
-131.8359375
-144.6533203125
-138.24462890625
-135.498046875
-125.42724609375
-119.0185546875
-108.0322265625
-106.201171875
-114.44091796875
-112.60986328125
-113.525390625
-118.10302734375
-109.86328125
-101.62353515625
-92.46826171875
-91.552734375
-83.31298828125
-80.56640625
-75.98876953125
-80.56640625
-79.65087890625
-90.63720703125
-76.904296875
-71.4111328125
-60.4248046875
-55.84716796875
-55.84716796875
-49.4384765625
-48.52294921875
-45.7763671875
-42.1142578125
-50.35400390625
-49.4384765625
-47.607421875
-35.70556640625
-32.958984375
-19.22607421875
-17.39501953125
-26.55029296875
-24.71923828125
-21.97265625
-33.87451171875
-39.36767578125
-35.70556640625
-30.21240234375
-24.71923828125
-15.56396484375
-15.56396484375
-17.39501953125
-23.8037109375
-24.71923828125
-38.4521484375
-46.69189453125
-38.4521484375
-41.19873046875
-35.70556640625
-37.53662109375
-51.26953125
-52.18505859375
-53.1005859375
-63.17138671875
-79.65087890625
-75.0732421875
-68.66455078125
-77.81982421875
-87.890625
-74.15771484375
-84.228515625
-94.29931640625
-108.94775390625
-104.3701171875
-124.51171875
-121.76513671875
-126.3427734375
-123.59619140625
-120.849609375
-119.93408203125
-127.25830078125
-136.41357421875
-151.06201171875
-151.06201171875
-157.470703125
-156.55517578125
-151.06201171875
-146.484375
-140.9912109375
-136.41357421875
-142.822265625
-145.56884765625
-153.80859375
-159.3017578125
-173.03466796875
-167.54150390625
-168.45703125
-157.470703125
-153.80859375
-150.146484375
-151.9775390625
-155.6396484375
-162.04833984375
-170.2880859375
-175.78125
-175.78125
-175.78125
-159.3017578125
-158.38623046875
-155.6396484375
-164.794921875
-163.87939453125
-157.470703125
-162.9638671875
-175.78125
-176.69677734375
-173.9501953125
-167.54150390625
-161.1328125
-148.3154296875
-151.06201171875
-163.87939453125
-165.71044921875
-165.71044921875
-174.86572265625
-177.6123046875
-162.9638671875
-166.6259765625
-158.38623046875
-147.39990234375
-149.23095703125
-155.6396484375
-157.470703125
-156.55517578125
-159.3017578125
-161.1328125
-152.89306640625
-142.822265625
-135.498046875
-122.6806640625
-130.92041015625
-125.42724609375
-115.3564453125
-114.44091796875
-111.6943359375
-106.201171875
-86.97509765625
-81.48193359375
-71.4111328125
-62.255859375
-56.7626953125
-60.4248046875
-63.17138671875
-60.4248046875
-68.66455078125
-61.34033203125
-43.02978515625
-35.70556640625
-33.87451171875
-8.23974609375
2.74658203125
-1.8310546875
-2.74658203125
-5.4931640625
-13.73291015625
-10.986328125
-5.4931640625
-2.74658203125
-0.91552734375
22.88818359375
13.73291015625
0
-3.662109375
-13.73291015625
-36.62109375
-50.35400390625
-65.00244140625
-75.98876953125
-99.79248046875
-93.3837890625
-95.21484375
-119.93408203125
-126.3427734375
-125.42724609375
-140.07568359375
-139.16015625
-140.9912109375
-150.146484375
-141.90673828125
-130.0048828125
-130.92041015625
-137.3291015625
-146.484375
-151.9775390625
-164.794921875
-172.119140625
-165.71044921875
-153.80859375
-155.6396484375
-156.55517578125
-159.3017578125
-167.54150390625
-168.45703125
-170.2880859375
-188.5986328125
-179.443359375
-172.119140625
-180.35888671875
-174.86572265625
-163.87939453125
-163.87939453125
-176.69677734375
-183.10546875
-174.86572265625
-194.091796875
-192.2607421875
-190.4296875
-188.5986328125
-191.34521484375
-168.45703125
-171.20361328125
-177.6123046875
-184.02099609375
-184.02099609375
-185.85205078125
-186.767578125
-178.52783203125
-172.119140625
-164.794921875
-163.87939453125
-170.2880859375
-176.69677734375
-183.10546875
-195.9228515625
-214.2333984375
-225.2197265625
-222.47314453125
-217.8955078125
-192.2607421875
-144.6533203125
-100.7080078125
-75.0732421875
-9.1552734375
117.1875
269.1650390625
438.53759765625
613.4033203125
805.6640625
959.47265625
1059.26513671875
1119.68994140625
1182.861328125
1201.171875
1151.7333984375
1006.16455078125
747.98583984375
468.75
163.87939453125
-74.15771484375
-214.2333984375
-275.57373046875
-296.630859375
-303.955078125
-302.1240234375
-295.71533203125
-264.58740234375
-222.47314453125
-197.75390625
-173.03466796875
-149.23095703125
-140.9912109375
-136.41357421875
-139.16015625
-128.173828125
-139.16015625
-141.90673828125
-138.24462890625
-132.75146484375
-132.75146484375
-119.93408203125
-120.849609375
-127.25830078125
-134.58251953125
-133.6669921875
-134.58251953125
-141.90673828125
-132.75146484375
-133.6669921875
-123.59619140625
-114.44091796875
-115.3564453125
-117.1875
-119.0185546875
-114.44091796875
-121.76513671875
-120.849609375
-119.93408203125
-113.525390625
-99.79248046875
-95.21484375
-98.876953125
-97.96142578125
-104.3701171875
-102.5390625
-100.7080078125
-100.7080078125
-94.29931640625
-81.48193359375
-78.7353515625
-68.66455078125
-68.66455078125
-71.4111328125
-74.15771484375
-64.0869140625
-66.83349609375
-61.34033203125
-58.59375
-55.84716796875
-51.26953125
-39.36767578125
-30.21240234375
-37.53662109375
-33.87451171875
-28.38134765625
-42.1142578125
-34.7900390625
-20.1416015625
-19.22607421875
-10.07080078125
7.32421875
2.74658203125
7.32421875
0.91552734375
-6.40869140625
-10.986328125
-17.39501953125
-20.1416015625
-18.310546875
-28.38134765625
-36.62109375
-45.7763671875
-50.35400390625
-61.34033203125
-68.66455078125
-78.7353515625
-80.56640625
-72.32666015625
-77.81982421875
-91.552734375
-97.0458984375
-103.45458984375
-115.3564453125
-119.93408203125
-130.0048828125
-147.39990234375
-150.146484375
-151.9775390625
-151.9775390625
-161.1328125
-157.470703125
-172.119140625
-184.9365234375
-195.9228515625
-203.2470703125
-210.5712890625
-193.17626953125
-167.54150390625
-149.23095703125
-118.10302734375
-106.201171875
-112.60986328125
-112.60986328125
-108.94775390625
-102.5390625
-127.25830078125
-119.0185546875
-108.94775390625
-109.86328125
-98.876953125
-91.552734375
-99.79248046875
-112.60986328125
-111.6943359375
-103.45458984375
-116.27197265625
-108.0322265625
-101.62353515625
-103.45458984375
-97.96142578125
-75.0732421875
-80.56640625
-88.80615234375
-100.7080078125
-96.13037109375
-112.60986328125
-109.86328125
-100.7080078125
-93.3837890625
-86.97509765625
-78.7353515625
-77.81982421875
-85.14404296875
-85.14404296875
-89.7216796875
-95.21484375
-92.46826171875
-92.46826171875
-84.228515625
-81.48193359375
-72.32666015625
-69.580078125
-75.0732421875
-69.580078125
-71.4111328125
-89.7216796875
-87.890625
-74.15771484375
-64.0869140625
-55.84716796875
-51.26953125
-54.01611328125
-62.255859375
-47.607421875
-53.1005859375
-58.59375
-51.26953125
-42.1142578125
-40.283203125
-34.7900390625
-25.634765625
-23.8037109375
-23.8037109375
-22.88818359375
-22.88818359375
-26.55029296875
-21.97265625
-15.56396484375
-13.73291015625
-14.6484375
-0.91552734375
0
-4.57763671875
-14.6484375
-38.4521484375
-52.18505859375
-61.34033203125
-61.34033203125
-64.0869140625
-45.7763671875
-11.90185546875
21.05712890625
54.01611328125
97.96142578125
196.83837890625
341.49169921875
563.96484375
789.1845703125
971.37451171875
1126.0986328125
1218.56689453125
1283.5693359375
1343.994140625
1346.74072265625
1260.68115234375
1059.26513671875
774.5361328125
421.142578125
106.201171875
-100.7080078125
-207.82470703125
-235.29052734375
-229.79736328125
-220.64208984375
-189.51416015625
-167.54150390625
-150.146484375
-126.3427734375
-102.5390625
-80.56640625
-68.66455078125
-69.580078125
-83.31298828125
-73.2421875
-73.2421875
-97.0458984375
-101.62353515625
-90.63720703125
-87.890625
-90.63720703125
-80.56640625
-86.97509765625
-95.21484375
-97.0458984375
-103.45458984375
-113.525390625
-99.79248046875
-94.29931640625
-96.13037109375
-92.46826171875
-89.7216796875
-97.0458984375
-98.876953125
-96.13037109375
-102.5390625
-112.60986328125
-106.201171875
-95.21484375
-96.13037109375
-91.552734375
-87.890625
-86.0595703125
-91.552734375
-90.63720703125
-92.46826171875
-99.79248046875
-101.62353515625
-91.552734375
-88.80615234375
-75.98876953125
-69.580078125
-72.32666015625
-67.7490234375
-68.66455078125
-65.91796875
-69.580078125
-80.56640625
-68.66455078125
-50.35400390625
-50.35400390625
-40.283203125
-36.62109375
-35.70556640625
-37.53662109375
-43.9453125
-38.4521484375
-38.4521484375
-32.04345703125
-21.97265625
-18.310546875
-5.4931640625
-16.4794921875
-19.22607421875
-12.8173828125
-16.4794921875
-28.38134765625
-22.88818359375
-14.6484375
-7.32421875
-9.1552734375
-4.57763671875
-6.40869140625
-5.4931640625
-4.57763671875
-6.40869140625
-23.8037109375
-16.4794921875
-6.40869140625
-6.40869140625
-15.56396484375
-15.56396484375
-22.88818359375
-19.22607421875
-27.4658203125
-30.21240234375
-40.283203125
-40.283203125
-43.02978515625
-41.19873046875
-49.4384765625
-45.7763671875
-45.7763671875
-51.26953125
-69.580078125
-79.65087890625
-82.3974609375
-89.7216796875
-86.0595703125
-88.80615234375
-93.3837890625
-85.14404296875
-88.80615234375
-99.79248046875
-102.5390625
-110.77880859375
-118.10302734375
-114.44091796875
-109.86328125
-113.525390625
-108.0322265625
-108.94775390625
-119.0185546875
-118.10302734375
-120.849609375
-133.6669921875
-141.90673828125
-138.24462890625
-126.3427734375
-107.11669921875
-113.525390625
-108.0322265625
-119.0185546875
-119.0185546875
-115.3564453125
-124.51171875
-129.08935546875
-122.6806640625
-117.1875
-106.201171875
-106.201171875
-99.79248046875
-99.79248046875
-101.62353515625
-109.86328125
-116.27197265625
-114.44091796875
-107.11669921875
-107.11669921875
-101.62353515625
-97.0458984375
-87.890625
-95.21484375
-96.13037109375
-98.876953125
-104.3701171875
-110.77880859375
-105.28564453125
-97.0458984375
-99.79248046875
-95.21484375
-81.48193359375
-88.80615234375
-96.13037109375
-92.46826171875
-95.21484375
-99.79248046875
-98.876953125
-86.0595703125
-92.46826171875
-89.7216796875
-78.7353515625
-98.876953125
-84.228515625
-87.890625
-93.3837890625
-111.6943359375
-103.45458984375
-101.62353515625
-87.890625
-94.29931640625
-88.80615234375
-79.65087890625
-86.97509765625
-101.62353515625
-99.79248046875
-108.94775390625
-112.60986328125
-106.201171875
-105.28564453125
-103.45458984375
-94.29931640625
-103.45458984375
-105.28564453125
-97.96142578125
-106.201171875
-120.849609375
-123.59619140625
-125.42724609375
-115.3564453125
-107.11669921875
-111.6943359375
-108.94775390625
-126.3427734375
-125.42724609375
-125.42724609375
-142.822265625
-140.9912109375
-121.76513671875
-116.27197265625
-117.1875
-112.60986328125
-106.201171875
-108.0322265625
-119.0185546875
-119.93408203125
-120.849609375
-116.27197265625
-114.44091796875
-111.6943359375
-112.60986328125
-105.28564453125
-113.525390625
-118.10302734375
-115.3564453125
-119.93408203125
-133.6669921875
-134.58251953125
-134.58251953125
-130.0048828125
-124.51171875
-124.51171875
-129.08935546875
-128.173828125
-124.51171875
-140.07568359375
-148.3154296875
-141.90673828125
-130.0048828125
-132.75146484375
-121.76513671875
-119.0185546875
-124.51171875
-129.08935546875
-133.6669921875
-131.8359375
-142.822265625
-145.56884765625
-135.498046875
-133.6669921875
-125.42724609375
-124.51171875
-125.42724609375
-129.08935546875
-130.0048828125
-140.07568359375
-147.39990234375
-143.73779296875
-139.16015625
-134.58251953125
-132.75146484375
-131.8359375
-130.92041015625
-129.08935546875
-131.8359375
-144.6533203125
-155.6396484375
-140.9912109375
-146.484375
-141.90673828125
-131.8359375
-123.59619140625
-129.08935546875
-134.58251953125
-130.92041015625
-137.3291015625
-153.80859375
-141.90673828125
-122.6806640625
-133.6669921875
-130.0048828125
-119.0185546875
-126.3427734375
-138.24462890625
-136.41357421875
-151.06201171875
-160.21728515625
-151.06201171875
-139.16015625
-136.41357421875
-144.6533203125
-128.173828125
-119.0185546875
-125.42724609375
-129.08935546875
-138.24462890625
-139.16015625
-137.3291015625
-136.41357421875
-130.92041015625
-123.59619140625
-117.1875
-125.42724609375
-134.58251953125
-131.8359375
-138.24462890625
-147.39990234375
-150.146484375
-137.3291015625
-125.42724609375
-120.849609375
-114.44091796875
-118.10302734375
-117.1875
-109.86328125
-110.77880859375
-105.28564453125
-86.97509765625
-84.228515625
-71.4111328125
-66.83349609375
-52.18505859375
-57.67822265625
-72.32666015625
-69.580078125
-81.48193359375
-77.81982421875
-67.7490234375
-69.580078125
-64.0869140625
-48.52294921875
-28.38134765625
-25.634765625
-33.87451171875
-39.36767578125
-49.4384765625
-50.35400390625
-31.1279296875
-24.71923828125
-28.38134765625
-23.8037109375
-8.23974609375
-16.4794921875
-21.05712890625
-27.4658203125
-54.01611328125
-84.228515625
-94.29931640625
-93.3837890625
-102.5390625
-94.29931640625
-93.3837890625
-100.7080078125
-113.525390625
-116.27197265625
-118.10302734375
-138.24462890625
-144.6533203125
-130.92041015625
-129.08935546875
-129.08935546875
-127.25830078125
-124.51171875
-141.90673828125
-138.24462890625
-140.07568359375
-151.9775390625
-155.6396484375
-145.56884765625
-140.9912109375
-137.3291015625
-134.58251953125
-128.173828125
-142.822265625
-144.6533203125
-151.06201171875
-154.72412109375
-152.89306640625
-147.39990234375
-148.3154296875
-137.3291015625
-137.3291015625
-139.16015625
-145.56884765625
-155.6396484375
-159.3017578125
-161.1328125
-151.9775390625
-140.9912109375
-139.16015625
-138.24462890625
-139.16015625
-144.6533203125
-155.6396484375
-173.03466796875
-191.34521484375
-195.9228515625
-173.03466796875
-151.06201171875
-117.1875
-71.4111328125
-30.21240234375
40.283203125
183.10546875
325.01220703125
476.07421875
630.79833984375
810.24169921875
981.4453125
1060.1806640625
1131.591796875
1217.6513671875
1234.130859375
1155.3955078125
1012.5732421875
741.5771484375
445.86181640625
143.73779296875
-77.81982421875
-214.2333984375
-287.4755859375
-295.71533203125
-300.29296875
-292.96875
-267.333984375
-235.29052734375
-226.13525390625
-200.50048828125
-163.87939453125
-140.07568359375
-133.6669921875
-121.76513671875
-122.6806640625
-119.93408203125
-115.3564453125
-125.42724609375
-130.0048828125
-123.59619140625
-125.42724609375
-125.42724609375
-126.3427734375
-126.3427734375
-122.6806640625
-124.51171875
-119.0185546875
-123.59619140625
-132.75146484375
-132.75146484375
-119.0185546875
-121.76513671875
-118.10302734375
-111.6943359375
-115.3564453125
-123.59619140625
-122.6806640625
-127.25830078125
-135.498046875
-128.173828125
-118.10302734375
-97.96142578125
-102.5390625
-97.0458984375
-95.21484375
-106.201171875
-98.876953125
-115.3564453125
-117.1875
-98.876953125
-86.97509765625
-88.80615234375
-86.97509765625
-75.0732421875
-78.7353515625
-87.890625
-93.3837890625
-88.80615234375
-89.7216796875
-86.97509765625
-84.228515625
-80.56640625
-68.66455078125
-56.7626953125
-55.84716796875
-56.7626953125
-54.931640625
-59.50927734375
-63.17138671875
-46.69189453125
-44.86083984375
-36.62109375
-37.53662109375
-13.73291015625
-5.4931640625
-10.986328125
-17.39501953125
-28.38134765625
-26.55029296875
-33.87451171875
-26.55029296875
-18.310546875
-4.57763671875
-11.90185546875
-10.986328125
-9.1552734375
-15.56396484375
-16.4794921875
-21.97265625
-15.56396484375
-20.1416015625
-11.90185546875
-11.90185546875
0.91552734375
-2.74658203125
-9.1552734375
-1.8310546875
-14.6484375
-25.634765625
-14.6484375
-9.1552734375
-20.1416015625
-5.4931640625
-13.73291015625
-22.88818359375
-26.55029296875
-28.38134765625
-32.04345703125
-42.1142578125
-43.02978515625
-46.69189453125
-46.69189453125
-44.86083984375
-46.69189453125
-43.9453125
-56.7626953125
-51.26953125
-59.50927734375
-78.7353515625
-79.65087890625
-77.81982421875
-93.3837890625
-85.14404296875
-84.228515625
-93.3837890625
-100.7080078125
-105.28564453125
-111.6943359375
-119.93408203125
-128.173828125
-112.60986328125
-108.0322265625
-97.96142578125
-101.62353515625
-102.5390625
-108.94775390625
-122.6806640625
-118.10302734375
-123.59619140625
-120.849609375
-119.93408203125
-120.849609375
-117.1875
-107.11669921875
-106.201171875
-106.201171875
-107.11669921875
-119.93408203125
-127.25830078125
-125.42724609375
-122.6806640625
-117.1875
-104.3701171875
-93.3837890625
-111.6943359375
-108.94775390625
-111.6943359375
-111.6943359375
-112.60986328125
-114.44091796875
-103.45458984375
-103.45458984375
-108.0322265625
-98.876953125
-106.201171875
-107.11669921875
-106.201171875
-123.59619140625
-123.59619140625
-117.1875
-117.1875
-116.27197265625
-98.876953125
-94.29931640625
-96.13037109375
-106.201171875
-105.28564453125
-113.525390625
-122.6806640625
-112.60986328125
-100.7080078125
-93.3837890625
-95.21484375
-92.46826171875
-101.62353515625
-97.96142578125
-106.201171875
-96.13037109375
-115.3564453125
-111.6943359375
-103.45458984375
-105.28564453125
-96.13037109375
-81.48193359375
-93.3837890625
-91.552734375
-95.21484375
-103.45458984375
-105.28564453125
-101.62353515625
-104.3701171875
-106.201171875
-85.14404296875
-87.890625
-90.63720703125
-93.3837890625
-90.63720703125
-96.13037109375
-103.45458984375
-103.45458984375
-91.552734375
-88.80615234375
-77.81982421875
-58.59375
-62.255859375
-65.00244140625
-48.52294921875
-50.35400390625
-53.1005859375
-49.4384765625
-52.18505859375
-61.34033203125
-35.70556640625
-31.1279296875
-35.70556640625
-31.1279296875
-17.39501953125
-15.56396484375
-18.310546875
-13.73291015625
-10.07080078125
-3.662109375
-5.4931640625
11.90185546875
8.23974609375
5.4931640625
-5.4931640625
0
-28.38134765625
-26.55029296875
-17.39501953125
-28.38134765625
-40.283203125
-52.18505859375
-86.97509765625
-97.96142578125
-111.6943359375
-117.1875
-128.173828125
-135.498046875
-130.0048828125
-138.24462890625
-140.07568359375
-133.6669921875
-138.24462890625
-146.484375
-140.9912109375
-146.484375
-166.6259765625
-168.45703125
-155.6396484375
-156.55517578125
-161.1328125
-159.3017578125
-166.6259765625
-165.71044921875
-181.2744140625
-189.51416015625
-191.34521484375
-181.2744140625
-166.6259765625
-161.1328125
-159.3017578125
-153.80859375
-167.54150390625
-174.86572265625
-174.86572265625
-183.10546875
-195.00732421875
-182.18994140625
-171.20361328125
-163.87939453125
-166.6259765625
-158.38623046875
-163.87939453125
-170.2880859375
-177.6123046875
-189.51416015625
-199.5849609375
-192.2607421875
-181.2744140625
-179.443359375
-178.52783203125
-172.119140625
-183.10546875
-196.83837890625
-205.99365234375
-215.14892578125
-227.05078125
-194.091796875
-148.3154296875
-124.51171875
-88.80615234375
-3.662109375
136.41357421875
284.72900390625
448.6083984375
619.81201171875
794.677734375
939.3310546875
1028.13720703125
1085.8154296875
1141.66259765625
1165.46630859375
1138.916015625
1001.5869140625
776.3671875
530.09033203125
219.7265625
-27.4658203125
-157.470703125
-229.79736328125
-247.1923828125
-260.92529296875
-292.05322265625
-307.6171875
-299.37744140625
-274.658203125
-254.5166015625
-237.12158203125
-216.97998046875
-194.091796875
-169.37255859375
-148.3154296875
-150.146484375
-161.1328125
-156.55517578125
-159.3017578125
-169.37255859375
-166.6259765625
-162.04833984375
-165.71044921875
-159.3017578125
-156.55517578125
-159.3017578125
-150.146484375
-137.3291015625
-143.73779296875
-155.6396484375
-163.87939453125
-148.3154296875
-148.3154296875
-132.75146484375
-130.92041015625
-135.498046875
-130.92041015625
-138.24462890625
-147.39990234375
-151.9775390625
-143.73779296875
-140.07568359375
-127.25830078125
-112.60986328125
-108.0322265625
-112.60986328125
-115.3564453125
-119.93408203125
-137.3291015625
-136.41357421875
-121.76513671875
-108.0322265625
-103.45458984375
-98.876953125
-87.890625
-85.14404296875
-89.7216796875
-104.3701171875
-101.62353515625
-104.3701171875
-95.21484375
-91.552734375
-71.4111328125
-71.4111328125
-65.91796875
-66.83349609375
-62.255859375
-63.17138671875
-67.7490234375
-66.83349609375
-54.01611328125
-51.26953125
-43.9453125
-40.283203125
-41.19873046875
-39.36767578125
-32.958984375
-35.70556640625
-46.69189453125
-56.7626953125
-54.931640625
-42.1142578125
-40.283203125
-39.36767578125
-31.1279296875
-37.53662109375
-36.62109375
-35.70556640625
-32.04345703125
-42.1142578125
-44.86083984375
-33.87451171875
-36.62109375
-39.36767578125
-27.4658203125
-29.296875
-43.9453125
-46.69189453125
-48.52294921875
-65.00244140625
-72.32666015625
-55.84716796875
-50.35400390625
-57.67822265625
-60.4248046875
-71.4111328125
-75.0732421875
-72.32666015625
-95.21484375
-102.5390625
-87.890625
-95.21484375
-97.96142578125
-97.0458984375
-96.13037109375
-109.86328125
-107.11669921875
-110.77880859375
-137.3291015625
-139.16015625
-132.75146484375
-128.173828125
-130.0048828125
-129.08935546875
-131.8359375
-138.24462890625
-136.41357421875
-133.6669921875
-146.484375
-152.89306640625
-151.9775390625
-151.9775390625
-149.23095703125
-142.822265625
-140.07568359375
-138.24462890625
-141.90673828125
-151.9775390625
-155.6396484375
-162.04833984375
-154.72412109375
-155.6396484375
-144.6533203125
-140.9912109375
-135.498046875
-147.39990234375
-158.38623046875
-151.9775390625
-157.470703125
-153.80859375
-159.3017578125
-149.23095703125
-147.39990234375
-148.3154296875
-136.41357421875
-137.3291015625
-140.07568359375
-141.90673828125
-151.9775390625
-156.55517578125
-131.8359375
-130.0048828125
-124.51171875
-108.0322265625
-103.45458984375
-86.97509765625
-80.56640625
-83.31298828125
-85.14404296875
-90.63720703125
-87.890625
-75.0732421875
-74.15771484375
-67.7490234375
-50.35400390625
-48.52294921875
-44.86083984375
-28.38134765625
-33.87451171875
-29.296875
-4.57763671875
0.91552734375
-5.4931640625
-5.4931640625
5.4931640625
7.32421875
0
17.39501953125
17.39501953125
3.662109375
4.57763671875
10.986328125
14.6484375
-2.74658203125
-7.32421875
-30.21240234375
-51.26953125
-75.98876953125
-90.63720703125
-96.13037109375
-107.11669921875
-93.3837890625
-97.0458984375
-95.21484375
-89.7216796875
-108.94775390625
-115.3564453125
-119.93408203125
-127.25830078125
-137.3291015625
-130.92041015625
-130.92041015625
-124.51171875
-133.6669921875
-137.3291015625
-137.3291015625
-137.3291015625
-146.484375
-155.6396484375
-165.71044921875
-164.794921875
-156.55517578125
-154.72412109375
-158.38623046875
-151.9775390625
-161.1328125
-159.3017578125
-162.9638671875
-169.37255859375
-180.35888671875
-181.2744140625
-173.9501953125
-171.20361328125
-168.45703125
-165.71044921875
-169.37255859375
-171.20361328125
-159.3017578125
-170.2880859375
-177.6123046875
-171.20361328125
-175.78125
-174.86572265625
-161.1328125
-147.39990234375
-162.04833984375
-162.9638671875
-172.119140625
-174.86572265625
-191.34521484375
-201.416015625
-207.82470703125
-215.14892578125
-226.13525390625
-230.712890625
-230.712890625
-216.064453125
-175.78125
-149.23095703125
-109.86328125
-17.39501953125
145.56884765625
317.68798828125
506.28662109375
682.9833984375
863.34228515625
986.02294921875
1061.09619140625
1136.16943359375
1186.5234375
1203.0029296875
1159.97314453125
1010.7421875
758.97216796875
468.75
151.06201171875
-86.0595703125
-216.97998046875
-273.74267578125
-291.1376953125
-296.630859375
-292.05322265625
-272.8271484375
-248.10791015625
-218.81103515625
-198.66943359375
-180.35888671875
-173.03466796875
-154.72412109375
-157.470703125
-150.146484375
-145.56884765625
-141.90673828125
-127.25830078125
-123.59619140625
-138.24462890625
-137.3291015625
-134.58251953125
-141.90673828125
-146.484375
-137.3291015625
-153.80859375
-143.73779296875
-126.3427734375
-122.6806640625
-119.93408203125
-132.75146484375
-132.75146484375
-141.90673828125
-144.6533203125
-137.3291015625
-125.42724609375
-126.3427734375
-117.1875
-107.11669921875
-105.28564453125
-114.44091796875
-120.849609375
-125.42724609375
-123.59619140625
-121.76513671875
-116.27197265625
-109.86328125
-91.552734375
-86.0595703125
-85.14404296875
-83.31298828125
-86.97509765625
-93.3837890625
-90.63720703125
-75.98876953125
-69.580078125
-67.7490234375
-65.00244140625
-44.86083984375
-52.18505859375
-67.7490234375
-55.84716796875
-61.34033203125
-67.7490234375
-52.18505859375
-46.69189453125
-43.9453125
-33.87451171875
-17.39501953125
-27.4658203125
-35.70556640625
-39.36767578125
-36.62109375
-41.19873046875
-32.958984375
-25.634765625
-16.4794921875
-1.8310546875
-2.74658203125
-2.74658203125
-7.32421875
-21.05712890625
-33.87451171875
-32.04345703125
-28.38134765625
-15.56396484375
-11.90185546875
-9.1552734375
-2.74658203125
-17.39501953125
-16.4794921875
-11.90185546875
-20.1416015625
-22.88818359375
-20.1416015625
-23.8037109375
-23.8037109375
-16.4794921875
-17.39501953125
-29.296875
-39.36767578125
-47.607421875
-60.4248046875
-69.580078125
-65.00244140625
-67.7490234375
-61.34033203125
-59.50927734375
-61.34033203125
-73.2421875
-75.98876953125
-83.31298828125
-99.79248046875
-117.1875
-109.86328125
-101.62353515625
-107.11669921875
-111.6943359375
-98.876953125
-106.201171875
-117.1875
-126.3427734375
-133.6669921875
-139.16015625
-140.07568359375
-120.849609375
-129.08935546875
-130.0048828125
-127.25830078125
-126.3427734375
-129.08935546875
-125.42724609375
-139.16015625
-149.23095703125
-151.9775390625
-145.56884765625
-134.58251953125
-124.51171875
-120.849609375
-121.76513671875
-136.41357421875
-149.23095703125
-143.73779296875
-147.39990234375
-140.9912109375
-143.73779296875
-139.16015625
-140.07568359375
-130.0048828125
-130.92041015625
-136.41357421875
-140.9912109375
-145.56884765625
-145.56884765625
-135.498046875
-120.849609375
-111.6943359375
-99.79248046875
-90.63720703125
-80.56640625
-81.48193359375
-83.31298828125
-72.32666015625
-71.4111328125
-54.01611328125
-54.01611328125
-49.4384765625
-44.86083984375
-34.7900390625
-25.634765625
-27.4658203125
-30.21240234375
-20.1416015625
-19.22607421875
-9.1552734375
14.6484375
18.310546875
26.55029296875
33.87451171875
31.1279296875
32.958984375
41.19873046875
41.19873046875
33.87451171875
32.04345703125
36.62109375
33.87451171875
35.70556640625
36.62109375
20.1416015625
13.73291015625
-17.39501953125
-39.36767578125
-58.59375
-64.0869140625
-54.01611328125
-63.17138671875
-65.91796875
-65.00244140625
-75.98876953125
-90.63720703125
-93.3837890625
-110.77880859375
-114.44091796875
-119.93408203125
-110.77880859375
-113.525390625
-108.0322265625
-109.86328125
-111.6943359375
-120.849609375
-130.0048828125
-142.822265625
-142.822265625
-141.90673828125
-145.56884765625
-128.173828125
-126.3427734375
-134.58251953125
-135.498046875
-141.90673828125
-150.146484375
-156.55517578125
-165.71044921875
-158.38623046875
-150.146484375
-152.89306640625
-148.3154296875
-143.73779296875
-150.146484375
-162.04833984375
-152.89306640625
-164.794921875
-163.87939453125
-162.04833984375
-150.146484375
-156.55517578125
-147.39990234375
-148.3154296875
-156.55517578125
-160.21728515625
-156.55517578125
-162.04833984375
-171.20361328125
-174.86572265625
-183.10546875
-193.17626953125
-190.4296875
-195.9228515625
-211.48681640625
-229.79736328125
-217.8955078125
-197.75390625
-151.9775390625
-107.11669921875
-54.01611328125
74.15771484375
237.12158203125
401.0009765625
594.17724609375
766.29638671875
937.5
1051.94091796875
1127.01416015625
1206.6650390625
1257.9345703125
1240.53955078125
1145.32470703125
911.865234375
615.234375
277.40478515625
-10.07080078125
-211.48681640625
-302.1240234375
-314.02587890625
-294.7998046875
-290.22216796875
-261.8408203125
-234.375
-211.48681640625
-190.4296875
-175.78125
-167.54150390625
-151.06201171875
-147.39990234375
-135.498046875
-123.59619140625
-122.6806640625
-114.44091796875
-125.42724609375
-126.3427734375
-142.822265625
-146.484375
-144.6533203125
-143.73779296875
-126.3427734375
-136.41357421875
-115.3564453125
-117.1875
-127.25830078125
-123.59619140625
-126.3427734375
-128.173828125
-130.0048828125
-118.10302734375
-118.10302734375
-113.525390625
-102.5390625
-101.62353515625
-104.3701171875
-101.62353515625
-118.10302734375
-119.0185546875
-118.10302734375
-114.44091796875
-106.201171875
-104.3701171875
-91.552734375
-86.97509765625
-86.97509765625
-94.29931640625
-86.0595703125
-91.552734375
-95.21484375
-86.0595703125
-78.7353515625
-76.904296875
-65.00244140625
-57.67822265625
-61.34033203125
-57.67822265625
-55.84716796875
-64.0869140625
-63.17138671875
-58.59375
-40.283203125
-36.62109375
-28.38134765625
-14.6484375
-18.310546875
-24.71923828125
-31.1279296875
-22.88818359375
-31.1279296875
-24.71923828125
-18.310546875
-13.73291015625
-0.91552734375
1.8310546875
1.8310546875
-0.91552734375
-5.4931640625
-12.8173828125
-12.8173828125
-9.1552734375
-13.73291015625
-12.8173828125
-15.56396484375
-19.22607421875
-37.53662109375
-61.34033203125
-64.0869140625
-80.56640625
-95.21484375
-92.46826171875
-86.97509765625
-100.7080078125
-105.28564453125
-115.3564453125
-125.42724609375
-147.39990234375
-154.72412109375
-156.55517578125
-175.78125
-182.18994140625
-185.85205078125
-179.443359375
-180.35888671875
-189.51416015625
-205.078125
-214.2333984375
-221.5576171875
-238.95263671875
-242.61474609375
-238.95263671875
-231.62841796875
-206.9091796875
-182.18994140625
-169.37255859375
-164.794921875
-159.3017578125
-146.484375
-148.3154296875
-141.90673828125
-141.90673828125
-132.75146484375
-121.76513671875
-120.849609375
-116.27197265625
-111.6943359375
-124.51171875
-129.08935546875
-127.25830078125
-128.173828125
-130.0048828125
-116.27197265625
-105.28564453125
-98.876953125
-87.890625
-86.0595703125
-97.0458984375
-97.0458984375
-101.62353515625
-109.86328125
-112.60986328125
-100.7080078125
-91.552734375
-89.7216796875
-79.65087890625
-76.904296875
-86.97509765625
-85.14404296875
-93.3837890625
-96.13037109375
-87.890625
-85.14404296875
-78.7353515625
-69.580078125
-63.17138671875
-65.00244140625
-70.49560546875
-63.17138671875
-68.66455078125
-74.15771484375
-66.83349609375
-61.34033203125
-55.84716796875
-47.607421875
-35.70556640625
-35.70556640625
-33.87451171875
-36.62109375
-41.19873046875
-49.4384765625
-43.9453125
-21.97265625
-9.1552734375
-7.32421875
-4.57763671875
-12.8173828125
-7.32421875
-5.4931640625
-10.986328125
-10.07080078125
-10.07080078125
-9.1552734375
-11.90185546875
-23.8037109375
-35.70556640625
-42.1142578125
-42.1142578125
-45.7763671875
-30.21240234375
0
69.580078125
115.3564453125
205.99365234375
345.15380859375
537.41455078125
745.2392578125
924.6826171875
1084.89990234375
1166.3818359375
1223.14453125
1280.82275390625
1334.8388671875
1302.79541015625
1164.55078125
942.07763671875
626.220703125
266.41845703125
14.6484375
-152.89306640625
-221.5576171875
-213.31787109375
-200.50048828125
-188.5986328125
-155.6396484375
-127.25830078125
-119.0185546875
-104.3701171875
-76.904296875
-72.32666015625
-84.228515625
-74.15771484375
-65.91796875
-71.4111328125
-55.84716796875
-65.91796875
-74.15771484375
-73.2421875
-79.65087890625
-94.29931640625
-101.62353515625
-94.29931640625
-90.63720703125
-94.29931640625
-81.48193359375
-82.3974609375
-96.13037109375
-94.29931640625
-93.3837890625
-105.28564453125
-109.86328125
-107.11669921875
-94.29931640625
-93.3837890625
-94.29931640625
-86.0595703125
-86.0595703125
-90.63720703125
-90.63720703125
-103.45458984375
-97.96142578125
-96.13037109375
-90.63720703125
-87.890625
-75.0732421875
-69.580078125
-79.65087890625
-85.14404296875
-84.228515625
-90.63720703125
-93.3837890625
-84.228515625
-74.15771484375
-77.81982421875
-68.66455078125
-60.4248046875
-65.00244140625
-67.7490234375
-59.50927734375
-75.98876953125
-72.32666015625
-62.255859375
-61.34033203125
-53.1005859375
-47.607421875
-43.02978515625
-48.52294921875
-45.7763671875
-37.53662109375
-43.9453125
-51.26953125
-48.52294921875
-34.7900390625
-32.958984375
-24.71923828125
-32.04345703125
-30.21240234375
-33.87451171875
-37.53662109375
-42.1142578125
-41.19873046875
-38.4521484375
-34.7900390625
-43.9453125
-15.56396484375
-15.56396484375
-36.62109375
-25.634765625
-33.87451171875
-52.18505859375
-51.26953125
-45.7763671875
-42.1142578125
-42.1142578125
-34.7900390625
-36.62109375
-42.1142578125
-50.35400390625
-52.18505859375
-65.91796875
-76.904296875
-75.0732421875
-70.49560546875
-74.15771484375
-68.66455078125
-65.00244140625
-77.81982421875
-80.56640625
-89.7216796875
-103.45458984375
-113.525390625
-103.45458984375
-106.201171875
-104.3701171875
-99.79248046875
-96.13037109375
-104.3701171875
-106.201171875
-111.6943359375
-130.92041015625
-124.51171875
-119.0185546875
-116.27197265625
-113.525390625
-115.3564453125
-113.525390625
-108.94775390625
-120.849609375
-120.849609375
-119.93408203125
-131.8359375
-121.76513671875
-115.3564453125
-113.525390625
-106.201171875
-107.11669921875
-108.94775390625
-109.86328125
-115.3564453125
-126.3427734375
-119.93408203125
-109.86328125
-112.60986328125
-113.525390625
-94.29931640625
-89.7216796875
-96.13037109375
-109.86328125
-105.28564453125
-112.60986328125
-125.42724609375
-114.44091796875
-103.45458984375
-99.79248046875
-91.552734375
-90.63720703125
-91.552734375
-92.46826171875
-86.97509765625
-102.5390625
-105.28564453125
-97.96142578125
-93.3837890625
-91.552734375
-82.3974609375
-85.14404296875
-93.3837890625
-81.48193359375
-91.552734375
-101.62353515625
-104.3701171875
-96.13037109375
-93.3837890625
-102.5390625
-90.63720703125
-90.63720703125
-92.46826171875
-95.21484375
-97.96142578125
-102.5390625
-108.94775390625
-108.94775390625
-103.45458984375
-100.7080078125
-94.29931640625
-90.63720703125
-91.552734375
-97.96142578125
-103.45458984375
-119.93408203125
-129.08935546875
-118.10302734375
-110.77880859375
-110.77880859375
-94.29931640625
-99.79248046875
-104.3701171875
-108.0322265625
-102.5390625
-125.42724609375
-121.76513671875
-118.10302734375
-118.10302734375
-114.44091796875
-113.525390625
-108.94775390625
-119.0185546875
-117.1875
-120.849609375
-138.24462890625
-132.75146484375
-130.92041015625
-117.1875
-115.3564453125
-119.0185546875
-112.60986328125
-123.59619140625
-132.75146484375
-135.498046875
-141.90673828125
-144.6533203125
-139.16015625
-134.58251953125
-117.1875
-97.0458984375
-85.14404296875
-82.3974609375
-82.3974609375
-80.56640625
-81.48193359375
-81.48193359375
-74.15771484375
-68.66455078125
-54.931640625
-54.931640625
-54.01611328125
-49.4384765625
-43.9453125
-54.01611328125
-52.18505859375
-37.53662109375
-20.1416015625
-11.90185546875
-6.40869140625
-10.07080078125
-5.4931640625
-4.57763671875
-10.07080078125
-12.8173828125
-17.39501953125
-32.04345703125
-28.38134765625
-22.88818359375
-22.88818359375
-25.634765625
-32.04345703125
-57.67822265625
-90.63720703125
-97.0458984375
-120.849609375
-124.51171875
-117.1875
-125.42724609375
-129.08935546875
-127.25830078125
-131.8359375
-139.16015625
-140.07568359375
-150.146484375
-157.470703125
-151.9775390625
-155.6396484375
-151.06201171875
-145.56884765625
-146.484375
-142.822265625
-146.484375
-149.23095703125
-155.6396484375
-166.6259765625
-171.20361328125
-167.54150390625
-167.54150390625
-171.20361328125
-168.45703125
-164.794921875
-173.03466796875
-162.04833984375
-161.1328125
-184.02099609375
-173.9501953125
-168.45703125
-166.6259765625
-165.71044921875
-160.21728515625
-156.55517578125
-163.87939453125
-173.9501953125
-183.10546875
-177.6123046875
-177.6123046875
-166.6259765625
-158.38623046875
-166.6259765625
-169.37255859375
-174.86572265625
-200.50048828125
-211.48681640625
-215.14892578125
-226.13525390625
-202.33154296875
-174.86572265625
-130.92041015625
-80.56640625
-37.53662109375
35.70556640625
178.52783203125
333.251953125
507.2021484375
662.841796875
841.36962890625
976.86767578125
1043.701171875
1106.87255859375
1190.185546875
1181.0302734375
1095.88623046875
920.10498046875
659.1796875
380.859375
94.29931640625
-110.77880859375
-231.62841796875
-275.57373046875
-289.306640625
-307.6171875
-313.1103515625
-305.7861328125
-279.23583984375
-267.333984375
-248.10791015625
-212.40234375
-184.02099609375
-165.71044921875
-145.56884765625
-149.23095703125
-158.38623046875
-149.23095703125
-148.3154296875
-161.1328125
-169.37255859375
-161.1328125
-154.72412109375
-144.6533203125
-137.3291015625
-133.6669921875
-146.484375
-148.3154296875
-154.72412109375
-158.38623046875
-163.87939453125
-155.6396484375
-154.72412109375
-141.90673828125
-127.25830078125
-130.92041015625
-128.173828125
-132.75146484375
-135.498046875
-145.56884765625
-142.822265625
-135.498046875
-132.75146484375
-124.51171875
-125.42724609375
-112.60986328125
-120.849609375
-122.6806640625
-122.6806640625
-132.75146484375
-121.76513671875
-118.10302734375
-119.93408203125
-121.76513671875
-112.60986328125
-106.201171875
-108.0322265625
-112.60986328125
-106.201171875
-126.3427734375
-111.6943359375
-98.876953125
-108.94775390625
-106.201171875
-84.228515625
-85.14404296875
-87.890625
-87.890625
-79.65087890625
-86.97509765625
-98.876953125
-93.3837890625
-81.48193359375
-77.81982421875
-67.7490234375
-68.66455078125
-59.50927734375
-65.00244140625
-60.4248046875
-63.17138671875
-72.32666015625
-58.59375
-50.35400390625
-58.59375
-41.19873046875
-42.1142578125
-51.26953125
-46.69189453125
-52.18505859375
-71.4111328125
-65.91796875
-52.18505859375
-40.283203125
-46.69189453125
-43.02978515625
-38.4521484375
-41.19873046875
-42.1142578125
-44.86083984375
-60.4248046875
-60.4248046875
-62.255859375
-55.84716796875
-57.67822265625
-61.34033203125
-65.91796875
-68.66455078125
-76.904296875
-78.7353515625
-84.228515625
-94.29931640625
-85.14404296875
-86.0595703125
-97.0458984375
-89.7216796875
-93.3837890625
-102.5390625
-111.6943359375
-112.60986328125
-126.3427734375
-134.58251953125
-123.59619140625
-124.51171875
-127.25830078125
-130.92041015625
-119.93408203125
-133.6669921875
-135.498046875
-133.6669921875
-148.3154296875
-153.80859375
-148.3154296875
-140.07568359375
-139.16015625
-135.498046875
-137.3291015625
-144.6533203125
-145.56884765625
-148.3154296875
-164.794921875
-160.21728515625
-157.470703125
-151.9775390625
-148.3154296875
-145.56884765625
-147.39990234375
-138.24462890625
-135.498046875
-151.06201171875
-155.6396484375
-157.470703125
-159.3017578125
-153.80859375
-141.90673828125
-142.822265625
-137.3291015625
-142.822265625
-141.90673828125
-138.24462890625
-151.06201171875
-151.9775390625
-141.90673828125
-140.07568359375
-138.24462890625
-130.92041015625
-135.498046875
-144.6533203125
-145.56884765625
-144.6533203125
-147.39990234375
-141.90673828125
-124.51171875
-114.44091796875
-103.45458984375
-99.79248046875
-91.552734375
-87.890625
-86.0595703125
-75.98876953125
-83.31298828125
-84.228515625
-84.228515625
-78.7353515625
-58.59375
-54.01611328125
-48.52294921875
-35.70556640625
-24.71923828125
-27.4658203125
-32.04345703125
-24.71923828125
8.23974609375
-0.91552734375
-6.40869140625
12.8173828125
10.07080078125
-1.8310546875
0
10.07080078125
-1.8310546875
0
-3.662109375
-10.07080078125
-10.07080078125
-18.310546875
-41.19873046875
-56.7626953125
-66.83349609375
-87.890625
-107.11669921875
-104.3701171875
-112.60986328125
-112.60986328125
-116.27197265625
-112.60986328125
-125.42724609375
-137.3291015625
-141.90673828125
-138.24462890625
-143.73779296875
-148.3154296875
-140.9912109375
-142.822265625
-152.89306640625
-135.498046875
-145.56884765625
-168.45703125
-173.9501953125
-174.86572265625
-182.18994140625
-185.85205078125
-189.51416015625
-190.4296875
-179.443359375
-167.54150390625
-170.2880859375
-176.69677734375
-191.34521484375
-191.34521484375
-195.00732421875
-195.00732421875
-192.2607421875
-193.17626953125
-187.68310546875
-176.69677734375
-185.85205078125
-176.69677734375
-189.51416015625
-188.5986328125
-196.83837890625
-199.5849609375
-195.00732421875
-193.17626953125
-186.767578125
-181.2744140625
-184.02099609375
-191.34521484375
-192.2607421875
-209.65576171875
-223.388671875
-227.05078125
-240.78369140625
-244.44580078125
-242.61474609375
-222.47314453125
-199.5849609375
-180.35888671875
-151.06201171875
-94.29931640625
-0.91552734375
163.87939453125
354.30908203125
546.56982421875
733.33740234375
913.6962890625
1016.2353515625
1076.66015625
1127.01416015625
1161.80419921875
1160.888671875
1091.30859375
932.92236328125
682.06787109375
391.845703125
95.21484375
-113.525390625
-215.14892578125
-254.5166015625
-276.4892578125
-302.1240234375
-308.53271484375
-300.29296875
-282.89794921875
-258.1787109375
-229.79736328125
-206.9091796875
-198.66943359375
-188.5986328125
-175.78125
-181.2744140625
-179.443359375
-162.9638671875
-157.470703125
-165.71044921875
-160.21728515625
-152.89306640625
-159.3017578125
-158.38623046875
-164.794921875
-171.20361328125
-170.2880859375
-161.1328125
-160.21728515625
-159.3017578125
-148.3154296875
-150.146484375
-154.72412109375
-158.38623046875
-159.3017578125
-165.71044921875
-157.470703125
-153.80859375
-142.822265625
-145.56884765625
-135.498046875
-129.08935546875
-142.822265625
-145.56884765625
-145.56884765625
-148.3154296875
-150.146484375
-146.484375
-130.92041015625
-140.9912109375
-116.27197265625
-108.0322265625
-117.1875
-129.08935546875
-118.10302734375
-117.1875
-127.25830078125
-111.6943359375
-108.94775390625
-101.62353515625
-76.904296875
-94.29931640625
-103.45458984375
-103.45458984375
-89.7216796875
-97.96142578125
-90.63720703125
-76.904296875
-84.228515625
-82.3974609375
-74.15771484375
-70.49560546875
-80.56640625
-75.0732421875
-84.228515625
-97.96142578125
-93.3837890625
-85.14404296875
-76.904296875
-71.4111328125
-57.67822265625
-58.59375
-67.7490234375
-75.0732421875
-80.56640625
-78.7353515625
-76.904296875
-65.91796875
-63.17138671875
-65.00244140625
-61.34033203125
-63.17138671875
-75.98876953125
-78.7353515625
-79.65087890625
-92.46826171875
-89.7216796875
-79.65087890625
-75.0732421875
-72.32666015625
-63.17138671875
-77.81982421875
-91.552734375
-91.552734375
-85.14404296875
-108.94775390625
-113.525390625
-119.0185546875
-110.77880859375
-107.11669921875
-111.6943359375
-106.201171875
-109.86328125
-122.6806640625
-127.25830078125
-141.90673828125
-149.23095703125
-145.56884765625
-142.822265625
-140.07568359375
-135.498046875
-136.41357421875
-147.39990234375
-158.38623046875
-149.23095703125
-165.71044921875
-167.54150390625
-160.21728515625
-157.470703125
-160.21728515625
-149.23095703125
-147.39990234375
-156.55517578125
-162.9638671875
-173.9501953125
-178.52783203125
-180.35888671875
-158.38623046875
-157.470703125
-165.71044921875
-156.55517578125
-161.1328125
-158.38623046875
-162.9638671875
-164.794921875
-176.69677734375
-175.78125
-171.20361328125
-173.9501953125
-167.54150390625
-155.6396484375
-151.9775390625
-161.1328125
-151.9775390625
-157.470703125
-165.71044921875
-157.470703125
-146.484375
-139.16015625
-129.08935546875
-112.60986328125
-105.28564453125
-115.3564453125
-112.60986328125
-100.7080078125
-107.11669921875
-104.3701171875
-75.98876953125
-86.97509765625
-78.7353515625
-69.580078125
-74.15771484375
-64.0869140625
-53.1005859375
-52.18505859375
-40.283203125
-29.296875
-15.56396484375
-13.73291015625
-15.56396484375
-6.40869140625
2.74658203125
5.4931640625
-6.40869140625
-8.23974609375
-11.90185546875
-6.40869140625
0.91552734375
0
-0.91552734375
-12.8173828125
-19.22607421875
-40.283203125
-64.0869140625
-79.65087890625
-96.13037109375
-93.3837890625
-92.46826171875
-97.96142578125
-103.45458984375
-101.62353515625
-100.7080078125
-120.849609375
-131.8359375
-137.3291015625
-140.9912109375
-139.16015625
-134.58251953125
-141.90673828125
-139.16015625
-133.6669921875
-141.90673828125
-147.39990234375
-158.38623046875
-148.3154296875
-171.20361328125
-169.37255859375
-170.2880859375
-162.04833984375
-158.38623046875
-154.72412109375
-157.470703125
-160.21728515625
-162.04833984375
-168.45703125
-182.18994140625
-178.52783203125
-179.443359375
-177.6123046875
-164.794921875
-159.3017578125
-165.71044921875
-167.54150390625
-173.9501953125
-169.37255859375
-183.10546875
-184.02099609375
-169.37255859375
-176.69677734375
-180.35888671875
-171.20361328125
-167.54150390625
-176.69677734375
-178.52783203125
-181.2744140625
-189.51416015625
-191.34521484375
-192.2607421875
-192.2607421875
-207.82470703125
-210.5712890625
-225.2197265625
-227.96630859375
-204.16259765625
-182.18994140625
-140.07568359375
-97.0458984375
-28.38134765625
119.0185546875
282.89794921875
463.2568359375
637.20703125
816.650390625
955.810546875
1045.5322265625
1107.7880859375
1180.11474609375
1206.6650390625
1162.7197265625
1033.63037109375
800.1708984375
509.033203125
179.443359375
-72.32666015625
-214.2333984375
-283.8134765625
-300.29296875
-289.306640625
-284.72900390625
-271.91162109375
-245.361328125
-226.13525390625
-205.99365234375
-195.9228515625
-173.03466796875
-169.37255859375
-168.45703125
-151.06201171875
-144.6533203125
-140.07568359375
-139.16015625
-140.9912109375
-142.822265625
-147.39990234375
-139.16015625
-152.89306640625
-151.06201171875
-138.24462890625
-131.8359375
-132.75146484375
-130.92041015625
-130.0048828125
-140.07568359375
-139.16015625
-135.498046875
-147.39990234375
-149.23095703125
-131.8359375
-133.6669921875
-130.0048828125
-109.86328125
-115.3564453125
-125.42724609375
-122.6806640625
-124.51171875
-134.58251953125
-121.76513671875
-118.10302734375
-119.93408203125
-110.77880859375
-100.7080078125
-105.28564453125
-108.94775390625
-99.79248046875
-102.5390625
-111.6943359375
-100.7080078125
-87.890625
-90.63720703125
-89.7216796875
-72.32666015625
-63.17138671875
-76.904296875
-78.7353515625
-73.2421875
-81.48193359375
-69.580078125
-67.7490234375
-56.7626953125
-49.4384765625
-46.69189453125
-43.9453125
-45.7763671875
-45.7763671875
-43.9453125
-45.7763671875
-43.9453125
-36.62109375
-30.21240234375
-23.8037109375
-24.71923828125
-20.1416015625
-21.97265625
-22.88818359375
-22.88818359375
-34.7900390625
-30.21240234375
-28.38134765625
-27.4658203125
-16.4794921875
-10.07080078125
-20.1416015625
-19.22607421875
-25.634765625
-29.296875
-42.1142578125
-36.62109375
-33.87451171875
-38.4521484375
-30.21240234375
-25.634765625
-40.283203125
-45.7763671875
-47.607421875
-58.59375
-70.49560546875
-66.83349609375
-63.17138671875
-67.7490234375
-59.50927734375
-57.67822265625
-66.83349609375
-81.48193359375
-91.552734375
-90.63720703125
-109.86328125
-119.0185546875
-104.3701171875
-97.96142578125
-101.62353515625
-103.45458984375
-104.3701171875
-119.0185546875
-124.51171875
-127.25830078125
-145.56884765625
-140.9912109375
-130.92041015625
-122.6806640625
-127.25830078125
-120.849609375
-121.76513671875
-124.51171875
-134.58251953125
-146.484375
-149.23095703125
-147.39990234375
-144.6533203125
-138.24462890625
-130.92041015625
-127.25830078125
-131.8359375
-135.498046875
-133.6669921875
-149.23095703125
-154.72412109375
-151.9775390625
-137.3291015625
-141.90673828125
-141.90673828125
-132.75146484375
-130.92041015625
-143.73779296875
-145.56884765625
-140.9912109375
-155.6396484375
-150.146484375
