ECG
-174.86572265625
-179.443359375
-195.00732421875
-195.00732421875
-205.078125
-213.31787109375
-209.65576171875
-209.65576171875
-219.7265625
-207.82470703125
-202.33154296875
-215.14892578125
-229.79736328125
-231.62841796875
-239.8681640625
-246.27685546875
-239.8681640625
-234.375
-224.30419921875
-220.64208984375
-223.388671875
-230.712890625
-238.037109375
-239.8681640625
-249.93896484375
-260.92529296875
-249.0234375
-239.8681640625
-247.1923828125
-233.45947265625
-226.13525390625
-231.62841796875
-232.5439453125
-237.12158203125
-244.44580078125
-250.8544921875
-244.44580078125
-237.12158203125
-236.2060546875
-229.79736328125
-223.388671875
-233.45947265625
-239.8681640625
-237.12158203125
-233.45947265625
-236.2060546875
-229.79736328125
-227.05078125
-219.7265625
-215.14892578125
-210.5712890625
-213.31787109375
-218.81103515625
-226.13525390625
-228.8818359375
-235.29052734375
-225.2197265625
-222.47314453125
-218.81103515625
-210.5712890625
-197.75390625
-208.740234375
-218.81103515625
-221.5576171875
-235.29052734375
-235.29052734375
-226.13525390625
-219.7265625
-216.97998046875
-207.82470703125
-202.33154296875
-211.48681640625
-227.96630859375
-226.13525390625
-232.5439453125
-224.30419921875
-220.64208984375
-220.64208984375
-211.48681640625
-206.9091796875
-201.416015625
-206.9091796875
-212.40234375
-221.5576171875
-233.45947265625
-235.29052734375
-238.037109375
-227.05078125
-221.5576171875
-223.388671875
-205.078125
-225.2197265625
-230.712890625
-238.95263671875
-243.5302734375
-250.8544921875
-244.44580078125
-238.037109375
-235.29052734375
-234.375
-227.05078125
-231.62841796875
-237.12158203125
-248.10791015625
-262.75634765625
-262.75634765625
-252.685546875
-248.10791015625
-245.361328125
-240.78369140625
-232.5439453125
-241.69921875
-240.78369140625
-250.8544921875
-260.009765625
-264.58740234375
-261.8408203125
-260.92529296875
-260.92529296875
-254.5166015625
-242.61474609375
-244.44580078125
-245.361328125
-259.09423828125
-264.58740234375
-270.08056640625
-268.24951171875
-262.75634765625
-263.671875
-253.60107421875
-237.12158203125
-250.8544921875
-258.1787109375
-265.5029296875
-268.24951171875
-274.658203125
-273.74267578125
-274.658203125
-273.74267578125
-254.5166015625
-241.69921875
-251.77001953125
-268.24951171875
-271.91162109375
-273.74267578125
-276.4892578125
-269.1650390625
-260.92529296875
-249.93896484375
-230.712890625
-205.078125
-200.50048828125
-209.65576171875
-207.82470703125
-197.75390625
-205.078125
-192.2607421875
-183.10546875
-192.2607421875
-181.2744140625
-163.87939453125
-164.794921875
-163.87939453125
-171.20361328125
-156.55517578125
-145.56884765625
-140.9912109375
-134.58251953125
-130.0048828125
-122.6806640625
-118.10302734375
-125.42724609375
-127.25830078125
-132.75146484375
-142.822265625
-140.07568359375
-134.58251953125
-139.16015625
-139.16015625
-145.56884765625
-168.45703125
-199.5849609375
-224.30419921875
-233.45947265625
-233.45947265625
-247.1923828125
-250.8544921875
-249.93896484375
-249.0234375
-244.44580078125
-249.0234375
-254.5166015625
-255.43212890625
-275.57373046875
-286.56005859375
-292.05322265625
-287.4755859375
-280.1513671875
-277.40478515625
-277.40478515625
-266.41845703125
-273.74267578125
-285.64453125
-286.56005859375
-287.4755859375
-295.71533203125
-292.96875
-290.22216796875
-292.96875
-290.22216796875
-280.1513671875
-278.3203125
-285.64453125
-294.7998046875
-303.955078125
-305.7861328125
-295.71533203125
-289.306640625
-290.22216796875
-286.56005859375
-275.57373046875
-278.3203125
-284.72900390625
-290.22216796875
-294.7998046875
-307.6171875
-302.1240234375
-295.71533203125
-292.96875
-300.29296875
-315.85693359375
-336.9140625
-346.98486328125
-351.5625
-344.23828125
-319.51904296875
-265.5029296875
-225.2197265625
-184.02099609375
-64.0869140625
90.63720703125
239.8681640625
419.3115234375
594.17724609375
747.0703125
851.4404296875
918.27392578125
999.755859375
1038.2080078125
1016.2353515625
910.0341796875
661.92626953125
379.94384765625
62.255859375
-203.2470703125
-369.873046875
-447.69287109375
-455.9326171875
-447.69287109375
-429.38232421875
-390.93017578125
-370.78857421875
-345.15380859375
-327.7587890625
-306.70166015625
-300.29296875
-287.4755859375
-281.982421875
-268.24951171875
-252.685546875
-253.60107421875
-260.009765625
-271.91162109375
-281.982421875
-279.23583984375
-276.4892578125
-270.99609375
-267.333984375
-256.34765625
-260.009765625
-248.10791015625
-252.685546875
-259.09423828125
-267.333984375
-273.74267578125
-284.72900390625
-270.99609375
-265.5029296875
-264.58740234375
-259.09423828125
-248.10791015625
-249.0234375
-252.685546875
-263.671875
-261.8408203125
-272.8271484375
-260.009765625
-258.1787109375
-246.27685546875
-235.29052734375
-229.79736328125
-238.037109375
-239.8681640625
-246.27685546875
-249.93896484375
-249.93896484375
-238.037109375
-228.8818359375
-222.47314453125
-214.2333984375
-205.99365234375
-211.48681640625
-219.7265625
-222.47314453125
-232.5439453125
-233.45947265625
-217.8955078125
-212.40234375
-201.416015625
-198.66943359375
-193.17626953125
-198.66943359375
-197.75390625
-193.17626953125
-199.5849609375
-203.2470703125
-190.4296875
-180.35888671875
-178.52783203125
-174.86572265625
-153.80859375
-161.1328125
-162.9638671875
-175.78125
-181.2744140625
-181.2744140625
-173.9501953125
-162.04833984375
-166.6259765625
-152.89306640625
-153.80859375
-156.55517578125
-165.71044921875
-171.20361328125
-173.9501953125
-168.45703125
-162.04833984375
-155.6396484375
-153.80859375
-147.39990234375
-140.07568359375
-143.73779296875
-151.9775390625
-160.21728515625
-161.1328125
-162.9638671875
-161.1328125
-161.1328125
-154.72412109375
-149.23095703125
-148.3154296875
-165.71044921875
-172.119140625
-172.119140625
-179.443359375
-187.68310546875
-188.5986328125
-190.4296875
-185.85205078125
-178.52783203125
-173.03466796875
-188.5986328125
-195.00732421875
-197.75390625
-209.65576171875
-212.40234375
-216.064453125
-210.5712890625
-203.2470703125
-201.416015625
-199.5849609375
-200.50048828125
-210.5712890625
-215.14892578125
-224.30419921875
-226.13525390625
-220.64208984375
-213.31787109375
-216.064453125
-205.078125
-201.416015625
-212.40234375
-220.64208984375
-226.13525390625
-233.45947265625
-237.12158203125
-228.8818359375
-217.8955078125
-208.740234375
-200.50048828125
-195.9228515625
-201.416015625
-217.8955078125
-223.388671875
-225.2197265625
-223.388671875
-217.8955078125
-223.388671875
-217.8955078125
-211.48681640625
-209.65576171875
-208.740234375
-202.33154296875
-210.5712890625
-218.81103515625
-221.5576171875
-210.5712890625
-205.99365234375
-199.5849609375
-194.091796875
-188.5986328125
-191.34521484375
-215.14892578125
-211.48681640625
-213.31787109375
-216.97998046875
-208.740234375
-205.078125
-201.416015625
-201.416015625
-200.50048828125
-205.078125
-209.65576171875
-216.064453125
-211.48681640625
-210.5712890625
-198.66943359375
-173.03466796875
-164.794921875
-151.06201171875
-142.822265625
-147.39990234375
-137.3291015625
-137.3291015625
-138.24462890625
-141.90673828125
-142.822265625
-132.75146484375
-127.25830078125
-115.3564453125
-103.45458984375
-106.201171875
-113.525390625
-97.96142578125
-82.3974609375
-88.80615234375
-70.49560546875
-77.81982421875
-91.552734375
-79.65087890625
-75.0732421875
-80.56640625
-84.228515625
-86.0595703125
-97.96142578125
-108.94775390625
-104.3701171875
-105.28564453125
-110.77880859375
-127.25830078125
-144.6533203125
-172.119140625
-200.50048828125
-210.5712890625
-216.064453125
-226.13525390625
-227.96630859375
-226.13525390625
-228.8818359375
-227.96630859375
-227.05078125
-234.375
-243.5302734375
-249.93896484375
-265.5029296875
-277.40478515625
-270.08056640625
-271.91162109375
-264.58740234375
-264.58740234375
-255.43212890625
-260.009765625
-269.1650390625
-277.40478515625
-291.1376953125
-292.96875
-285.64453125
-285.64453125
-289.306640625
-277.40478515625
-269.1650390625
-277.40478515625
-287.4755859375
-292.05322265625
-298.4619140625
-304.87060546875
-299.37744140625
-296.630859375
-290.22216796875
-287.4755859375
-283.8134765625
-287.4755859375
-294.7998046875
-295.71533203125
-300.29296875
-307.6171875
-301.20849609375
-298.4619140625
-295.71533203125
-289.306640625
-281.06689453125
-288.39111328125
-318.603515625
-337.82958984375
-347.900390625
-369.873046875
-384.521484375
-379.94384765625
-364.3798828125
-333.251953125
-280.1513671875
-244.44580078125
-199.5849609375
-75.98876953125
75.0732421875
246.27685546875
442.19970703125
644.53125
816.650390625
922.8515625
998.84033203125
1058.349609375
1095.88623046875
1068.42041015625
942.07763671875
689.39208984375
399.169921875
72.32666015625
-197.75390625
-362.548828125
-428.466796875
-443.115234375
-443.115234375
-431.21337890625
-408.3251953125
-386.3525390625
-357.97119140625
-326.84326171875
-288.39111328125
-269.1650390625
-263.671875
-263.671875
-264.58740234375
-272.8271484375
-277.40478515625
-281.06689453125
-276.4892578125
-270.08056640625
-267.333984375
-262.75634765625
-252.685546875
-253.60107421875
-267.333984375
-266.41845703125
-270.99609375
-270.99609375
-263.671875
-255.43212890625
-255.43212890625
-248.10791015625
-233.45947265625
-248.10791015625
-248.10791015625
-251.77001953125
-258.1787109375
-265.5029296875
-248.10791015625
-238.037109375
-243.5302734375
-237.12158203125
-228.8818359375
-232.5439453125
-238.95263671875
-243.5302734375
-249.93896484375
-245.361328125
-238.95263671875
-227.96630859375
-220.64208984375
-222.47314453125
-215.14892578125
-212.40234375
-216.97998046875
-212.40234375
-213.31787109375
-217.8955078125
-215.14892578125
-202.33154296875
-192.2607421875
-191.34521484375
-184.9365234375
-197.75390625
-193.17626953125
-196.83837890625
-205.078125
-210.5712890625
-202.33154296875
-193.17626953125
-189.51416015625
-174.86572265625
-173.03466796875
-174.86572265625
-180.35888671875
-192.2607421875
-199.5849609375
-206.9091796875
-200.50048828125
-198.66943359375
-197.75390625
-188.5986328125
-192.2607421875
-200.50048828125
-204.16259765625
-204.16259765625
-209.65576171875
-207.82470703125
-195.00732421875
-198.66943359375
-191.34521484375
-184.02099609375
-180.35888671875
-183.10546875
-187.68310546875
-196.83837890625
-206.9091796875
-208.740234375
-201.416015625
-206.9091796875
-193.17626953125
-187.68310546875
-195.00732421875
-197.75390625
-205.078125
-213.31787109375
-220.64208984375
-220.64208984375
-219.7265625
-220.64208984375
-219.7265625
-209.65576171875
-212.40234375
-217.8955078125
-227.96630859375
-229.79736328125
-247.1923828125
-258.1787109375
-256.34765625
-245.361328125
-247.1923828125
-237.12158203125
-227.96630859375
-235.29052734375
-250.8544921875
-263.671875
-268.24951171875
-268.24951171875
-260.92529296875
-262.75634765625
-260.009765625
-256.34765625
-260.009765625
-250.8544921875
-261.8408203125
-270.08056640625
-271.91162109375
-270.99609375
-264.58740234375
-267.333984375
-259.09423828125
-253.60107421875
-251.77001953125
-259.09423828125
-261.8408203125
-262.75634765625
-270.99609375
-272.8271484375
-262.75634765625
-256.34765625
-251.77001953125
-234.375
-226.13525390625
-236.2060546875
-248.10791015625
-250.8544921875
-260.92529296875
-253.60107421875
-242.61474609375
-245.361328125
-232.5439453125
-223.388671875
-224.30419921875
-229.79736328125
-233.45947265625
-228.8818359375
-238.037109375
-237.12158203125
-233.45947265625
-229.79736328125
-226.13525390625
-223.388671875
-219.7265625
-228.8818359375
-240.78369140625
-238.95263671875
-228.8818359375
-236.2060546875
-230.712890625
-227.96630859375
-220.64208984375
-206.9091796875
-185.85205078125
-184.9365234375
-189.51416015625
-186.767578125
-178.52783203125
-174.86572265625
-156.55517578125
-148.3154296875
-145.56884765625
-135.498046875
-131.8359375
-139.16015625
-145.56884765625
-141.90673828125
-139.16015625
-140.07568359375
-127.25830078125
-107.11669921875
-92.46826171875
-78.7353515625
-78.7353515625
-89.7216796875
-97.96142578125
-98.876953125
-106.201171875
-108.94775390625
-97.0458984375
-90.63720703125
-91.552734375
-93.3837890625
-94.29931640625
-121.76513671875
-144.6533203125
-170.2880859375
-201.416015625
-217.8955078125
-220.64208984375
-221.5576171875
-223.388671875
-216.064453125
-212.40234375
-229.79736328125
-242.61474609375
-246.27685546875
-253.60107421875
-259.09423828125
-255.43212890625
-254.5166015625
-257.26318359375
-248.10791015625
-249.0234375
-262.75634765625
-270.99609375
-281.982421875
-286.56005859375
-292.05322265625
-286.56005859375
-279.23583984375
-273.74267578125
-273.74267578125
-266.41845703125
-276.4892578125
-285.64453125
-282.89794921875
-295.71533203125
-313.1103515625
-303.955078125
-292.05322265625
-276.4892578125
-280.1513671875
-280.1513671875
-289.306640625
-297.54638671875
-304.87060546875
-311.279296875
-310.36376953125
-304.87060546875
-301.20849609375
-288.39111328125
-276.4892578125
-271.91162109375
-280.1513671875
-295.71533203125
-297.54638671875
-307.6171875
-322.265625
-325.01220703125
-338.7451171875
-349.7314453125
-346.98486328125
-357.97119140625
-357.0556640625
-338.7451171875
-293.88427734375
-255.43212890625
-205.99365234375
-88.80615234375
80.56640625
256.34765625
455.9326171875
647.27783203125
802.001953125
893.5546875
964.9658203125
1027.2216796875
1066.58935546875
1050.10986328125
943.90869140625
696.71630859375
419.3115234375
99.79248046875
-179.443359375
-357.0556640625
-438.53759765625
-459.5947265625
-454.1015625
-419.3115234375
-393.6767578125
-361.63330078125
-338.7451171875
-314.02587890625
-280.1513671875
-275.57373046875
-265.5029296875
-258.1787109375
-256.34765625
-249.93896484375
-248.10791015625
-245.361328125
-237.12158203125
-241.69921875
-245.361328125
-250.8544921875
-256.34765625
-267.333984375
-256.34765625
-253.60107421875
-249.0234375
-238.037109375
-238.037109375
-231.62841796875
-246.27685546875
-244.44580078125
-244.44580078125
-258.1787109375
-248.10791015625
-241.69921875
-236.2060546875
-232.5439453125
-220.64208984375
-217.8955078125
-221.5576171875
-224.30419921875
-229.79736328125
-236.2060546875
-242.61474609375
-227.05078125
-223.388671875
-225.2197265625
-212.40234375
-210.5712890625
-211.48681640625
-215.14892578125
-213.31787109375
-212.40234375
-213.31787109375
-205.078125
-196.83837890625
-191.34521484375
-176.69677734375
-175.78125
-184.9365234375
-191.34521484375
-185.85205078125
-195.00732421875
-194.091796875
-190.4296875
-187.68310546875
-168.45703125
-160.21728515625
-174.86572265625
-161.1328125
-167.54150390625
-172.119140625
-175.78125
-178.52783203125
-170.2880859375
-172.119140625
-169.37255859375
-159.3017578125
-165.71044921875
-167.54150390625
-169.37255859375
-184.02099609375
-184.02099609375
-183.10546875
-173.9501953125
-171.20361328125
-168.45703125
-164.794921875
-162.9638671875
-164.794921875
-169.37255859375
-174.86572265625
-189.51416015625
-190.4296875
-181.2744140625
-172.119140625
-165.71044921875
-158.38623046875
-148.3154296875
-156.55517578125
-168.45703125
-177.6123046875
-181.2744140625
-181.2744140625
-180.35888671875
-175.78125
-176.69677734375
-173.03466796875
-177.6123046875
-188.5986328125
-186.767578125
-200.50048828125
-215.14892578125
-225.2197265625
-216.97998046875
-220.64208984375
-217.8955078125
-207.82470703125
-209.65576171875
-218.81103515625
-226.13525390625
-227.05078125
-248.10791015625
-242.61474609375
-234.375
-228.8818359375
-226.13525390625
-222.47314453125
-228.8818359375
-238.037109375
-243.5302734375
-252.685546875
-256.34765625
-252.685546875
-249.93896484375
-243.5302734375
-239.8681640625
-236.2060546875
-234.375
-238.95263671875
-239.8681640625
-243.5302734375
-250.8544921875
-246.27685546875
-241.69921875
-235.29052734375
-232.5439453125
-216.064453125
-217.8955078125
-219.7265625
-227.05078125
-231.62841796875
-242.61474609375
-244.44580078125
-230.712890625
-218.81103515625
-214.2333984375
-205.99365234375
-208.740234375
-209.65576171875
-210.5712890625
-213.31787109375
-219.7265625
-221.5576171875
-211.48681640625
-213.31787109375
-202.33154296875
-189.51416015625
-190.4296875
-199.5849609375
-198.66943359375
-198.66943359375
-211.48681640625
-219.7265625
-211.48681640625
-204.16259765625
-210.5712890625
-196.83837890625
-196.83837890625
-192.2607421875
-188.5986328125
-182.18994140625
-181.2744140625
-176.69677734375
-162.04833984375
-144.6533203125
-130.92041015625
-119.93408203125
-123.59619140625
-123.59619140625
-129.08935546875
-130.92041015625
-140.07568359375
-133.6669921875
-122.6806640625
-114.44091796875
-104.3701171875
-75.0732421875
-65.91796875
-72.32666015625
-75.98876953125
-89.7216796875
-104.3701171875
-100.7080078125
-86.97509765625
-85.14404296875
-74.15771484375
-62.255859375
-69.580078125
-86.0595703125
-97.96142578125
-114.44091796875
-136.41357421875
-164.794921875
-180.35888671875
-191.34521484375
-200.50048828125
-205.078125
-203.2470703125
-207.82470703125
-224.30419921875
-236.2060546875
-248.10791015625
-256.34765625
-254.5166015625
-249.0234375
-260.92529296875
-246.27685546875
-239.8681640625
-259.09423828125
-271.91162109375
-265.5029296875
-275.57373046875
-288.39111328125
-277.40478515625
-270.99609375
-267.333984375
-262.75634765625
-261.8408203125
-271.91162109375
-281.06689453125
-290.22216796875
-295.71533203125
-292.96875
-291.1376953125
-289.306640625
-286.56005859375
-282.89794921875
-281.982421875
-280.1513671875
-292.96875
-294.7998046875
-299.37744140625
-295.71533203125
-292.96875
-290.22216796875
-282.89794921875
-273.74267578125
-277.40478515625
-282.89794921875
-289.306640625
-293.88427734375
-297.54638671875
-305.7861328125
-308.53271484375
-304.87060546875
-312.19482421875
-314.94140625
-331.4208984375
-358.88671875
-380.859375
-376.28173828125
-361.63330078125
-326.84326171875
-278.3203125
-224.30419921875
-113.525390625
53.1005859375
222.47314453125
409.24072265625
583.19091796875
754.39453125
853.271484375
933.837890625
999.755859375
1061.09619140625
1060.1806640625
965.88134765625
730.5908203125
446.77734375
114.44091796875
-182.18994140625
-357.97119140625
-429.38232421875
-439.453125
-433.04443359375
-416.56494140625
-392.76123046875
-361.63330078125
-353.3935546875
-318.603515625
-295.71533203125
-294.7998046875
-286.56005859375
-267.333984375
-265.5029296875
-261.8408203125
-247.1923828125
-246.27685546875
-249.0234375
-258.1787109375
-266.41845703125
-272.8271484375
-263.671875
-262.75634765625
-257.26318359375
-251.77001953125
-250.8544921875
-249.0234375
-244.44580078125
-247.1923828125
-253.60107421875
-257.26318359375
-254.5166015625
-251.77001953125
-239.8681640625
-227.96630859375
-221.5576171875
-224.30419921875
-231.62841796875
-239.8681640625
-237.12158203125
-249.93896484375
-242.61474609375
-236.2060546875
-227.05078125
-226.13525390625
-210.5712890625
-209.65576171875
-217.8955078125
-216.97998046875
-217.8955078125
-232.5439453125
-228.8818359375
-220.64208984375
-213.31787109375
-202.33154296875
-189.51416015625
-185.85205078125
-191.34521484375
-193.17626953125
-198.66943359375
-203.2470703125
-195.9228515625
-192.2607421875
-193.17626953125
-184.9365234375
-167.54150390625
-169.37255859375
-179.443359375
-183.10546875
-181.2744140625
-193.17626953125
-198.66943359375
-182.18994140625
-181.2744140625
-177.6123046875
-163.87939453125
-168.45703125
-174.86572265625
-179.443359375
-194.091796875
-204.16259765625
-205.078125
-205.078125
-193.17626953125
-178.52783203125
-175.78125
-177.6123046875
-183.10546875
-194.091796875
-200.50048828125
-206.9091796875
-208.740234375
-196.83837890625
-197.75390625
-187.68310546875
-173.03466796875
-175.78125
-185.85205078125
-187.68310546875
-190.4296875
-195.9228515625
-198.66943359375
-197.75390625
-194.091796875
-195.00732421875
-181.2744140625
-190.4296875
-200.50048828125
-214.2333984375
-222.47314453125
-226.13525390625
-224.30419921875
-223.388671875
-218.81103515625
-217.8955078125
-211.48681640625
-216.064453125
-217.8955078125
-222.47314453125
-233.45947265625
-252.685546875
-246.27685546875
-237.12158203125
-243.5302734375
-236.2060546875
-227.05078125
-234.375
-242.61474609375
-249.93896484375
-262.75634765625
-271.91162109375
-261.8408203125
-257.26318359375
-254.5166015625
-250.8544921875
-238.95263671875
-238.95263671875
-251.77001953125
-251.77001953125
-256.34765625
-263.671875
-265.5029296875
-250.8544921875
-247.1923828125
-251.77001953125
-238.95263671875
-235.29052734375
-241.69921875
-249.0234375
-260.009765625
-261.8408203125
-256.34765625
-247.1923828125
-238.95263671875
-227.96630859375
-223.388671875
-227.05078125
-229.79736328125
-241.69921875
-240.78369140625
-244.44580078125
-242.61474609375
-227.05078125
-219.7265625
-222.47314453125
-205.99365234375
-209.65576171875
-213.31787109375
-222.47314453125
-226.13525390625
-235.29052734375
-231.62841796875
-224.30419921875
-223.388671875
-221.5576171875
-209.65576171875
-213.31787109375
-213.31787109375
-228.8818359375
-229.79736328125
-234.375
-226.13525390625
-202.33154296875
-174.86572265625
-162.04833984375
-150.146484375
-150.146484375
-152.89306640625
-146.484375
-151.06201171875
-151.9775390625
-148.3154296875
-154.72412109375
-151.06201171875
-139.16015625
-129.08935546875
-126.3427734375
-123.59619140625
-124.51171875
-108.94775390625
-108.0322265625
-107.11669921875
-108.0322265625
-108.94775390625
-99.79248046875
-91.552734375
-94.29931640625
-95.21484375
-95.21484375
-99.79248046875
-122.6806640625
-130.92041015625
-127.25830078125
-142.822265625
-166.6259765625
-180.35888671875
-206.9091796875
-224.30419921875
-227.05078125
-225.2197265625
-237.12158203125
-245.361328125
-239.8681640625
-248.10791015625
-247.1923828125
-236.2060546875
-236.2060546875
-251.77001953125
-261.8408203125
-274.658203125
-283.8134765625
-271.91162109375
-268.24951171875
-272.8271484375
-270.99609375
-267.333984375
-270.08056640625
-282.89794921875
-287.4755859375
-289.306640625
-303.955078125
-303.955078125
-293.88427734375
-291.1376953125
-288.39111328125
-282.89794921875
-282.89794921875
-301.20849609375
-307.6171875
-309.4482421875
-314.94140625
-315.85693359375
-312.19482421875
-301.20849609375
-294.7998046875
-282.89794921875
-282.89794921875
-296.630859375
-304.87060546875
-305.7861328125
-312.19482421875
-311.279296875
-303.03955078125
-297.54638671875
-299.37744140625
-300.29296875
-312.19482421875
-337.82958984375
-359.80224609375
-370.78857421875
-391.845703125
-394.59228515625
-376.28173828125
-349.7314453125
-295.71533203125
-246.27685546875
-186.767578125
-64.0869140625
97.96142578125
291.1376953125
470.5810546875
648.193359375
791.93115234375
887.14599609375
957.6416015625
1038.2080078125
1066.58935546875
1001.5869140625
839.53857421875
574.03564453125
277.40478515625
-47.607421875
-271.91162109375
-396.42333984375
-444.03076171875
-429.38232421875
-429.38232421875
-420.22705078125
-404.6630859375
-379.94384765625
-367.12646484375
-333.251953125
-300.29296875
-281.982421875
-265.5029296875
-244.44580078125
-246.27685546875
-255.43212890625
-254.5166015625
-266.41845703125
-279.23583984375
-279.23583984375
-269.1650390625
-268.24951171875
-263.671875
-251.77001953125
-254.5166015625
-255.43212890625
-261.8408203125
-268.24951171875
-269.1650390625
-268.24951171875
-260.009765625
-250.8544921875
-248.10791015625
-236.2060546875
-231.62841796875
-244.44580078125
-246.27685546875
-253.60107421875
-260.92529296875
-245.361328125
-238.95263671875
-243.5302734375
-236.2060546875
-221.5576171875
-229.79736328125
-234.375
-229.79736328125
-236.2060546875
-242.61474609375
-234.375
-233.45947265625
-218.81103515625
-214.2333984375
-209.65576171875
-196.83837890625
-200.50048828125
-203.2470703125
-203.2470703125
-208.740234375
-205.078125
-199.5849609375
-193.17626953125
-182.18994140625
-173.03466796875
-175.78125
-174.86572265625
-181.2744140625
-188.5986328125
-199.5849609375
-194.091796875
-185.85205078125
-173.9501953125
-168.45703125
-168.45703125
-173.9501953125
-186.767578125
-199.5849609375
-189.51416015625
-198.66943359375
-195.9228515625
-192.2607421875
-184.02099609375
-179.443359375
-169.37255859375
-174.86572265625
-184.9365234375
-195.9228515625
-196.83837890625
-206.9091796875
-214.2333984375
-192.2607421875
-182.18994140625
-175.78125
-170.2880859375
-173.03466796875
-178.52783203125
-181.2744140625
-187.68310546875
-199.5849609375
-192.2607421875
-188.5986328125
-184.9365234375
-183.10546875
-184.9365234375
-194.091796875
-198.66943359375
-208.740234375
-209.65576171875
-216.064453125
-223.388671875
-216.97998046875
-213.31787109375
-210.5712890625
-208.740234375
-214.2333984375
-223.388671875
-234.375
-229.79736328125
-242.61474609375
-241.69921875
-233.45947265625
-233.45947265625
-229.79736328125
-228.8818359375
-234.375
-247.1923828125
-258.1787109375
-262.75634765625
-265.5029296875
-260.92529296875
-249.93896484375
-261.8408203125
-252.685546875
-242.61474609375
-245.361328125
-251.77001953125
-255.43212890625
-261.8408203125
-270.08056640625
-269.1650390625
-259.09423828125
-249.0234375
-249.93896484375
-242.61474609375
-238.037109375
-252.685546875
-258.1787109375
-260.92529296875
-265.5029296875
-261.8408203125
-254.5166015625
-249.0234375
-237.12158203125
-227.96630859375
-232.5439453125
-238.037109375
-238.95263671875
-234.375
-247.1923828125
-242.61474609375
-226.13525390625
-224.30419921875
-233.45947265625
-213.31787109375
-214.2333984375
-226.13525390625
-228.8818359375
-226.13525390625
-238.037109375
-236.2060546875
-219.7265625
-216.064453125
-213.31787109375
-203.2470703125
-205.99365234375
-219.7265625
-227.05078125
-228.8818359375
-231.62841796875
-220.64208984375
-197.75390625
-189.51416015625
-182.18994140625
-166.6259765625
-164.794921875
-160.21728515625
-161.1328125
-160.21728515625
-161.1328125
-158.38623046875
-160.21728515625
-151.06201171875
-145.56884765625
-131.8359375
-119.93408203125
-127.25830078125
-116.27197265625
-102.5390625
-106.201171875
-96.13037109375
-96.13037109375
-108.0322265625
-102.5390625
-90.63720703125
-86.0595703125
-91.552734375
-97.96142578125
-97.0458984375
-107.11669921875
-116.27197265625
-121.76513671875
-133.6669921875
-155.6396484375
-168.45703125
-185.85205078125
-197.75390625
-215.14892578125
-229.79736328125
-243.5302734375
-249.0234375
-246.27685546875
-248.10791015625
-242.61474609375
-239.8681640625
-248.10791015625
-262.75634765625
-265.5029296875
-270.08056640625
-281.06689453125
-283.8134765625
-275.57373046875
-281.06689453125
-280.1513671875
-270.08056640625
-274.658203125
-280.1513671875
-283.8134765625
-290.22216796875
-306.70166015625
-306.70166015625
-296.630859375
-299.37744140625
-301.20849609375
-289.306640625
-293.88427734375
-299.37744140625
-305.7861328125
-307.6171875
-314.94140625
-316.7724609375
-314.02587890625
-314.02587890625
-304.87060546875
-292.96875
-293.88427734375
-301.20849609375
-312.19482421875
-315.85693359375
-321.35009765625
-312.19482421875
-308.53271484375
-296.630859375
-303.03955078125
-303.955078125
-314.02587890625
-335.0830078125
-354.30908203125
-371.7041015625
-394.59228515625
-409.24072265625
-401.0009765625
-375.3662109375
-329.58984375
-288.39111328125
-238.95263671875
-129.08935546875
37.53662109375
220.64208984375
403.74755859375
590.51513671875
756.2255859375
844.1162109375
932.0068359375
1001.5869140625
1045.5322265625
1028.13720703125
902.7099609375
641.78466796875
352.47802734375
29.296875
-231.62841796875
-381.77490234375
-440.36865234375
-437.6220703125
-438.53759765625
-437.6220703125
-417.48046875
-390.0146484375
-381.77490234375
-355.224609375
-315.85693359375
-292.96875
-278.3203125
-266.41845703125
-266.41845703125
-270.08056640625
-272.8271484375
-274.658203125
-296.630859375
-300.29296875
-287.4755859375
-270.99609375
-270.08056640625
-261.8408203125
-263.671875
-268.24951171875
-270.99609375
-280.1513671875
-280.1513671875
-277.40478515625
-276.4892578125
-270.08056640625
-270.08056640625
-247.1923828125
-249.93896484375
-257.26318359375
-258.1787109375
-260.009765625
-272.8271484375
-265.5029296875
-254.5166015625
-247.1923828125
-237.12158203125
-239.8681640625
-246.27685546875
-249.0234375
-251.77001953125
-254.5166015625
-263.671875
-262.75634765625
-249.93896484375
-239.8681640625
-226.13525390625
-208.740234375
-210.5712890625
-220.64208984375
-223.388671875
-227.96630859375
-233.45947265625
-223.388671875
-211.48681640625
-206.9091796875
-200.50048828125
-196.83837890625
-194.091796875
-195.9228515625
-205.078125
-216.97998046875
-212.40234375
-206.9091796875
-197.75390625
-199.5849609375
-195.00732421875
-183.10546875
-185.85205078125
-204.16259765625
-205.99365234375
-204.16259765625
-208.740234375
-207.82470703125
-199.5849609375
-198.66943359375
-195.9228515625
-193.17626953125
-196.83837890625
-207.82470703125
-211.48681640625
-207.82470703125
-222.47314453125
-230.712890625
-216.97998046875
-211.48681640625
-210.5712890625
-188.5986328125
-195.00732421875
-204.16259765625
-214.2333984375
-220.64208984375
-215.14892578125
-202.33154296875
-207.82470703125
-213.31787109375
-198.66943359375
-188.5986328125
-195.9228515625
-209.65576171875
-218.81103515625
-225.2197265625
-235.29052734375
-236.2060546875
-238.037109375
-238.037109375
-221.5576171875
-212.40234375
-220.64208984375
-227.96630859375
-239.8681640625
-251.77001953125
-263.671875
-260.009765625
-256.34765625
-251.77001953125
-243.5302734375
-238.037109375
-243.5302734375
-260.009765625
-260.009765625
-254.5166015625
-275.57373046875
-279.23583984375
-268.24951171875
-273.74267578125
-262.75634765625
-265.5029296875
-268.24951171875
-270.08056640625
-280.1513671875
-283.8134765625
-282.89794921875
-280.1513671875
-276.4892578125
-268.24951171875
-264.58740234375
-258.1787109375
-254.5166015625
-261.8408203125
-270.99609375
-264.58740234375
-270.08056640625
-276.4892578125
-266.41845703125
-253.60107421875
-250.8544921875
-238.95263671875
-242.61474609375
-260.009765625
-262.75634765625
-264.58740234375
-271.91162109375
-265.5029296875
-253.60107421875
-246.27685546875
-235.29052734375
-222.47314453125
-229.79736328125
-234.375
-234.375
-234.375
-249.93896484375
-253.60107421875
-241.69921875
-233.45947265625
-228.8818359375
-219.7265625
-227.05078125
-226.13525390625
-233.45947265625
-230.712890625
-230.712890625
-225.2197265625
-218.81103515625
-198.66943359375
-184.02099609375
-178.52783203125
-177.6123046875
-171.20361328125
-173.03466796875
-182.18994140625
-183.10546875
-179.443359375
-167.54150390625
-164.794921875
-159.3017578125
-148.3154296875
-146.484375
-130.92041015625
-119.93408203125
-124.51171875
-125.42724609375
-128.173828125
-131.8359375
-119.0185546875
-108.94775390625
-108.94775390625
-107.11669921875
-112.60986328125
-109.86328125
-120.849609375
-135.498046875
-138.24462890625
-152.89306640625
-181.2744140625
-195.00732421875
-198.66943359375
-214.2333984375
-230.712890625
-230.712890625
-242.61474609375
-263.671875
-261.8408203125
-265.5029296875
-262.75634765625
-266.41845703125
-257.26318359375
-258.1787109375
-267.333984375
-278.3203125
-290.22216796875
-294.7998046875
-292.96875
-291.1376953125
-286.56005859375
-288.39111328125
-279.23583984375
-281.982421875
-283.8134765625
-298.4619140625
-304.87060546875
-309.4482421875
-314.02587890625
-322.265625
-318.603515625
-310.36376953125
-292.96875
-300.29296875
-312.19482421875
-312.19482421875
-320.4345703125
-334.16748046875
-327.7587890625
-313.1103515625
-311.279296875
-304.87060546875
-294.7998046875
-295.71533203125
-306.70166015625
-315.85693359375
-322.265625
-329.58984375
-324.0966796875
-325.927734375
-319.51904296875
-312.19482421875
-320.4345703125
-336.9140625
-358.88671875
-387.26806640625
-398.25439453125
-404.6630859375
-394.59228515625
-377.197265625
-337.82958984375
-302.1240234375
-227.96630859375
-98.876953125
57.67822265625
249.0234375
418.39599609375
606.99462890625
751.64794921875
823.05908203125
891.7236328125
953.06396484375
1014.404296875
975.03662109375
838.623046875
611.572265625
343.32275390625
17.39501953125
-227.96630859375
-346.98486328125
-390.0146484375
-395.5078125
-414.73388671875
-420.22705078125
-426.6357421875
-416.56494140625
-390.93017578125
-378.11279296875
-351.5625
-323.18115234375
-300.29296875
-295.71533203125
-281.06689453125
-277.40478515625
-283.8134765625
-288.39111328125
-285.64453125
-296.630859375
-292.05322265625
-285.64453125
-286.56005859375
-281.982421875
-264.58740234375
-279.23583984375
-281.982421875
-290.22216796875
-293.88427734375
-303.03955078125
-298.4619140625
-294.7998046875
-292.96875
-274.658203125
-265.5029296875
-265.5029296875
-257.26318359375
-254.5166015625
-259.09423828125
-272.8271484375
-267.333984375
-271.91162109375
-266.41845703125
-255.43212890625
-244.44580078125
-252.685546875
-261.8408203125
-263.671875
-261.8408203125
-261.8408203125
-257.26318359375
-242.61474609375
-238.037109375
-227.05078125
-224.30419921875
-227.96630859375
-240.78369140625
-244.44580078125
-245.361328125
-240.78369140625
-236.2060546875
-222.47314453125
-216.97998046875
-216.064453125
-205.99365234375
-206.9091796875
-207.82470703125
-208.740234375
-216.97998046875
-228.8818359375
-227.05078125
-219.7265625
-213.31787109375
-210.5712890625
-197.75390625
-205.078125
-223.388671875
-226.13525390625
-228.8818359375
-235.29052734375
-233.45947265625
-229.79736328125
-224.30419921875
-222.47314453125
-223.388671875
-220.64208984375
-216.97998046875
-222.47314453125
-238.037109375
-252.685546875
-241.69921875
-223.388671875
-230.712890625
-222.47314453125
-215.14892578125
-212.40234375
-218.81103515625
-218.81103515625
-223.388671875
-232.5439453125
-232.5439453125
-227.05078125
-222.47314453125
-220.64208984375
-215.14892578125
-222.47314453125
-230.712890625
-235.29052734375
-238.037109375
-249.0234375
-253.60107421875
-244.44580078125
-245.361328125
-245.361328125
-249.0234375
-253.60107421875
-259.09423828125
-262.75634765625
-266.41845703125
-278.3203125
-282.89794921875
-269.1650390625
-264.58740234375
-258.1787109375
-251.77001953125
-275.57373046875
-285.64453125
-290.22216796875
-293.88427734375
-301.20849609375
-284.72900390625
-277.40478515625
-279.23583984375
-281.982421875
-277.40478515625
-282.89794921875
-283.8134765625
-299.37744140625
-300.29296875
-307.6171875
-303.955078125
-289.306640625
-281.06689453125
-274.658203125
-270.08056640625
-272.8271484375
-285.64453125
-295.71533203125
-293.88427734375
-296.630859375
-294.7998046875
-287.4755859375
-282.89794921875
-275.57373046875
-270.08056640625
-276.4892578125
-281.06689453125
-285.64453125
-278.3203125
-292.96875
-281.982421875
-272.8271484375
-267.333984375
-265.5029296875
-254.5166015625
-248.10791015625
-275.57373046875
-281.06689453125
-276.4892578125
-285.64453125
-279.23583984375
-259.09423828125
-250.8544921875
-246.27685546875
-230.712890625
-235.29052734375
-233.45947265625
-233.45947265625
-231.62841796875
-235.29052734375
-221.5576171875
-221.5576171875
-220.64208984375
-212.40234375
-196.83837890625
-205.99365234375
-202.33154296875
-211.48681640625
-202.33154296875
-197.75390625
-183.10546875
-167.54150390625
-154.72412109375
-148.3154296875
-134.58251953125
-133.6669921875
-151.06201171875
-140.9912109375
-135.498046875
-150.146484375
-154.72412109375
-134.58251953125
-134.58251953125
-146.484375
-142.822265625
-154.72412109375
-184.02099609375
-209.65576171875
-230.712890625
-257.26318359375
-260.009765625
-261.8408203125
-265.5029296875
-257.26318359375
-250.8544921875
-262.75634765625
-284.72900390625
-292.05322265625
-302.1240234375
-313.1103515625
-304.87060546875
-301.20849609375
-301.20849609375
-291.1376953125
-290.22216796875
-300.29296875
-306.70166015625
-314.94140625
-325.01220703125
-330.50537109375
-326.84326171875
-328.67431640625
-325.01220703125
-316.7724609375
-316.7724609375
-332.33642578125
-339.66064453125
-338.7451171875
-353.3935546875
-353.3935546875
-349.7314453125
-335.99853515625
-333.251953125
-330.50537109375
-317.68798828125
-319.51904296875
-337.82958984375
-357.97119140625
-346.98486328125
-361.63330078125
-355.224609375
-352.47802734375
-346.98486328125
-326.84326171875
-316.7724609375
-325.01220703125
-330.50537109375
-344.23828125
-352.47802734375
-369.873046875
-379.0283203125
-385.43701171875
-404.6630859375
-406.494140625
-405.57861328125
-394.59228515625
-379.0283203125
-359.80224609375
-337.82958984375
-299.37744140625
-186.767578125
-19.22607421875
185.85205078125
376.28173828125
569.4580078125
725.09765625
816.650390625
885.31494140625
932.92236328125
953.06396484375
972.2900390625
893.5546875
715.9423828125
490.72265625
204.16259765625
-96.13037109375
-284.72900390625
-376.28173828125
-415.6494140625
-446.77734375
-459.5947265625
-445.86181640625
-439.453125
-411.9873046875
-381.77490234375
-368.0419921875
-358.88671875
-354.30908203125
-344.23828125
-345.15380859375
-331.4208984375
-316.7724609375
-313.1103515625
-305.7861328125
-304.87060546875
-309.4482421875
-314.02587890625
-310.36376953125
-311.279296875
-322.265625
-321.35009765625
-309.4482421875
-315.85693359375
-306.70166015625
-291.1376953125
-297.54638671875
-300.29296875
-304.87060546875
-313.1103515625
-319.51904296875
-315.85693359375
-325.01220703125
-310.36376953125
-299.37744140625
-290.22216796875
-285.64453125
-294.7998046875
-300.29296875
-305.7861328125
-313.1103515625
-302.1240234375
-290.22216796875
-290.22216796875
-285.64453125
-275.57373046875
-279.23583984375
-280.1513671875
-274.658203125
-279.23583984375
-285.64453125
-281.982421875
-267.333984375
-263.671875
-262.75634765625
-256.34765625
-257.26318359375
-255.43212890625
-251.77001953125
-260.92529296875
-264.58740234375
-262.75634765625
-257.26318359375
-247.1923828125
-242.61474609375
-240.78369140625
-248.10791015625
-257.26318359375
-258.1787109375
-262.75634765625
-270.08056640625
-257.26318359375
-244.44580078125
-246.27685546875
-244.44580078125
-233.45947265625
-258.1787109375
-265.5029296875
-269.1650390625
-272.8271484375
-270.99609375
-267.333984375
-251.77001953125
-256.34765625
-249.93896484375
-240.78369140625
-249.0234375
-256.34765625
-267.333984375
-271.91162109375
-270.08056640625
-265.5029296875
-254.5166015625
-243.5302734375
-237.12158203125
-242.61474609375
-240.78369140625
-249.93896484375
-260.92529296875
-260.92529296875
-267.333984375
-269.1650390625
-262.75634765625
-260.009765625
-251.77001953125
-244.44580078125
-250.8544921875
-258.1787109375
-271.91162109375
-280.1513671875
-292.96875
-296.630859375
-298.4619140625
-292.96875
-282.89794921875
-281.982421875
-286.56005859375
-290.22216796875
-300.29296875
-306.70166015625
-316.7724609375
-314.94140625
-300.29296875
-294.7998046875
-292.96875
-285.64453125
-302.1240234375
-308.53271484375
-310.36376953125
-323.18115234375
-327.7587890625
-317.68798828125
-314.94140625
-312.19482421875
-303.955078125
-300.29296875
-301.20849609375
-305.7861328125
-304.87060546875
-315.85693359375
-320.4345703125
-313.1103515625
-306.70166015625
-303.955078125
-294.7998046875
-282.89794921875
-285.64453125
-297.54638671875
-303.03955078125
-306.70166015625
-317.68798828125
-314.94140625
-301.20849609375
-293.88427734375
-292.96875
-280.1513671875
-297.54638671875
-292.05322265625
-282.89794921875
-292.96875
-292.96875
-288.39111328125
-283.8134765625
-272.8271484375
-268.24951171875
-258.1787109375
-260.009765625
-262.75634765625
-251.77001953125
-255.43212890625
-253.60107421875
-243.5302734375
-231.62841796875
-218.81103515625
-208.740234375
-201.416015625
-205.078125
-204.16259765625
-217.8955078125
-220.64208984375
-214.2333984375
-205.078125
-188.5986328125
-162.9638671875
-155.6396484375
-143.73779296875
-142.822265625
-163.87939453125
-163.87939453125
-164.794921875
-165.71044921875
-162.9638671875
-150.146484375
-140.07568359375
-143.73779296875
-145.56884765625
-155.6396484375
-165.71044921875
-182.18994140625
-219.7265625
-250.8544921875
-259.09423828125
-263.671875
-265.5029296875
-260.009765625
-247.1923828125
-259.09423828125
-277.40478515625
-286.56005859375
-302.1240234375
-310.36376953125
-303.955078125
-296.630859375
-303.955078125
-292.96875
-290.22216796875
-297.54638671875
-307.6171875
-322.265625
-330.50537109375
-336.9140625
-333.251953125
-331.4208984375
-332.33642578125
-325.01220703125
-317.68798828125
-326.84326171875
-334.16748046875
-337.82958984375
-345.15380859375
-347.900390625
-346.98486328125
-330.50537109375
-338.7451171875
-330.50537109375
-328.67431640625
-337.82958984375
-344.23828125
-350.64697265625
-356.14013671875
-354.30908203125
-351.5625
-348.81591796875
-350.64697265625
-336.9140625
-331.4208984375
-343.32275390625
-336.9140625
-335.0830078125
-353.3935546875
-364.3798828125
-365.29541015625
-358.88671875
-372.61962890625
-382.6904296875
-396.42333984375
-415.6494140625
-416.56494140625
-400.08544921875
-375.3662109375
-350.64697265625
-305.7861328125
-202.33154296875
-46.69189453125
140.07568359375
346.98486328125
512.6953125
685.72998046875
802.001953125
881.65283203125
943.90869140625
992.431640625
1011.65771484375
956.72607421875
813.90380859375
578.61328125
268.24951171875
-52.18505859375
-278.3203125
-401.0009765625
-440.36865234375
-448.6083984375
-446.77734375
-450.439453125
-434.87548828125
-411.07177734375
-397.3388671875
-380.859375
-357.0556640625
-346.98486328125
-336.9140625
-325.01220703125
-307.6171875
-297.54638671875
-289.306640625
-292.05322265625
-294.7998046875
-302.1240234375
-305.7861328125
-314.94140625
-325.01220703125
-320.4345703125
-308.53271484375
-304.87060546875
-291.1376953125
-281.982421875
-292.05322265625
-297.54638671875
-305.7861328125
-313.1103515625
-312.19482421875
-301.20849609375
-297.54638671875
-291.1376953125
-281.982421875
-283.8134765625
-292.05322265625
-288.39111328125
-290.22216796875
-303.955078125
-304.87060546875
-284.72900390625
-280.1513671875
-281.06689453125
-277.40478515625
-268.24951171875
-276.4892578125
-274.658203125
-279.23583984375
-287.4755859375
-282.89794921875
-279.23583984375
-268.24951171875
-259.09423828125
-250.8544921875
-244.44580078125
-245.361328125
-259.09423828125
-253.60107421875
-262.75634765625
-260.009765625
-250.8544921875
-238.037109375
-233.45947265625
-227.96630859375
-225.2197265625
-230.712890625
-233.45947265625
-240.78369140625
-252.685546875
-245.361328125
-236.2060546875
-231.62841796875
-226.13525390625
-221.5576171875
-218.81103515625
-224.30419921875
-229.79736328125
-233.45947265625
-234.375
-243.5302734375
-239.8681640625
-235.29052734375
-227.05078125
-219.7265625
-216.064453125
-227.96630859375
-237.12158203125
-235.29052734375
-238.95263671875
-241.69921875
-240.78369140625
-232.5439453125
-231.62841796875
-221.5576171875
-212.40234375
-227.96630859375
-237.12158203125
-234.375
-233.45947265625
-248.10791015625
-247.1923828125
-242.61474609375
-243.5302734375
-236.2060546875
-232.5439453125
-245.361328125
-248.10791015625
-264.58740234375
-273.74267578125
-280.1513671875
-275.57373046875
-276.4892578125
-276.4892578125
-279.23583984375
-270.99609375
-279.23583984375
-287.4755859375
-292.96875
-298.4619140625
-299.37744140625
-296.630859375
-300.29296875
-295.71533203125
-291.1376953125
-292.05322265625
-294.7998046875
-300.29296875
-303.955078125
-307.6171875
-314.02587890625
-313.1103515625
-305.7861328125
-303.03955078125
-298.4619140625
-295.71533203125
-311.279296875
-315.85693359375
-323.18115234375
-320.4345703125
-320.4345703125
-308.53271484375
-305.7861328125
-302.1240234375
-288.39111328125
-292.05322265625
-292.05322265625
-297.54638671875
-307.6171875
-321.35009765625
-322.265625
-310.36376953125
-302.1240234375
-300.29296875
-289.306640625
-284.72900390625
-284.72900390625
-293.88427734375
-294.7998046875
-301.20849609375
-309.4482421875
-303.03955078125
-281.06689453125
-274.658203125
-268.24951171875
-259.09423828125
-264.58740234375
-261.8408203125
-267.333984375
-264.58740234375
-250.8544921875
-240.78369140625
-221.5576171875
-206.9091796875
-191.34521484375
-184.02099609375
-184.9365234375
-195.00732421875
-196.83837890625
-203.2470703125
-212.40234375
-200.50048828125
-193.17626953125
-179.443359375
-152.89306640625
-131.8359375
-130.92041015625
-131.8359375
-143.73779296875
-151.9775390625
-162.04833984375
-145.56884765625
-136.41357421875
-130.0048828125
-129.08935546875
-122.6806640625
-128.173828125
-151.06201171875
-161.1328125
-167.54150390625
-184.9365234375
-206.9091796875
-224.30419921875
-226.13525390625
-228.8818359375
-232.5439453125
-249.93896484375
-256.34765625
-260.009765625
-274.658203125
-285.64453125
-288.39111328125
-284.72900390625
-289.306640625
-287.4755859375
-273.74267578125
-287.4755859375
-299.37744140625
-311.279296875
-314.94140625
-319.51904296875
-318.603515625
-318.603515625
-320.4345703125
-303.03955078125
-300.29296875
-309.4482421875
-320.4345703125
-328.67431640625
-330.50537109375
-336.9140625
-335.99853515625
-330.50537109375
-323.18115234375
-319.51904296875
-313.1103515625
-314.94140625
-333.251953125
-343.32275390625
-345.15380859375
-349.7314453125
-342.4072265625
-330.50537109375
-320.4345703125
-316.7724609375
-321.35009765625
-322.265625
-333.251953125
-341.49169921875
-345.15380859375
-338.7451171875
-337.82958984375
-338.7451171875
-345.15380859375
-351.5625
-362.548828125
-384.521484375
-403.74755859375
-422.9736328125
-412.90283203125
-388.18359375
-337.82958984375
-298.4619140625
-250.8544921875
-121.76513671875
40.283203125
205.078125
388.18359375
569.4580078125
743.408203125
854.18701171875
935.6689453125
1007.080078125
1061.09619140625
1054.6875
948.486328125
700.37841796875
407.40966796875
84.228515625
-198.66943359375
-382.6904296875
-461.42578125
-462.34130859375
-447.69287109375
-436.70654296875
-416.56494140625
-395.5078125
-386.3525390625
-365.29541015625
-352.47802734375
-337.82958984375
-315.85693359375
-312.19482421875
-303.03955078125
-284.72900390625
-286.56005859375
-294.7998046875
-296.630859375
-303.03955078125
-310.36376953125
-308.53271484375
-302.1240234375
-301.20849609375
-299.37744140625
-281.982421875
-281.06689453125
-291.1376953125
-293.88427734375
-296.630859375
-296.630859375
-293.88427734375
-296.630859375
-292.96875
-281.06689453125
-276.4892578125
-272.8271484375
-270.99609375
-273.74267578125
-281.982421875
-281.982421875
-289.306640625
-276.4892578125
-271.91162109375
-269.1650390625
-254.5166015625
-250.8544921875
-249.93896484375
-261.8408203125
-255.43212890625
-259.09423828125
-265.5029296875
-255.43212890625
-238.95263671875
-244.44580078125
-227.96630859375
-216.064453125
-231.62841796875
-227.96630859375
-232.5439453125
-234.375
-238.95263671875
-228.8818359375
-217.8955078125
-209.65576171875
-205.99365234375
-191.34521484375
-195.00732421875
-199.5849609375
-209.65576171875
-205.99365234375
-206.9091796875
-205.078125
-195.9228515625
-185.85205078125
-184.02099609375
-181.2744140625
-184.9365234375
-200.50048828125
-198.66943359375
-195.00732421875
-203.2470703125
-189.51416015625
-184.02099609375
-184.9365234375
-184.9365234375
-174.86572265625
-182.18994140625
-203.2470703125
-205.99365234375
-205.99365234375
-211.48681640625
-206.9091796875
-191.34521484375
-191.34521484375
-184.02099609375
-192.2607421875
-198.66943359375
-201.416015625
-195.9228515625
-221.5576171875
-221.5576171875
-222.47314453125
-220.64208984375
-217.8955078125
-206.9091796875
-205.078125
-223.388671875
-235.29052734375
-247.1923828125
-257.26318359375
-260.009765625
-252.685546875
-255.43212890625
-263.671875
-255.43212890625
-253.60107421875
-264.58740234375
-271.91162109375
-278.3203125
-280.1513671875
-287.4755859375
-288.39111328125
-278.3203125
-278.3203125
-268.24951171875
-268.24951171875
-274.658203125
-283.8134765625
-291.1376953125
-301.20849609375
-305.7861328125
-296.630859375
-295.71533203125
-295.71533203125
-291.1376953125
-285.64453125
-279.23583984375
-286.56005859375
-293.88427734375
-309.4482421875
-303.955078125
-297.54638671875
-297.54638671875
-298.4619140625
-286.56005859375
-278.3203125
-285.64453125
-296.630859375
-299.37744140625
-299.37744140625
-305.7861328125
-300.29296875
-293.88427734375
-287.4755859375
-281.982421875
-280.1513671875
-280.1513671875
-285.64453125
-292.05322265625
-298.4619140625
-296.630859375
-288.39111328125
-281.06689453125
-271.91162109375
-271.91162109375
-267.333984375
-268.24951171875
-267.333984375
-278.3203125
-281.982421875
-279.23583984375
-269.1650390625
-260.92529296875
-244.44580078125
-227.96630859375
-220.64208984375
-216.064453125
-218.81103515625
-216.97998046875
-206.9091796875
-205.078125
-192.2607421875
-176.69677734375
-171.20361328125
-168.45703125
-161.1328125
-165.71044921875
-168.45703125
-169.37255859375
-169.37255859375
-157.470703125
-142.822265625
-130.0048828125
-117.1875
-113.525390625
-118.10302734375
-118.10302734375
-127.25830078125
-127.25830078125
-131.8359375
-140.9912109375
-124.51171875
-129.08935546875
-137.3291015625
-143.73779296875
-149.23095703125
-163.87939453125
-189.51416015625
-219.7265625
-238.95263671875
-250.8544921875
-243.5302734375
-244.44580078125
-247.1923828125
-243.5302734375
-249.0234375
-268.24951171875
-272.8271484375
-281.982421875
-297.54638671875
-298.4619140625
-291.1376953125
-288.39111328125
-281.982421875
-280.1513671875
-279.23583984375
-293.88427734375
-303.955078125
-303.03955078125
-315.85693359375
-321.35009765625
-318.603515625
-314.94140625
-312.19482421875
-314.02587890625
-314.94140625
-319.51904296875
-322.265625
-326.84326171875
-334.16748046875
-336.9140625
-335.99853515625
-334.16748046875
-336.9140625
-316.7724609375
-312.19482421875
-321.35009765625
-333.251953125
-343.32275390625
-350.64697265625
-353.3935546875
-332.33642578125
-323.18115234375
-321.35009765625
-314.02587890625
-303.955078125
-315.85693359375
-326.84326171875
-335.99853515625
-350.64697265625
-366.2109375
-367.12646484375
-379.94384765625
-396.42333984375
-402.83203125
-387.26806640625
-369.873046875
-334.16748046875
-296.630859375
-257.26318359375
-151.06201171875
8.23974609375
184.02099609375
387.26806640625
575.86669921875
769.95849609375
894.47021484375
964.05029296875
1029.052734375
1065.673828125
1053.77197265625
952.1484375
707.70263671875
411.9873046875
100.7080078125
-185.85205078125
-375.3662109375
-468.75
-481.5673828125
-473.32763671875
-448.6083984375
-423.88916015625
-390.93017578125
-362.548828125
-335.0830078125
-303.955078125
-297.54638671875
-293.88427734375
-287.4755859375
-303.03955078125
-310.36376953125
-299.37744140625
-293.88427734375
-292.96875
-279.23583984375
-288.39111328125
-296.630859375
-296.630859375
-298.4619140625
-293.88427734375
-303.955078125
-309.4482421875
-297.54638671875
-287.4755859375
-288.39111328125
-279.23583984375
-284.72900390625
-291.1376953125
-286.56005859375
-290.22216796875
-293.88427734375
-280.1513671875
-272.8271484375
-268.24951171875
-262.75634765625
-267.333984375
-266.41845703125
-267.333984375
-270.99609375
-276.4892578125
-276.4892578125
-264.58740234375
-262.75634765625
-265.5029296875
-256.34765625
-248.10791015625
-240.78369140625
-241.69921875
-242.61474609375
-242.61474609375
-253.60107421875
-242.61474609375
-238.037109375
-237.12158203125
-220.64208984375
-214.2333984375
-222.47314453125
-216.97998046875
-217.8955078125
-224.30419921875
-227.96630859375
-219.7265625
-211.48681640625
-198.66943359375
-184.9365234375
-187.68310546875
-191.34521484375
-198.66943359375
-198.66943359375
-196.83837890625
-199.5849609375
-203.2470703125
-195.00732421875
-186.767578125
-177.6123046875
-183.10546875
-189.51416015625
-194.091796875
-193.17626953125
-199.5849609375
-206.9091796875
-208.740234375
-190.4296875
-179.443359375
-186.767578125
-182.18994140625
-184.02099609375
-191.34521484375
-209.65576171875
-209.65576171875
-206.9091796875
-209.65576171875
-197.75390625
-197.75390625
-195.00732421875
-192.2607421875
-204.16259765625
-216.97998046875
-217.8955078125
-229.79736328125
-240.78369140625
-239.8681640625
-227.96630859375
-231.62841796875
-226.13525390625
-229.79736328125
-243.5302734375
-249.93896484375
-251.77001953125
-260.009765625
-268.24951171875
-268.24951171875
-263.671875
-270.99609375
-263.671875
-260.92529296875
-279.23583984375
-281.982421875
-290.22216796875
-291.1376953125
-297.54638671875
-290.22216796875
-284.72900390625
-284.72900390625
-270.08056640625
-267.333984375
-279.23583984375
-289.306640625
-297.54638671875
-304.87060546875
-307.6171875
-302.1240234375
-295.71533203125
-291.1376953125
-282.89794921875
-277.40478515625
-288.39111328125
-294.7998046875
-298.4619140625
-310.36376953125
-302.1240234375
-303.03955078125
-294.7998046875
-281.982421875
-284.72900390625
-282.89794921875
-292.05322265625
-298.4619140625
-305.7861328125
-314.02587890625
-314.02587890625
-304.87060546875
-288.39111328125
-275.57373046875
-263.671875
-268.24951171875
-275.57373046875
-281.982421875
-282.89794921875
-282.89794921875
-284.72900390625
-273.74267578125
-272.8271484375
-272.8271484375
-252.685546875
-259.09423828125
-260.92529296875
-260.009765625
-267.333984375
-264.58740234375
-268.24951171875
-260.92529296875
-259.09423828125
-252.685546875
-238.037109375
-237.12158203125
-239.8681640625
-232.5439453125
-228.8818359375
-236.2060546875
-223.388671875
-203.2470703125
-192.2607421875
-181.2744140625
-163.87939453125
-166.6259765625
-166.6259765625
-166.6259765625
-175.78125
-184.9365234375
-184.02099609375
-172.119140625
-163.87939453125
-149.23095703125
-122.6806640625
-112.60986328125
-110.77880859375
-114.44091796875
-130.92041015625
-133.6669921875
-136.41357421875
-120.849609375
-128.173828125
-125.42724609375
-114.44091796875
-116.27197265625
-126.3427734375
-139.16015625
-150.146484375
-163.87939453125
-184.9365234375
-203.2470703125
-219.7265625
-231.62841796875
-233.45947265625
-230.712890625
-249.0234375
-263.671875
-281.06689453125
-281.06689453125
-290.22216796875
-287.4755859375
-281.982421875
-280.1513671875
-275.57373046875
-281.06689453125
-285.64453125
-296.630859375
-297.54638671875
-309.4482421875
-312.19482421875
-307.6171875
-310.36376953125
-317.68798828125
-311.279296875
-311.279296875
-317.68798828125
-321.35009765625
-315.85693359375
-333.251953125
-339.66064453125
-335.0830078125
-327.7587890625
-325.01220703125
-314.94140625
-314.02587890625
-321.35009765625
-330.50537109375
-335.0830078125
-336.9140625
-346.98486328125
-341.49169921875
-328.67431640625
-326.84326171875
-325.927734375
-318.603515625
-324.0966796875
-331.4208984375
-339.66064453125
-351.5625
-348.81591796875
-340.576171875
-345.15380859375
-339.66064453125
-338.7451171875
-360.7177734375
-387.26806640625
-397.3388671875
-407.40966796875
-398.25439453125
-369.873046875
-324.0966796875
-286.56005859375
-213.31787109375
-60.4248046875
101.62353515625
291.1376953125
460.51025390625
641.78466796875
792.8466796875
886.23046875
963.134765625
1041.8701171875
1059.26513671875
1013.48876953125
844.1162109375
560.302734375
245.361328125
-65.91796875
-311.279296875
-453.18603515625
-493.46923828125
-483.3984375
-461.42578125
-436.70654296875
-410.15625
-390.0146484375
-368.95751953125
-346.0693359375
-332.33642578125
-324.0966796875
-306.70166015625
-292.05322265625
-290.22216796875
-280.1513671875
-282.89794921875
-293.88427734375
-301.20849609375
-307.6171875
-312.19482421875
-303.03955078125
-294.7998046875
-300.29296875
-298.4619140625
-282.89794921875
-281.982421875
-295.71533203125
-294.7998046875
-295.71533203125
-300.29296875
-295.71533203125
-288.39111328125
-289.306640625
-287.4755859375
-275.57373046875
-271.91162109375
-273.74267578125
-277.40478515625
-281.06689453125
-294.7998046875
-295.71533203125
-281.982421875
-270.99609375
-263.671875
-251.77001953125
-259.09423828125
-256.34765625
-260.92529296875
-260.92529296875
-273.74267578125
-275.57373046875
-255.43212890625
-248.10791015625
-250.8544921875
-239.8681640625
-238.95263671875
-239.8681640625
-239.8681640625
-237.12158203125
-244.44580078125
-242.61474609375
-236.2060546875
-231.62841796875
-221.5576171875
-216.97998046875
-211.48681640625
-213.31787109375
-216.97998046875
-218.81103515625
-220.64208984375
-216.97998046875
-211.48681640625
-207.82470703125
-202.33154296875
-195.9228515625
-200.50048828125
-208.740234375
-210.5712890625
-208.740234375
-225.2197265625
-227.05078125
-220.64208984375
-214.2333984375
-201.416015625
-191.34521484375
-208.740234375
-209.65576171875
-213.31787109375
-213.31787109375
-223.388671875
-217.8955078125
-215.14892578125
-216.064453125
-210.5712890625
-203.2470703125
-201.416015625
-208.740234375
-207.82470703125
-225.2197265625
-231.62841796875
-230.712890625
-224.30419921875
-219.7265625
-220.64208984375
-218.81103515625
-223.388671875
-225.2197265625
-237.12158203125
-239.8681640625
-255.43212890625
-267.333984375
-263.671875
-259.09423828125
-260.009765625
-251.77001953125
-250.8544921875
-263.671875
-275.57373046875
-279.23583984375
-294.7998046875
-298.4619140625
-288.39111328125
-283.8134765625
-283.8134765625
-272.8271484375
-270.08056640625
-281.06689453125
-299.37744140625
-291.1376953125
-298.4619140625
-303.955078125
-293.88427734375
-293.88427734375
-294.7998046875
-285.64453125
-287.4755859375
-299.37744140625
-306.70166015625
-312.19482421875
-318.603515625
-314.02587890625
-304.87060546875
-299.37744140625
-293.88427734375
-285.64453125
-279.23583984375
-297.54638671875
-310.36376953125
-298.4619140625
-309.4482421875
-319.51904296875
-307.6171875
-303.955078125
-306.70166015625
-292.96875
-293.88427734375
-292.96875
-294.7998046875
-303.955078125
-307.6171875
-314.94140625
-301.20849609375
-294.7998046875
-296.630859375
-284.72900390625
-281.982421875
-284.72900390625
-274.658203125
-283.8134765625
-299.37744140625
-295.71533203125
-279.23583984375
-276.4892578125
-273.74267578125
-261.8408203125
-263.671875
-260.92529296875
-269.1650390625
-272.8271484375
-283.8134765625
-280.1513671875
-271.91162109375
-265.5029296875
-254.5166015625
-241.69921875
-231.62841796875
-221.5576171875
-216.064453125
-216.064453125
-219.7265625
-211.48681640625
-209.65576171875
-196.83837890625
-183.10546875
-170.2880859375
-177.6123046875
-183.10546875
-190.4296875
-184.9365234375
-184.02099609375
-162.04833984375
-140.07568359375
-130.92041015625
-120.849609375
-117.1875
-123.59619140625
-132.75146484375
-140.9912109375
-153.80859375
-154.72412109375
-153.80859375
-139.16015625
-138.24462890625
-141.90673828125
-135.498046875
-154.72412109375
-178.52783203125
-205.078125
-238.037109375
-250.8544921875
-261.8408203125
-260.92529296875
-256.34765625
-261.8408203125
-260.009765625
-265.5029296875
-276.4892578125
-294.7998046875
-290.22216796875
-292.96875
-303.955078125
-300.29296875
-303.955078125
-293.88427734375
-289.306640625
-299.37744140625
-308.53271484375
-303.03955078125
-300.29296875
-318.603515625
-312.19482421875
-311.279296875
-306.70166015625
-310.36376953125
-307.6171875
-314.02587890625
-326.84326171875
-327.7587890625
-331.4208984375
-335.0830078125
-321.35009765625
-324.0966796875
-332.33642578125
-325.927734375
-312.19482421875
-314.02587890625
-320.4345703125
-322.265625
-319.51904296875
-332.33642578125
-339.66064453125
-334.16748046875
-320.4345703125
-317.68798828125
-302.1240234375
-297.54638671875
-313.1103515625
-323.18115234375
-334.16748046875
-345.15380859375
-355.224609375
-361.63330078125
-376.28173828125
-385.43701171875
-393.6767578125
-385.43701171875
-370.78857421875
-323.18115234375
-292.05322265625
-254.5166015625
-137.3291015625
29.296875
200.50048828125
405.57861328125
596.923828125
759.8876953125
856.93359375
924.6826171875
997.00927734375
1030.8837890625
1007.080078125
899.96337890625
658.26416015625
370.78857421875
61.34033203125
-212.40234375
-391.845703125
-468.75
-488.8916015625
-479.736328125
-461.42578125
-437.6220703125
-411.07177734375
-381.77490234375
-336.9140625
-301.20849609375
-299.37744140625
-304.87060546875
-302.1240234375
-303.955078125
-302.1240234375
-301.20849609375
-303.03955078125
-302.1240234375
-293.88427734375
-293.88427734375
-292.05322265625
-294.7998046875
-309.4482421875
-316.7724609375
-314.02587890625
-300.29296875
-292.96875
-292.05322265625
-276.4892578125
-273.74267578125
-288.39111328125
-290.22216796875
-285.64453125
-297.54638671875
-299.37744140625
-291.1376953125
-279.23583984375
-268.24951171875
-254.5166015625
-250.8544921875
-264.58740234375
-270.99609375
-278.3203125
-286.56005859375
-288.39111328125
-269.1650390625
-259.09423828125
-255.43212890625
-249.93896484375
-260.92529296875
-260.009765625
-248.10791015625
-246.27685546875
-266.41845703125
-261.8408203125
-255.43212890625
-249.0234375
-229.79736328125
-220.64208984375
-226.13525390625
-221.5576171875
-232.5439453125
-228.8818359375
-234.375
-238.037109375
-222.47314453125
-214.2333984375
-204.16259765625
-195.00732421875
-200.50048828125
-205.078125
-205.99365234375
-210.5712890625
-221.5576171875
-212.40234375
-194.091796875
-207.82470703125
-209.65576171875
-202.33154296875
-200.50048828125
-205.078125
-210.5712890625
-215.14892578125
-227.96630859375
-225.2197265625
-213.31787109375
-213.31787109375
-212.40234375
-195.9228515625
-188.5986328125
-197.75390625
-213.31787109375
-212.40234375
-218.81103515625
-215.14892578125
-212.40234375
-213.31787109375
-205.078125
-197.75390625
-198.66943359375
-211.48681640625
-225.2197265625
-235.29052734375
-234.375
-233.45947265625
-234.375
-228.8818359375
-228.8818359375
-224.30419921875
-238.95263671875
-247.1923828125
-258.1787109375
-260.92529296875
-266.41845703125
-260.92529296875
-262.75634765625
-264.58740234375
-261.8408203125
-253.60107421875
-262.75634765625
-269.1650390625
-275.57373046875
-285.64453125
-295.71533203125
-288.39111328125
-288.39111328125
-291.1376953125
-284.72900390625
-269.1650390625
-270.99609375
-281.982421875
-286.56005859375
-299.37744140625
-311.279296875
-300.29296875
-289.306640625
-292.96875
-288.39111328125
-279.23583984375
-292.96875
-300.29296875
-302.1240234375
-307.6171875
-307.6171875
-293.88427734375
-289.306640625
-292.05322265625
-290.22216796875
-278.3203125
-280.1513671875
-289.306640625
-291.1376953125
-294.7998046875
-301.20849609375
-293.88427734375
-290.22216796875
-283.8134765625
-274.658203125
-265.5029296875
-258.1787109375
-261.8408203125
-257.26318359375
-264.58740234375
-266.41845703125
-276.4892578125
-267.333984375
-262.75634765625
-257.26318359375
-245.361328125
-245.361328125
-255.43212890625
-258.1787109375
-254.5166015625
-259.09423828125
-249.0234375
-226.13525390625
-209.65576171875
-204.16259765625
-183.10546875
-175.78125
-183.10546875
-188.5986328125
-178.52783203125
-184.02099609375
-181.2744140625
-164.794921875
-159.3017578125
-165.71044921875
-147.39990234375
-141.90673828125
-142.822265625
-129.08935546875
-122.6806640625
-119.0185546875
-115.3564453125
-112.60986328125
-111.6943359375
-103.45458984375
-95.21484375
-103.45458984375
-108.0322265625
-119.93408203125
-121.76513671875
-133.6669921875
-140.9912109375
-140.07568359375
-161.1328125
-180.35888671875
-188.5986328125
-210.5712890625
-232.5439453125
-242.61474609375
-249.93896484375
-263.671875
-271.91162109375
-274.658203125
-272.8271484375
-278.3203125
-265.5029296875
-271.91162109375
-283.8134765625
-289.306640625
-292.96875
-312.19482421875
-323.18115234375
-313.1103515625
-305.7861328125
-301.20849609375
-298.4619140625
-304.87060546875
-305.7861328125
-313.1103515625
-320.4345703125
-334.16748046875
-328.67431640625
-322.265625
-325.01220703125
-324.0966796875
-316.7724609375
-314.94140625
-327.7587890625
-325.927734375
-333.251953125
-335.99853515625
-335.0830078125
-330.50537109375
-325.01220703125
-326.84326171875
-321.35009765625
-312.19482421875
-325.927734375
-330.50537109375
-339.66064453125
-344.23828125
-340.576171875
-338.7451171875
-332.33642578125
-329.58984375
-331.4208984375
-347.900390625
-368.95751953125
-393.6767578125
-417.48046875
-438.53759765625
-433.04443359375
-415.6494140625
-384.521484375
-339.66064453125
-286.56005859375
-216.97998046875
-91.552734375
68.66455078125
262.75634765625
437.6220703125
634.46044921875
776.3671875
871.58203125
952.1484375
1026.30615234375
1044.61669921875
986.02294921875
812.07275390625
521.8505859375
215.14892578125
-93.3837890625
-314.02587890625
-436.70654296875
-472.412109375
-451.35498046875
-445.86181640625
-444.03076171875
-428.466796875
-414.73388671875
-401.91650390625
-370.78857421875
-338.7451171875
-320.4345703125
-316.7724609375
-295.71533203125
-289.306640625
-286.56005859375
-291.1376953125
-290.22216796875
-298.4619140625
-300.29296875
-305.7861328125
-306.70166015625
-302.1240234375
-289.306640625
-291.1376953125
-300.29296875
-307.6171875
-307.6171875
-305.7861328125
-303.03955078125
-292.05322265625
-282.89794921875
-285.64453125
-273.74267578125
-274.658203125
-281.06689453125
-281.982421875
-281.06689453125
-284.72900390625
-287.4755859375
-281.982421875
-271.91162109375
-264.58740234375
-260.92529296875
-263.671875
-262.75634765625
-262.75634765625
-270.99609375
-276.4892578125
-272.8271484375
-260.92529296875
-258.1787109375
-258.1787109375
-245.361328125
-239.8681640625
-238.95263671875
-244.44580078125
-236.2060546875
-246.27685546875
-244.44580078125
-237.12158203125
-237.12158203125
-230.712890625
-215.14892578125
-207.82470703125
-218.81103515625
-223.388671875
-227.05078125
-226.13525390625
-229.79736328125
-213.31787109375
-209.65576171875
-211.48681640625
-194.091796875
-200.50048828125
-218.81103515625
-220.64208984375
-219.7265625
-228.8818359375
-226.13525390625
-217.8955078125
-214.2333984375
-221.5576171875
-210.5712890625
-211.48681640625
-220.64208984375
-238.95263671875
-245.361328125
-249.93896484375
-253.60107421875
-233.45947265625
-224.30419921875
-211.48681640625
-199.5849609375
-195.9228515625
-206.9091796875
-213.31787109375
-228.8818359375
-236.2060546875
-238.037109375
-234.375
-227.05078125
-226.13525390625
-208.740234375
-212.40234375
-230.712890625
-240.78369140625
-243.5302734375
-255.43212890625
-248.10791015625
-249.0234375
-250.8544921875
-251.77001953125
-242.61474609375
-254.5166015625
-270.99609375
-277.40478515625
-280.1513671875
-290.22216796875
-290.22216796875
-290.22216796875
-282.89794921875
-287.4755859375
-262.75634765625
-270.08056640625
-281.982421875
-288.39111328125
-291.1376953125
-307.6171875
-305.7861328125
-300.29296875
-298.4619140625
-301.20849609375
-289.306640625
-289.306640625
-294.7998046875
-305.7861328125
-314.94140625
-321.35009765625
-314.94140625
-304.87060546875
-302.1240234375
-299.37744140625
-290.22216796875
-290.22216796875
-304.87060546875
-297.54638671875
-301.20849609375
-308.53271484375
-303.03955078125
-299.37744140625
-290.22216796875
-285.64453125
-277.40478515625
-280.1513671875
-281.06689453125
-292.05322265625
-292.05322265625
-293.88427734375
-293.88427734375
-289.306640625
-288.39111328125
-279.23583984375
-264.58740234375
-263.671875
-269.1650390625
-270.08056640625
-264.58740234375
-265.5029296875
-261.8408203125
-233.45947265625
-235.29052734375
-238.95263671875
-217.8955078125
-211.48681640625
-216.97998046875
-209.65576171875
-216.97998046875
-223.388671875
-209.65576171875
-206.9091796875
-198.66943359375
-193.17626953125
-165.71044921875
-150.146484375
-147.39990234375
-146.484375
-150.146484375
-160.21728515625
-158.38623046875
-147.39990234375
-135.498046875
-137.3291015625
-125.42724609375
-123.59619140625
-130.0048828125
-145.56884765625
-153.80859375
-175.78125
-185.85205078125
-194.091796875
-211.48681640625
-228.8818359375
-230.712890625
-245.361328125
-254.5166015625
-265.5029296875
-274.658203125
-293.88427734375
-297.54638671875
-291.1376953125
-301.20849609375
-293.88427734375
-293.88427734375
-287.4755859375
-291.1376953125
-304.87060546875
-315.85693359375
-328.67431640625
-325.01220703125
-320.4345703125
-316.7724609375
-325.01220703125
-311.279296875
-318.603515625
-341.49169921875
-335.0830078125
-341.49169921875
-361.63330078125
-353.3935546875
-345.15380859375
-341.49169921875
-340.576171875
-329.58984375
-332.33642578125
-339.66064453125
-333.251953125
-341.49169921875
-356.14013671875
-356.14013671875
-342.4072265625
-346.0693359375
-346.0693359375
-334.16748046875
-344.23828125
-351.5625
-350.64697265625
-352.47802734375
-355.224609375
-360.7177734375
-368.95751953125
-361.63330078125
-366.2109375
-369.873046875
-383.60595703125
-391.845703125
-418.39599609375
-436.70654296875
-432.12890625
-422.05810546875
-394.59228515625
-359.80224609375
-281.06689453125
-145.56884765625
11.90185546875
207.82470703125
388.18359375
576.7822265625
709.53369140625
796.5087890625
877.99072265625
943.90869140625
988.76953125
971.37451171875
841.36962890625
599.67041015625
337.82958984375
26.55029296875
-235.29052734375
-368.0419921875
-414.73388671875
-433.9599609375
-455.9326171875
-452.2705078125
-459.5947265625
-450.439453125
-429.38232421875
-416.56494140625
-406.494140625
-384.521484375
-362.548828125
-343.32275390625
-321.35009765625
-319.51904296875
-319.51904296875
-325.927734375
-331.4208984375
-340.576171875
-343.32275390625
-344.23828125
-335.99853515625
-334.16748046875
-331.4208984375
-321.35009765625
-318.603515625
-325.927734375
-325.927734375
-332.33642578125
-344.23828125
-333.251953125
-327.7587890625
-328.67431640625
-322.265625
-300.29296875
-305.7861328125
-314.94140625
-317.68798828125
-320.4345703125
-327.7587890625
-325.01220703125
-318.603515625
-301.20849609375
-307.6171875
-294.7998046875
-293.88427734375
-292.96875
-293.88427734375
-294.7998046875
-298.4619140625
-297.54638671875
-290.22216796875
-280.1513671875
-273.74267578125
-260.92529296875
-266.41845703125
-268.24951171875
-281.06689453125
-285.64453125
-292.05322265625
-288.39111328125
-276.4892578125
-267.333984375
-262.75634765625
-255.43212890625
-262.75634765625
-270.99609375
-270.08056640625
-272.8271484375
-272.8271484375
-270.08056640625
-257.26318359375
-242.61474609375
-244.44580078125
-256.34765625
-258.1787109375
-263.671875
-267.333984375
-272.8271484375
-268.24951171875
-269.1650390625
-264.58740234375
-260.009765625
-259.09423828125
-249.93896484375
-257.26318359375
-277.40478515625
-270.08056640625
-262.75634765625
-270.99609375
-263.671875
-260.92529296875
-252.685546875
-252.685546875
-239.8681640625
-245.361328125
-248.10791015625
-254.5166015625
-269.1650390625
-271.91162109375
-267.333984375
-261.8408203125
-256.34765625
-253.60107421875
-248.10791015625
-261.8408203125
-276.4892578125
-274.658203125
-266.41845703125
-280.1513671875
-286.56005859375
-275.57373046875
-284.72900390625
-288.39111328125
-275.57373046875
-276.4892578125
-303.03955078125
-311.279296875
-313.1103515625
-323.18115234375
-324.0966796875
-317.68798828125
-313.1103515625
-305.7861328125
-300.29296875
-297.54638671875
-310.36376953125
-314.94140625
-321.35009765625
-335.0830078125
-334.16748046875
-325.01220703125
-330.50537109375
-315.85693359375
-308.53271484375
-314.94140625
-316.7724609375
-328.67431640625
-335.99853515625
-338.7451171875
-332.33642578125
-320.4345703125
-318.603515625
-316.7724609375
-294.7998046875
-302.1240234375
-305.7861328125
-304.87060546875
-321.35009765625
-328.67431640625
-317.68798828125
-304.87060546875
-300.29296875
-300.29296875
-299.37744140625
-291.1376953125
-299.37744140625
-303.955078125
-310.36376953125
-309.4482421875
-298.4619140625
-295.71533203125
-284.72900390625
-277.40478515625
-259.09423828125
-260.009765625
-257.26318359375
-261.8408203125
-259.09423828125
-261.8408203125
-246.27685546875
-242.61474609375
-235.29052734375
-232.5439453125
-216.97998046875
-226.13525390625
-221.5576171875
-217.8955078125
-222.47314453125
-226.13525390625
-222.47314453125
-195.9228515625
-170.2880859375
-156.55517578125
-151.9775390625
-150.146484375
-161.1328125
-162.04833984375
-162.9638671875
-163.87939453125
-151.06201171875
-148.3154296875
-147.39990234375
-151.06201171875
-142.822265625
-161.1328125
-182.18994140625
-207.82470703125
-243.5302734375
-261.8408203125
-271.91162109375
-281.06689453125
-275.57373046875
-272.8271484375
-271.91162109375
-270.99609375
-289.306640625
-292.05322265625
-303.955078125
-322.265625
-325.927734375
-314.02587890625
-315.85693359375
-315.85693359375
-317.68798828125
-328.67431640625
-330.50537109375
-339.66064453125
-340.576171875
-346.98486328125
-345.15380859375
-347.900390625
-338.7451171875
-326.84326171875
-327.7587890625
-339.66064453125
-344.23828125
-346.0693359375
-354.30908203125
-358.88671875
-363.46435546875
-358.88671875
-357.0556640625
-347.900390625
-335.99853515625
-346.0693359375
-360.7177734375
-360.7177734375
-358.88671875
-372.61962890625
-368.0419921875
-363.46435546875
-351.5625
-347.900390625
-344.23828125
-343.32275390625
-352.47802734375
-366.2109375
-375.3662109375
-396.42333984375
-401.0009765625
-407.40966796875
-417.48046875
-423.88916015625
-429.38232421875
-432.12890625
-424.8046875
-408.3251953125
-384.521484375
-358.88671875
-271.91162109375
-119.93408203125
53.1005859375
255.43212890625
444.9462890625
623.47412109375
736.083984375
822.1435546875
877.0751953125
907.28759765625
939.3310546875
916.44287109375
794.677734375
569.4580078125
307.6171875
-10.986328125
-261.8408203125
-388.18359375
-429.38232421875
-454.1015625
-475.15869140625
-485.2294921875
-466.9189453125
-442.19970703125
-409.24072265625
-402.83203125
-389.09912109375
-368.0419921875
-353.3935546875
-349.7314453125
-338.7451171875
-341.49169921875
-325.927734375
-316.7724609375
-300.29296875
-311.279296875
-332.33642578125
-334.16748046875
-330.50537109375
-340.576171875
-328.67431640625
-334.16748046875
-327.7587890625
-321.35009765625
-309.4482421875
-306.70166015625
-320.4345703125
-326.84326171875
-325.01220703125
-325.01220703125
-323.18115234375
-318.603515625
-314.02587890625
-311.279296875
-304.87060546875
-304.87060546875
-307.6171875
-308.53271484375
-313.1103515625
-324.0966796875
-319.51904296875
-311.279296875
-301.20849609375
-293.88427734375
-289.306640625
-306.70166015625
-289.306640625
-292.05322265625
-293.88427734375
-299.37744140625
-299.37744140625
-290.22216796875
-285.64453125
-280.1513671875
-262.75634765625
-265.5029296875
-275.57373046875
-283.8134765625
-283.8134765625
-288.39111328125
-281.982421875
-273.74267578125
-260.009765625
-255.43212890625
-241.69921875
-254.5166015625
-271.91162109375
-277.40478515625
-268.24951171875
-279.23583984375
-275.57373046875
-272.8271484375
-270.08056640625
-260.92529296875
-252.685546875
-259.09423828125
-269.1650390625
-273.74267578125
-276.4892578125
-289.306640625
-284.72900390625
-277.40478515625
-268.24951171875
-264.58740234375
-260.009765625
-269.1650390625
-274.658203125
-281.982421875
-273.74267578125
-279.23583984375
-286.56005859375
-279.23583984375
-270.99609375
-254.5166015625
-240.78369140625
-240.78369140625
-249.0234375
-264.58740234375
-276.4892578125
-285.64453125
-287.4755859375
-277.40478515625
-272.8271484375
-271.91162109375
-268.24951171875
-274.658203125
-289.306640625
-293.88427734375
-293.88427734375
-311.279296875
-311.279296875
-299.37744140625
-302.1240234375
-302.1240234375
-299.37744140625
-304.87060546875
-310.36376953125
-314.94140625
-318.603515625
-335.0830078125
-332.33642578125
-323.18115234375
-320.4345703125
-322.265625
-309.4482421875
-314.94140625
-325.01220703125
-332.33642578125
-343.32275390625
-351.5625
-338.7451171875
-327.7587890625
-326.84326171875
-318.603515625
-304.87060546875
-314.02587890625
-325.01220703125
-328.67431640625
-330.50537109375
-335.99853515625
-329.58984375
-326.84326171875
-324.0966796875
-314.02587890625
-307.6171875
-309.4482421875
-320.4345703125
-319.51904296875
-318.603515625
-329.58984375
-325.01220703125
-324.0966796875
-320.4345703125
-314.94140625
-309.4482421875
-301.20849609375
-305.7861328125
-309.4482421875
-312.19482421875
-308.53271484375
-299.37744140625
-274.658203125
-268.24951171875
-252.685546875
-241.69921875
-239.8681640625
-238.037109375
-236.2060546875
-236.2060546875
-244.44580078125
-243.5302734375
-237.12158203125
-227.05078125
-212.40234375
-197.75390625
-198.66943359375
-198.66943359375
-193.17626953125
-180.35888671875
-187.68310546875
-182.18994140625
-178.52783203125
-176.69677734375
-171.20361328125
-154.72412109375
-154.72412109375
-155.6396484375
-163.87939453125
-170.2880859375
-184.02099609375
-182.18994140625
-184.9365234375
-201.416015625
-211.48681640625
-220.64208984375
-243.5302734375
-265.5029296875
-272.8271484375
-277.40478515625
-292.96875
-297.54638671875
-301.20849609375
-304.87060546875
-302.1240234375
-300.29296875
-304.87060546875
-312.19482421875
-325.01220703125
-333.251953125
-337.82958984375
-339.66064453125
-335.0830078125
-330.50537109375
-329.58984375
-323.18115234375
-329.58984375
-341.49169921875
-350.64697265625
-354.30908203125
-357.0556640625
-352.47802734375
-347.900390625
-347.900390625
-340.576171875
-335.99853515625
-346.0693359375
-354.30908203125
-359.80224609375
-359.80224609375
-370.78857421875
-363.46435546875
-356.14013671875
-357.0556640625
-356.14013671875
-346.98486328125
-350.64697265625
-357.97119140625
-364.3798828125
-371.7041015625
-383.60595703125
-369.873046875
-367.12646484375
-362.548828125
-366.2109375
-358.88671875
-357.97119140625
-382.6904296875
-401.91650390625
-416.56494140625
-444.03076171875
-452.2705078125
-458.67919921875
-448.6083984375
-423.88916015625
-374.45068359375
-357.0556640625
-299.37744140625
-175.78125
-23.8037109375
161.1328125
346.98486328125
534.66796875
692.138671875
799.25537109375
889.892578125
941.162109375
974.12109375
958.55712890625
857.84912109375
652.77099609375
387.26806640625
68.66455078125
-209.65576171875
-371.7041015625
-442.19970703125
-463.2568359375
-484.31396484375
-497.13134765625
-493.46923828125
-467.83447265625
-433.04443359375
-417.48046875
-385.43701171875
-347.900390625
-333.251953125
-324.0966796875
-333.251953125
-344.23828125
-347.900390625
-347.900390625
-346.0693359375
-338.7451171875
-338.7451171875
-328.67431640625
-313.1103515625
-317.68798828125
-342.4072265625
-339.66064453125
-342.4072265625
-343.32275390625
-338.7451171875
-332.33642578125
-331.4208984375
-320.4345703125
-307.6171875
-315.85693359375
-321.35009765625
-323.18115234375
-327.7587890625
-332.33642578125
-330.50537109375
-320.4345703125
-316.7724609375
-311.279296875
-303.03955078125
-299.37744140625
-303.955078125
-311.279296875
-316.7724609375
-315.85693359375
-314.94140625
-307.6171875
-298.4619140625
-292.05322265625
-286.56005859375
-289.306640625
-285.64453125
-298.4619140625
-299.37744140625
-296.630859375
-295.71533203125
-284.72900390625
-276.4892578125
-266.41845703125
-261.8408203125
-262.75634765625
-271.91162109375
-277.40478515625
-279.23583984375
-279.23583984375
-264.58740234375
-258.1787109375
-259.09423828125
-249.93896484375
-237.12158203125
-249.0234375
-255.43212890625
-259.09423828125
-268.24951171875
-280.1513671875
-264.58740234375
-260.009765625
-259.09423828125
-252.685546875
-240.78369140625
-248.10791015625
-251.77001953125
-250.8544921875
-257.26318359375
-270.99609375
-270.99609375
-258.1787109375
-251.77001953125
-250.8544921875
-248.10791015625
-243.5302734375
-247.1923828125
-251.77001953125
-262.75634765625
-261.8408203125
-268.24951171875
-265.5029296875
-263.671875
-258.1787109375
-247.1923828125
-257.26318359375
-267.333984375
-275.57373046875
-280.1513671875
-292.96875
-292.05322265625
-282.89794921875
-278.3203125
-290.22216796875
-277.40478515625
-281.06689453125
-294.7998046875
-303.03955078125
-303.955078125
-317.68798828125
-325.927734375
-310.36376953125
-307.6171875
-308.53271484375
-300.29296875
-303.955078125
-314.02587890625
-317.68798828125
-326.84326171875
-338.7451171875
-336.9140625
-328.67431640625
-323.18115234375
-319.51904296875
-319.51904296875
-320.4345703125
-327.7587890625
-340.576171875
-341.49169921875
-345.15380859375
-343.32275390625
-343.32275390625
-339.66064453125
-325.01220703125
-313.1103515625
-330.50537109375
-340.576171875
-335.0830078125
-336.9140625
-346.98486328125
-337.82958984375
-333.251953125
-325.927734375
-312.19482421875
-306.70166015625
-316.7724609375
-325.927734375
-332.33642578125
-323.18115234375
-335.0830078125
-324.0966796875
-310.36376953125
-309.4482421875
-309.4482421875
-301.20849609375
-292.96875
-302.1240234375
-304.87060546875
-295.71533203125
-284.72900390625
-281.06689453125
-273.74267578125
-258.1787109375
-245.361328125
-229.79736328125
-225.2197265625
-234.375
-229.79736328125
-231.62841796875
-243.5302734375
-232.5439453125
-220.64208984375
-215.14892578125
-206.9091796875
-187.68310546875
-185.85205078125
-177.6123046875
-165.71044921875
-167.54150390625
-189.51416015625
-180.35888671875
-176.69677734375
-165.71044921875
-161.1328125
-151.06201171875
-162.04833984375
-170.2880859375
-177.6123046875
-188.5986328125
-203.2470703125
-211.48681640625
-217.8955078125
-235.29052734375
-251.77001953125
-248.10791015625
-257.26318359375
-274.658203125
-283.8134765625
-291.1376953125
-309.4482421875
-317.68798828125
-318.603515625
-314.94140625
-317.68798828125
-312.19482421875
-319.51904296875
-327.7587890625
-327.7587890625
-335.0830078125
-347.900390625
-342.4072265625
-349.7314453125
-349.7314453125
-341.49169921875
-342.4072265625
-352.47802734375
-359.80224609375
-360.7177734375
-367.12646484375
-377.197265625
-373.53515625
-368.95751953125
-366.2109375
-355.224609375
-353.3935546875
-368.95751953125
-368.95751953125
-377.197265625
-385.43701171875
-393.6767578125
-388.18359375
-379.94384765625
-376.28173828125
-371.7041015625
-351.5625
-369.873046875
-366.2109375
-375.3662109375
-383.60595703125
-391.845703125
-388.18359375
-379.0283203125
-371.7041015625
-370.78857421875
-376.28173828125
-390.93017578125
-428.466796875
-446.77734375
-462.34130859375
-495.30029296875
-479.736328125
-439.453125
-397.3388671875
-354.30908203125
-291.1376953125
-183.10546875
-40.283203125
128.173828125
313.1103515625
487.97607421875
673.828125
791.93115234375
875.244140625
943.90869140625
1013.48876953125
1010.7421875
910.94970703125
678.40576171875
389.09912109375
58.59375
-222.47314453125
-417.48046875
-506.28662109375
-511.77978515625
-495.30029296875
-488.8916015625
-476.07421875
-461.42578125
-440.36865234375
-425.72021484375
-398.25439453125
-367.12646484375
-354.30908203125
-341.49169921875
-341.49169921875
-342.4072265625
-347.900390625
-357.97119140625
-357.0556640625
-365.29541015625
-355.224609375
-349.7314453125
-353.3935546875
-348.81591796875
-336.9140625
-335.99853515625
-344.23828125
-350.64697265625
-354.30908203125
-353.3935546875
-347.900390625
-348.81591796875
-343.32275390625
-334.16748046875
-326.84326171875
-330.50537109375
-339.66064453125
-342.4072265625
-344.23828125
-349.7314453125
-343.32275390625
-335.99853515625
-331.4208984375
-326.84326171875
-311.279296875
-316.7724609375
-325.01220703125
-322.265625
-325.927734375
-333.251953125
-316.7724609375
-312.19482421875
-311.279296875
-308.53271484375
-290.22216796875
-300.29296875
-305.7861328125
-308.53271484375
-314.94140625
-315.85693359375
-302.1240234375
-286.56005859375
-283.8134765625
-281.982421875
-274.658203125
-271.91162109375
-274.658203125
-282.89794921875
-281.06689453125
-287.4755859375
-295.71533203125
-284.72900390625
-271.91162109375
-266.41845703125
-260.009765625
-257.26318359375
-270.08056640625
-273.74267578125
-281.06689453125
-285.64453125
-278.3203125
-273.74267578125
-271.91162109375
-262.75634765625
-260.009765625
-266.41845703125
-277.40478515625
-281.982421875
-286.56005859375
-282.89794921875
-279.23583984375
-270.99609375
-264.58740234375
-260.009765625
-250.8544921875
-262.75634765625
-268.24951171875
-275.57373046875
-289.306640625
-294.7998046875
-286.56005859375
-282.89794921875
-282.89794921875
-281.982421875
-271.91162109375
-280.1513671875
-288.39111328125
-294.7998046875
-314.02587890625
-314.94140625
-313.1103515625
-313.1103515625
-318.603515625
-318.603515625
-311.279296875
-314.02587890625
-326.84326171875
-329.58984375
-338.7451171875
-338.7451171875
-337.82958984375
-328.67431640625
-335.0830078125
-326.84326171875
-323.18115234375
-332.33642578125
-340.576171875
-356.14013671875
-366.2109375
-365.29541015625
-366.2109375
-359.80224609375
-345.15380859375
-349.7314453125
-339.66064453125
-341.49169921875
-355.224609375
-361.63330078125
-368.0419921875
-370.78857421875
-368.0419921875
-353.3935546875
-346.0693359375
-345.15380859375
-345.15380859375
-351.5625
-355.224609375
-357.97119140625
-358.88671875
-370.78857421875
-363.46435546875
-346.98486328125
-349.7314453125
-343.32275390625
-336.9140625
-340.576171875
-351.5625
-352.47802734375
-338.7451171875
-350.64697265625
-351.5625
-337.82958984375
-341.49169921875
-326.84326171875
-316.7724609375
-323.18115234375
-333.251953125
-337.82958984375
-340.576171875
-337.82958984375
-335.0830078125
-318.603515625
-297.54638671875
-280.1513671875
-268.24951171875
-263.671875
-261.8408203125
-263.671875
-266.41845703125
-261.8408203125
-251.77001953125
-241.69921875
-241.69921875
-237.12158203125
-221.5576171875
-218.81103515625
-221.5576171875
-227.05078125
-216.064453125
-205.078125
-195.9228515625
-189.51416015625
-188.5986328125
-181.2744140625
-172.119140625
-177.6123046875
-188.5986328125
-201.416015625
-201.416015625
-200.50048828125
-201.416015625
-205.078125
-213.31787109375
-226.13525390625
-238.95263671875
-261.8408203125
-277.40478515625
-302.1240234375
-314.02587890625
-329.58984375
-332.33642578125
-327.7587890625
-334.16748046875
-335.0830078125
-335.99853515625
-341.49169921875
-344.23828125
-359.80224609375
-364.3798828125
-373.53515625
-368.95751953125
-366.2109375
-359.80224609375
-351.5625
-358.88671875
-365.29541015625
-368.0419921875
-384.521484375
-393.6767578125
-401.0009765625
-396.42333984375
-397.3388671875
-397.3388671875
-389.09912109375
-378.11279296875
-381.77490234375
-386.3525390625
-389.09912109375
-392.76123046875
-400.08544921875
-400.08544921875
-401.91650390625
-401.91650390625
-399.169921875
-386.3525390625
-385.43701171875
-397.3388671875
-407.40966796875
-411.07177734375
-419.3115234375
-414.73388671875
-396.42333984375
-390.93017578125
-384.521484375
-382.6904296875
-395.5078125
-407.40966796875
-422.9736328125
-443.115234375
-460.51025390625
-476.07421875
-483.3984375
-483.3984375
-461.42578125
-416.56494140625
-383.60595703125
-345.15380859375
-280.1513671875
-137.3291015625
12.8173828125
212.40234375
400.08544921875
598.7548828125
767.2119140625
867.919921875
939.3310546875
978.69873046875
1002.50244140625
943.90869140625
758.97216796875
473.32763671875
179.443359375
-138.24462890625
-379.0283203125
-509.033203125
-559.38720703125
-552.978515625
-539.24560546875
-520.93505859375
-497.13134765625
-466.00341796875
-433.9599609375
-400.08544921875
-379.94384765625
-356.14013671875
-349.7314453125
-360.7177734375
-370.78857421875
-374.45068359375
-381.77490234375
-379.0283203125
-368.0419921875
-365.29541015625
-364.3798828125
-348.81591796875
-354.30908203125
-365.29541015625
-362.548828125
-368.0419921875
-383.60595703125
-372.61962890625
-368.0419921875
-368.0419921875
-349.7314453125
-334.16748046875
-339.66064453125
-354.30908203125
-355.224609375
-351.5625
-356.14013671875
-350.64697265625
-341.49169921875
-336.9140625
-326.84326171875
-325.01220703125
-338.7451171875
-339.66064453125
-342.4072265625
-343.32275390625
-349.7314453125
-338.7451171875
-325.927734375
-330.50537109375
-314.94140625
-303.955078125
-303.955078125
-307.6171875
-310.36376953125
-316.7724609375
-314.94140625
-312.19482421875
-301.20849609375
-298.4619140625
-290.22216796875
-282.89794921875
-289.306640625
-293.88427734375
-282.89794921875
-291.1376953125
-290.22216796875
-291.1376953125
-280.1513671875
-276.4892578125
-262.75634765625
-257.26318359375
-271.91162109375
-281.982421875
-281.982421875
-289.306640625
-292.96875
-279.23583984375
-272.8271484375
-276.4892578125
-273.74267578125
-255.43212890625
-258.1787109375
-266.41845703125
-270.08056640625
-270.99609375
-274.658203125
-278.3203125
-280.1513671875
-270.08056640625
-255.43212890625
-265.5029296875
-274.658203125
-277.40478515625
-273.74267578125
-279.23583984375
-276.4892578125
-275.57373046875
-276.4892578125
-274.658203125
-269.1650390625
-258.1787109375
-268.24951171875
-279.23583984375
-287.4755859375
-291.1376953125
-303.955078125
-305.7861328125
-297.54638671875
-296.630859375
-296.630859375
-297.54638671875
-306.70166015625
-312.19482421875
-324.0966796875
-335.0830078125
-335.0830078125
-333.251953125
-331.4208984375
-328.67431640625
-320.4345703125
-323.18115234375
-329.58984375
-338.7451171875
-346.0693359375
-349.7314453125
-364.3798828125
-350.64697265625
-346.98486328125
-346.0693359375
-345.15380859375
-335.0830078125
-343.32275390625
-347.900390625
-359.80224609375
-362.548828125
-365.29541015625
-366.2109375
-358.88671875
-357.0556640625
-339.66064453125
-345.15380859375
-342.4072265625
-348.81591796875
-354.30908203125
-362.548828125
-361.63330078125
-357.97119140625
-343.32275390625
-343.32275390625
-339.66064453125
-335.0830078125
-343.32275390625
-346.0693359375
-349.7314453125
-348.81591796875
-348.81591796875
-343.32275390625
-335.99853515625
-326.84326171875
-329.58984375
-323.18115234375
-325.927734375
-332.33642578125
-335.99853515625
-337.82958984375
-337.82958984375
-325.927734375
-321.35009765625
-319.51904296875
-313.1103515625
-303.03955078125
-302.1240234375
-314.02587890625
-320.4345703125
-322.265625
-321.35009765625
-312.19482421875
-298.4619140625
-282.89794921875
-266.41845703125
-246.27685546875
-238.95263671875
-245.361328125
-248.10791015625
-251.77001953125
-247.1923828125
-234.375
-231.62841796875
-226.13525390625
-220.64208984375
-211.48681640625
-224.30419921875
-228.8818359375
-216.97998046875
-205.99365234375
-198.66943359375
-182.18994140625
-178.52783203125
-180.35888671875
-175.78125
-170.2880859375
-180.35888671875
-184.02099609375
-181.2744140625
-191.34521484375
-197.75390625
-206.9091796875
-195.00732421875
-200.50048828125
-221.5576171875
-235.29052734375
-260.009765625
-281.06689453125
-297.54638671875
-314.02587890625
-325.01220703125
-325.01220703125
-327.7587890625
-331.4208984375
-319.51904296875
-319.51904296875
-328.67431640625
-343.32275390625
-349.7314453125
-360.7177734375
-373.53515625
-364.3798828125
-367.12646484375
-363.46435546875
-355.224609375
-357.97119140625
-368.95751953125
-379.94384765625
-389.09912109375
-388.18359375
-390.0146484375
-383.60595703125
-380.859375
-378.11279296875
-375.3662109375
-368.95751953125
-376.28173828125
-383.60595703125
-395.5078125
-406.494140625
-404.6630859375
-402.83203125
-401.91650390625
-394.59228515625
-384.521484375
-377.197265625
-385.43701171875
-396.42333984375
-394.59228515625
-396.42333984375
-403.74755859375
-403.74755859375
-392.76123046875
-398.25439453125
-386.3525390625
-378.11279296875
-396.42333984375
-409.24072265625
-429.38232421875
-442.19970703125
-462.34130859375
-468.75
-475.15869140625
-473.32763671875
-454.1015625
-400.08544921875
-368.0419921875
-346.0693359375
-271.91162109375
-121.76513671875
32.04345703125
239.8681640625
424.8046875
614.31884765625
759.8876953125
857.84912109375
924.6826171875
980.52978515625
988.76953125
917.3583984375
726.9287109375
456.84814453125
149.23095703125
-171.20361328125
-396.42333984375
-502.62451171875
-541.9921875
-544.73876953125
-531.92138671875
-515.44189453125
-494.384765625
-467.83447265625
-439.453125
-405.57861328125
-380.859375
-357.97119140625
-359.80224609375
-368.0419921875
-365.29541015625
-367.12646484375
-373.53515625
-364.3798828125
-366.2109375
-357.97119140625
-352.47802734375
-345.15380859375
-348.81591796875
-357.97119140625
-359.80224609375
-357.0556640625
-361.63330078125
-360.7177734375
-354.30908203125
-352.47802734375
-339.66064453125
-335.99853515625
-335.0830078125
-342.4072265625
-348.81591796875
-356.14013671875
-358.88671875
-353.3935546875
-344.23828125
-336.9140625
-326.84326171875
-317.68798828125
-322.265625
-329.58984375
-335.0830078125
-341.49169921875
-344.23828125
-335.0830078125
-333.251953125
-322.265625
-303.955078125
-302.1240234375
-307.6171875
-310.36376953125
-314.94140625
-322.265625
-317.68798828125
-314.02587890625
-311.279296875
-302.1240234375
-286.56005859375
-275.57373046875
-279.23583984375
-288.39111328125
-287.4755859375
-295.71533203125
-298.4619140625
-291.1376953125
-283.8134765625
-276.4892578125
-272.8271484375
-260.92529296875
-267.333984375
-270.99609375
-264.58740234375
-270.99609375
-281.06689453125
-280.1513671875
-274.658203125
-271.91162109375
-262.75634765625
-257.26318359375
-270.08056640625
-279.23583984375
-280.1513671875
-278.3203125
-293.88427734375
-284.72900390625
-278.3203125
-263.671875
-260.009765625
-254.5166015625
-258.1787109375
-263.671875
-265.5029296875
-270.99609375
-286.56005859375
-281.06689453125
-269.1650390625
-266.41845703125
-270.08056640625
-256.34765625
-265.5029296875
-275.57373046875
-286.56005859375
-289.306640625
-293.88427734375
-296.630859375
-291.1376953125
-291.1376953125
-281.06689453125
-284.72900390625
-293.88427734375
-304.87060546875
-311.279296875
-322.265625
-332.33642578125
-329.58984375
-325.01220703125
-325.01220703125
-325.927734375
-318.603515625
-327.7587890625
-332.33642578125
-335.0830078125
-345.15380859375
-352.47802734375
-339.66064453125
-344.23828125
-352.47802734375
-334.16748046875
-335.0830078125
-344.23828125
-349.7314453125
-350.64697265625
-357.97119140625
-367.12646484375
-357.97119140625
-352.47802734375
-353.3935546875
-343.32275390625
-337.82958984375
-346.98486328125
-343.32275390625
-350.64697265625
-364.3798828125
-362.548828125
-355.224609375
-348.81591796875
-346.0693359375
-343.32275390625
-327.7587890625
-328.67431640625
-335.99853515625
-340.576171875
-342.4072265625
-357.0556640625
-352.47802734375
-336.9140625
-333.251953125
-332.33642578125
-325.927734375
-338.7451171875
-333.251953125
-325.01220703125
-325.01220703125
-326.84326171875
-324.0966796875
-314.94140625
-312.19482421875
-309.4482421875
-304.87060546875
-308.53271484375
-319.51904296875
-314.02587890625
-318.603515625
-327.7587890625
-321.35009765625
-318.603515625
-319.51904296875
-307.6171875
-305.7861328125
-316.7724609375
-317.68798828125
-314.94140625
-314.02587890625
-304.87060546875
-286.56005859375
-272.8271484375
-267.333984375
-252.685546875
-238.95263671875
-235.29052734375
-244.44580078125
-247.1923828125
-252.685546875
-247.1923828125
-238.037109375
-237.12158203125
-233.45947265625
-219.7265625
-204.16259765625
-197.75390625
-187.68310546875
-180.35888671875
-182.18994140625
-198.66943359375
-205.99365234375
-189.51416015625
-187.68310546875
-178.52783203125
-164.794921875
-172.119140625
-184.02099609375
-205.99365234375
-216.97998046875
-228.8818359375
-244.44580078125
-259.09423828125
-268.24951171875
-277.40478515625
-292.96875
-310.36376953125
-321.35009765625
-318.603515625
-335.99853515625
-346.0693359375
-339.66064453125
-336.9140625
-338.7451171875
-328.67431640625
-332.33642578125
-343.32275390625
-356.14013671875
-363.46435546875
-375.3662109375
-382.6904296875
-368.95751953125
-359.80224609375
-356.14013671875
-352.47802734375
-352.47802734375
-362.548828125
-367.12646484375
-369.873046875
-387.26806640625
-393.6767578125
-386.3525390625
-376.28173828125
-382.6904296875
-377.197265625
-378.11279296875
-387.26806640625
-394.59228515625
-390.93017578125
-397.3388671875
-397.3388671875
-393.6767578125
-396.42333984375
-388.18359375
-379.94384765625
-372.61962890625
-378.11279296875
-383.60595703125
-392.76123046875
-396.42333984375
-397.3388671875
-390.0146484375
-389.09912109375
-385.43701171875
-385.43701171875
-395.5078125
-411.07177734375
-438.53759765625
-450.439453125
-469.66552734375
-468.75
-438.53759765625
-410.15625
-357.97119140625
-304.87060546875
-209.65576171875
-70.49560546875
88.80615234375
286.56005859375
459.5947265625
635.3759765625
762.63427734375
854.18701171875
927.42919921875
987.85400390625
997.9248046875
904.541015625
684.814453125
395.5078125
74.15771484375
-224.30419921875
-422.05810546875
-518.1884765625
-539.24560546875
-520.93505859375
-498.96240234375
-489.80712890625
-466.9189453125
-445.86181640625
-425.72021484375
-401.0009765625
-371.7041015625
-350.64697265625
-353.3935546875
-342.4072265625
-334.16748046875
-344.23828125
-351.5625
-354.30908203125
-357.97119140625
-364.3798828125
-349.7314453125
-340.576171875
-342.4072265625
-337.82958984375
-334.16748046875
-329.58984375
-343.32275390625
-347.900390625
-348.81591796875
-351.5625
-341.49169921875
-330.50537109375
-322.265625
-316.7724609375
-315.85693359375
-323.18115234375
-327.7587890625
-325.927734375
-324.0966796875
-321.35009765625
-320.4345703125
-321.35009765625
-314.02587890625
-311.279296875
-302.1240234375
-302.1240234375
-321.35009765625
-320.4345703125
-325.01220703125
-324.0966796875
-315.85693359375
-292.96875
-286.56005859375
-280.1513671875
-277.40478515625
-278.3203125
-285.64453125
-291.1376953125
-294.7998046875
-291.1376953125
-284.72900390625
-279.23583984375
-265.5029296875
-258.1787109375
-258.1787109375
-268.24951171875
-270.99609375
-273.74267578125
-277.40478515625
-281.982421875
-272.8271484375
-264.58740234375
-257.26318359375
-239.8681640625
-249.0234375
-256.34765625
-261.8408203125
-264.58740234375
-267.333984375
-275.57373046875
-272.8271484375
-276.4892578125
-269.1650390625
-260.92529296875
-246.27685546875
-254.5166015625
-264.58740234375
-272.8271484375
-275.57373046875
-273.74267578125
-270.99609375
-266.41845703125
-259.09423828125
-247.1923828125
-246.27685546875
-251.77001953125
-260.92529296875
-271.91162109375
-273.74267578125
-280.1513671875
-281.06689453125
-272.8271484375
-265.5029296875
-261.8408203125
-264.58740234375
-268.24951171875
-278.3203125
-287.4755859375
-288.39111328125
-291.1376953125
-289.306640625
-289.306640625
-284.72900390625
-290.22216796875
-286.56005859375
-294.7998046875
-307.6171875
-303.03955078125
-322.265625
-334.16748046875
-315.85693359375
-316.7724609375
-314.02587890625
-310.36376953125
-311.279296875
-318.603515625
-330.50537109375
-333.251953125
-331.4208984375
-333.251953125
-333.251953125
-329.58984375
-330.50537109375
-327.7587890625
-325.01220703125
-333.251953125
-344.23828125
-351.5625
-353.3935546875
-342.4072265625
-333.251953125
-334.16748046875
-325.927734375
-323.18115234375
-313.1103515625
-323.18115234375
-335.0830078125
-344.23828125
-338.7451171875
-342.4072265625
-332.33642578125
-320.4345703125
-319.51904296875
-305.7861328125
-307.6171875
-314.94140625
-312.19482421875
-312.19482421875
-316.7724609375
-319.51904296875
-317.68798828125
-308.53271484375
-309.4482421875
-303.03955078125
-289.306640625
-297.54638671875
-300.29296875
-291.1376953125
-295.71533203125
-312.19482421875
-307.6171875
-302.1240234375
-289.306640625
-280.1513671875
-279.23583984375
-281.982421875
-294.7998046875
-302.1240234375
-294.7998046875
-307.6171875
-290.22216796875
-292.05322265625
-302.1240234375
-291.1376953125
-283.8134765625
-288.39111328125
-291.1376953125
-291.1376953125
-298.4619140625
-294.7998046875
-264.58740234375
-258.1787109375
-250.8544921875
-231.62841796875
-227.96630859375
-224.30419921875
-226.13525390625
-228.8818359375
-239.8681640625
-240.78369140625
-227.96630859375
-221.5576171875
-207.82470703125
-202.33154296875
-186.767578125
-177.6123046875
-173.03466796875
-152.89306640625
-173.03466796875
-196.83837890625
-187.68310546875
-183.10546875
-179.443359375
-166.6259765625
-155.6396484375
-162.04833984375
-162.9638671875
-183.10546875
-193.17626953125
-200.50048828125
-218.81103515625
-237.12158203125
-256.34765625
-265.5029296875
-268.24951171875
-287.4755859375
-294.7998046875
-310.36376953125
-331.4208984375
-331.4208984375
-324.0966796875
-319.51904296875
-324.0966796875
-314.02587890625
-311.279296875
-332.33642578125
-341.49169921875
-349.7314453125
-356.14013671875
-361.63330078125
-356.14013671875
-355.224609375
-355.224609375
-344.23828125
-346.0693359375
-366.2109375
-366.2109375
-376.28173828125
-380.859375
-382.6904296875
-371.7041015625
-375.3662109375
-374.45068359375
-367.12646484375
-364.3798828125
-364.3798828125
-375.3662109375
-379.0283203125
-385.43701171875
-394.59228515625
-390.93017578125
-383.60595703125
-377.197265625
-359.80224609375
-356.14013671875
-370.78857421875
-376.28173828125
-372.61962890625
-387.26806640625
-385.43701171875
-380.859375
-376.28173828125
-379.94384765625
-379.0283203125
-390.0146484375
-406.494140625
-423.88916015625
-442.19970703125
-455.9326171875
-463.2568359375
-446.77734375
-417.48046875
-369.873046875
-314.94140625
-235.29052734375
-100.7080078125
51.26953125
250.8544921875
418.39599609375
595.0927734375
733.33740234375
817.56591796875
894.47021484375
964.05029296875
990.6005859375
927.42919921875
723.2666015625
438.53759765625
141.90673828125
-181.2744140625
-390.93017578125
-495.30029296875
-519.10400390625
-512.6953125
-500.79345703125
-494.384765625
-473.32763671875
-453.18603515625
-433.04443359375
-410.15625
-372.61962890625
-346.98486328125
-340.576171875
-334.16748046875
-327.7587890625
-340.576171875
-343.32275390625
-339.66064453125
-351.5625
-356.14013671875
-339.66064453125
-337.82958984375
-344.23828125
-335.99853515625
-330.50537109375
-334.16748046875
-340.576171875
-343.32275390625
-346.98486328125
-354.30908203125
-340.576171875
-334.16748046875
-333.251953125
-324.0966796875
-314.94140625
-315.85693359375
-327.7587890625
-331.4208984375
-333.251953125
-326.84326171875
-319.51904296875
-318.603515625
-314.02587890625
-300.29296875
-295.71533203125
-301.20849609375
-313.1103515625
-314.94140625
-314.02587890625
-320.4345703125
-310.36376953125
-299.37744140625
-291.1376953125
-277.40478515625
-276.4892578125
-288.39111328125
-281.982421875
-285.64453125
-286.56005859375
-288.39111328125
-287.4755859375
-278.3203125
-274.658203125
-262.75634765625
-263.671875
-263.671875
-265.5029296875
-271.91162109375
-267.333984375
-264.58740234375
-263.671875
-261.8408203125
-253.60107421875
-245.361328125
-242.61474609375
-252.685546875
-258.1787109375
-270.99609375
-275.57373046875
-282.89794921875
-272.8271484375
-262.75634765625
-263.671875
-257.26318359375
-252.685546875
-262.75634765625
-272.8271484375
-277.40478515625
-286.56005859375
-282.89794921875
-278.3203125
-266.41845703125
-270.99609375
-268.24951171875
-265.5029296875
-265.5029296875
-270.08056640625
-271.91162109375
-279.23583984375
-285.64453125
-273.74267578125
-268.24951171875
-265.5029296875
-264.58740234375
-259.09423828125
-263.671875
-272.8271484375
-281.982421875
-288.39111328125
-294.7998046875
-292.05322265625
-291.1376953125
-293.88427734375
-283.8134765625
-287.4755859375
-299.37744140625
-300.29296875
-305.7861328125
-315.85693359375
-319.51904296875
-310.36376953125
-312.19482421875
-318.603515625
-311.279296875
-306.70166015625
-320.4345703125
-328.67431640625
-338.7451171875
-334.16748046875
-341.49169921875
-337.82958984375
-320.4345703125
-321.35009765625
-314.02587890625
-312.19482421875
-327.7587890625
-334.16748046875
-334.16748046875
-341.49169921875
-346.98486328125
-340.576171875
-332.33642578125
-325.927734375
-313.1103515625
-312.19482421875
-325.01220703125
-337.82958984375
-325.927734375
-335.0830078125
-335.99853515625
-323.18115234375
-323.18115234375
-318.603515625
-313.1103515625
-303.03955078125
-308.53271484375
-318.603515625
-317.68798828125
-315.85693359375
-326.84326171875
-314.94140625
-305.7861328125
-306.70166015625
-294.7998046875
-293.88427734375
-300.29296875
-306.70166015625
-311.279296875
-315.85693359375
-304.87060546875
-306.70166015625
-305.7861328125
-293.88427734375
-285.64453125
-281.982421875
-287.4755859375
-292.05322265625
-298.4619140625
-303.955078125
-309.4482421875
-305.7861328125
-301.20849609375
-301.20849609375
-288.39111328125
-281.06689453125
-303.03955078125
-303.955078125
-299.37744140625
-306.70166015625
-310.36376953125
-300.29296875
-292.05322265625
-273.74267578125
-250.8544921875
-241.69921875
-256.34765625
-247.1923828125
-245.361328125
-247.1923828125
-249.93896484375
-246.27685546875
-240.78369140625
-227.05078125
-212.40234375
-212.40234375
-213.31787109375
-207.82470703125
-198.66943359375
-185.85205078125
-170.2880859375
-166.6259765625
-174.86572265625
-186.767578125
-175.78125
-162.9638671875
-166.6259765625
-171.20361328125
-170.2880859375
-173.9501953125
-184.9365234375
-193.17626953125
-191.34521484375
-205.078125
-228.8818359375
-248.10791015625
-273.74267578125
-290.22216796875
-294.7998046875
-306.70166015625
-316.7724609375
-314.94140625
-315.85693359375
-315.85693359375
-312.19482421875
-311.279296875
-334.16748046875
-339.66064453125
-347.900390625
-352.47802734375
-354.30908203125
-350.64697265625
-340.576171875
-341.49169921875
-340.576171875
-343.32275390625
-349.7314453125
-370.78857421875
-365.29541015625
-377.197265625
-383.60595703125
-380.859375
-373.53515625
-364.3798828125
-349.7314453125
-354.30908203125
-364.3798828125
-365.29541015625
-379.94384765625
-391.845703125
-395.5078125
-388.18359375
-379.0283203125
-380.859375
-372.61962890625
-366.2109375
-375.3662109375
-371.7041015625
-377.197265625
-376.28173828125
-377.197265625
-382.6904296875
-379.94384765625
-374.45068359375
-362.548828125
-359.80224609375
-372.61962890625
-393.6767578125
-412.90283203125
-434.87548828125
-446.77734375
-451.35498046875
-452.2705078125
-432.12890625
-388.18359375
-344.23828125
-310.36376953125
-242.61474609375
-115.3564453125
50.35400390625
252.685546875
431.21337890625
616.14990234375
747.0703125
834.04541015625
900.87890625
953.9794921875
964.9658203125
889.892578125
695.80078125
426.6357421875
135.498046875
-167.54150390625
-378.11279296875
-473.32763671875
-506.28662109375
-517.27294921875
-515.44189453125
-509.033203125
-477.9052734375
-448.6083984375
-423.88916015625
-395.5078125
-358.88671875
-344.23828125
-337.82958984375
-337.82958984375
-341.49169921875
-344.23828125
-346.0693359375
-350.64697265625
-343.32275390625
-337.82958984375
-335.99853515625
-328.67431640625
-328.67431640625
-336.9140625
-337.82958984375
-340.576171875
-346.98486328125
-346.98486328125
-344.23828125
-342.4072265625
-335.0830078125
-327.7587890625
-318.603515625
-331.4208984375
-333.251953125
-335.0830078125
-336.9140625
-338.7451171875
-328.67431640625
-324.0966796875
-319.51904296875
-305.7861328125
-300.29296875
-313.1103515625
-315.85693359375
-316.7724609375
-320.4345703125
-314.94140625
-305.7861328125
-305.7861328125
-289.306640625
-280.1513671875
-281.982421875
-286.56005859375
-290.22216796875
-301.20849609375
-300.29296875
-299.37744140625
-286.56005859375
-287.4755859375
-273.74267578125
-260.009765625
-255.43212890625
-263.671875
-265.5029296875
-265.5029296875
-279.23583984375
-278.3203125
-272.8271484375
-269.1650390625
-268.24951171875
-255.43212890625
-251.77001953125
-259.09423828125
-267.333984375
-269.1650390625
-270.08056640625
-270.99609375
-265.5029296875
-260.92529296875
-259.09423828125
-251.77001953125
-247.1923828125
-262.75634765625
-269.1650390625
-279.23583984375
-281.06689453125
-281.982421875
-276.4892578125
-263.671875
-269.1650390625
-252.685546875
-244.44580078125
-254.5166015625
-269.1650390625
-276.4892578125
-273.74267578125
-274.658203125
-267.333984375
-268.24951171875
-265.5029296875
-255.43212890625
-254.5166015625
-267.333984375
-271.91162109375
-274.658203125
-280.1513671875
-294.7998046875
-283.8134765625
-280.1513671875
-284.72900390625
-279.23583984375
-283.8134765625
-289.306640625
-293.88427734375
-300.29296875
-314.02587890625
-315.85693359375
-312.19482421875
-320.4345703125
-308.53271484375
-304.87060546875
-306.70166015625
-314.94140625
-324.0966796875
-325.927734375
-334.16748046875
-337.82958984375
-329.58984375
-327.7587890625
-319.51904296875
-308.53271484375
-309.4482421875
-325.01220703125
-330.50537109375
-333.251953125
-339.66064453125
-349.7314453125
-334.16748046875
-324.0966796875
-328.67431640625
-316.7724609375
-311.279296875
-321.35009765625
-323.18115234375
-331.4208984375
-335.0830078125
-334.16748046875
-332.33642578125
-322.265625
-317.68798828125
-303.955078125
-304.87060546875
-305.7861328125
-317.68798828125
-320.4345703125
-320.4345703125
-316.7724609375
-314.94140625
-303.955078125
-293.88427734375
-287.4755859375
-288.39111328125
-294.7998046875
-301.20849609375
-303.955078125
-309.4482421875
-312.19482421875
-307.6171875
-299.37744140625
-295.71533203125
-286.56005859375
-280.1513671875
-276.4892578125
-283.8134765625
-296.630859375
-303.03955078125
-310.36376953125
-302.1240234375
-292.96875
-294.7998046875
-286.56005859375
-284.72900390625
-298.4619140625
-298.4619140625
-301.20849609375
-314.02587890625
-307.6171875
-299.37744140625
-291.1376953125
-281.982421875
-259.09423828125
-247.1923828125
-251.77001953125
-254.5166015625
-254.5166015625
-249.93896484375
-242.61474609375
-239.8681640625
-241.69921875
-229.79736328125
-218.81103515625
-224.30419921875
-219.7265625
-218.81103515625
-221.5576171875
-217.8955078125
-195.00732421875
-178.52783203125
-182.18994140625
-180.35888671875
-181.2744140625
-174.86572265625
-174.86572265625
-180.35888671875
-173.03466796875
-182.18994140625
-181.2744140625
-183.10546875
-189.51416015625
-192.2607421875
-201.416015625
-229.79736328125
-257.26318359375
-281.982421875
-298.4619140625
-312.19482421875
-306.70166015625
-303.03955078125
-312.19482421875
-318.603515625
-313.1103515625
-321.35009765625
-335.0830078125
-344.23828125
-339.66064453125
-349.7314453125
-367.12646484375
-359.80224609375
-348.81591796875
-346.0693359375
-334.16748046875
-338.7451171875
-355.224609375
-368.0419921875
-370.78857421875
-377.197265625
-375.3662109375
-374.45068359375
-373.53515625
-369.873046875
-371.7041015625
-367.12646484375
-368.0419921875
-383.60595703125
-387.26806640625
-389.09912109375
-386.3525390625
-390.0146484375
-386.3525390625
-381.77490234375
-370.78857421875
-371.7041015625
-379.0283203125
-379.94384765625
-377.197265625
-392.76123046875
-393.6767578125
-389.09912109375
-381.77490234375
-377.197265625
-367.12646484375
-369.873046875
-386.3525390625
-403.74755859375
-419.3115234375
-434.87548828125
-447.69287109375
-459.5947265625
-462.34130859375
-449.52392578125
-417.48046875
-389.09912109375
-365.29541015625
-328.67431640625
-239.8681640625
-92.46826171875
82.3974609375
281.982421875
456.84814453125
639.95361328125
751.64794921875
828.55224609375
882.568359375
932.92236328125
936.58447265625
837.70751953125
615.234375
357.0556640625
43.02978515625
-244.44580078125
-421.142578125
-509.033203125
-541.9921875
-530.09033203125
-539.24560546875
-529.1748046875
-494.384765625
-461.42578125
-438.53759765625
-403.74755859375
-369.873046875
-355.224609375
-356.14013671875
-357.0556640625
-359.80224609375
-368.95751953125
-372.61962890625
-367.12646484375
-359.80224609375
-348.81591796875
-344.23828125
-345.15380859375
-357.0556640625
-369.873046875
-371.7041015625
-366.2109375
-380.859375
-370.78857421875
-364.3798828125
-354.30908203125
-328.67431640625
-331.4208984375
-342.4072265625
-349.7314453125
-349.7314453125
-357.97119140625
-354.30908203125
-347.900390625
-348.81591796875
-334.16748046875
-324.0966796875
-313.1103515625
-323.18115234375
-332.33642578125
-343.32275390625
-351.5625
-346.0693359375
-339.66064453125
-326.84326171875
-318.603515625
-310.36376953125
-310.36376953125
-307.6171875
-308.53271484375
-314.02587890625
-320.4345703125
-314.94140625
-302.1240234375
-303.03955078125
-312.19482421875
-300.29296875
-290.22216796875
-296.630859375
-298.4619140625
-293.88427734375
-300.29296875
-300.29296875
-295.71533203125
-295.71533203125
-292.96875
-277.40478515625
-276.4892578125
-286.56005859375
-291.1376953125
-293.88427734375
-295.71533203125
-292.96875
-289.306640625
-292.96875
-288.39111328125
-276.4892578125
-281.06689453125
-285.64453125
-287.4755859375
-296.630859375
-315.85693359375
-303.03955078125
-296.630859375
-295.71533203125
-297.54638671875
-286.56005859375
-284.72900390625
-287.4755859375
-294.7998046875
-296.630859375
-304.87060546875
-309.4482421875
-297.54638671875
-296.630859375
-299.37744140625
-285.64453125
-276.4892578125
-278.3203125
-290.22216796875
-303.03955078125
-309.4482421875
-311.279296875
-311.279296875
-307.6171875
-299.37744140625
-293.88427734375
-299.37744140625
-303.03955078125
-320.4345703125
-321.35009765625
-334.16748046875
-336.9140625
-330.50537109375
-326.84326171875
-323.18115234375
-308.53271484375
-307.6171875
-335.99853515625
-336.9140625
-346.98486328125
-353.3935546875
-355.224609375
-349.7314453125
-338.7451171875
-340.576171875
-342.4072265625
-333.251953125
-339.66064453125
-347.900390625
-353.3935546875
-365.29541015625
-356.14013671875
-346.0693359375
-342.4072265625
-339.66064453125
-333.251953125
-336.9140625
-341.49169921875
-344.23828125
-346.0693359375
-355.224609375
-357.97119140625
-353.3935546875
-350.64697265625
-347.900390625
-334.16748046875
-327.7587890625
-331.4208984375
-338.7451171875
-339.66064453125
-340.576171875
-335.99853515625
-337.82958984375
-335.0830078125
-330.50537109375
-312.19482421875
-305.7861328125
-318.603515625
-323.18115234375
-326.84326171875
-329.58984375
-326.84326171875
-311.279296875
-314.94140625
-311.279296875
-303.955078125
-310.36376953125
-314.02587890625
-313.1103515625
-317.68798828125
-334.16748046875
-335.99853515625
-323.18115234375
-316.7724609375
-320.4345703125
-303.03955078125
-303.03955078125
-315.85693359375
-318.603515625
-312.19482421875
-318.603515625
-317.68798828125
-305.7861328125
-285.64453125
-271.91162109375
-254.5166015625
-249.93896484375
-251.77001953125
-249.93896484375
-260.92529296875
-269.1650390625
-269.1650390625
-258.1787109375
-246.27685546875
-233.45947265625
-222.47314453125
-213.31787109375
-204.16259765625
-197.75390625
-198.66943359375
-194.091796875
-195.9228515625
-199.5849609375
-193.17626953125
-194.091796875
-183.10546875
-175.78125
-178.52783203125
-185.85205078125
-186.767578125
-201.416015625
-212.40234375
-222.47314453125
-246.27685546875
-264.58740234375
-273.74267578125
-290.22216796875
-303.955078125
-314.02587890625
-324.0966796875
-332.33642578125
-344.23828125
-339.66064453125
-331.4208984375
-338.7451171875
-329.58984375
-331.4208984375
-345.15380859375
-357.97119140625
-368.95751953125
-372.61962890625
-379.94384765625
-359.80224609375
-363.46435546875
-368.95751953125
-362.548828125
-350.64697265625
-369.873046875
-377.197265625
-381.77490234375
-398.25439453125
-391.845703125
-382.6904296875
-374.45068359375
-380.859375
-383.60595703125
-377.197265625
-385.43701171875
-392.76123046875
-393.6767578125
-408.3251953125
-408.3251953125
-400.08544921875
-388.18359375
-382.6904296875
-377.197265625
-376.28173828125
-378.11279296875
-381.77490234375
-394.59228515625
-398.25439453125
-396.42333984375
-385.43701171875
-385.43701171875
-394.59228515625
-385.43701171875
-395.5078125
-419.3115234375
-441.2841796875
-456.84814453125
-486.14501953125
-493.46923828125
-466.00341796875
-435.791015625
-398.25439453125
-359.80224609375
-296.630859375
-174.86572265625
-13.73291015625
177.6123046875
354.30908203125
539.24560546875
689.39208984375
786.43798828125
868.83544921875
926.513671875
960.38818359375
925.59814453125
776.3671875
511.77978515625
217.8955078125
-97.0458984375
-343.32275390625
-479.736328125
-526.42822265625
-517.27294921875
-507.2021484375
-511.77978515625
-498.96240234375
-468.75
-454.1015625
-436.70654296875
-406.494140625
-375.3662109375
-357.97119140625
-343.32275390625
-341.49169921875
-339.66064453125
-348.81591796875
-352.47802734375
-367.12646484375
-364.3798828125
-347.900390625
-345.15380859375
-346.0693359375
-334.16748046875
-330.50537109375
-337.82958984375
-345.15380859375
-346.0693359375
-357.97119140625
-360.7177734375
-356.14013671875
-346.98486328125
-340.576171875
-326.84326171875
-329.58984375
-331.4208984375
-335.99853515625
-345.15380859375
-349.7314453125
-348.81591796875
-332.33642578125
-319.51904296875
-318.603515625
-312.19482421875
-305.7861328125
-307.6171875
-314.94140625
-314.94140625
-316.7724609375
-318.603515625
-316.7724609375
-302.1240234375
-297.54638671875
-291.1376953125
-283.8134765625
-294.7998046875
-292.05322265625
-288.39111328125
-300.29296875
-298.4619140625
-285.64453125
-286.56005859375
-277.40478515625
-264.58740234375
-268.24951171875
-278.3203125
-279.23583984375
-278.3203125
-293.88427734375
-292.05322265625
-277.40478515625
-273.74267578125
-267.333984375
-263.671875
-262.75634765625
-265.5029296875
-274.658203125
-281.06689453125
-298.4619140625
-288.39111328125
-271.91162109375
-275.57373046875
-266.41845703125
-267.333984375
-266.41845703125
-279.23583984375
-287.4755859375
-291.1376953125
-296.630859375
-293.88427734375
-286.56005859375
-274.658203125
-271.91162109375
-266.41845703125
-266.41845703125
-275.57373046875
-280.1513671875
-285.64453125
-291.1376953125
-287.4755859375
-287.4755859375
-277.40478515625
-270.08056640625
-269.1650390625
-266.41845703125
-269.1650390625
-285.64453125
-294.7998046875
-298.4619140625
-297.54638671875
-289.306640625
-292.05322265625
-293.88427734375
-283.8134765625
-288.39111328125
-290.22216796875
-292.96875
-297.54638671875
-314.94140625
-318.603515625
-315.85693359375
-317.68798828125
-307.6171875
-305.7861328125
-303.955078125
-314.02587890625
-325.927734375
-323.18115234375
-337.82958984375
-338.7451171875
-330.50537109375
-326.84326171875
-317.68798828125
-310.36376953125
-312.19482421875
-325.01220703125
-331.4208984375
-337.82958984375
-339.66064453125
-341.49169921875
-335.0830078125
-323.18115234375
-323.18115234375
-314.02587890625
-306.70166015625
-311.279296875
-315.85693359375
-319.51904296875
-328.67431640625
-329.58984375
-321.35009765625
-313.1103515625
-308.53271484375
-290.22216796875
-292.05322265625
-296.630859375
-301.20849609375
-309.4482421875
-319.51904296875
-318.603515625
-303.955078125
-297.54638671875
-295.71533203125
-281.982421875
-281.982421875
-292.05322265625
-293.88427734375
-295.71533203125
-304.87060546875
-309.4482421875
-301.20849609375
-289.306640625
-283.8134765625
-279.23583984375
-283.8134765625
-287.4755859375
-291.1376953125
-298.4619140625
-309.4482421875
-304.87060546875
-294.7998046875
-290.22216796875
-277.40478515625
-259.09423828125
-253.60107421875
-253.60107421875
-248.10791015625
-245.361328125
-254.5166015625
-241.69921875
-226.13525390625
-217.8955078125
-216.97998046875
-207.82470703125
-209.65576171875
-212.40234375
-220.64208984375
-212.40234375
-226.13525390625
-224.30419921875
-198.66943359375
-173.9501953125
-159.3017578125
-137.3291015625
-145.56884765625
-161.1328125
-172.119140625
-167.54150390625
-174.86572265625
-171.20361328125
-162.04833984375
-158.38623046875
-171.20361328125
-166.6259765625
-169.37255859375
-200.50048828125
-228.8818359375
-257.26318359375
-279.23583984375
-294.7998046875
-284.72900390625
-285.64453125
-283.8134765625
-282.89794921875
-297.54638671875
-302.1240234375
-317.68798828125
-325.01220703125
-341.49169921875
-337.82958984375
-336.9140625
-339.66064453125
-332.33642578125
-322.265625
-317.68798828125
-335.0830078125
-355.224609375
-357.0556640625
-368.0419921875
-369.873046875
-369.873046875
-367.12646484375
-357.0556640625
-346.98486328125
-344.23828125
-360.7177734375
-365.29541015625
-369.873046875
-377.197265625
-379.0283203125
-374.45068359375
-372.61962890625
-371.7041015625
-361.63330078125
-353.3935546875
-369.873046875
-374.45068359375
-384.521484375
-384.521484375
-376.28173828125
-373.53515625
-371.7041015625
-369.873046875
-358.88671875
-361.63330078125
-366.2109375
-370.78857421875
-381.77490234375
-402.83203125
-411.07177734375
-411.07177734375
-431.21337890625
-440.36865234375
-441.2841796875
-452.2705078125
-444.9462890625
-426.6357421875
-394.59228515625
-362.548828125
-271.91162109375
-112.60986328125
57.67822265625
260.92529296875
444.03076171875
628.96728515625
728.759765625
810.24169921875
879.82177734375
925.59814453125
949.40185546875
890.80810546875
701.2939453125
434.87548828125
140.07568359375
-168.45703125
-380.859375
-498.96240234375
-523.681640625
-525.5126953125
-518.1884765625
-501.708984375
-468.75
-446.77734375
-422.05810546875
-392.76123046875
-376.28173828125
-363.46435546875
-354.30908203125
-356.14013671875
-360.7177734375
-357.97119140625
-352.47802734375
-350.64697265625
-333.251953125
-336.9140625
-341.49169921875
-349.7314453125
-351.5625
-359.80224609375
-361.63330078125
-355.224609375
-348.81591796875
-350.64697265625
