ECG
-155.6396484375
-151.9775390625
-146.484375
-143.73779296875
-155.6396484375
-156.55517578125
-162.04833984375
-170.2880859375
-169.37255859375
-156.55517578125
-142.822265625
-125.42724609375
-127.25830078125
-143.73779296875
-147.39990234375
-151.06201171875
-163.87939453125
-189.51416015625
-190.4296875
-198.66943359375
-207.82470703125
-209.65576171875
-211.48681640625
-191.34521484375
-170.2880859375
-144.6533203125
-117.1875
-14.6484375
147.39990234375
345.15380859375
536.4990234375
710.44921875
893.5546875
1008.9111328125
1080.322265625
1129.7607421875
1157.2265625
1163.63525390625
1088.56201171875
923.76708984375
681.15234375
396.42333984375
98.876953125
-109.86328125
-205.078125
-231.62841796875
-258.1787109375
-280.1513671875
-284.72900390625
-274.658203125
-252.685546875
-216.97998046875
-199.5849609375
-175.78125
-157.470703125
-143.73779296875
-140.9912109375
-142.822265625
-134.58251953125
-130.92041015625
-130.0048828125
-116.27197265625
-113.525390625
-127.25830078125
-130.0048828125
-126.3427734375
-135.498046875
-140.07568359375
-130.0048828125
-125.42724609375
-126.3427734375
-125.42724609375
-96.13037109375
-101.62353515625
-119.0185546875
-122.6806640625
-132.75146484375
-130.92041015625
-125.42724609375
-118.10302734375
-108.94775390625
-102.5390625
-97.96142578125
-104.3701171875
-108.0322265625
-104.3701171875
-104.3701171875
-105.28564453125
-93.3837890625
-94.29931640625
-96.13037109375
-77.81982421875
-74.15771484375
-85.14404296875
-92.46826171875
-87.890625
-91.552734375
-89.7216796875
-86.97509765625
-79.65087890625
-63.17138671875
-58.59375
-60.4248046875
-60.4248046875
-63.17138671875
-57.67822265625
-73.2421875
-75.98876953125
-75.0732421875
-65.91796875
-66.83349609375
-67.7490234375
-59.50927734375
-62.255859375
-75.0732421875
-80.56640625
-74.15771484375
-73.2421875
-70.49560546875
-74.15771484375
-75.0732421875
-79.65087890625
-88.80615234375
-94.29931640625
-76.904296875
-66.83349609375
-83.31298828125
-95.21484375
-92.46826171875
-85.14404296875
-84.228515625
-75.98876953125
-66.83349609375
-75.0732421875
-75.0732421875
-87.890625
-91.552734375
-100.7080078125
-99.79248046875
-89.7216796875
-74.15771484375
-68.66455078125
-63.17138671875
-66.83349609375
-57.67822265625
-65.00244140625
-83.31298828125
-86.97509765625
-73.2421875
-84.228515625
-84.228515625
-81.48193359375
-77.81982421875
-83.31298828125
-96.13037109375
-96.13037109375
-95.21484375
-101.62353515625
-100.7080078125
-93.3837890625
-97.96142578125
-91.552734375
-85.14404296875
-95.21484375
-106.201171875
-111.6943359375
-117.1875
-126.3427734375
-121.76513671875
-113.525390625
-105.28564453125
-98.876953125
-108.94775390625
-117.1875
-119.93408203125
-127.25830078125
-132.75146484375
-143.73779296875
-131.8359375
-119.93408203125
-117.1875
-110.77880859375
-106.201171875
-108.94775390625
-114.44091796875
-108.94775390625
-108.94775390625
-108.0322265625
-118.10302734375
-104.3701171875
-97.96142578125
-99.79248046875
-102.5390625
-104.3701171875
-96.13037109375
-86.0595703125
-102.5390625
-106.201171875
-100.7080078125
-91.552734375
-86.97509765625
-86.0595703125
-86.0595703125
-88.80615234375
-86.0595703125
-83.31298828125
-95.21484375
-99.79248046875
-82.3974609375
-73.2421875
-64.0869140625
-64.0869140625
-54.01611328125
-50.35400390625
-48.52294921875
-47.607421875
-44.86083984375
-48.52294921875
-30.21240234375
-13.73291015625
-26.55029296875
-20.1416015625
0
-0.91552734375
-7.32421875
-7.32421875
-5.4931640625
3.662109375
14.6484375
21.05712890625
43.9453125
52.18505859375
54.931640625
47.607421875
47.607421875
43.02978515625
38.4521484375
28.38134765625
41.19873046875
38.4521484375
28.38134765625
31.1279296875
20.1416015625
-5.4931640625
-36.62109375
-62.255859375
-74.15771484375
-87.890625
-86.0595703125
-75.0732421875
-89.7216796875
-92.46826171875
-94.29931640625
-97.0458984375
-109.86328125
-99.79248046875
-108.0322265625
-125.42724609375
-123.59619140625
-122.6806640625
-113.525390625
-111.6943359375
-116.27197265625
-126.3427734375
-142.822265625
-143.73779296875
-137.3291015625
-144.6533203125
-136.41357421875
-136.41357421875
-140.9912109375
-136.41357421875
-130.92041015625
-140.07568359375
-151.9775390625
-143.73779296875
-150.146484375
-150.146484375
-153.80859375
-148.3154296875
-151.06201171875
-144.6533203125
-139.16015625
-146.484375
-147.39990234375
-150.146484375
-153.80859375
-170.2880859375
-160.21728515625
-155.6396484375
-150.146484375
-137.3291015625
-148.3154296875
-158.38623046875
-151.06201171875
-156.55517578125
-185.85205078125
-197.75390625
-205.078125
-209.65576171875
-223.388671875
-216.97998046875
-190.4296875
-162.9638671875
-143.73779296875
-94.29931640625
0.91552734375
150.146484375
334.16748046875
526.42822265625
726.01318359375
902.7099609375
1008.9111328125
1083.06884765625
1131.591796875
1163.63525390625
1179.19921875
1123.35205078125
972.2900390625
735.16845703125
448.6083984375
135.498046875
-84.228515625
-185.85205078125
-230.712890625
-241.69921875
-267.333984375
-288.39111328125
-277.40478515625
-249.0234375
-228.8818359375
-210.5712890625
-176.69677734375
-171.20361328125
-162.9638671875
-147.39990234375
-133.6669921875
-132.75146484375
-144.6533203125
-127.25830078125
-115.3564453125
-108.94775390625
-111.6943359375
-117.1875
-130.92041015625
-130.92041015625
-127.25830078125
-130.92041015625
-130.0048828125
-119.93408203125
-114.44091796875
-112.60986328125
-111.6943359375
-112.60986328125
-126.3427734375
-124.51171875
-124.51171875
-128.173828125
-121.76513671875
-107.11669921875
-106.201171875
-103.45458984375
-93.3837890625
-92.46826171875
-97.0458984375
-102.5390625
-106.201171875
-111.6943359375
-107.11669921875
-99.79248046875
-97.0458984375
-83.31298828125
-82.3974609375
-93.3837890625
-87.890625
-91.552734375
-87.890625
-95.21484375
-92.46826171875
-86.97509765625
-78.7353515625
-71.4111328125
-59.50927734375
-65.91796875
-66.83349609375
-69.580078125
-78.7353515625
-85.14404296875
-81.48193359375
-65.00244140625
-54.01611328125
-64.0869140625
-62.255859375
-58.59375
-66.83349609375
-68.66455078125
-69.580078125
-81.48193359375
-63.17138671875
-45.7763671875
-39.36767578125
-49.4384765625
-49.4384765625
-50.35400390625
-49.4384765625
-61.34033203125
-68.66455078125
-72.32666015625
-67.7490234375
-69.580078125
-63.17138671875
-59.50927734375
-48.52294921875
-60.4248046875
-75.98876953125
-70.49560546875
-74.15771484375
-81.48193359375
-83.31298828125
-80.56640625
-71.4111328125
-65.91796875
-56.7626953125
-65.91796875
-81.48193359375
-80.56640625
-75.98876953125
-82.3974609375
-81.48193359375
-68.66455078125
-74.15771484375
-75.98876953125
-65.91796875
-66.83349609375
-77.81982421875
-83.31298828125
-88.80615234375
-104.3701171875
-96.13037109375
-86.0595703125
-96.13037109375
-100.7080078125
-95.21484375
-107.11669921875
-107.11669921875
-108.94775390625
-112.60986328125
-122.6806640625
-124.51171875
-114.44091796875
-119.0185546875
-115.3564453125
-109.86328125
-110.77880859375
-111.6943359375
-113.525390625
-122.6806640625
-130.0048828125
-123.59619140625
-117.1875
-112.60986328125
-112.60986328125
-108.0322265625
-108.0322265625
-110.77880859375
-112.60986328125
-104.3701171875
-116.27197265625
-119.0185546875
-118.10302734375
-108.94775390625
-101.62353515625
-94.29931640625
-87.890625
-96.13037109375
-101.62353515625
-106.201171875
-112.60986328125
-108.94775390625
-102.5390625
-97.96142578125
-95.21484375
-67.7490234375
-66.83349609375
-78.7353515625
-79.65087890625
-67.7490234375
-65.91796875
-66.83349609375
-52.18505859375
-36.62109375
-27.4658203125
-14.6484375
-3.662109375
-6.40869140625
-2.74658203125
-9.1552734375
-15.56396484375
-10.986328125
1.8310546875
10.986328125
16.4794921875
23.8037109375
25.634765625
39.36767578125
54.931640625
55.84716796875
44.86083984375
35.70556640625
46.69189453125
52.18505859375
56.7626953125
65.00244140625
68.66455078125
64.0869140625
54.01611328125
46.69189453125
32.958984375
15.56396484375
10.07080078125
-5.4931640625
-26.55029296875
-36.62109375
-51.26953125
-68.66455078125
-65.00244140625
-78.7353515625
-84.228515625
-75.0732421875
-83.31298828125
-90.63720703125
-96.13037109375
-94.29931640625
-100.7080078125
-103.45458984375
-98.876953125
-103.45458984375
-117.1875
-121.76513671875
-119.0185546875
-116.27197265625
-120.849609375
-118.10302734375
-120.849609375
-126.3427734375
-126.3427734375
-134.58251953125
-148.3154296875
-142.822265625
-138.24462890625
-139.16015625
-134.58251953125
-125.42724609375
-127.25830078125
-140.9912109375
-140.9912109375
-143.73779296875
-143.73779296875
-148.3154296875
-140.9912109375
-135.498046875
-137.3291015625
-128.173828125
-128.173828125
-132.75146484375
-130.0048828125
-135.498046875
-145.56884765625
-154.72412109375
-147.39990234375
-140.07568359375
-151.06201171875
-160.21728515625
-168.45703125
-190.4296875
-217.8955078125
-232.5439453125
-238.037109375
-207.82470703125
-156.55517578125
-116.27197265625
-76.904296875
35.70556640625
205.99365234375
364.3798828125
544.73876953125
723.2666015625
894.47021484375
1025.390625
1118.7744140625
1175.537109375
1228.6376953125
1239.6240234375
1161.80419921875
981.4453125
720.52001953125
408.3251953125
83.31298828125
-127.25830078125
-218.81103515625
-253.60107421875
-262.75634765625
-260.009765625
-265.5029296875
-249.0234375
-222.47314453125
-203.2470703125
-190.4296875
-163.87939453125
-131.8359375
-124.51171875
-121.76513671875
-106.201171875
-107.11669921875
-111.6943359375
-113.525390625
-119.0185546875
-122.6806640625
-132.75146484375
-130.92041015625
-123.59619140625
-123.59619140625
-117.1875
-131.8359375
-120.849609375
-119.0185546875
-133.6669921875
-124.51171875
-125.42724609375
-112.60986328125
-95.21484375
-88.80615234375
-90.63720703125
-88.80615234375
-96.13037109375
-105.28564453125
-99.79248046875
-105.28564453125
-108.94775390625
-103.45458984375
-88.80615234375
-86.97509765625
-75.0732421875
-72.32666015625
-72.32666015625
-78.7353515625
-86.0595703125
-93.3837890625
-90.63720703125
-83.31298828125
-79.65087890625
-76.904296875
-55.84716796875
-54.931640625
-67.7490234375
-66.83349609375
-65.91796875
-73.2421875
-68.66455078125
-58.59375
-56.7626953125
-52.18505859375
-43.9453125
-45.7763671875
-50.35400390625
-48.52294921875
-49.4384765625
-56.7626953125
-59.50927734375
-50.35400390625
-45.7763671875
-42.1142578125
-26.55029296875
-17.39501953125
-16.4794921875
-32.04345703125
-34.7900390625
-48.52294921875
-50.35400390625
-39.36767578125
-31.1279296875
-30.21240234375
-32.04345703125
-40.283203125
-42.1142578125
-44.86083984375
-52.18505859375
-65.00244140625
-63.17138671875
-48.52294921875
-48.52294921875
-46.69189453125
-36.62109375
-39.36767578125
-44.86083984375
-53.1005859375
-53.1005859375
-66.83349609375
-74.15771484375
-65.91796875
-61.34033203125
-55.84716796875
-49.4384765625
-57.67822265625
-67.7490234375
-75.98876953125
-77.81982421875
-95.21484375
-100.7080078125
-86.97509765625
-82.3974609375
-73.2421875
-71.4111328125
-83.31298828125
-88.80615234375
-95.21484375
-98.876953125
-102.5390625
-104.3701171875
-109.86328125
-106.201171875
-97.0458984375
-93.3837890625
-99.79248046875
-101.62353515625
-121.76513671875
-122.6806640625
-128.173828125
-126.3427734375
-115.3564453125
-124.51171875
-120.849609375
-113.525390625
-113.525390625
-114.44091796875
-121.76513671875
-122.6806640625
-134.58251953125
-134.58251953125
-130.92041015625
-132.75146484375
-129.08935546875
-115.3564453125
-104.3701171875
-116.27197265625
-119.0185546875
-120.849609375
-128.173828125
-126.3427734375
-114.44091796875
-122.6806640625
-107.11669921875
-93.3837890625
-91.552734375
-97.96142578125
-103.45458984375
-99.79248046875
-109.86328125
-107.11669921875
-84.228515625
-91.552734375
-97.0458984375
-78.7353515625
-65.91796875
-60.4248046875
-55.84716796875
-41.19873046875
-47.607421875
-41.19873046875
-29.296875
-18.310546875
-4.57763671875
10.986328125
11.90185546875
-1.8310546875
-3.662109375
-6.40869140625
-13.73291015625
0.91552734375
21.97265625
24.71923828125
37.53662109375
64.0869140625
73.2421875
68.66455078125
58.59375
54.01611328125
42.1142578125
39.36767578125
60.4248046875
58.59375
63.17138671875
70.49560546875
65.00244140625
54.01611328125
49.4384765625
33.87451171875
2.74658203125
-24.71923828125
-40.283203125
-53.1005859375
-53.1005859375
-43.02978515625
-51.26953125
-61.34033203125
-66.83349609375
-76.904296875
-91.552734375
-106.201171875
-101.62353515625
-100.7080078125
-102.5390625
-90.63720703125
-92.46826171875
-97.0458984375
-104.3701171875
-112.60986328125
-121.76513671875
-128.173828125
-135.498046875
-134.58251953125
-119.93408203125
-115.3564453125
-112.60986328125
-123.59619140625
-130.92041015625
-130.0048828125
-136.41357421875
-144.6533203125
-141.90673828125
-137.3291015625
-140.07568359375
-137.3291015625
-141.90673828125
-140.07568359375
-134.58251953125
-140.9912109375
-145.56884765625
-155.6396484375
-151.9775390625
-148.3154296875
-148.3154296875
-130.92041015625
-127.25830078125
-136.41357421875
-140.07568359375
-144.6533203125
-162.04833984375
-165.71044921875
-174.86572265625
-178.52783203125
-195.9228515625
-193.17626953125
-206.9091796875
-216.064453125
-201.416015625
-173.03466796875
-135.498046875
-99.79248046875
-30.21240234375
127.25830078125
294.7998046875
485.2294921875
660.09521484375
849.609375
995.17822265625
1095.88623046875
1149.90234375
1215.8203125
1244.20166015625
1202.08740234375
1044.61669921875
777.28271484375
466.9189453125
137.3291015625
-106.201171875
-249.93896484375
-297.54638671875
-303.955078125
-291.1376953125
-274.658203125
-245.361328125
-205.99365234375
-177.6123046875
-165.71044921875
-147.39990234375
-130.92041015625
-129.08935546875
-119.0185546875
-115.3564453125
-118.10302734375
-108.0322265625
-97.0458984375
-107.11669921875
-111.6943359375
-111.6943359375
-116.27197265625
-126.3427734375
-129.08935546875
-122.6806640625
-111.6943359375
-112.60986328125
-108.94775390625
-101.62353515625
-97.0458984375
-99.79248046875
-107.11669921875
-98.876953125
-109.86328125
-119.0185546875
-107.11669921875
-89.7216796875
-80.56640625
-91.552734375
-86.97509765625
-84.228515625
-84.228515625
-97.0458984375
-102.5390625
-97.96142578125
-100.7080078125
-94.29931640625
-84.228515625
-76.904296875
-75.98876953125
-72.32666015625
-71.4111328125
-71.4111328125
-68.66455078125
-66.83349609375
-58.59375
-51.26953125
-39.36767578125
-29.296875
-37.53662109375
-45.7763671875
-42.1142578125
-42.1142578125
-43.9453125
-42.1142578125
-26.55029296875
-23.8037109375
-25.634765625
-26.55029296875
-21.97265625
-16.4794921875
-19.22607421875
-27.4658203125
-33.87451171875
-24.71923828125
-17.39501953125
-13.73291015625
3.662109375
2.74658203125
-9.1552734375
-9.1552734375
-21.97265625
-27.4658203125
-28.38134765625
-22.88818359375
-19.22607421875
-19.22607421875
-21.97265625
-20.1416015625
-22.88818359375
-23.8037109375
-21.97265625
-29.296875
-40.283203125
-24.71923828125
-12.8173828125
-24.71923828125
-35.70556640625
-32.958984375
-31.1279296875
-31.1279296875
-34.7900390625
-48.52294921875
-51.26953125
-48.52294921875
-46.69189453125
-43.02978515625
-48.52294921875
-45.7763671875
-54.931640625
-68.66455078125
-75.0732421875
-85.14404296875
-88.80615234375
-84.228515625
-83.31298828125
-83.31298828125
-85.14404296875
-85.14404296875
-83.31298828125
-96.13037109375
-104.3701171875
-103.45458984375
-113.525390625
-111.6943359375
-108.0322265625
-108.94775390625
-106.201171875
-102.5390625
-102.5390625
-112.60986328125
-114.44091796875
-125.42724609375
-140.07568359375
-136.41357421875
-124.51171875
-126.3427734375
-114.44091796875
-108.0322265625
-117.1875
-110.77880859375
-111.6943359375
-121.76513671875
-131.8359375
-126.3427734375
-130.92041015625
-126.3427734375
-116.27197265625
-119.0185546875
-112.60986328125
-113.525390625
-118.10302734375
-119.0185546875
-130.92041015625
-124.51171875
-119.0185546875
-103.45458984375
-110.77880859375
-103.45458984375
-107.11669921875
-103.45458984375
-102.5390625
-97.96142578125
-103.45458984375
-98.876953125
-82.3974609375
-88.80615234375
-81.48193359375
-77.81982421875
-86.0595703125
-79.65087890625
-80.56640625
-86.97509765625
-78.7353515625
-68.66455078125
-49.4384765625
-35.70556640625
-23.8037109375
-17.39501953125
-10.986328125
-6.40869140625
1.8310546875
-5.4931640625
-10.07080078125
-4.57763671875
10.986328125
10.07080078125
12.8173828125
23.8037109375
28.38134765625
31.1279296875
37.53662109375
49.4384765625
53.1005859375
61.34033203125
63.17138671875
54.01611328125
44.86083984375
51.26953125
46.69189453125
43.9453125
51.26953125
42.1142578125
43.02978515625
46.69189453125
42.1142578125
30.21240234375
14.6484375
-0.91552734375
-32.04345703125
-48.52294921875
-56.7626953125
-66.83349609375
-79.65087890625
-79.65087890625
-77.81982421875
-82.3974609375
-88.80615234375
-95.21484375
-94.29931640625
-100.7080078125
-107.11669921875
-112.60986328125
-131.8359375
-132.75146484375
-128.173828125
-115.3564453125
-111.6943359375
-107.11669921875
-117.1875
-130.0048828125
-137.3291015625
-138.24462890625
-149.23095703125
-142.822265625
-140.07568359375
-139.16015625
-134.58251953125
-122.6806640625
-135.498046875
-149.23095703125
-147.39990234375
-151.06201171875
-161.1328125
-158.38623046875
-150.146484375
-148.3154296875
-148.3154296875
-138.24462890625
-135.498046875
-130.92041015625
-138.24462890625
-145.56884765625
-160.21728515625
-149.23095703125
-152.89306640625
-150.146484375
-150.146484375
-151.9775390625
-167.54150390625
-176.69677734375
-192.2607421875
-208.740234375
-227.05078125
-228.8818359375
-199.5849609375
-163.87939453125
-119.93408203125
-82.3974609375
-24.71923828125
108.0322265625
260.009765625
433.9599609375
606.99462890625
798.33984375
977.783203125
1084.89990234375
1163.63525390625
1242.37060546875
1263.427734375
1216.73583984375
1054.6875
760.80322265625
443.115234375
131.8359375
-110.77880859375
-253.60107421875
-305.7861328125
-291.1376953125
-280.1513671875
-270.08056640625
-254.5166015625
-235.29052734375
-218.81103515625
-179.443359375
-151.9775390625
-132.75146484375
-116.27197265625
-104.3701171875
-107.11669921875
-109.86328125
-119.0185546875
-127.25830078125
-140.07568359375
-129.08935546875
-120.849609375
-119.0185546875
-112.60986328125
-105.28564453125
-112.60986328125
-119.0185546875
-127.25830078125
-124.51171875
-130.92041015625
-141.90673828125
-122.6806640625
-108.0322265625
-102.5390625
-86.0595703125
-96.13037109375
-108.94775390625
-107.11669921875
-104.3701171875
-110.77880859375
-112.60986328125
-98.876953125
-101.62353515625
-103.45458984375
-83.31298828125
-77.81982421875
-81.48193359375
-86.0595703125
-89.7216796875
-97.0458984375
-95.21484375
-86.97509765625
-69.580078125
-52.18505859375
-49.4384765625
-58.59375
-56.7626953125
-54.01611328125
-59.50927734375
-65.91796875
-55.84716796875
-54.931640625
-52.18505859375
-54.931640625
-49.4384765625
-51.26953125
-36.62109375
-14.6484375
-17.39501953125
-33.87451171875
-29.296875
-14.6484375
-15.56396484375
-12.8173828125
-3.662109375
-6.40869140625
-12.8173828125
-16.4794921875
-19.22607421875
-26.55029296875
-21.05712890625
-20.1416015625
-18.310546875
-10.986328125
0
-10.07080078125
-22.88818359375
-10.07080078125
-14.6484375
-30.21240234375
-31.1279296875
-22.88818359375
-21.05712890625
-21.97265625
-10.986328125
-20.1416015625
-31.1279296875
-28.38134765625
-25.634765625
-43.02978515625
-34.7900390625
-30.21240234375
-34.7900390625
-44.86083984375
-31.1279296875
-31.1279296875
-52.18505859375
-57.67822265625
-64.0869140625
-72.32666015625
-70.49560546875
-72.32666015625
-76.904296875
-76.904296875
-75.98876953125
-76.904296875
-84.228515625
-93.3837890625
-104.3701171875
-112.60986328125
-108.0322265625
-100.7080078125
-99.79248046875
-104.3701171875
-97.0458984375
-98.876953125
-100.7080078125
-107.11669921875
-109.86328125
-128.173828125
-126.3427734375
-130.0048828125
-125.42724609375
-120.849609375
-107.11669921875
-117.1875
-122.6806640625
-122.6806640625
-124.51171875
-133.6669921875
-132.75146484375
-117.1875
-129.08935546875
-133.6669921875
-125.42724609375
-125.42724609375
-130.92041015625
-134.58251953125
-141.90673828125
-152.89306640625
-148.3154296875
-125.42724609375
-128.173828125
-126.3427734375
-118.10302734375
-113.525390625
-122.6806640625
-117.1875
-119.0185546875
-126.3427734375
-130.0048828125
-119.93408203125
-103.45458984375
-92.46826171875
-85.14404296875
-88.80615234375
-91.552734375
-92.46826171875
-92.46826171875
-108.94775390625
-97.96142578125
-85.14404296875
-86.0595703125
-79.65087890625
-72.32666015625
-76.904296875
-80.56640625
-79.65087890625
-84.228515625
-92.46826171875
-85.14404296875
-74.15771484375
-74.15771484375
-63.17138671875
-49.4384765625
-65.00244140625
-71.4111328125
-79.65087890625
-77.81982421875
-86.0595703125
-80.56640625
-78.7353515625
-75.0732421875
-75.0732421875
-56.7626953125
-57.67822265625
-56.7626953125
-48.52294921875
-43.02978515625
-39.36767578125
-21.05712890625
-13.73291015625
-11.90185546875
-4.57763671875
8.23974609375
7.32421875
0.91552734375
3.662109375
-3.662109375
-9.1552734375
-7.32421875
-0.91552734375
15.56396484375
36.62109375
49.4384765625
55.84716796875
47.607421875
40.283203125
34.7900390625
21.97265625
25.634765625
30.21240234375
28.38134765625
37.53662109375
48.52294921875
35.70556640625
33.87451171875
22.88818359375
-6.40869140625
-40.283203125
-65.00244140625
-71.4111328125
-76.904296875
-80.56640625
-75.98876953125
-81.48193359375
-98.876953125
-101.62353515625
-108.0322265625
-124.51171875
-135.498046875
-125.42724609375
-116.27197265625
-105.28564453125
-107.11669921875
-114.44091796875
-123.59619140625
-130.92041015625
-140.07568359375
-146.484375
-149.23095703125
-140.9912109375
-143.73779296875
-135.498046875
-128.173828125
-139.16015625
-148.3154296875
-150.146484375
-153.80859375
-165.71044921875
-159.3017578125
-147.39990234375
-154.72412109375
-152.89306640625
-148.3154296875
-144.6533203125
-157.470703125
-155.6396484375
-151.9775390625
-160.21728515625
-156.55517578125
-151.06201171875
-159.3017578125
-155.6396484375
-143.73779296875
-145.56884765625
-145.56884765625
-149.23095703125
-151.9775390625
-162.9638671875
-162.04833984375
-163.87939453125
-176.69677734375
-179.443359375
-198.66943359375
-210.5712890625
-208.740234375
-191.34521484375
-155.6396484375
-121.76513671875
-75.98876953125
-3.662109375
151.06201171875
304.87060546875
501.708984375
685.72998046875
873.4130859375
1010.7421875
1091.30859375
1151.7333984375
1217.6513671875
1217.6513671875
1138.916015625
923.76708984375
650.93994140625
320.4345703125
21.97265625
-172.119140625
-286.56005859375
-329.58984375
-322.265625
-303.955078125
-279.23583984375
-248.10791015625
-216.97998046875
-195.00732421875
-170.2880859375
-151.06201171875
-130.0048828125
-130.92041015625
-130.92041015625
-122.6806640625
-122.6806640625
-123.59619140625
-117.1875
-113.525390625
-119.93408203125
-120.849609375
-114.44091796875
-128.173828125
-130.0048828125
-123.59619140625
-121.76513671875
-120.849609375
-111.6943359375
-94.29931640625
-103.45458984375
-112.60986328125
-111.6943359375
-119.93408203125
-115.3564453125
-115.3564453125
-108.0322265625
-104.3701171875
-100.7080078125
-101.62353515625
-97.96142578125
-95.21484375
-98.876953125
-109.86328125
-108.94775390625
-103.45458984375
-102.5390625
-87.890625
-67.7490234375
-59.50927734375
-65.00244140625
-68.66455078125
-63.17138671875
-74.15771484375
-78.7353515625
-69.580078125
-65.00244140625
-55.84716796875
-45.7763671875
-42.1142578125
-44.86083984375
-52.18505859375
-52.18505859375
-62.255859375
-54.931640625
-48.52294921875
-46.69189453125
-35.70556640625
-8.23974609375
-4.57763671875
-15.56396484375
-14.6484375
-22.88818359375
-22.88818359375
-20.1416015625
-20.1416015625
-19.22607421875
-11.90185546875
-4.57763671875
1.8310546875
-10.986328125
-16.4794921875
-14.6484375
-22.88818359375
-22.88818359375
-20.1416015625
-6.40869140625
-6.40869140625
-10.986328125
-7.32421875
-10.07080078125
-6.40869140625
-10.986328125
-26.55029296875
-27.4658203125
-21.97265625
-23.8037109375
-21.97265625
-19.22607421875
-20.1416015625
-25.634765625
-34.7900390625
-38.4521484375
-43.02978515625
-49.4384765625
-56.7626953125
-54.931640625
-56.7626953125
-48.52294921875
-52.18505859375
-59.50927734375
-62.255859375
-70.49560546875
-85.14404296875
-92.46826171875
-87.890625
-82.3974609375
-91.552734375
-94.29931640625
-91.552734375
-97.0458984375
-102.5390625
-104.3701171875
-116.27197265625
-113.525390625
-107.11669921875
-113.525390625
-112.60986328125
-92.46826171875
-92.46826171875
-98.876953125
-107.11669921875
-116.27197265625
-130.0048828125
-134.58251953125
-127.25830078125
-114.44091796875
-113.525390625
-107.11669921875
-112.60986328125
-115.3564453125
-121.76513671875
-121.76513671875
-133.6669921875
-134.58251953125
-121.76513671875
-117.1875
-109.86328125
-107.11669921875
-108.0322265625
-116.27197265625
-119.0185546875
-118.10302734375
-130.92041015625
-125.42724609375
-109.86328125
-109.86328125
-112.60986328125
-96.13037109375
-95.21484375
-108.0322265625
-103.45458984375
-103.45458984375
-110.77880859375
-118.10302734375
-102.5390625
-89.7216796875
-85.14404296875
-72.32666015625
-74.15771484375
-74.15771484375
-81.48193359375
-85.14404296875
-97.96142578125
-98.876953125
-83.31298828125
-68.66455078125
-70.49560546875
-65.00244140625
-68.66455078125
-65.00244140625
-66.83349609375
-69.580078125
-72.32666015625
-66.83349609375
-64.0869140625
-66.83349609375
-58.59375
-53.1005859375
-60.4248046875
-68.66455078125
-75.0732421875
-76.904296875
-85.14404296875
-81.48193359375
-74.15771484375
-79.65087890625
-84.228515625
-73.2421875
-69.580078125
-68.66455078125
-73.2421875
-73.2421875
-75.98876953125
-85.14404296875
-87.890625
-86.97509765625
-82.3974609375
-82.3974609375
-83.31298828125
-93.3837890625
-97.0458984375
-84.228515625
-93.3837890625
-102.5390625
-97.0458984375
-91.552734375
-91.552734375
-89.7216796875
-97.96142578125
-91.552734375
-86.97509765625
-94.29931640625
-98.876953125
-115.3564453125
-114.44091796875
-111.6943359375
-99.79248046875
-87.890625
-83.31298828125
-88.80615234375
-86.0595703125
-76.904296875
-65.91796875
-57.67822265625
-54.01611328125
-53.1005859375
-41.19873046875
-30.21240234375
-33.87451171875
-24.71923828125
-19.22607421875
-28.38134765625
-23.8037109375
-22.88818359375
-11.90185546875
3.662109375
26.55029296875
43.9453125
38.4521484375
21.05712890625
3.662109375
5.4931640625
6.40869140625
9.1552734375
16.4794921875
28.38134765625
45.7763671875
38.4521484375
20.1416015625
14.6484375
-5.4931640625
-32.04345703125
-54.931640625
-82.3974609375
-83.31298828125
-80.56640625
-82.3974609375
-86.97509765625
-94.29931640625
-96.13037109375
-108.0322265625
-113.525390625
-122.6806640625
-129.08935546875
-124.51171875
-123.59619140625
-129.08935546875
-127.25830078125
-129.08935546875
-127.25830078125
-134.58251953125
-134.58251953125
-140.07568359375
-152.89306640625
-144.6533203125
-144.6533203125
-143.73779296875
-140.07568359375
-124.51171875
-130.92041015625
-137.3291015625
-141.90673828125
-154.72412109375
-161.1328125
-160.21728515625
-152.89306640625
-152.89306640625
-140.07568359375
-125.42724609375
-131.8359375
-139.16015625
-136.41357421875
-143.73779296875
-157.470703125
-148.3154296875
-141.90673828125
-153.80859375
-145.56884765625
-140.9912109375
-148.3154296875
-154.72412109375
-152.89306640625
-158.38623046875
-169.37255859375
-176.69677734375
-191.34521484375
-197.75390625
-198.66943359375
-188.5986328125
-173.9501953125
-136.41357421875
-97.96142578125
-65.91796875
16.4794921875
173.03466796875
339.66064453125
519.10400390625
705.87158203125
898.13232421875
1021.728515625
1083.984375
1152.64892578125
1205.74951171875
1185.60791015625
1077.57568359375
842.28515625
560.302734375
248.10791015625
-3.662109375
-179.443359375
-284.72900390625
-308.53271484375
-313.1103515625
-304.87060546875
-270.08056640625
-228.8818359375
-213.31787109375
-184.9365234375
-144.6533203125
-134.58251953125
-127.25830078125
-124.51171875
-128.173828125
-134.58251953125
-123.59619140625
-121.76513671875
-121.76513671875
-119.93408203125
-114.44091796875
-110.77880859375
-114.44091796875
-118.10302734375
-126.3427734375
-129.08935546875
-113.525390625
-111.6943359375
-112.60986328125
-108.0322265625
-105.28564453125
-105.28564453125
-102.5390625
-104.3701171875
-108.0322265625
-120.849609375
-119.0185546875
-107.11669921875
-101.62353515625
-96.13037109375
-91.552734375
-89.7216796875
-92.46826171875
-91.552734375
-93.3837890625
-97.0458984375
-94.29931640625
-96.13037109375
-93.3837890625
-79.65087890625
-73.2421875
-78.7353515625
-68.66455078125
-66.83349609375
-83.31298828125
-81.48193359375
-59.50927734375
-59.50927734375
-52.18505859375
-38.4521484375
-32.958984375
-39.36767578125
-39.36767578125
-42.1142578125
-44.86083984375
-48.52294921875
-43.02978515625
-25.634765625
-19.22607421875
-15.56396484375
-7.32421875
-12.8173828125
-17.39501953125
-12.8173828125
-15.56396484375
-22.88818359375
-15.56396484375
-10.07080078125
-4.57763671875
-0.91552734375
11.90185546875
7.32421875
-8.23974609375
-6.40869140625
-10.07080078125
-20.1416015625
-6.40869140625
-0.91552734375
-1.8310546875
-7.32421875
-5.4931640625
-3.662109375
-11.90185546875
-11.90185546875
-8.23974609375
-22.88818359375
-29.296875
-21.05712890625
-20.1416015625
-14.6484375
-2.74658203125
-25.634765625
-28.38134765625
-34.7900390625
-39.36767578125
-40.283203125
-39.36767578125
-42.1142578125
-46.69189453125
-49.4384765625
-43.02978515625
-53.1005859375
-62.255859375
-72.32666015625
-77.81982421875
-89.7216796875
-86.0595703125
-82.3974609375
-83.31298828125
-85.14404296875
-75.0732421875
-80.56640625
-90.63720703125
-91.552734375
-105.28564453125
-115.3564453125
-112.60986328125
-109.86328125
-109.86328125
-101.62353515625
-85.14404296875
-104.3701171875
-117.1875
-119.93408203125
-130.92041015625
-124.51171875
-114.44091796875
-108.0322265625
-111.6943359375
-110.77880859375
-108.94775390625
-119.0185546875
-131.8359375
-123.59619140625
-124.51171875
-129.08935546875
-135.498046875
-116.27197265625
-117.1875
-118.10302734375
-107.11669921875
-101.62353515625
-103.45458984375
-105.28564453125
-115.3564453125
-122.6806640625
-123.59619140625
-116.27197265625
-114.44091796875
-109.86328125
-94.29931640625
-109.86328125
-117.1875
-107.11669921875
-103.45458984375
-102.5390625
-91.552734375
-90.63720703125
-87.890625
-76.904296875
-72.32666015625
-77.81982421875
-80.56640625
-92.46826171875
-95.21484375
-95.21484375
-81.48193359375
-67.7490234375
-71.4111328125
-66.83349609375
-54.01611328125
-56.7626953125
-64.0869140625
-83.31298828125
-77.81982421875
-81.48193359375
-68.66455078125
-55.84716796875
-47.607421875
-57.67822265625
-49.4384765625
-49.4384765625
-54.931640625
-65.00244140625
-74.15771484375
-75.0732421875
-62.255859375
-63.17138671875
-66.83349609375
-64.0869140625
-57.67822265625
-55.84716796875
-73.2421875
-74.15771484375
-74.15771484375
-78.7353515625
-76.904296875
-71.4111328125
-62.255859375
-66.83349609375
-65.00244140625
-65.91796875
-79.65087890625
-79.65087890625
-84.228515625
-100.7080078125
-100.7080078125
-96.13037109375
-90.63720703125
-76.904296875
-69.580078125
-86.97509765625
-93.3837890625
-87.890625
-99.79248046875
-109.86328125
-97.0458984375
-92.46826171875
-99.79248046875
-95.21484375
-84.228515625
-95.21484375
-98.876953125
-90.63720703125
-93.3837890625
-114.44091796875
-112.60986328125
-104.3701171875
-98.876953125
-95.21484375
-90.63720703125
-95.21484375
-104.3701171875
-103.45458984375
-108.0322265625
-122.6806640625
-122.6806640625
-118.10302734375
-116.27197265625
-112.60986328125
-103.45458984375
-109.86328125
-109.86328125
-88.80615234375
-79.65087890625
-72.32666015625
-50.35400390625
-35.70556640625
-36.62109375
-36.62109375
-27.4658203125
-30.21240234375
-37.53662109375
-37.53662109375
-31.1279296875
-11.90185546875
-14.6484375
3.662109375
21.05712890625
29.296875
30.21240234375
17.39501953125
19.22607421875
17.39501953125
13.73291015625
6.40869140625
11.90185546875
21.05712890625
18.310546875
28.38134765625
38.4521484375
22.88818359375
0
-27.4658203125
-43.9453125
-75.0732421875
-76.904296875
-84.228515625
-83.31298828125
-86.97509765625
-87.890625
-95.21484375
-105.28564453125
-111.6943359375
-113.525390625
-124.51171875
-127.25830078125
-124.51171875
-117.1875
-116.27197265625
-98.876953125
-101.62353515625
-123.59619140625
-124.51171875
-130.92041015625
-143.73779296875
-153.80859375
-148.3154296875
-140.07568359375
-137.3291015625
-131.8359375
-131.8359375
-139.16015625
-146.484375
-151.9775390625
-162.04833984375
-157.470703125
-155.6396484375
-151.06201171875
-145.56884765625
-137.3291015625
-135.498046875
-143.73779296875
-148.3154296875
-146.484375
-159.3017578125
-151.06201171875
-145.56884765625
-150.146484375
-135.498046875
-138.24462890625
-146.484375
-151.06201171875
-152.89306640625
-163.87939453125
-175.78125
-188.5986328125
-186.767578125
-203.2470703125
-186.767578125
-143.73779296875
-114.44091796875
-81.48193359375
-51.26953125
43.9453125
185.85205078125
345.15380859375
533.75244140625
710.44921875
887.14599609375
1013.48876953125
1083.06884765625
1152.64892578125
1201.171875
1172.79052734375
1057.43408203125
831.298828125
560.302734375
244.44580078125
-7.32421875
-168.45703125
-264.58740234375
-294.7998046875
-297.54638671875
-292.96875
-283.8134765625
-249.0234375
-218.81103515625
-188.5986328125
-162.9638671875
-140.9912109375
-119.0185546875
-119.0185546875
-117.1875
-119.0185546875
-121.76513671875
-121.76513671875
-123.59619140625
-117.1875
-108.94775390625
-108.0322265625
-107.11669921875
-119.93408203125
-126.3427734375
-124.51171875
-128.173828125
-120.849609375
-119.93408203125
-113.525390625
-101.62353515625
-92.46826171875
-99.79248046875
-109.86328125
-109.86328125
-109.86328125
-111.6943359375
-99.79248046875
-95.21484375
-86.0595703125
-88.80615234375
-84.228515625
-91.552734375
-89.7216796875
-82.3974609375
-84.228515625
-107.11669921875
-98.876953125
-86.0595703125
-90.63720703125
-64.0869140625
-46.69189453125
-60.4248046875
-62.255859375
-68.66455078125
-65.00244140625
-73.2421875
-62.255859375
-51.26953125
-50.35400390625
-43.9453125
-39.36767578125
-42.1142578125
-43.9453125
-32.958984375
-32.04345703125
-39.36767578125
-32.04345703125
-24.71923828125
-19.22607421875
-12.8173828125
-0.91552734375
-1.8310546875
-9.1552734375
-6.40869140625
-9.1552734375
-21.05712890625
-9.1552734375
-2.74658203125
0.91552734375
-7.32421875
2.74658203125
4.57763671875
-3.662109375
-1.8310546875
0
-9.1552734375
-7.32421875
7.32421875
12.8173828125
2.74658203125
3.662109375
-3.662109375
-6.40869140625
-10.07080078125
-15.56396484375
-16.4794921875
-16.4794921875
-18.310546875
-24.71923828125
-11.90185546875
-8.23974609375
-18.310546875
-28.38134765625
-39.36767578125
-33.87451171875
-58.59375
-65.00244140625
-58.59375
-53.1005859375
-49.4384765625
-43.02978515625
-54.931640625
-66.83349609375
-69.580078125
-68.66455078125
-74.15771484375
-92.46826171875
-89.7216796875
-90.63720703125
-89.7216796875
-84.228515625
-84.228515625
-88.80615234375
-96.13037109375
-99.79248046875
-117.1875
-115.3564453125
-108.94775390625
-118.10302734375
-117.1875
-96.13037109375
-108.0322265625
-117.1875
-121.76513671875
-130.92041015625
-134.58251953125
-137.3291015625
-137.3291015625
-129.08935546875
-128.173828125
-110.77880859375
-108.94775390625
-113.525390625
-126.3427734375
-131.8359375
-143.73779296875
-143.73779296875
-129.08935546875
-129.08935546875
-130.0048828125
-122.6806640625
-117.1875
-123.59619140625
-124.51171875
-127.25830078125
-134.58251953125
-134.58251953125
-126.3427734375
-130.0048828125
-128.173828125
-125.42724609375
-112.60986328125
-112.60986328125
-102.5390625
-100.7080078125
-116.27197265625
-119.93408203125
-108.94775390625
-101.62353515625
-103.45458984375
-97.0458984375
-96.13037109375
-89.7216796875
-86.97509765625
-93.3837890625
-91.552734375
-93.3837890625
-96.13037109375
-94.29931640625
-85.14404296875
-73.2421875
-63.17138671875
-66.83349609375
-78.7353515625
-83.31298828125
-87.890625
-91.552734375
-91.552734375
-86.0595703125
-67.7490234375
-56.7626953125
-67.7490234375
-75.0732421875
-77.81982421875
-81.48193359375
-97.0458984375
-92.46826171875
-82.3974609375
-81.48193359375
-83.31298828125
-79.65087890625
-78.7353515625
-80.56640625
-85.14404296875
-93.3837890625
-105.28564453125
-101.62353515625
-90.63720703125
-93.3837890625
-98.876953125
-95.21484375
-89.7216796875
-94.29931640625
-91.552734375
-93.3837890625
-101.62353515625
-94.29931640625
-90.63720703125
-101.62353515625
-101.62353515625
-92.46826171875
-100.7080078125
-108.0322265625
-114.44091796875
-108.0322265625
-116.27197265625
-121.76513671875
-108.0322265625
-107.11669921875
-114.44091796875
-96.13037109375
-93.3837890625
-106.201171875
-110.77880859375
-121.76513671875
-129.08935546875
-121.76513671875
-111.6943359375
-104.3701171875
-90.63720703125
-75.98876953125
-65.91796875
-58.59375
-53.1005859375
-60.4248046875
-69.580078125
-65.00244140625
-49.4384765625
-36.62109375
-37.53662109375
-24.71923828125
-14.6484375
-18.310546875
-7.32421875
15.56396484375
17.39501953125
10.986328125
11.90185546875
14.6484375
21.97265625
24.71923828125
23.8037109375
15.56396484375
4.57763671875
0.91552734375
-10.986328125
-19.22607421875
-7.32421875
-12.8173828125
-22.88818359375
-44.86083984375
-68.66455078125
-76.904296875
-85.14404296875
-88.80615234375
-101.62353515625
-114.44091796875
-113.525390625
-114.44091796875
-124.51171875
-128.173828125
-119.93408203125
-121.76513671875
-126.3427734375
-121.76513671875
-141.90673828125
-142.822265625
-136.41357421875
-136.41357421875
-135.498046875
-128.173828125
-130.92041015625
-140.07568359375
-146.484375
-153.80859375
-169.37255859375
-170.2880859375
-153.80859375
-153.80859375
-157.470703125
-148.3154296875
-153.80859375
-160.21728515625
-162.9638671875
-169.37255859375
-172.119140625
-168.45703125
-169.37255859375
-173.9501953125
-154.72412109375
-139.16015625
-151.06201171875
-152.89306640625
-143.73779296875
-145.56884765625
-161.1328125
-156.55517578125
-151.9775390625
-153.80859375
-152.89306640625
-160.21728515625
-182.18994140625
-193.17626953125
-198.66943359375
-206.9091796875
-212.40234375
-186.767578125
-146.484375
-103.45458984375
-61.34033203125
8.23974609375
148.3154296875
299.37744140625
469.66552734375
642.7001953125
801.08642578125
933.837890625
1016.2353515625
1082.1533203125
1159.0576171875
1181.0302734375
1120.60546875
953.06396484375
686.6455078125
420.22705078125
105.28564453125
-106.201171875
-216.97998046875
-263.671875
-275.57373046875
-277.40478515625
-287.4755859375
-278.3203125
-251.77001953125
-214.2333984375
-200.50048828125
-183.10546875
-167.54150390625
-151.9775390625
-136.41357421875
-132.75146484375
-130.92041015625
-130.92041015625
-137.3291015625
-137.3291015625
-145.56884765625
-153.80859375
-131.8359375
-127.25830078125
-134.58251953125
-140.07568359375
-139.16015625
-143.73779296875
-140.9912109375
-130.0048828125
-127.25830078125
-135.498046875
-127.25830078125
-112.60986328125
-105.28564453125
-97.96142578125
-100.7080078125
-112.60986328125
-114.44091796875
-108.94775390625
-119.93408203125
-118.10302734375
-116.27197265625
-114.44091796875
-105.28564453125
-88.80615234375
-85.14404296875
-94.29931640625
-97.0458984375
-96.13037109375
-99.79248046875
-97.96142578125
-91.552734375
-83.31298828125
-82.3974609375
-76.904296875
-72.32666015625
-77.81982421875
-68.66455078125
-68.66455078125
-74.15771484375
-70.49560546875
-64.0869140625
-54.01611328125
-48.52294921875
-32.04345703125
-27.4658203125
-32.04345703125
-43.9453125
-53.1005859375
-50.35400390625
-49.4384765625
-35.70556640625
-17.39501953125
-6.40869140625
-4.57763671875
-13.73291015625
-16.4794921875
-17.39501953125
-10.986328125
-25.634765625
-34.7900390625
-26.55029296875
-12.8173828125
-17.39501953125
-7.32421875
20.1416015625
6.40869140625
-10.986328125
-15.56396484375
-21.97265625
-21.97265625
-15.56396484375
-10.986328125
-17.39501953125
-14.6484375
-10.07080078125
-14.6484375
-26.55029296875
-35.70556640625
-43.02978515625
-47.607421875
-45.7763671875
-47.607421875
-49.4384765625
-49.4384765625
-37.53662109375
-48.52294921875
-49.4384765625
-51.26953125
-77.81982421875
-86.97509765625
-82.3974609375
-86.0595703125
-86.97509765625
-91.552734375
-99.79248046875
-103.45458984375
-112.60986328125
-118.10302734375
-118.10302734375
-118.10302734375
-115.3564453125
-109.86328125
-107.11669921875
-106.201171875
-109.86328125
-109.86328125
-121.76513671875
-123.59619140625
-132.75146484375
-137.3291015625
-133.6669921875
-131.8359375
-134.58251953125
-132.75146484375
-130.0048828125
-132.75146484375
-142.822265625
-137.3291015625
-145.56884765625
-154.72412109375
-151.9775390625
-154.72412109375
-146.484375
-144.6533203125
-136.41357421875
-140.07568359375
-151.9775390625
-144.6533203125
-148.3154296875
-155.6396484375
-150.146484375
-153.80859375
-148.3154296875
-128.173828125
-131.8359375
-137.3291015625
-133.6669921875
-134.58251953125
-145.56884765625
-148.3154296875
-144.6533203125
-135.498046875
-131.8359375
-132.75146484375
-123.59619140625
-123.59619140625
-132.75146484375
-131.8359375
-136.41357421875
-129.08935546875
-120.849609375
-107.11669921875
-101.62353515625
-96.13037109375
-91.552734375
-98.876953125
-108.0322265625
-97.0458984375
-103.45458984375
-112.60986328125
-117.1875
-106.201171875
-107.11669921875
-97.0458984375
-92.46826171875
-86.97509765625
-88.80615234375
-98.876953125
-109.86328125
-108.94775390625
-100.7080078125
-94.29931640625
-102.5390625
-96.13037109375
-90.63720703125
-91.552734375
-90.63720703125
-100.7080078125
-108.94775390625
-101.62353515625
-101.62353515625
-101.62353515625
-86.97509765625
-71.4111328125
-60.4248046875
-55.84716796875
-46.69189453125
-47.607421875
-52.18505859375
-51.26953125
-44.86083984375
-47.607421875
-43.02978515625
-43.9453125
-32.04345703125
-38.4521484375
-28.38134765625
-0.91552734375
4.57763671875
-10.07080078125
3.662109375
1.8310546875
2.74658203125
9.1552734375
16.4794921875
16.4794921875
10.986328125
13.73291015625
1.8310546875
-19.22607421875
-17.39501953125
-14.6484375
-21.97265625
-41.19873046875
-64.0869140625
-86.97509765625
-85.14404296875
-86.97509765625
-102.5390625
-119.0185546875
-113.525390625
-119.93408203125
-123.59619140625
-120.849609375
-114.44091796875
-118.10302734375
-129.08935546875
-134.58251953125
-139.16015625
-152.89306640625
-152.89306640625
-151.06201171875
-157.470703125
-151.9775390625
-153.80859375
-158.38623046875
-147.39990234375
-147.39990234375
-160.21728515625
-173.03466796875
-170.2880859375
-172.119140625
-162.04833984375
-160.21728515625
-159.3017578125
-163.87939453125
-169.37255859375
-161.1328125
-165.71044921875
-183.10546875
-184.02099609375
-167.54150390625
-167.54150390625
-163.87939453125
-157.470703125
-158.38623046875
-155.6396484375
-162.04833984375
-174.86572265625
-182.18994140625
-176.69677734375
-173.03466796875
-171.20361328125
-162.04833984375
-157.470703125
-160.21728515625
-181.2744140625
-194.091796875
-226.13525390625
-220.64208984375
-224.30419921875
-206.9091796875
-177.6123046875
-134.58251953125
-86.97509765625
-45.7763671875
33.87451171875
192.2607421875
354.30908203125
531.005859375
703.125
884.3994140625
1010.7421875
1076.66015625
1135.25390625
1176.45263671875
1175.537109375
1097.71728515625
895.3857421875
643.61572265625
375.3662109375
73.2421875
-116.27197265625
-205.078125
-236.2060546875
-260.009765625
-270.99609375
-280.1513671875
-280.1513671875
-266.41845703125
-235.29052734375
-214.2333984375
-203.2470703125
-183.10546875
-159.3017578125
-149.23095703125
-151.06201171875
-149.23095703125
-152.89306640625
-157.470703125
-153.80859375
-148.3154296875
-146.484375
-140.07568359375
-132.75146484375
-134.58251953125
-138.24462890625
-140.9912109375
-145.56884765625
-149.23095703125
-140.9912109375
-135.498046875
-139.16015625
-125.42724609375
-112.60986328125
-117.1875
-126.3427734375
-112.60986328125
-118.10302734375
-129.08935546875
-126.3427734375
-124.51171875
-119.0185546875
-107.11669921875
-94.29931640625
-103.45458984375
-107.11669921875
-109.86328125
-106.201171875
-113.525390625
-106.201171875
-98.876953125
-102.5390625
-108.0322265625
-95.21484375
-90.63720703125
-85.14404296875
-86.0595703125
-87.890625
-85.14404296875
-72.32666015625
-71.4111328125
-71.4111328125
-67.7490234375
-51.26953125
-47.607421875
-50.35400390625
-50.35400390625
-57.67822265625
-58.59375
-62.255859375
-53.1005859375
-48.52294921875
-32.04345703125
-24.71923828125
-32.958984375
-27.4658203125
-23.8037109375
-30.21240234375
-33.87451171875
-21.97265625
-13.73291015625
-21.97265625
-16.4794921875
-24.71923828125
-23.8037109375
-25.634765625
-26.55029296875
-25.634765625
-34.7900390625
-22.88818359375
-19.22607421875
-24.71923828125
-25.634765625
-17.39501953125
-23.8037109375
-22.88818359375
-28.38134765625
-44.86083984375
-43.9453125
-49.4384765625
-34.7900390625
-43.02978515625
-53.1005859375
-45.7763671875
-58.59375
-67.7490234375
-62.255859375
-75.98876953125
-84.228515625
-81.48193359375
-78.7353515625
-90.63720703125
-97.0458984375
-90.63720703125
-95.21484375
-104.3701171875
-108.0322265625
-105.28564453125
-133.6669921875
-131.8359375
-119.93408203125
-119.93408203125
-123.59619140625
-116.27197265625
-132.75146484375
-144.6533203125
-146.484375
-138.24462890625
-143.73779296875
-144.6533203125
-140.07568359375
-137.3291015625
-137.3291015625
-123.59619140625
-128.173828125
-143.73779296875
-144.6533203125
-152.89306640625
-163.87939453125
-162.04833984375
-160.21728515625
-159.3017578125
-155.6396484375
-142.822265625
-152.89306640625
-153.80859375
-146.484375
-142.822265625
-151.06201171875
-155.6396484375
-142.822265625
-145.56884765625
-149.23095703125
-134.58251953125
-144.6533203125
-140.07568359375
-138.24462890625
-140.07568359375
-158.38623046875
-151.06201171875
-146.484375
-146.484375
-145.56884765625
-132.75146484375
-134.58251953125
-131.8359375
-127.25830078125
-130.0048828125
-138.24462890625
-138.24462890625
-134.58251953125
-117.1875
-123.59619140625
-124.51171875
-126.3427734375
-123.59619140625
-127.25830078125
-128.173828125
-129.08935546875
-128.173828125
-122.6806640625
-118.10302734375
-113.525390625
-101.62353515625
-86.97509765625
-90.63720703125
-88.80615234375
-95.21484375
-87.890625
-72.32666015625
-66.83349609375
-55.84716796875
-42.1142578125
-33.87451171875
-38.4521484375
-43.9453125
-47.607421875
-53.1005859375
-62.255859375
-46.69189453125
-32.04345703125
-21.97265625
-10.07080078125
3.662109375
12.8173828125
21.05712890625
16.4794921875
18.310546875
6.40869140625
3.662109375
10.07080078125
14.6484375
16.4794921875
28.38134765625
20.1416015625
-2.74658203125
-6.40869140625
-6.40869140625
-37.53662109375
-43.02978515625
-48.52294921875
-62.255859375
-74.15771484375
-71.4111328125
-84.228515625
-91.552734375
-102.5390625
-109.86328125
-124.51171875
-132.75146484375
-136.41357421875
-132.75146484375
-132.75146484375
-127.25830078125
-126.3427734375
-129.08935546875
-130.0048828125
-137.3291015625
-162.9638671875
-159.3017578125
-159.3017578125
-141.90673828125
-132.75146484375
-149.23095703125
-153.80859375
-158.38623046875
-167.54150390625
-165.71044921875
-178.52783203125
-163.87939453125
-155.6396484375
-154.72412109375
-162.9638671875
-153.80859375
-151.06201171875
-162.04833984375
-170.2880859375
-173.9501953125
-177.6123046875
-163.87939453125
-156.55517578125
-160.21728515625
-164.794921875
-151.06201171875
-156.55517578125
-148.3154296875
-157.470703125
-168.45703125
-170.2880859375
-174.86572265625
-173.03466796875
-165.71044921875
-159.3017578125
-172.119140625
-195.9228515625
-205.99365234375
-205.99365234375
-216.064453125
-195.9228515625
-161.1328125
-117.1875
-77.81982421875
-14.6484375
128.173828125
278.3203125
438.53759765625
599.67041015625
780.94482421875
921.93603515625
1010.7421875
1081.23779296875
1143.49365234375
1170.0439453125
1163.63525390625
1042.78564453125
803.8330078125
546.56982421875
223.388671875
-51.26953125
-199.5849609375
-259.09423828125
-275.57373046875
-282.89794921875
-285.64453125
-273.74267578125
-255.43212890625
-232.5439453125
-208.740234375
-187.68310546875
-171.20361328125
-151.06201171875
-140.07568359375
-145.56884765625
-135.498046875
-121.76513671875
-129.08935546875
-131.8359375
-128.173828125
-139.16015625
-150.146484375
-142.822265625
-138.24462890625
-140.9912109375
-125.42724609375
-122.6806640625
-128.173828125
-130.0048828125
-115.3564453125
-128.173828125
-128.173828125
-126.3427734375
-121.76513671875
-126.3427734375
-111.6943359375
-106.201171875
-106.201171875
-97.96142578125
-104.3701171875
-117.1875
-119.0185546875
-110.77880859375
-108.94775390625
-100.7080078125
-94.29931640625
-92.46826171875
-94.29931640625
-91.552734375
-94.29931640625
-90.63720703125
-85.14404296875
-85.14404296875
-86.97509765625
-80.56640625
-70.49560546875
-59.50927734375
-60.4248046875
-56.7626953125
-63.17138671875
-72.32666015625
-65.00244140625
-55.84716796875
-43.9453125
-40.283203125
-36.62109375
-26.55029296875
-31.1279296875
-23.8037109375
-20.1416015625
-27.4658203125
-18.310546875
-7.32421875
-2.74658203125
-2.74658203125
7.32421875
10.07080078125
2.74658203125
-8.23974609375
-3.662109375
-4.57763671875
-6.40869140625
-7.32421875
0
6.40869140625
14.6484375
19.22607421875
18.310546875
13.73291015625
12.8173828125
6.40869140625
-1.8310546875
10.07080078125
6.40869140625
-3.662109375
6.40869140625
7.32421875
-8.23974609375
-20.1416015625
-30.21240234375
-30.21240234375
-29.296875
-32.04345703125
-38.4521484375
-33.87451171875
-24.71923828125
-32.04345703125
-41.19873046875
-52.18505859375
-57.67822265625
-72.32666015625
-75.0732421875
-75.0732421875
-75.98876953125
-75.0732421875
-72.32666015625
-72.32666015625
-85.14404296875
-94.29931640625
-108.0322265625
-130.0048828125
-129.08935546875
-122.6806640625
-127.25830078125
-120.849609375
-101.62353515625
-99.79248046875
-108.94775390625
-117.1875
-121.76513671875
-138.24462890625
-124.51171875
-115.3564453125
-129.08935546875
-126.3427734375
-108.0322265625
-101.62353515625
-116.27197265625
-122.6806640625
-135.498046875
-149.23095703125
-137.3291015625
-129.08935546875
-130.92041015625
-131.8359375
-114.44091796875
-115.3564453125
-124.51171875
-131.8359375
-134.58251953125
-143.73779296875
-140.9912109375
-136.41357421875
-140.07568359375
-133.6669921875
-128.173828125
-123.59619140625
-130.0048828125
-135.498046875
-136.41357421875
-146.484375
-137.3291015625
-127.25830078125
-126.3427734375
-123.59619140625
-122.6806640625
-114.44091796875
-118.10302734375
-111.6943359375
-107.11669921875
-113.525390625
-118.10302734375
-120.849609375
-114.44091796875
-109.86328125
-99.79248046875
-96.13037109375
-91.552734375
-88.80615234375
-95.21484375
-106.201171875
-84.228515625
-61.34033203125
-42.1142578125
-43.02978515625
-29.296875
-16.4794921875
-17.39501953125
-12.8173828125
-7.32421875
-15.56396484375
-17.39501953125
-19.22607421875
-21.05712890625
-9.1552734375
7.32421875
11.90185546875
15.56396484375
22.88818359375
32.958984375
25.634765625
33.87451171875
42.1142578125
51.26953125
46.69189453125
53.1005859375
53.1005859375
42.1142578125
35.70556640625
35.70556640625
26.55029296875
17.39501953125
14.6484375
6.40869140625
-19.22607421875
-25.634765625
-34.7900390625
-54.931640625
-61.34033203125
-75.98876953125
-89.7216796875
-96.13037109375
-101.62353515625
-95.21484375
-88.80615234375
-91.552734375
-102.5390625
-113.525390625
-113.525390625
-117.1875
-137.3291015625
-130.92041015625
-125.42724609375
-126.3427734375
-122.6806640625
-119.0185546875
-115.3564453125
-129.08935546875
-138.24462890625
-130.92041015625
-149.23095703125
-150.146484375
-143.73779296875
-140.9912109375
-152.89306640625
-140.07568359375
-140.9912109375
-144.6533203125
-150.146484375
-156.55517578125
-168.45703125
-161.1328125
-141.90673828125
-143.73779296875
-150.146484375
-138.24462890625
-139.16015625
-140.07568359375
-151.9775390625
-160.21728515625
-175.78125
-170.2880859375
-157.470703125
-156.55517578125
-147.39990234375
-148.3154296875
-152.89306640625
-164.794921875
-177.6123046875
-181.2744140625
-192.2607421875
-204.16259765625
-214.2333984375
-190.4296875
-168.45703125
-115.3564453125
-75.0732421875
-33.87451171875
71.4111328125
234.375
383.60595703125
563.04931640625
743.408203125
920.10498046875
1044.61669921875
1122.4365234375
1192.0166015625
1233.21533203125
1210.3271484375
1100.4638671875
855.1025390625
575.86669921875
256.34765625
-15.56396484375
-192.2607421875
-273.74267578125
-284.72900390625
-292.05322265625
-292.96875
-272.8271484375
-252.685546875
-223.388671875
-199.5849609375
-162.04833984375
-136.41357421875
-129.08935546875
-135.498046875
-122.6806640625
-121.76513671875
-136.41357421875
-139.16015625
-143.73779296875
-135.498046875
-131.8359375
-118.10302734375
-108.0322265625
-109.86328125
-117.1875
-120.849609375
-119.0185546875
-126.3427734375
-128.173828125
-127.25830078125
-117.1875
-109.86328125
-113.525390625
-102.5390625
-98.876953125
-101.62353515625
-101.62353515625
-111.6943359375
-115.3564453125
-112.60986328125
-108.0322265625
-107.11669921875
-98.876953125
-80.56640625
-85.14404296875
-91.552734375
-95.21484375
-99.79248046875
-98.876953125
-97.96142578125
-85.14404296875
-79.65087890625
-65.91796875
-53.1005859375
-53.1005859375
-62.255859375
-62.255859375
-65.00244140625
-68.66455078125
-63.17138671875
-53.1005859375
-41.19873046875
-28.38134765625
-29.296875
-31.1279296875
-32.958984375
-30.21240234375
-32.958984375
-30.21240234375
-18.310546875
-12.8173828125
-1.8310546875
11.90185546875
10.07080078125
10.986328125
10.07080078125
10.986328125
2.74658203125
-0.91552734375
5.4931640625
17.39501953125
12.8173828125
23.8037109375
33.87451171875
32.958984375
12.8173828125
12.8173828125
1.8310546875
-7.32421875
1.8310546875
19.22607421875
20.1416015625
21.05712890625
32.958984375
27.4658203125
17.39501953125
10.986328125
10.07080078125
1.8310546875
3.662109375
-5.4931640625
-17.39501953125
-10.07080078125
0.91552734375
-11.90185546875
-25.634765625
-35.70556640625
-40.283203125
-47.607421875
-54.931640625
-54.931640625
-54.01611328125
-53.1005859375
-49.4384765625
-66.83349609375
-70.49560546875
-81.48193359375
-93.3837890625
-99.79248046875
-97.0458984375
-106.201171875
-104.3701171875
-102.5390625
-99.79248046875
-102.5390625
-104.3701171875
-108.0322265625
-116.27197265625
-110.77880859375
-107.11669921875
-102.5390625
-97.96142578125
-99.79248046875
-97.0458984375
-101.62353515625
-107.11669921875
-118.10302734375
-123.59619140625
-137.3291015625
-128.173828125
-119.0185546875
-122.6806640625
-120.849609375
-106.201171875
-116.27197265625
-119.93408203125
-108.94775390625
-114.44091796875
-127.25830078125
-121.76513671875
-116.27197265625
-103.45458984375
-108.94775390625
-113.525390625
-117.1875
-109.86328125
-102.5390625
-107.11669921875
-118.10302734375
-119.0185546875
-114.44091796875
-102.5390625
-104.3701171875
-104.3701171875
-108.94775390625
-115.3564453125
-108.94775390625
-108.0322265625
-110.77880859375
-101.62353515625
-97.0458984375
-102.5390625
-93.3837890625
-83.31298828125
-86.97509765625
-91.552734375
-89.7216796875
-90.63720703125
-92.46826171875
-90.63720703125
-88.80615234375
-85.14404296875
-78.7353515625
-68.66455078125
-61.34033203125
-60.4248046875
-68.66455078125
-62.255859375
-54.01611328125
-43.02978515625
-32.04345703125
-24.71923828125
-17.39501953125
-0.91552734375
4.57763671875
-1.8310546875
-0.91552734375
-2.74658203125
8.23974609375
11.90185546875
13.73291015625
20.1416015625
23.8037109375
29.296875
39.36767578125
50.35400390625
52.18505859375
56.7626953125
48.52294921875
28.38134765625
30.21240234375
43.9453125
46.69189453125
56.7626953125
71.4111328125
54.01611328125
47.607421875
34.7900390625
21.97265625
14.6484375
-4.57763671875
-26.55029296875
-34.7900390625
-43.9453125
-58.59375
-62.255859375
-69.580078125
-84.228515625
-95.21484375
-87.890625
-89.7216796875
-90.63720703125
-86.97509765625
-90.63720703125
-91.552734375
-98.876953125
-106.201171875
-120.849609375
-132.75146484375
-119.93408203125
-117.1875
-118.10302734375
-118.10302734375
-119.0185546875
-115.3564453125
-112.60986328125
-120.849609375
-137.3291015625
-153.80859375
-142.822265625
-137.3291015625
-146.484375
-135.498046875
-134.58251953125
-133.6669921875
-137.3291015625
-141.90673828125
-140.07568359375
-140.07568359375
-130.92041015625
-130.92041015625
-129.08935546875
-123.59619140625
-119.0185546875
-123.59619140625
-126.3427734375
-137.3291015625
-144.6533203125
-146.484375
-138.24462890625
-137.3291015625
-143.73779296875
-131.8359375
-130.0048828125
-141.90673828125
-156.55517578125
-175.78125
-189.51416015625
-205.99365234375
-205.99365234375
-182.18994140625
-142.822265625
-75.98876953125
-36.62109375
10.986328125
132.75146484375
273.74267578125
438.53759765625
614.31884765625
797.42431640625
971.37451171875
1083.06884765625
1163.63525390625
1244.20166015625
1273.49853515625
1224.06005859375
1072.08251953125
784.60693359375
480.65185546875
165.71044921875
-75.98876953125
-224.30419921875
-297.54638671875
-292.96875
-286.56005859375
-271.91162109375
-249.93896484375
-227.96630859375
-206.9091796875
-187.68310546875
-160.21728515625
-141.90673828125
-120.849609375
-105.28564453125
-107.11669921875
-107.11669921875
-108.0322265625
-115.3564453125
-121.76513671875
-118.10302734375
-119.0185546875
-118.10302734375
-111.6943359375
-101.62353515625
-103.45458984375
-108.94775390625
-102.5390625
-103.45458984375
-116.27197265625
-103.45458984375
-103.45458984375
-100.7080078125
-97.96142578125
-84.228515625
-90.63720703125
-99.79248046875
-102.5390625
-106.201171875
-108.94775390625
-96.13037109375
-93.3837890625
-99.79248046875
-82.3974609375
-70.49560546875
-79.65087890625
-70.49560546875
-75.98876953125
-75.0732421875
-87.890625
-75.98876953125
-67.7490234375
-54.01611328125
-48.52294921875
-44.86083984375
-44.86083984375
-49.4384765625
-46.69189453125
-44.86083984375
-44.86083984375
-47.607421875
-43.9453125
-32.04345703125
-39.36767578125
-16.4794921875
-17.39501953125
-3.662109375
-0.91552734375
-14.6484375
-16.4794921875
-11.90185546875
-0.91552734375
4.57763671875
11.90185546875
16.4794921875
15.56396484375
16.4794921875
19.22607421875
14.6484375
4.57763671875
11.90185546875
17.39501953125
32.958984375
32.04345703125
38.4521484375
38.4521484375
32.958984375
31.1279296875
25.634765625
26.55029296875
19.22607421875
26.55029296875
19.22607421875
21.97265625
32.04345703125
28.38134765625
16.4794921875
12.8173828125
0
-4.57763671875
-11.90185546875
-14.6484375
-11.90185546875
-5.4931640625
-3.662109375
-21.05712890625
-22.88818359375
-17.39501953125
-22.88818359375
-44.86083984375
-43.9453125
-45.7763671875
-49.4384765625
-47.607421875
-43.9453125
-52.18505859375
-59.50927734375
-74.15771484375
-83.31298828125
-91.552734375
-93.3837890625
-88.80615234375
-89.7216796875
-87.890625
-84.228515625
-90.63720703125
-93.3837890625
-104.3701171875
-110.77880859375
-119.93408203125
-119.0185546875
-110.77880859375
-106.201171875
-101.62353515625
-94.29931640625
-105.28564453125
-112.60986328125
-99.79248046875
-109.86328125
-122.6806640625
-116.27197265625
-120.849609375
-117.1875
-108.0322265625
-101.62353515625
-114.44091796875
-109.86328125
-117.1875
-113.525390625
-120.849609375
-120.849609375
-116.27197265625
-117.1875
-116.27197265625
-105.28564453125
-100.7080078125
-104.3701171875
-114.44091796875
-124.51171875
-120.849609375
-108.94775390625
-108.0322265625
-110.77880859375
-103.45458984375
-91.552734375
-78.7353515625
-80.56640625
-93.3837890625
-103.45458984375
-107.11669921875
-99.79248046875
-95.21484375
-90.63720703125
-92.46826171875
-77.81982421875
-77.81982421875
-85.14404296875
-85.14404296875
-78.7353515625
-85.14404296875
-94.29931640625
-77.81982421875
-74.15771484375
-66.83349609375
-64.0869140625
-68.66455078125
-75.98876953125
-75.0732421875
-84.228515625
-92.46826171875
-89.7216796875
-66.83349609375
-62.255859375
-56.7626953125
-53.1005859375
-50.35400390625
-40.283203125
-19.22607421875
-12.8173828125
-20.1416015625
-16.4794921875
-7.32421875
-5.4931640625
3.662109375
10.07080078125
9.1552734375
5.4931640625
1.8310546875
9.1552734375
7.32421875
27.4658203125
36.62109375
41.19873046875
57.67822265625
73.2421875
73.2421875
55.84716796875
51.26953125
50.35400390625
40.283203125
37.53662109375
52.18505859375
54.931640625
55.84716796875
43.02978515625
36.62109375
20.1416015625
8.23974609375
-17.39501953125
-35.70556640625
-36.62109375
-48.52294921875
-59.50927734375
-71.4111328125
-76.904296875
-81.48193359375
-86.97509765625
-90.63720703125
-102.5390625
-110.77880859375
-101.62353515625
-94.29931640625
-96.13037109375
-102.5390625
-98.876953125
-97.0458984375
-106.201171875
-121.76513671875
-133.6669921875
-140.07568359375
-140.07568359375
-142.822265625
-135.498046875
-125.42724609375
-118.10302734375
-135.498046875
-137.3291015625
-140.9912109375
-144.6533203125
-155.6396484375
-151.9775390625
-152.89306640625
-142.822265625
-131.8359375
-125.42724609375
-132.75146484375
-137.3291015625
-141.90673828125
-144.6533203125
-147.39990234375
-145.56884765625
-150.146484375
-142.822265625
-140.9912109375
-132.75146484375
-130.92041015625
-139.16015625
-148.3154296875
-151.9775390625
-162.04833984375
-152.89306640625
-149.23095703125
-158.38623046875
-162.04833984375
-167.54150390625
-186.767578125
-196.83837890625
-204.16259765625
-187.68310546875
-161.1328125
-111.6943359375
-74.15771484375
-7.32421875
139.16015625
294.7998046875
467.83447265625
651.85546875
845.947265625
987.85400390625
1062.92724609375
1135.25390625
1221.3134765625
1226.806640625
1175.537109375
1011.65771484375
729.67529296875
414.73388671875
87.890625
-145.56884765625
-275.57373046875
-314.02587890625
-312.19482421875
-303.955078125
-280.1513671875
-234.375
-207.82470703125
-193.17626953125
-161.1328125
-136.41357421875
-134.58251953125
-129.08935546875
-124.51171875
-123.59619140625
-118.10302734375
-103.45458984375
-97.0458984375
-108.0322265625
-113.525390625
-113.525390625
-126.3427734375
-121.76513671875
-117.1875
-109.86328125
-113.525390625
-108.94775390625
-94.29931640625
-97.96142578125
-101.62353515625
-97.96142578125
-106.201171875
-111.6943359375
-109.86328125
-109.86328125
-101.62353515625
-95.21484375
-87.890625
-101.62353515625
-96.13037109375
-82.3974609375
-86.97509765625
-94.29931640625
-79.65087890625
-76.904296875
-76.904296875
-75.98876953125
-72.32666015625
-71.4111328125
-84.228515625
-81.48193359375
-86.0595703125
-77.81982421875
-65.00244140625
-51.26953125
-54.01611328125
-48.52294921875
-45.7763671875
-44.86083984375
-37.53662109375
-41.19873046875
-49.4384765625
-52.18505859375
-43.02978515625
-33.87451171875
-32.04345703125
-18.310546875
-13.73291015625
-22.88818359375
-22.88818359375
-12.8173828125
-18.310546875
-20.1416015625
-5.4931640625
-0.91552734375
2.74658203125
11.90185546875
14.6484375
9.1552734375
2.74658203125
2.74658203125
13.73291015625
2.74658203125
-0.91552734375
10.986328125
9.1552734375
16.4794921875
13.73291015625
5.4931640625
3.662109375
1.8310546875
-12.8173828125
-15.56396484375
3.662109375
0
1.8310546875
10.07080078125
7.32421875
4.57763671875
-7.32421875
-15.56396484375
-32.958984375
-29.296875
-21.97265625
-21.05712890625
-21.97265625
-20.1416015625
-27.4658203125
-34.7900390625
-48.52294921875
-58.59375
-72.32666015625
-74.15771484375
-65.00244140625
-66.83349609375
-75.0732421875
-69.580078125
-65.00244140625
-79.65087890625
-94.29931640625
-97.96142578125
-108.94775390625
-97.0458984375
-97.0458984375
-101.62353515625
-108.0322265625
-102.5390625
-110.77880859375
-108.94775390625
-119.93408203125
-129.08935546875
-124.51171875
-116.27197265625
-118.10302734375
-117.1875
-108.94775390625
-91.552734375
-101.62353515625
-115.3564453125
-118.10302734375
-119.0185546875
-128.173828125
-132.75146484375
-128.173828125
-126.3427734375
-119.0185546875
-106.201171875
-106.201171875
-117.1875
-107.11669921875
-116.27197265625
-137.3291015625
-128.173828125
-116.27197265625
-118.10302734375
-108.0322265625
-104.3701171875
-107.11669921875
-100.7080078125
-99.79248046875
-101.62353515625
-117.1875
-117.1875
-114.44091796875
-108.0322265625
-104.3701171875
-90.63720703125
-92.46826171875
-101.62353515625
-100.7080078125
-96.13037109375
-110.77880859375
-104.3701171875
-88.80615234375
-77.81982421875
-62.255859375
-60.4248046875
-66.83349609375
-76.904296875
-75.0732421875
-80.56640625
-93.3837890625
-85.14404296875
-86.97509765625
-87.890625
-76.904296875
-63.17138671875
-71.4111328125
-70.49560546875
-75.0732421875
-75.0732421875
-83.31298828125
-93.3837890625
-90.63720703125
-81.48193359375
-73.2421875
-63.17138671875
-63.17138671875
-61.34033203125
-60.4248046875
-44.86083984375
-38.4521484375
-53.1005859375
-55.84716796875
-37.53662109375
-21.05712890625
-4.57763671875
3.662109375
-2.74658203125
-10.07080078125
-17.39501953125
-10.986328125
-19.22607421875
-4.57763671875
14.6484375
40.283203125
49.4384765625
54.931640625
44.86083984375
27.4658203125
17.39501953125
20.1416015625
16.4794921875
27.4658203125
40.283203125
58.59375
51.26953125
45.7763671875
35.70556640625
21.97265625
-0.91552734375
-42.1142578125
-66.83349609375
-72.32666015625
-74.15771484375
-79.65087890625
-71.4111328125
-86.97509765625
-101.62353515625
-103.45458984375
-113.525390625
-128.173828125
-127.25830078125
-117.1875
-114.44091796875
-116.27197265625
-115.3564453125
-127.25830078125
-126.3427734375
-121.76513671875
-132.75146484375
-146.484375
-145.56884765625
-142.822265625
-138.24462890625
-142.822265625
-140.07568359375
-146.484375
-151.06201171875
-155.6396484375
-162.04833984375
-166.6259765625
-167.54150390625
-155.6396484375
-163.87939453125
-162.9638671875
-159.3017578125
-153.80859375
-155.6396484375
-144.6533203125
-152.89306640625
-167.54150390625
-172.119140625
-168.45703125
-159.3017578125
-161.1328125
-157.470703125
-149.23095703125
-155.6396484375
-155.6396484375
-161.1328125
-166.6259765625
-175.78125
-172.119140625
-165.71044921875
-173.03466796875
-178.52783203125
-197.75390625
-202.33154296875
-203.2470703125
-204.16259765625
-189.51416015625
-151.9775390625
-112.60986328125
-64.0869140625
43.9453125
195.00732421875
362.548828125
538.330078125
691.22314453125
860.595703125
967.71240234375
1045.5322265625
1106.87255859375
1166.3818359375
1160.888671875
1064.75830078125
850.52490234375
585.02197265625
270.08056640625
-14.6484375
-181.2744140625
-273.74267578125
-294.7998046875
-292.96875
-299.37744140625
-291.1376953125
-264.58740234375
-241.69921875
-224.30419921875
-204.16259765625
-182.18994140625
-162.04833984375
-140.07568359375
-140.07568359375
-129.08935546875
-125.42724609375
-115.3564453125
-132.75146484375
-137.3291015625
-150.146484375
-162.9638671875
-151.06201171875
-150.146484375
-150.146484375
-142.822265625
-132.75146484375
-122.6806640625
-127.25830078125
-126.3427734375
-118.10302734375
-125.42724609375
-134.58251953125
-134.58251953125
-125.42724609375
-116.27197265625
-108.94775390625
-106.201171875
-110.77880859375
-113.525390625
-118.10302734375
-126.3427734375
-132.75146484375
-127.25830078125
-117.1875
-109.86328125
-113.525390625
-103.45458984375
-106.201171875
-97.96142578125
-86.97509765625
-88.80615234375
-97.0458984375
-96.13037109375
-80.56640625
-78.7353515625
-72.32666015625
-66.83349609375
-66.83349609375
-73.2421875
-69.580078125
-79.65087890625
-73.2421875
-73.2421875
-68.66455078125
-60.4248046875
-45.7763671875
-44.86083984375
-51.26953125
-42.1142578125
-45.7763671875
-54.931640625
-64.0869140625
-46.69189453125
-43.9453125
-59.50927734375
-38.4521484375
-29.296875
-32.04345703125
-37.53662109375
-43.02978515625
-46.69189453125
-41.19873046875
-24.71923828125
-27.4658203125
-25.634765625
-20.1416015625
-25.634765625
-32.958984375
-34.7900390625
-36.62109375
-39.36767578125
-41.19873046875
-27.4658203125
-32.958984375
-32.04345703125
-19.22607421875
-23.8037109375
-29.296875
-32.958984375
-42.1142578125
-50.35400390625
-51.26953125
-61.34033203125
-60.4248046875
-54.931640625
-50.35400390625
-62.255859375
-70.49560546875
-82.3974609375
-87.890625
-87.890625
-100.7080078125
-93.3837890625
-97.96142578125
-100.7080078125
-91.552734375
-95.21484375
-108.94775390625
-111.6943359375
-112.60986328125
-121.76513671875
-119.93408203125
-120.849609375
-99.79248046875
-111.6943359375
-118.10302734375
-114.44091796875
-122.6806640625
-130.0048828125
-120.849609375
-131.8359375
-145.56884765625
-142.822265625
-137.3291015625
-132.75146484375
-122.6806640625
-125.42724609375
-132.75146484375
-134.58251953125
-138.24462890625
-148.3154296875
-152.89306640625
-140.07568359375
-130.0048828125
-124.51171875
-122.6806640625
-122.6806640625
-126.3427734375
-129.08935546875
-128.173828125
-131.8359375
-131.8359375
-148.3154296875
-135.498046875
-135.498046875
-124.51171875
-108.94775390625
-110.77880859375
-127.25830078125
-129.08935546875
-126.3427734375
-130.0048828125
-109.86328125
-108.0322265625
-108.94775390625
-91.552734375
-91.552734375
-98.876953125
-101.62353515625
-96.13037109375
-103.45458984375
-116.27197265625
-108.0322265625
-111.6943359375
-120.849609375
-122.6806640625
-107.11669921875
-104.3701171875
-112.60986328125
-107.11669921875
-93.3837890625
-95.21484375
-93.3837890625
-83.31298828125
-80.56640625
-67.7490234375
-48.52294921875
-43.02978515625
-51.26953125
-53.1005859375
-50.35400390625
-58.59375
-61.34033203125
-43.9453125
-36.62109375
-33.87451171875
-28.38134765625
-23.8037109375
-20.1416015625
2.74658203125
4.57763671875
-2.74658203125
-1.8310546875
-2.74658203125
10.07080078125
27.4658203125
31.1279296875
28.38134765625
22.88818359375
22.88818359375
9.1552734375
-9.1552734375
-1.8310546875
-7.32421875
-13.73291015625
-34.7900390625
-51.26953125
-75.0732421875
-97.96142578125
-107.11669921875
-113.525390625
-117.1875
-132.75146484375
-128.173828125
-123.59619140625
-118.10302734375
-116.27197265625
-128.173828125
-131.8359375
-128.173828125
-138.24462890625
-156.55517578125
-153.80859375
-145.56884765625
-150.146484375
-152.89306640625
-148.3154296875
-151.06201171875
-163.87939453125
-173.9501953125
-169.37255859375
-169.37255859375
-175.78125
-168.45703125
-176.69677734375
-171.20361328125
-162.9638671875
-162.9638671875
-162.04833984375
-172.119140625
-175.78125
-184.02099609375
-184.9365234375
-160.21728515625
-159.3017578125
-168.45703125
-169.37255859375
-171.20361328125
-178.52783203125
-176.69677734375
-189.51416015625
-192.2607421875
-180.35888671875
-172.119140625
-167.54150390625
-173.03466796875
-170.2880859375
-164.794921875
-171.20361328125
-177.6123046875
-187.68310546875
-200.50048828125
-209.65576171875
-214.2333984375
-214.2333984375
-216.064453125
-194.091796875
-172.119140625
-132.75146484375
-90.63720703125
-21.05712890625
118.10302734375
293.88427734375
479.736328125
660.09521484375
841.36962890625
976.86767578125
1041.8701171875
1089.4775390625
1135.25390625
1161.80419921875
1120.60546875
987.85400390625
770.8740234375
520.01953125
205.99365234375
-43.02978515625
-171.20361328125
-217.8955078125
-230.712890625
-271.91162109375
-305.7861328125
-308.53271484375
-289.306640625
-256.34765625
-223.388671875
-195.9228515625
-182.18994140625
-165.71044921875
-152.89306640625
-154.72412109375
-155.6396484375
-155.6396484375
-156.55517578125
-145.56884765625
-143.73779296875
-133.6669921875
-127.25830078125
-133.6669921875
-144.6533203125
-151.06201171875
-147.39990234375
-146.484375
-148.3154296875
-151.06201171875
-132.75146484375
-130.0048828125
-136.41357421875
-137.3291015625
-139.16015625
-134.58251953125
-134.58251953125
-130.92041015625
-123.59619140625
-124.51171875
-120.849609375
-110.77880859375
-113.525390625
-121.76513671875
-115.3564453125
-110.77880859375
-120.849609375
-119.93408203125
-115.3564453125
-117.1875
-107.11669921875
-88.80615234375
-85.14404296875
-87.890625
-95.21484375
-95.21484375
-103.45458984375
-103.45458984375
-80.56640625
-68.66455078125
-79.65087890625
-77.81982421875
-83.31298828125
-85.14404296875
-79.65087890625
-73.2421875
-80.56640625
-74.15771484375
-68.66455078125
-67.7490234375
-69.580078125
-62.255859375
-61.34033203125
-73.2421875
-69.580078125
-65.00244140625
-74.15771484375
-62.255859375
-53.1005859375
-63.17138671875
-59.50927734375
-46.69189453125
-48.52294921875
-51.26953125
-54.931640625
-59.50927734375
-71.4111328125
-67.7490234375
-59.50927734375
-55.84716796875
-51.26953125
-54.01611328125
-54.01611328125
-56.7626953125
-67.7490234375
-79.65087890625
-83.31298828125
-70.49560546875
-65.00244140625
-61.34033203125
-46.69189453125
-46.69189453125
-55.84716796875
-67.7490234375
-69.580078125
-84.228515625
-97.0458984375
-84.228515625
-76.904296875
-79.65087890625
-79.65087890625
-75.0732421875
-86.0595703125
-89.7216796875
-96.13037109375
-97.0458984375
-113.525390625
-108.94775390625
-106.201171875
-101.62353515625
-107.11669921875
-110.77880859375
-117.1875
-125.42724609375
-124.51171875
-126.3427734375
-146.484375
-142.822265625
-137.3291015625
-139.16015625
-138.24462890625
-132.75146484375
-124.51171875
-140.9912109375
-144.6533203125
-141.90673828125
-146.484375
-146.484375
-138.24462890625
-146.484375
-137.3291015625
-131.8359375
-140.07568359375
-133.6669921875
-140.9912109375
-148.3154296875
-154.72412109375
-140.9912109375
-134.58251953125
-130.0048828125
-119.93408203125
-119.93408203125
-119.93408203125
-118.10302734375
-114.44091796875
-119.0185546875
-120.849609375
-129.08935546875
-128.173828125
-111.6943359375
-109.86328125
-112.60986328125
-116.27197265625
-122.6806640625
-110.77880859375
-110.77880859375
-126.3427734375
-117.1875
-114.44091796875
-93.3837890625
-86.0595703125
-77.81982421875
-86.0595703125
-88.80615234375
-87.890625
-89.7216796875
-86.0595703125
-83.31298828125
-67.7490234375
-53.1005859375
-33.87451171875
-20.1416015625
-23.8037109375
-30.21240234375
-25.634765625
-26.55029296875
-31.1279296875
-32.958984375
-19.22607421875
-12.8173828125
-1.8310546875
19.22607421875
25.634765625
18.310546875
26.55029296875
28.38134765625
26.55029296875
31.1279296875
30.21240234375
31.1279296875
33.87451171875
36.62109375
36.62109375
34.7900390625
34.7900390625
21.97265625
-7.32421875
-31.1279296875
-42.1142578125
-56.7626953125
-69.580078125
-74.15771484375
-79.65087890625
-86.0595703125
-78.7353515625
-102.5390625
-108.0322265625
-120.849609375
-122.6806640625
-124.51171875
-119.93408203125
-106.201171875
-108.0322265625
-114.44091796875
-133.6669921875
-140.07568359375
-141.90673828125
-145.56884765625
-150.146484375
-151.06201171875
-151.9775390625
-138.24462890625
-148.3154296875
-146.484375
-138.24462890625
-149.23095703125
-155.6396484375
-155.6396484375
-153.80859375
-154.72412109375
-152.89306640625
-142.822265625
-143.73779296875
-140.07568359375
-160.21728515625
-159.3017578125
-159.3017578125
-159.3017578125
-152.89306640625
-147.39990234375
-146.484375
-147.39990234375
-149.23095703125
-147.39990234375
-151.9775390625
-163.87939453125
-164.794921875
-154.72412109375
-152.89306640625
-160.21728515625
-168.45703125
-169.37255859375
-175.78125
-191.34521484375
-200.50048828125
-224.30419921875
-230.712890625
-222.47314453125
-186.767578125
-155.6396484375
-115.3564453125
-86.97509765625
-31.1279296875
107.11669921875
273.74267578125
433.04443359375
603.33251953125
785.5224609375
946.6552734375
1033.63037109375
1108.70361328125
1173.7060546875
1211.24267578125
1191.10107421875
1076.66015625
836.7919921875
562.1337890625
241.69921875
-22.88818359375
-174.86572265625
-238.037109375
-249.0234375
-264.58740234375
-279.23583984375
-279.23583984375
-258.1787109375
-232.5439453125
-217.8955078125
-192.2607421875
-162.9638671875
-140.9912109375
-125.42724609375
-113.525390625
-118.10302734375
-130.0048828125
-125.42724609375
-136.41357421875
-139.16015625
-132.75146484375
-128.173828125
-119.0185546875
-116.27197265625
-119.93408203125
-118.10302734375
-119.93408203125
-119.93408203125
-121.76513671875
-127.25830078125
-121.76513671875
-112.60986328125
-114.44091796875
-105.28564453125
-97.96142578125
-103.45458984375
-101.62353515625
-106.201171875
-122.6806640625
-115.3564453125
-108.0322265625
-105.28564453125
-100.7080078125
-85.14404296875
-86.0595703125
-86.0595703125
-93.3837890625
-97.96142578125
-94.29931640625
-82.3974609375
-78.7353515625
-72.32666015625
-81.48193359375
-75.98876953125
-68.66455078125
-76.904296875
-80.56640625
-70.49560546875
-72.32666015625
-65.00244140625
-59.50927734375
-55.84716796875
-35.70556640625
-25.634765625
-32.04345703125
-39.36767578125
-33.87451171875
-40.283203125
-54.01611328125
-48.52294921875
-44.86083984375
-31.1279296875
-23.8037109375
-11.90185546875
-3.662109375
-10.07080078125
-15.56396484375
-22.88818359375
-35.70556640625
-34.7900390625
-18.310546875
-20.1416015625
-16.4794921875
-5.4931640625
-8.23974609375
-12.8173828125
-21.05712890625
-16.4794921875
-34.7900390625
-37.53662109375
-32.04345703125
-24.71923828125
-25.634765625
-18.310546875
-10.986328125
-24.71923828125
-30.21240234375
-29.296875
-28.38134765625
-38.4521484375
-34.7900390625
-34.7900390625
-30.21240234375
-22.88818359375
-22.88818359375
-40.283203125
-46.69189453125
-44.86083984375
-53.1005859375
-65.91796875
-60.4248046875
-65.91796875
-69.580078125
-58.59375
-65.00244140625
-66.83349609375
-74.15771484375
-88.80615234375
-95.21484375
-99.79248046875
-97.0458984375
-84.228515625
-95.21484375
-99.79248046875
-94.29931640625
-98.876953125
-106.201171875
-120.849609375
-130.0048828125
-117.1875
-108.94775390625
-108.0322265625
-113.525390625
-105.28564453125
-99.79248046875
-113.525390625
-116.27197265625
-115.3564453125
-124.51171875
-118.10302734375
-110.77880859375
-119.0185546875
-118.10302734375
-106.201171875
-110.77880859375
-115.3564453125
-116.27197265625
-108.0322265625
-117.1875
-123.59619140625
-111.6943359375
-107.11669921875
-108.0322265625
-92.46826171875
-100.7080078125
-108.0322265625
-102.5390625
-101.62353515625
-108.94775390625
-105.28564453125
-96.13037109375
-95.21484375
-91.552734375
-78.7353515625
-74.15771484375
-75.98876953125
-78.7353515625
-76.904296875
-78.7353515625
-74.15771484375
-57.67822265625
-51.26953125
-43.02978515625
-17.39501953125
-23.8037109375
-18.310546875
-12.8173828125
-14.6484375
-14.6484375
-13.73291015625
-6.40869140625
3.662109375
8.23974609375
28.38134765625
26.55029296875
32.958984375
34.7900390625
43.9453125
49.4384765625
43.9453125
52.18505859375
48.52294921875
64.0869140625
78.7353515625
79.65087890625
75.98876953125
68.66455078125
58.59375
47.607421875
47.607421875
44.86083984375
38.4521484375
35.70556640625
26.55029296875
-10.986328125
-36.62109375
-49.4384765625
-52.18505859375
-64.0869140625
-70.49560546875
-70.49560546875
-70.49560546875
-74.15771484375
-72.32666015625
-73.2421875
-88.80615234375
-97.96142578125
-97.0458984375
-106.201171875
-108.94775390625
-102.5390625
-101.62353515625
-108.94775390625
-109.86328125
-112.60986328125
-115.3564453125
-109.86328125
-125.42724609375
-130.92041015625
-134.58251953125
-129.08935546875
-125.42724609375
-130.0048828125
-115.3564453125
-107.11669921875
-120.849609375
-130.92041015625
-125.42724609375
-144.6533203125
-148.3154296875
-144.6533203125
-140.9912109375
-143.73779296875
-141.90673828125
-146.484375
-151.9775390625
-148.3154296875
-145.56884765625
-146.484375
-136.41357421875
-132.75146484375
-130.0048828125
-139.16015625
-133.6669921875
-125.42724609375
-135.498046875
-143.73779296875
-144.6533203125
-162.9638671875
-168.45703125
-170.2880859375
-179.443359375
-191.34521484375
-183.10546875
-175.78125
-167.54150390625
-124.51171875
-80.56640625
-56.7626953125
37.53662109375
201.416015625
357.97119140625
542.90771484375
732.421875
920.10498046875
1030.8837890625
1116.02783203125
1190.185546875
1246.9482421875
1243.2861328125
1170.0439453125
967.71240234375
688.4765625
385.43701171875
67.7490234375
-144.6533203125
-266.41845703125
-309.4482421875
-311.279296875
-301.20849609375
-266.41845703125
-222.47314453125
-197.75390625
-169.37255859375
-145.56884765625
-136.41357421875
-125.42724609375
-113.525390625
-116.27197265625
-110.77880859375
-106.201171875
-102.5390625
-108.94775390625
-103.45458984375
-99.79248046875
-106.201171875
-111.6943359375
-117.1875
-125.42724609375
-117.1875
-102.5390625
-95.21484375
-97.96142578125
-98.876953125
-92.46826171875
-91.552734375
-90.63720703125
-94.29931640625
-101.62353515625
-107.11669921875
-103.45458984375
-92.46826171875
-88.80615234375
-77.81982421875
-69.580078125
-74.15771484375
-80.56640625
-75.98876953125
-81.48193359375
-83.31298828125
-80.56640625
-73.2421875
-67.7490234375
-58.59375
-51.26953125
-59.50927734375
-65.00244140625
-55.84716796875
-64.0869140625
-65.91796875
-53.1005859375
-36.62109375
-37.53662109375
-30.21240234375
-28.38134765625
-29.296875
-29.296875
-22.88818359375
-29.296875
-26.55029296875
-24.71923828125
-26.55029296875
-15.56396484375
-2.74658203125
-0.91552734375
5.4931640625
12.8173828125
4.57763671875
-8.23974609375
-14.6484375
-0.91552734375
10.986328125
11.90185546875
14.6484375
23.8037109375
16.4794921875
10.986328125
5.4931640625
2.74658203125
1.8310546875
-7.32421875
4.57763671875
6.40869140625
4.57763671875
0.91552734375
-2.74658203125
-6.40869140625
-7.32421875
-7.32421875
-6.40869140625
0
10.07080078125
0
-3.662109375
-4.57763671875
-14.6484375
-22.88818359375
-20.1416015625
-26.55029296875
-43.9453125
-31.1279296875
-21.05712890625
-31.1279296875
-42.1142578125
-37.53662109375
-32.04345703125
-43.02978515625
-51.26953125
-61.34033203125
-72.32666015625
-68.66455078125
-69.580078125
-65.91796875
-53.1005859375
-77.81982421875
-85.14404296875
-87.890625
-89.7216796875
-93.3837890625
-88.80615234375
-92.46826171875
-87.890625
-85.14404296875
-81.48193359375
-84.228515625
-92.46826171875
-98.876953125
-85.14404296875
-100.7080078125
-111.6943359375
-102.5390625
-105.28564453125
-97.96142578125
-93.3837890625
-96.13037109375
-101.62353515625
-104.3701171875
-108.0322265625
-106.201171875
-118.10302734375
-115.3564453125
-107.11669921875
-107.11669921875
-101.62353515625
-90.63720703125
-97.96142578125
-98.876953125
-102.5390625
-106.201171875
-99.79248046875
-96.13037109375
-89.7216796875
-93.3837890625
-84.228515625
-78.7353515625
-82.3974609375
-65.91796875
-65.00244140625
-81.48193359375
-86.97509765625
-74.15771484375
-74.15771484375
-72.32666015625
-55.84716796875
-32.04345703125
-23.8037109375
-15.56396484375
-21.97265625
-27.4658203125
-17.39501953125
1.8310546875
8.23974609375
8.23974609375
21.97265625
26.55029296875
23.8037109375
21.97265625
22.88818359375
19.22607421875
18.310546875
30.21240234375
51.26953125
62.255859375
77.81982421875
80.56640625
70.49560546875
69.580078125
70.49560546875
54.931640625
57.67822265625
67.7490234375
63.17138671875
77.81982421875
61.34033203125
64.0869140625
55.84716796875
30.21240234375
-1.8310546875
-28.38134765625
-47.607421875
-45.7763671875
-37.53662109375
-31.1279296875
-38.4521484375
-43.02978515625
-55.84716796875
-65.91796875
-76.904296875
-79.65087890625
-86.0595703125
-83.31298828125
-79.65087890625
-85.14404296875
-82.3974609375
-79.65087890625
-95.21484375
-108.94775390625
-107.11669921875
-121.76513671875
-124.51171875
-113.525390625
-118.10302734375
-118.10302734375
-123.59619140625
-119.0185546875
-114.44091796875
-113.525390625
-119.0185546875
-140.9912109375
-139.16015625
-130.92041015625
-133.6669921875
-127.25830078125
-124.51171875
-116.27197265625
-116.27197265625
-119.0185546875
-134.58251953125
-134.58251953125
-130.92041015625
-140.9912109375
-132.75146484375
-120.849609375
-123.59619140625
-123.59619140625
-123.59619140625
-126.3427734375
-141.90673828125
-143.73779296875
-151.06201171875
-143.73779296875
-147.39990234375
-150.146484375
-150.146484375
-158.38623046875
-171.20361328125
-199.5849609375
-204.16259765625
-166.6259765625
-146.484375
-96.13037109375
-53.1005859375
26.55029296875
179.443359375
342.4072265625
520.93505859375
688.4765625
877.99072265625
1014.404296875
1095.88623046875
1176.45263671875
1251.52587890625
1278.99169921875
1231.38427734375
1054.6875
759.8876953125
444.9462890625
130.92041015625
-94.29931640625
-227.96630859375
-269.1650390625
-257.26318359375
-270.99609375
-255.43212890625
-223.388671875
-202.33154296875
-175.78125
-158.38623046875
-141.90673828125
-135.498046875
-119.0185546875
-106.201171875
-97.0458984375
-79.65087890625
-86.97509765625
-98.876953125
-99.79248046875
-103.45458984375
-108.94775390625
-105.28564453125
-94.29931640625
-95.21484375
-98.876953125
-97.96142578125
-83.31298828125
-94.29931640625
-95.21484375
-76.904296875
-92.46826171875
-100.7080078125
-88.80615234375
-80.56640625
-82.3974609375
-76.904296875
-77.81982421875
-83.31298828125
-81.48193359375
-70.49560546875
-80.56640625
-88.80615234375
-92.46826171875
-82.3974609375
-72.32666015625
-65.91796875
-61.34033203125
-69.580078125
-62.255859375
-66.83349609375
-70.49560546875
-84.228515625
-70.49560546875
-51.26953125
-39.36767578125
-50.35400390625
-32.958984375
-22.88818359375
-26.55029296875
-27.4658203125
-41.19873046875
-34.7900390625
-29.296875
-35.70556640625
-20.1416015625
-12.8173828125
-12.8173828125
-8.23974609375
-4.57763671875
-5.4931640625
-16.4794921875
-8.23974609375
-7.32421875
-2.74658203125
2.74658203125
3.662109375
10.986328125
3.662109375
3.662109375
8.23974609375
7.32421875
-10.986328125
-3.662109375
-10.07080078125
0.91552734375
9.1552734375
21.97265625
20.1416015625
-0.91552734375
3.662109375
-5.4931640625
-15.56396484375
-20.1416015625
-16.4794921875
-10.07080078125
7.32421875
10.986328125
4.57763671875
-7.32421875
-4.57763671875
-0.91552734375
-19.22607421875
-20.1416015625
-19.22607421875
-8.23974609375
-13.73291015625
-10.986328125
-28.38134765625
-32.958984375
-43.9453125
-50.35400390625
-61.34033203125
-71.4111328125
-58.59375
-52.18505859375
-47.607421875
-60.4248046875
-75.98876953125
-76.904296875
-80.56640625
-86.0595703125
-97.96142578125
-91.552734375
-86.97509765625
-82.3974609375
-78.7353515625
-70.49560546875
-89.7216796875
-92.46826171875
-91.552734375
-100.7080078125
-107.11669921875
-111.6943359375
-98.876953125
-108.94775390625
-95.21484375
-84.228515625
-94.29931640625
-108.0322265625
-123.59619140625
-123.59619140625
-118.10302734375
-108.0322265625
-105.28564453125
-107.11669921875
-103.45458984375
-99.79248046875
-102.5390625
-84.228515625
-81.48193359375
-94.29931640625
-102.5390625
-92.46826171875
-85.14404296875
-83.31298828125
-81.48193359375
-73.2421875
-77.81982421875
-75.0732421875
-69.580078125
-82.3974609375
-94.29931640625
-84.228515625
-82.3974609375
-76.904296875
-70.49560546875
-56.7626953125
-65.00244140625
-56.7626953125
-68.66455078125
-65.91796875
-63.17138671875
-52.18505859375
-35.70556640625
-32.958984375
-14.6484375
5.4931640625
-5.4931640625
-6.40869140625
3.662109375
2.74658203125
-13.73291015625
-8.23974609375
7.32421875
9.1552734375
17.39501953125
25.634765625
38.4521484375
52.18505859375
60.4248046875
60.4248046875
55.84716796875
39.36767578125
43.9453125
64.0869140625
65.91796875
74.15771484375
76.904296875
64.0869140625
66.83349609375
72.32666015625
42.1142578125
31.1279296875
27.4658203125
-5.4931640625
-29.296875
-33.87451171875
-49.4384765625
-54.931640625
-57.67822265625
-62.255859375
-90.63720703125
-86.97509765625
-86.97509765625
-102.5390625
-93.3837890625
-77.81982421875
-87.890625
-112.60986328125
-103.45458984375
-113.525390625
-120.849609375
-122.6806640625
-118.10302734375
-111.6943359375
-113.525390625
-110.77880859375
-121.76513671875
-134.58251953125
-130.0048828125
-131.8359375
-146.484375
-148.3154296875
-133.6669921875
-141.90673828125
-146.484375
-128.173828125
-130.0048828125
-132.75146484375
-142.822265625
-149.23095703125
-149.23095703125
-158.38623046875
-161.1328125
-155.6396484375
-144.6533203125
-130.92041015625
-133.6669921875
-142.822265625
-141.90673828125
-142.822265625
-140.07568359375
-139.16015625
-145.56884765625
-150.146484375
-139.16015625
-133.6669921875
-145.56884765625
-149.23095703125
-155.6396484375
-172.119140625
-189.51416015625
-205.99365234375
-205.99365234375
-211.48681640625
-201.416015625
-163.87939453125
-122.6806640625
-85.14404296875
-10.986328125
111.6943359375
270.99609375
457.763671875
639.0380859375
832.21435546875
986.02294921875
1066.58935546875
1127.9296875
1184.6923828125
1206.6650390625
1188.3544921875
1071.1669921875
844.1162109375
591.4306640625
272.8271484375
0.91552734375
-142.822265625
-206.9091796875
-240.78369140625
-260.009765625
-266.41845703125
-279.23583984375
-265.5029296875
-247.1923828125
-227.96630859375
-189.51416015625
-156.55517578125
-140.9912109375
-132.75146484375
-133.6669921875
-129.08935546875
-129.08935546875
-129.08935546875
-127.25830078125
-123.59619140625
-123.59619140625
-110.77880859375
-117.1875
-125.42724609375
-128.173828125
-124.51171875
-135.498046875
-133.6669921875
-112.60986328125
-109.86328125
-119.93408203125
-111.6943359375
-108.94775390625
-110.77880859375
-115.3564453125
-114.44091796875
-122.6806640625
-126.3427734375
-119.0185546875
-97.96142578125
-104.3701171875
-97.96142578125
-78.7353515625
-91.552734375
-101.62353515625
-111.6943359375
-107.11669921875
-96.13037109375
-97.96142578125
-99.79248046875
-96.13037109375
-82.3974609375
-86.0595703125
-75.98876953125
-79.65087890625
-84.228515625
-90.63720703125
-85.14404296875
-83.31298828125
-87.890625
-76.904296875
-57.67822265625
-53.1005859375
-65.00244140625
-70.49560546875
-67.7490234375
-73.2421875
-64.0869140625
-56.7626953125
-48.52294921875
-48.52294921875
-51.26953125
-47.607421875
-46.69189453125
-54.01611328125
-49.4384765625
-65.91796875
-53.1005859375
-49.4384765625
-54.931640625
-59.50927734375
-52.18505859375
-47.607421875
-55.84716796875
-65.91796875
-60.4248046875
-56.7626953125
-44.86083984375
-49.4384765625
-58.59375
-52.18505859375
-47.607421875
-43.9453125
-54.01611328125
-39.36767578125
-42.1142578125
-61.34033203125
-58.59375
-62.255859375
-47.607421875
-44.86083984375
-48.52294921875
-58.59375
-70.49560546875
-67.7490234375
-68.66455078125
-82.3974609375
-75.98876953125
-77.81982421875
-75.98876953125
-76.904296875
-71.4111328125
-70.49560546875
-76.904296875
-85.14404296875
-93.3837890625
-111.6943359375
-116.27197265625
-110.77880859375
-105.28564453125
-97.0458984375
-101.62353515625
-109.86328125
-113.525390625
-112.60986328125
-114.44091796875
-134.58251953125
-126.3427734375
-124.51171875
-120.849609375
-118.10302734375
-112.60986328125
-109.86328125
-122.6806640625
-122.6806640625
-127.25830078125
-138.24462890625
-119.0185546875
-114.44091796875
-119.93408203125
-121.76513671875
-111.6943359375
-110.77880859375
-119.0185546875
-116.27197265625
-115.3564453125
-136.41357421875
-128.173828125
-125.42724609375
-119.0185546875
-116.27197265625
-104.3701171875
-114.44091796875
-108.94775390625
-112.60986328125
-118.10302734375
-138.24462890625
-130.92041015625
-121.76513671875
-117.1875
-108.94775390625
-86.97509765625
-95.21484375
-105.28564453125
-95.21484375
-84.228515625
-96.13037109375
-87.890625
-74.15771484375
-62.255859375
-52.18505859375
-45.7763671875
-40.283203125
-54.931640625
-58.59375
-60.4248046875
-58.59375
-53.1005859375
-29.296875
-17.39501953125
-18.310546875
-1.8310546875
4.57763671875
4.57763671875
17.39501953125
17.39501953125
-0.91552734375
-0.91552734375
12.8173828125
15.56396484375
18.310546875
43.02978515625
35.70556640625
23.8037109375
27.4658203125
13.73291015625
5.4931640625
10.07080078125
-5.4931640625
-36.62109375
-53.1005859375
-62.255859375
-65.91796875
-73.2421875
-86.97509765625
-89.7216796875
-103.45458984375
-112.60986328125
-108.94775390625
-119.0185546875
-121.76513671875
-119.0185546875
-119.93408203125
-131.8359375
-137.3291015625
-143.73779296875
-129.08935546875
-131.8359375
-135.498046875
-140.07568359375
-143.73779296875
-135.498046875
-130.0048828125
-132.75146484375
-147.39990234375
-154.72412109375
-158.38623046875
-165.71044921875
-162.9638671875
-164.794921875
-158.38623046875
-148.3154296875
-143.73779296875
-163.87939453125
-173.03466796875
-166.6259765625
-175.78125
-172.119140625
-169.37255859375
-169.37255859375
-169.37255859375
-168.45703125
-174.86572265625
-165.71044921875
-162.04833984375
-163.87939453125
-178.52783203125
-172.119140625
-167.54150390625
-161.1328125
-168.45703125
-164.794921875
-166.6259765625
-167.54150390625
-177.6123046875
-200.50048828125
-216.064453125
-215.14892578125
-211.48681640625
-221.5576171875
-216.064453125
-177.6123046875
-140.9912109375
-112.60986328125
-56.7626953125
65.91796875
226.13525390625
420.22705078125
609.7412109375
795.59326171875
946.6552734375
1046.44775390625
1118.7744140625
1162.7197265625
1190.185546875
1184.6923828125
1076.66015625
880.7373046875
628.96728515625
331.4208984375
29.296875
-148.3154296875
-218.81103515625
-246.27685546875
-271.91162109375
-283.8134765625
-295.71533203125
-279.23583984375
-252.685546875
-244.44580078125
-215.14892578125
-182.18994140625
-168.45703125
-151.9775390625
-135.498046875
-129.08935546875
-147.39990234375
-149.23095703125
-141.90673828125
-137.3291015625
-120.849609375
-119.0185546875
-119.0185546875
-130.92041015625
-135.498046875
-140.07568359375
-153.80859375
-150.146484375
-133.6669921875
-133.6669921875
-135.498046875
-119.93408203125
-124.51171875
-127.25830078125
-113.525390625
-124.51171875
-132.75146484375
-132.75146484375
-123.59619140625
-123.59619140625
-117.1875
-107.11669921875
-108.0322265625
-116.27197265625
-115.3564453125
-112.60986328125
-115.3564453125
-116.27197265625
-110.77880859375
-104.3701171875
-100.7080078125
-96.13037109375
-91.552734375
-94.29931640625
-99.79248046875
-101.62353515625
-105.28564453125
-91.552734375
-89.7216796875
-90.63720703125
-77.81982421875
-73.2421875
-62.255859375
-63.17138671875
-77.81982421875
-76.904296875
-86.97509765625
-87.890625
-70.49560546875
-56.7626953125
-58.59375
-62.255859375
-63.17138671875
-60.4248046875
-65.91796875
-61.34033203125
-69.580078125
-72.32666015625
-65.91796875
-46.69189453125
-50.35400390625
-47.607421875
-38.4521484375
-47.607421875
-52.18505859375
-67.7490234375
-74.15771484375
-69.580078125
-68.66455078125
-55.84716796875
-54.931640625
-53.1005859375
-55.84716796875
-62.255859375
-77.81982421875
-67.7490234375
-58.59375
-65.00244140625
-57.67822265625
-59.50927734375
-52.18505859375
-48.52294921875
-52.18505859375
-50.35400390625
-56.7626953125
-68.66455078125
-75.0732421875
-82.3974609375
-76.904296875
-82.3974609375
-89.7216796875
-80.56640625
-78.7353515625
-78.7353515625
-85.14404296875
-84.228515625
-96.13037109375
-104.3701171875
-102.5390625
-99.79248046875
-95.21484375
-94.29931640625
-102.5390625
-112.60986328125
-120.849609375
-119.93408203125
-127.25830078125
-131.8359375
-130.92041015625
-128.173828125
-126.3427734375
-114.44091796875
-111.6943359375
-118.10302734375
-121.76513671875
-127.25830078125
-135.498046875
-130.0048828125
-127.25830078125
-127.25830078125
-128.173828125
-113.525390625
-111.6943359375
-115.3564453125
-119.93408203125
-119.0185546875
-120.849609375
-129.08935546875
-124.51171875
-119.0185546875
-120.849609375
-111.6943359375
-104.3701171875
-112.60986328125
-108.94775390625
-97.0458984375
-110.77880859375
-108.94775390625
-100.7080078125
-93.3837890625
-91.552734375
-77.81982421875
-76.904296875
-71.4111328125
-63.17138671875
-63.17138671875
-54.01611328125
-60.4248046875
-43.02978515625
-38.4521484375
-31.1279296875
-22.88818359375
-20.1416015625
-24.71923828125
-15.56396484375
-1.8310546875
-13.73291015625
-14.6484375
3.662109375
10.07080078125
23.8037109375
47.607421875
59.50927734375
52.18505859375
42.1142578125
39.36767578125
30.21240234375
39.36767578125
54.01611328125
55.84716796875
49.4384765625
56.7626953125
61.34033203125
51.26953125
35.70556640625
27.4658203125
3.662109375
-18.310546875
-39.36767578125
-52.18505859375
-55.84716796875
-54.931640625
-69.580078125
-78.7353515625
-81.48193359375
-79.65087890625
-97.96142578125
-117.1875
-112.60986328125
-102.5390625
-102.5390625
-106.201171875
-108.0322265625
-103.45458984375
-111.6943359375
-120.849609375
-130.0048828125
-138.24462890625
-130.92041015625
-130.92041015625
-130.0048828125
-124.51171875
-128.173828125
-139.16015625
-146.484375
-142.822265625
-146.484375
-148.3154296875
-151.06201171875
-145.56884765625
-148.3154296875
-143.73779296875
-140.07568359375
-152.89306640625
-158.38623046875
-147.39990234375
-156.55517578125
-169.37255859375
-168.45703125
-165.71044921875
-152.89306640625
-139.16015625
-138.24462890625
-141.90673828125
-145.56884765625
-141.90673828125
-147.39990234375
-151.06201171875
-150.146484375
-150.146484375
-149.23095703125
-162.04833984375
-173.9501953125
-185.85205078125
-200.50048828125
-205.078125
-223.388671875
-223.388671875
-194.091796875
-144.6533203125
-110.77880859375
-54.931640625
51.26953125
215.14892578125
377.197265625
574.03564453125
740.66162109375
906.3720703125
1021.728515625
1108.70361328125
1181.94580078125
1243.2861328125
1240.53955078125
1137.0849609375
921.0205078125
638.12255859375
315.85693359375
17.39501953125
-177.6123046875
-259.09423828125
-290.22216796875
-284.72900390625
-269.1650390625
-259.09423828125
-241.69921875
-216.97998046875
-187.68310546875
-171.20361328125
-146.484375
-127.25830078125
-119.93408203125
-119.93408203125
-116.27197265625
-117.1875
-123.59619140625
-131.8359375
-138.24462890625
-136.41357421875
-119.0185546875
-111.6943359375
-107.11669921875
-103.45458984375
-100.7080078125
-110.77880859375
-120.849609375
-119.0185546875
-118.10302734375
-121.76513671875
-120.849609375
-123.59619140625
-103.45458984375
-100.7080078125
-102.5390625
-90.63720703125
-95.21484375
-100.7080078125
-102.5390625
-106.201171875
-105.28564453125
-103.45458984375
-97.0458984375
-87.890625
-85.14404296875
-86.97509765625
-84.228515625
-91.552734375
-91.552734375
-91.552734375
-84.228515625
-74.15771484375
-71.4111328125
-64.0869140625
-59.50927734375
-65.00244140625
-73.2421875
-75.98876953125
-79.65087890625
-75.98876953125
-62.255859375
-46.69189453125
-40.283203125
-31.1279296875
-24.71923828125
-39.36767578125
-37.53662109375
-41.19873046875
-41.19873046875
-39.36767578125
-31.1279296875
-28.38134765625
-29.296875
-22.88818359375
-25.634765625
-28.38134765625
-27.4658203125
-26.55029296875
-25.634765625
-30.21240234375
-36.62109375
-25.634765625
-21.05712890625
-14.6484375
-10.986328125
-17.39501953125
-20.1416015625
-20.1416015625
-34.7900390625
-38.4521484375
-31.1279296875
-34.7900390625
-35.70556640625
-25.634765625
-20.1416015625
-28.38134765625
-29.296875
-30.21240234375
-32.958984375
-45.7763671875
-44.86083984375
-36.62109375
-44.86083984375
-41.19873046875
-39.36767578125
-41.19873046875
-46.69189453125
-61.34033203125
-65.91796875
-73.2421875
-90.63720703125
-90.63720703125
-95.21484375
-92.46826171875
-78.7353515625
-79.65087890625
-86.97509765625
-86.0595703125
-101.62353515625
-107.11669921875
-108.0322265625
-101.62353515625
-97.96142578125
-105.28564453125
-96.13037109375
-107.11669921875
-108.0322265625
-115.3564453125
-116.27197265625
-119.0185546875
-120.849609375
-119.0185546875
-113.525390625
-118.10302734375
-114.44091796875
-110.77880859375
-110.77880859375
-109.86328125
-119.93408203125
-137.3291015625
-130.92041015625
-124.51171875
-117.1875
-106.201171875
-94.29931640625
-111.6943359375
-117.1875
-118.10302734375
-117.1875
-119.0185546875
-114.44091796875
-113.525390625
-118.10302734375
-111.6943359375
-104.3701171875
-109.86328125
-104.3701171875
-88.80615234375
-97.96142578125
-105.28564453125
-97.96142578125
-82.3974609375
-79.65087890625
-66.83349609375
-54.931640625
-48.52294921875
-40.283203125
-32.04345703125
-20.1416015625
-17.39501953125
-21.05712890625
-14.6484375
-8.23974609375
6.40869140625
10.986328125
4.57763671875
5.4931640625
9.1552734375
12.8173828125
13.73291015625
29.296875
43.9453125
51.26953125
64.0869140625
70.49560546875
65.00244140625
62.255859375
57.67822265625
54.931640625
49.4384765625
42.1142578125
48.52294921875
43.9453125
49.4384765625
46.69189453125
28.38134765625
14.6484375
-6.40869140625
-40.283203125
-53.1005859375
-53.1005859375
-59.50927734375
-61.34033203125
-68.66455078125
-65.91796875
-76.904296875
-94.29931640625
-106.201171875
-104.3701171875
-117.1875
-112.60986328125
-104.3701171875
-109.86328125
-116.27197265625
-107.11669921875
-107.11669921875
-118.10302734375
-119.0185546875
-129.08935546875
-139.16015625
-128.173828125
-139.16015625
-142.822265625
-140.9912109375
-134.58251953125
-142.822265625
-140.07568359375
-135.498046875
-140.07568359375
-145.56884765625
-145.56884765625
-148.3154296875
-146.484375
-146.484375
-146.484375
-158.38623046875
-162.9638671875
-151.9775390625
-141.90673828125
-147.39990234375
-147.39990234375
-142.822265625
-148.3154296875
-146.484375
-139.16015625
-144.6533203125
-141.90673828125
-148.3154296875
-156.55517578125
-162.9638671875
-154.72412109375
-170.2880859375
-183.10546875
-191.34521484375
-200.50048828125
-214.2333984375
-208.740234375
-184.02099609375
-144.6533203125
-109.86328125
-67.7490234375
45.7763671875
206.9091796875
373.53515625
574.951171875
747.98583984375
930.17578125
1060.1806640625
1135.25390625
1192.93212890625
1249.69482421875
1254.2724609375
1164.55078125
946.6552734375
654.60205078125
323.18115234375
18.310546875
-193.17626953125
-292.05322265625
-314.02587890625
-296.630859375
-280.1513671875
-257.26318359375
-237.12158203125
-208.740234375
-184.02099609375
-156.55517578125
-144.6533203125
-141.90673828125
-140.07568359375
-134.58251953125
-129.08935546875
-127.25830078125
-110.77880859375
-106.201171875
-112.60986328125
-114.44091796875
-112.60986328125
-118.10302734375
-125.42724609375
-124.51171875
-125.42724609375
-119.93408203125
-105.28564453125
-94.29931640625
-102.5390625
-113.525390625
-112.60986328125
-105.28564453125
-117.1875
-107.11669921875
-108.0322265625
-104.3701171875
-94.29931640625
-96.13037109375
-102.5390625
-106.201171875
-97.96142578125
-102.5390625
-105.28564453125
-95.21484375
-93.3837890625
-88.80615234375
-85.14404296875
-79.65087890625
-75.0732421875
-77.81982421875
-71.4111328125
-75.0732421875
-86.97509765625
-80.56640625
-69.580078125
-59.50927734375
-43.9453125
-34.7900390625
-47.607421875
-54.931640625
-45.7763671875
-46.69189453125
-53.1005859375
-45.7763671875
-41.19873046875
-33.87451171875
-24.71923828125
-21.97265625
-29.296875
-29.296875
-27.4658203125
-33.87451171875
-38.4521484375
-31.1279296875
-25.634765625
-32.04345703125
-22.88818359375
-11.90185546875
-10.07080078125
-21.05712890625
-19.22607421875
-27.4658203125
-35.70556640625
-20.1416015625
-17.39501953125
-20.1416015625
-13.73291015625
-10.986328125
-18.310546875
-25.634765625
-33.87451171875
-33.87451171875
-36.62109375
-26.55029296875
-15.56396484375
-21.97265625
-23.8037109375
-25.634765625
-24.71923828125
-33.87451171875
-38.4521484375
-51.26953125
-50.35400390625
-53.1005859375
-52.18505859375
-59.50927734375
-58.59375
-57.67822265625
-66.83349609375
-71.4111328125
-79.65087890625
-76.904296875
-75.98876953125
-81.48193359375
-79.65087890625
-81.48193359375
-84.228515625
-86.97509765625
-86.0595703125
-93.3837890625
-103.45458984375
-108.94775390625
-116.27197265625
-114.44091796875
-107.11669921875
-99.79248046875
-101.62353515625
-97.0458984375
-97.0458984375
-114.44091796875
-119.0185546875
-120.849609375
-123.59619140625
-116.27197265625
-115.3564453125
-122.6806640625
-124.51171875
-118.10302734375
-109.86328125
-119.93408203125
-122.6806640625
-130.92041015625
-140.07568359375
-121.76513671875
-116.27197265625
-119.0185546875
-119.0185546875
-107.11669921875
-109.86328125
-121.76513671875
-121.76513671875
-114.44091796875
-115.3564453125
-116.27197265625
-109.86328125
-108.0322265625
-102.5390625
-85.14404296875
-86.97509765625
-81.48193359375
-81.48193359375
-94.29931640625
-98.876953125
-94.29931640625
-90.63720703125
-83.31298828125
-75.98876953125
-59.50927734375
-53.1005859375
-53.1005859375
-46.69189453125
-37.53662109375
-32.04345703125
-16.4794921875
-1.8310546875
-6.40869140625
-2.74658203125
6.40869140625
6.40869140625
0
6.40869140625
18.310546875
7.32421875
11.90185546875
23.8037109375
48.52294921875
61.34033203125
73.2421875
76.904296875
63.17138671875
60.4248046875
60.4248046875
47.607421875
51.26953125
68.66455078125
62.255859375
60.4248046875
60.4248046875
50.35400390625
37.53662109375
21.97265625
-4.57763671875
-34.7900390625
-53.1005859375
-46.69189453125
-43.9453125
-41.19873046875
-46.69189453125
-55.84716796875
-71.4111328125
-84.228515625
-95.21484375
-112.60986328125
-115.3564453125
-107.11669921875
-113.525390625
-116.27197265625
-111.6943359375
-108.94775390625
-105.28564453125
-105.28564453125
-108.0322265625
-126.3427734375
-127.25830078125
-128.173828125
-126.3427734375
-126.3427734375
-122.6806640625
-130.0048828125
-140.07568359375
-141.90673828125
-138.24462890625
-146.484375
-150.146484375
-150.146484375
-143.73779296875
-142.822265625
-143.73779296875
-143.73779296875
-150.146484375
-145.56884765625
-144.6533203125
-149.23095703125
-146.484375
-135.498046875
-145.56884765625
-151.9775390625
-147.39990234375
-149.23095703125
-148.3154296875
-146.484375
-151.06201171875
-154.72412109375
-152.89306640625
-151.06201171875
-156.55517578125
-174.86572265625
-176.69677734375
-200.50048828125
-216.97998046875
-232.5439453125
-224.30419921875
-216.064453125
-154.72412109375
-99.79248046875
-57.67822265625
57.67822265625
222.47314453125
383.60595703125
568.54248046875
747.0703125
920.10498046875
1020.81298828125
1105.95703125
1181.0302734375
1228.6376953125
1234.130859375
1152.64892578125
925.59814453125
622.55859375
279.23583984375
-15.56396484375
-215.14892578125
-299.37744140625
-301.20849609375
-284.72900390625
-266.41845703125
-240.78369140625
-227.96630859375
-211.48681640625
-193.17626953125
-175.78125
-155.6396484375
-129.08935546875
-121.76513671875
-119.0185546875
-120.849609375
-119.0185546875
-120.849609375
-123.59619140625
-121.76513671875
-125.42724609375
-139.16015625
-133.6669921875
-122.6806640625
-123.59619140625
-116.27197265625
-107.11669921875
-110.77880859375
-114.44091796875
-119.0185546875
-130.92041015625
-134.58251953125
-128.173828125
-116.27197265625
-114.44091796875
-105.28564453125
-97.0458984375
-98.876953125
-105.28564453125
-112.60986328125
-112.60986328125
-112.60986328125
-105.28564453125
-93.3837890625
-96.13037109375
-86.97509765625
-68.66455078125
-75.0732421875
-79.65087890625
-76.904296875
-74.15771484375
-85.14404296875
-79.65087890625
-75.98876953125
-69.580078125
-68.66455078125
-65.00244140625
-61.34033203125
-57.67822265625
-63.17138671875
-58.59375
-62.255859375
-60.4248046875
-54.931640625
-57.67822265625
-46.69189453125
-35.70556640625
-39.36767578125
-40.283203125
-47.607421875
-49.4384765625
-46.69189453125
-47.607421875
-39.36767578125
-29.296875
-19.22607421875
-13.73291015625
-21.05712890625
-31.1279296875
-40.283203125
-40.283203125
-50.35400390625
-39.36767578125
-39.36767578125
-30.21240234375
-24.71923828125
-21.97265625
-21.05712890625
-22.88818359375
-30.21240234375
-31.1279296875
-43.02978515625
-43.9453125
-40.283203125
-38.4521484375
-39.36767578125
-31.1279296875
-33.87451171875
-21.05712890625
-32.958984375
-43.02978515625
-49.4384765625
-43.9453125
-53.1005859375
-64.0869140625
-54.931640625
-46.69189453125
-50.35400390625
-62.255859375
-56.7626953125
-56.7626953125
-76.904296875
-78.7353515625
-78.7353515625
-86.97509765625
-86.97509765625
-78.7353515625
-83.31298828125
-86.0595703125
-89.7216796875
-92.46826171875
-111.6943359375
-120.849609375
-111.6943359375
-110.77880859375
-101.62353515625
-92.46826171875
-104.3701171875
-113.525390625
-119.93408203125
-123.59619140625
-135.498046875
-130.0048828125
-124.51171875
-104.3701171875
-100.7080078125
-104.3701171875
-109.86328125
-113.525390625
-118.10302734375
-121.76513671875
-131.8359375
-131.8359375
-125.42724609375
-119.0185546875
-122.6806640625
-116.27197265625
-106.201171875
-98.876953125
-96.13037109375
-100.7080078125
-118.10302734375
-114.44091796875
-104.3701171875
-97.96142578125
-97.0458984375
-90.63720703125
-91.552734375
-96.13037109375
-91.552734375
-95.21484375
-100.7080078125
-100.7080078125
-96.13037109375
-96.13037109375
-93.3837890625
-77.81982421875
-85.14404296875
-89.7216796875
-82.3974609375
-73.2421875
-82.3974609375
-81.48193359375
-67.7490234375
-52.18505859375
-36.62109375
-21.05712890625
-17.39501953125
-14.6484375
-0.91552734375
-11.90185546875
-21.97265625
-17.39501953125
-11.90185546875
0
9.1552734375
18.310546875
19.22607421875
21.97265625
26.55029296875
31.1279296875
34.7900390625
46.69189453125
54.931640625
50.35400390625
53.1005859375
59.50927734375
57.67822265625
54.931640625
49.4384765625
45.7763671875
33.87451171875
27.4658203125
33.87451171875
24.71923828125
6.40869140625
-13.73291015625
-36.62109375
-51.26953125
-61.34033203125
-67.7490234375
-79.65087890625
-86.0595703125
-90.63720703125
-91.552734375
-96.13037109375
-93.3837890625
-99.79248046875
-103.45458984375
-106.201171875
-109.86328125
-122.6806640625
-125.42724609375
-123.59619140625
-119.0185546875
-116.27197265625
-120.849609375
-127.25830078125
-137.3291015625
-142.822265625
-149.23095703125
-160.21728515625
-154.72412109375
-143.73779296875
-137.3291015625
-141.90673828125
-134.58251953125
-140.9912109375
-151.06201171875
-163.87939453125
-153.80859375
-162.04833984375
-154.72412109375
-157.470703125
-167.54150390625
-159.3017578125
-146.484375
-144.6533203125
-147.39990234375
-158.38623046875
-155.6396484375
-166.6259765625
-166.6259765625
-153.80859375
-153.80859375
-153.80859375
-150.146484375
-147.39990234375
-149.23095703125
-156.55517578125
-166.6259765625
-195.9228515625
-212.40234375
-217.8955078125
-228.8818359375
-229.79736328125
-210.5712890625
-185.85205078125
-143.73779296875
-108.0322265625
-51.26953125
66.83349609375
238.037109375
427.55126953125
617.98095703125
809.326171875
963.134765625
1063.8427734375
1134.33837890625
1197.509765625
1229.55322265625
1183.77685546875
1042.78564453125
787.353515625
494.384765625
164.794921875
-75.0732421875
-220.64208984375
-289.306640625
-302.1240234375
-298.4619140625
-303.955078125
-279.23583984375
-240.78369140625
-216.064453125
-193.17626953125
-159.3017578125
-144.6533203125
-139.16015625
-134.58251953125
-125.42724609375
-135.498046875
-134.58251953125
-128.173828125
-119.93408203125
-123.59619140625
-107.11669921875
-108.94775390625
-124.51171875
-126.3427734375
-119.93408203125
-137.3291015625
-138.24462890625
-128.173828125
-122.6806640625
-118.10302734375
-113.525390625
-113.525390625
-118.10302734375
-105.28564453125
-100.7080078125
-116.27197265625
-121.76513671875
-109.86328125
-106.201171875
-101.62353515625
-94.29931640625
-100.7080078125
-112.60986328125
-98.876953125
-99.79248046875
-112.60986328125
-101.62353515625
-86.0595703125
-88.80615234375
-80.56640625
-72.32666015625
-72.32666015625
-75.0732421875
-78.7353515625
-82.3974609375
-94.29931640625
-87.890625
-75.0732421875
-69.580078125
-73.2421875
-53.1005859375
-53.1005859375
-59.50927734375
-57.67822265625
-48.52294921875
-55.84716796875
-73.2421875
-59.50927734375
-42.1142578125
-40.283203125
-36.62109375
-34.7900390625
-37.53662109375
-41.19873046875
-44.86083984375
-51.26953125
-46.69189453125
-46.69189453125
-43.9453125
-46.69189453125
-32.04345703125
-29.296875
-37.53662109375
-40.283203125
-50.35400390625
-63.17138671875
-58.59375
-50.35400390625
-43.02978515625
-44.86083984375
-39.36767578125
-40.283203125
-50.35400390625
-39.36767578125
-39.36767578125
-53.1005859375
-57.67822265625
-43.9453125
-56.7626953125
-56.7626953125
-45.7763671875
-30.21240234375
-44.86083984375
-58.59375
-57.67822265625
-58.59375
-56.7626953125
-64.0869140625
-70.49560546875
-72.32666015625
-74.15771484375
-75.0732421875
-78.7353515625
-90.63720703125
-95.21484375
-97.0458984375
-105.28564453125
-94.29931640625
-81.48193359375
-92.46826171875
-97.96142578125
-90.63720703125
-96.13037109375
-104.3701171875
-112.60986328125
-127.25830078125
-136.41357421875
-130.0048828125
-129.08935546875
-119.0185546875
-109.86328125
-107.11669921875
-122.6806640625
-124.51171875
-126.3427734375
-129.08935546875
-138.24462890625
-138.24462890625
-137.3291015625
-134.58251953125
-122.6806640625
-109.86328125
-119.93408203125
-129.08935546875
-119.0185546875
-113.525390625
-119.93408203125
-111.6943359375
-102.5390625
-108.0322265625
-93.3837890625
-97.0458984375
-105.28564453125
-103.45458984375
-97.96142578125
-98.876953125
-106.201171875
-104.3701171875
-85.14404296875
-82.3974609375
-73.2421875
-69.580078125
-85.14404296875
-96.13037109375
-82.3974609375
-76.904296875
-72.32666015625
-67.7490234375
-64.0869140625
-64.0869140625
-65.00244140625
-68.66455078125
-65.91796875
-53.1005859375
-64.0869140625
-69.580078125
-52.18505859375
-37.53662109375
-34.7900390625
-18.310546875
-3.662109375
-7.32421875
-13.73291015625
-1.8310546875
-4.57763671875
-11.90185546875
-7.32421875
0
7.32421875
21.05712890625
21.97265625
40.283203125
46.69189453125
53.1005859375
47.607421875
42.1142578125
32.958984375
37.53662109375
45.7763671875
35.70556640625
51.26953125
66.83349609375
49.4384765625
42.1142578125
25.634765625
6.40869140625
-21.05712890625
-43.02978515625
-56.7626953125
-77.81982421875
-79.65087890625
-74.15771484375
-69.580078125
-88.80615234375
-87.890625
-98.876953125
-110.77880859375
-117.1875
-108.94775390625
-99.79248046875
-97.0458984375
-102.5390625
-119.93408203125
-121.76513671875
-128.173828125
-131.8359375
-134.58251953125
-130.92041015625
-129.08935546875
-132.75146484375
-132.75146484375
-135.498046875
-143.73779296875
-139.16015625
-145.56884765625
-151.06201171875
-161.1328125
-159.3017578125
-146.484375
-152.89306640625
-153.80859375
-142.822265625
-150.146484375
-151.06201171875
-153.80859375
-163.87939453125
-161.1328125
-162.04833984375
-151.9775390625
-148.3154296875
-146.484375
-139.16015625
-155.6396484375
-149.23095703125
-151.06201171875
-166.6259765625
-177.6123046875
-173.9501953125
-173.03466796875
-170.2880859375
-169.37255859375
-173.03466796875
-194.091796875
-211.48681640625
-219.7265625
-237.12158203125
-228.8818359375
-195.00732421875
-145.56884765625
-109.86328125
-44.86083984375
106.201171875
279.23583984375
476.98974609375
660.09521484375
843.20068359375
973.20556640625
1058.349609375
1127.9296875
1184.6923828125
1226.806640625
1178.28369140625
1012.5732421875
761.71875
476.98974609375
154.72412109375
-80.56640625
-197.75390625
-243.5302734375
-263.671875
-276.4892578125
-263.671875
-262.75634765625
-264.58740234375
-245.361328125
-219.7265625
-204.16259765625
-178.52783203125
-146.484375
-134.58251953125
-131.8359375
-129.08935546875
-123.59619140625
-130.0048828125
-134.58251953125
-145.56884765625
-141.90673828125
-139.16015625
-132.75146484375
-128.173828125
-125.42724609375
-120.849609375
-127.25830078125
-133.6669921875
-140.07568359375
-149.23095703125
-144.6533203125
-134.58251953125
-127.25830078125
-122.6806640625
-112.60986328125
-102.5390625
-99.79248046875
-108.0322265625
-111.6943359375
-125.42724609375
-120.849609375
-118.10302734375
-110.77880859375
-101.62353515625
-101.62353515625
-88.80615234375
-86.0595703125
-87.890625
-91.552734375
-92.46826171875
-105.28564453125
-103.45458984375
-97.0458984375
-85.14404296875
-70.49560546875
-65.00244140625
-68.66455078125
-67.7490234375
-72.32666015625
-77.81982421875
-89.7216796875
-82.3974609375
-86.0595703125
-76.904296875
-66.83349609375
-66.83349609375
-73.2421875
-70.49560546875
-59.50927734375
-61.34033203125
-73.2421875
-67.7490234375
-55.84716796875
-66.83349609375
-67.7490234375
-58.59375
-58.59375
-74.15771484375
-72.32666015625
-78.7353515625
-79.65087890625
-80.56640625
-80.56640625
-76.904296875
-71.4111328125
-69.580078125
-69.580078125
-59.50927734375
-59.50927734375
-68.66455078125
-84.228515625
-71.4111328125
-75.0732421875
-67.7490234375
-63.17138671875
-56.7626953125
-63.17138671875
-71.4111328125
-72.32666015625
-68.66455078125
-72.32666015625
-73.2421875
-77.81982421875
-76.904296875
-75.98876953125
-75.0732421875
-74.15771484375
-88.80615234375
-88.80615234375
-97.0458984375
-106.201171875
-95.21484375
-93.3837890625
-97.0458984375
-105.28564453125
-107.11669921875
-116.27197265625
-121.76513671875
-114.44091796875
-117.1875
-120.849609375
-119.0185546875
-130.0048828125
-129.08935546875
-119.0185546875
-112.60986328125
-120.849609375
-127.25830078125
-131.8359375
-137.3291015625
-152.89306640625
-149.23095703125
-130.0048828125
-116.27197265625
-123.59619140625
-128.173828125
-126.3427734375
-131.8359375
-141.90673828125
-145.56884765625
-147.39990234375
-144.6533203125
-138.24462890625
-140.9912109375
-131.8359375
-126.3427734375
-119.93408203125
-130.92041015625
-133.6669921875
-137.3291015625
-120.849609375
-119.93408203125
-118.10302734375
-116.27197265625
-104.3701171875
-96.13037109375
-106.201171875
-114.44091796875
-115.3564453125
-119.93408203125
-123.59619140625
-121.76513671875
-116.27197265625
-107.11669921875
-86.97509765625
-76.904296875
-79.65087890625
-81.48193359375
-74.15771484375
-66.83349609375
-65.91796875
-62.255859375
-59.50927734375
-43.9453125
-38.4521484375
-32.04345703125
-32.04345703125
-43.9453125
-35.70556640625
-32.958984375
-32.04345703125
-15.56396484375
-10.986328125
0.91552734375
8.23974609375
26.55029296875
37.53662109375
34.7900390625
26.55029296875
21.97265625
21.05712890625
17.39501953125
21.97265625
34.7900390625
43.9453125
55.84716796875
42.1142578125
30.21240234375
16.4794921875
-7.32421875
-35.70556640625
-55.84716796875
-64.0869140625
-68.66455078125
-72.32666015625
-68.66455078125
-79.65087890625
-83.31298828125
-79.65087890625
-103.45458984375
-126.3427734375
-118.10302734375
-112.60986328125
-109.86328125
-99.79248046875
-96.13037109375
-112.60986328125
-121.76513671875
-133.6669921875
-143.73779296875
-148.3154296875
-154.72412109375
-145.56884765625
-134.58251953125
-135.498046875
-124.51171875
-140.9912109375
-147.39990234375
-150.146484375
-151.9775390625
-157.470703125
-153.80859375
-143.73779296875
-147.39990234375
-151.9775390625
-147.39990234375
-148.3154296875
-160.21728515625
-157.470703125
-169.37255859375
-175.78125
-170.2880859375
-165.71044921875
-162.04833984375
-157.470703125
-151.9775390625
-155.6396484375
-152.89306640625
-154.72412109375
-164.794921875
-171.20361328125
-164.794921875
-167.54150390625
-171.20361328125
-164.794921875
-159.3017578125
-178.52783203125
-205.078125
-228.8818359375
-227.96630859375
-216.97998046875
-180.35888671875
-136.41357421875
-109.86328125
-26.55029296875
120.849609375
298.4619140625
475.15869140625
656.43310546875
841.36962890625
965.88134765625
1051.025390625
1120.60546875
1168.212890625
1198.42529296875
1173.7060546875
1047.36328125
804.74853515625
522.76611328125
220.64208984375
-37.53662109375
-163.87939453125
-221.5576171875
-239.8681640625
-254.5166015625
-256.34765625
-269.1650390625
-257.26318359375
-220.64208984375
-205.99365234375
-200.50048828125
-174.86572265625
-154.72412109375
-142.822265625
-144.6533203125
-132.75146484375
-134.58251953125
-135.498046875
-139.16015625
-137.3291015625
-136.41357421875
-140.07568359375
-129.08935546875
-123.59619140625
-119.93408203125
-117.1875
-116.27197265625
-113.525390625
-125.42724609375
-131.8359375
-140.9912109375
-138.24462890625
-135.498046875
-128.173828125
-119.0185546875
-112.60986328125
-111.6943359375
-113.525390625
-116.27197265625
-120.849609375
-129.08935546875
-121.76513671875
-112.60986328125
-110.77880859375
-104.3701171875
-101.62353515625
-107.11669921875
-105.28564453125
-101.62353515625
-92.46826171875
-102.5390625
-98.876953125
-90.63720703125
-97.0458984375
-96.13037109375
-75.0732421875
-73.2421875
-69.580078125
-78.7353515625
-90.63720703125
-96.13037109375
-89.7216796875
-84.228515625
-63.17138671875
-56.7626953125
-59.50927734375
-54.01611328125
-56.7626953125
-60.4248046875
-65.00244140625
-68.66455078125
-56.7626953125
-53.1005859375
-58.59375
-57.67822265625
-57.67822265625
-55.84716796875
-68.66455078125
-74.15771484375
-70.49560546875
-67.7490234375
-57.67822265625
-59.50927734375
-69.580078125
-61.34033203125
-42.1142578125
-46.69189453125
-53.1005859375
-59.50927734375
-70.49560546875
-88.80615234375
