ECG
235.29052734375
237.12158203125
248.10791015625
249.0234375
245.361328125
259.09423828125
259.09423828125
266.41845703125
283.8134765625
293.88427734375
279.23583984375
264.58740234375
260.92529296875
236.2060546875
235.29052734375
278.3203125
290.22216796875
300.29296875
343.32275390625
338.7451171875
308.53271484375
294.7998046875
282.89794921875
283.8134765625
312.19482421875
349.7314453125
347.900390625
335.0830078125
339.66064453125
334.16748046875
303.03955078125
266.41845703125
228.8818359375
189.51416015625
166.6259765625
184.9365234375
234.375
247.1923828125
238.95263671875
233.45947265625
203.2470703125
166.6259765625
133.6669921875
109.86328125
92.46826171875
80.56640625
79.65087890625
68.66455078125
45.7763671875
44.86083984375
58.59375
29.296875
-8.23974609375
-29.296875
-25.634765625
-24.71923828125
-18.310546875
-28.38134765625
0
-9.1552734375
-30.21240234375
-38.4521484375
-44.86083984375
-59.50927734375
-70.49560546875
-71.4111328125
-67.7490234375
-55.84716796875
-41.19873046875
-40.283203125
-59.50927734375
-57.67822265625
-75.98876953125
-100.7080078125
-87.890625
-74.15771484375
-69.580078125
-47.607421875
-17.39501953125
-31.1279296875
-67.7490234375
-103.45458984375
-107.11669921875
-98.876953125
-90.63720703125
-78.7353515625
-78.7353515625
-84.228515625
-74.15771484375
-65.91796875
-64.0869140625
-59.50927734375
-42.1142578125
-47.607421875
-51.26953125
-36.62109375
-41.19873046875
-35.70556640625
3.662109375
14.6484375
-10.986328125
-36.62109375
-38.4521484375
-48.52294921875
-39.36767578125
-53.1005859375
-48.52294921875
-31.1279296875
-17.39501953125
-20.1416015625
-31.1279296875
-43.9453125
-51.26953125
-72.32666015625
-86.97509765625
-85.14404296875
-84.228515625
-78.7353515625
-57.67822265625
-44.86083984375
-43.9453125
-62.255859375
-74.15771484375
-69.580078125
-51.26953125
-32.04345703125
-16.4794921875
-23.8037109375
-25.634765625
-38.4521484375
-54.931640625
-52.18505859375
-44.86083984375
-48.52294921875
-63.17138671875
-59.50927734375
-64.0869140625
-80.56640625
-61.34033203125
-38.4521484375
-65.91796875
-65.00244140625
-64.0869140625
-88.80615234375
-100.7080078125
-102.5390625
-98.876953125
-89.7216796875
-65.91796875
-59.50927734375
-66.83349609375
-68.66455078125
-75.0732421875
-82.3974609375
-102.5390625
-96.13037109375
-95.21484375
-103.45458984375
-76.904296875
-87.890625
-105.28564453125
-118.10302734375
-118.10302734375
-127.25830078125
-114.44091796875
-83.31298828125
-72.32666015625
-63.17138671875
-40.283203125
-58.59375
-102.5390625
-116.27197265625
-117.1875
-129.08935546875
-89.7216796875
-50.35400390625
-50.35400390625
-42.1142578125
-33.87451171875
-44.86083984375
-68.66455078125
-78.7353515625
-87.890625
-101.62353515625
-100.7080078125
-85.14404296875
-87.890625
-97.96142578125
-100.7080078125
-86.0595703125
-97.96142578125
-98.876953125
-100.7080078125
-114.44091796875
-107.11669921875
-105.28564453125
-97.96142578125
-104.3701171875
-90.63720703125
-92.46826171875
-112.60986328125
-121.76513671875
-124.51171875
-130.0048828125
-111.6943359375
-84.228515625
-76.904296875
-94.29931640625
-109.86328125
-119.0185546875
-127.25830078125
-142.822265625
-143.73779296875
-125.42724609375
-107.11669921875
-97.0458984375
-81.48193359375
-70.49560546875
-62.255859375
-47.607421875
-60.4248046875
-75.98876953125
-82.3974609375
-97.0458984375
-94.29931640625
-88.80615234375
-102.5390625
-97.0458984375
-71.4111328125
-75.98876953125
-91.552734375
-101.62353515625
-115.3564453125
-133.6669921875
-134.58251953125
-113.525390625
-108.0322265625
-99.79248046875
-82.3974609375
-71.4111328125
-73.2421875
-75.0732421875
-63.17138671875
-78.7353515625
-85.14404296875
-80.56640625
-91.552734375
-111.6943359375
-108.94775390625
-108.94775390625
-123.59619140625
-130.92041015625
-113.525390625
-112.60986328125
-121.76513671875
-105.28564453125
-96.13037109375
-81.48193359375
-69.580078125
-65.91796875
-70.49560546875
-65.91796875
-67.7490234375
-100.7080078125
-105.28564453125
-91.552734375
-100.7080078125
-91.552734375
-70.49560546875
-63.17138671875
-64.0869140625
-67.7490234375
-54.01611328125
-62.255859375
-59.50927734375
-54.01611328125
-60.4248046875
-69.580078125
-63.17138671875
-54.01611328125
-50.35400390625
-50.35400390625
-49.4384765625
-59.50927734375
-54.01611328125
-55.84716796875
-63.17138671875
-72.32666015625
-61.34033203125
-72.32666015625
-92.46826171875
-104.3701171875
-103.45458984375
-127.25830078125
-127.25830078125
-97.96142578125
-80.56640625
-79.65087890625
-96.13037109375
-89.7216796875
-73.2421875
-72.32666015625
-104.3701171875
-119.0185546875
-109.86328125
-109.86328125
-113.525390625
-111.6943359375
-87.890625
-78.7353515625
-97.0458984375
-113.525390625
-110.77880859375
-129.08935546875
-142.822265625
-136.41357421875
-108.94775390625
-94.29931640625
-85.14404296875
-97.96142578125
-98.876953125
-117.1875
-131.8359375
-146.484375
-140.07568359375
-120.849609375
-100.7080078125
-93.3837890625
-78.7353515625
-92.46826171875
-108.94775390625
-122.6806640625
-123.59619140625
-136.41357421875
-130.0048828125
-113.525390625
-93.3837890625
-60.4248046875
5.4931640625
55.84716796875
107.11669921875
167.54150390625
285.64453125
394.59228515625
487.97607421875
574.951171875
677.490234375
758.056640625
831.298828125
865.17333984375
867.919921875
835.87646484375
713.19580078125
545.654296875
333.251953125
1.8310546875
-319.51904296875
-524.59716796875
-561.21826171875
-574.951171875
-634.46044921875
-664.6728515625
-642.7001953125
-629.8828125
-583.19091796875
-503.5400390625
-420.22705078125
-364.3798828125
-283.8134765625
-236.2060546875
-204.16259765625
-168.45703125
-140.07568359375
-121.76513671875
-108.94775390625
-95.21484375
-81.48193359375
-63.17138671875
-43.02978515625
-33.87451171875
-56.7626953125
-61.34033203125
-62.255859375
-68.66455078125
-57.67822265625
-45.7763671875
-51.26953125
-52.18505859375
-32.04345703125
-29.296875
-34.7900390625
-28.38134765625
-35.70556640625
-54.01611328125
-47.607421875
-30.21240234375
-15.56396484375
-10.07080078125
-16.4794921875
-33.87451171875
-36.62109375
-59.50927734375
-68.66455078125
-70.49560546875
-59.50927734375
-36.62109375
-28.38134765625
-21.05712890625
9.1552734375
3.662109375
-0.91552734375
-9.1552734375
3.662109375
-6.40869140625
9.1552734375
22.88818359375
25.634765625
7.32421875
12.8173828125
10.07080078125
-0.91552734375
-3.662109375
8.23974609375
-7.32421875
-6.40869140625
17.39501953125
28.38134765625
41.19873046875
54.01611328125
34.7900390625
21.97265625
38.4521484375
35.70556640625
34.7900390625
38.4521484375
34.7900390625
38.4521484375
56.7626953125
70.49560546875
72.32666015625
87.890625
80.56640625
58.59375
42.1142578125
43.9453125
80.56640625
96.13037109375
101.62353515625
118.10302734375
108.0322265625
81.48193359375
69.580078125
74.15771484375
69.580078125
68.66455078125
75.0732421875
93.3837890625
126.3427734375
187.68310546875
195.9228515625
173.9501953125
161.1328125
174.86572265625
173.9501953125
177.6123046875
186.767578125
198.66943359375
221.5576171875
237.12158203125
238.037109375
227.96630859375
241.69921875
241.69921875
226.13525390625
224.30419921875
251.77001953125
257.26318359375
260.009765625
292.05322265625
288.39111328125
275.57373046875
275.57373046875
292.05322265625
263.671875
277.40478515625
285.64453125
289.306640625
301.20849609375
325.927734375
329.58984375
306.70166015625
302.1240234375
309.4482421875
303.955078125
295.71533203125
292.05322265625
288.39111328125
273.74267578125
273.74267578125
252.685546875
203.2470703125
191.34521484375
196.83837890625
170.2880859375
162.9638671875
157.470703125
147.39990234375
122.6806640625
129.08935546875
119.93408203125
70.49560546875
43.9453125
41.19873046875
45.7763671875
39.36767578125
21.05712890625
16.4794921875
12.8173828125
-4.57763671875
-22.88818359375
-22.88818359375
-31.1279296875
-53.1005859375
-68.66455078125
-50.35400390625
-44.86083984375
-52.18505859375
-54.931640625
-37.53662109375
-55.84716796875
-69.580078125
-83.31298828125
-91.552734375
-96.13037109375
-91.552734375
-74.15771484375
-95.21484375
-113.525390625
-102.5390625
-107.11669921875
-122.6806640625
-100.7080078125
-73.2421875
-88.80615234375
-89.7216796875
-73.2421875
-68.66455078125
-79.65087890625
-67.7490234375
-68.66455078125
-86.0595703125
-74.15771484375
-51.26953125
-91.552734375
-97.0458984375
-66.83349609375
-54.931640625
-41.19873046875
-16.4794921875
-40.283203125
-57.67822265625
-59.50927734375
-54.01611328125
-75.98876953125
-82.3974609375
-66.83349609375
-53.1005859375
-49.4384765625
-36.62109375
-56.7626953125
-59.50927734375
-65.00244140625
-72.32666015625
-90.63720703125
-96.13037109375
-81.48193359375
-84.228515625
-80.56640625
-61.34033203125
-67.7490234375
-69.580078125
-71.4111328125
-85.14404296875
-117.1875
-114.44091796875
-85.14404296875
-80.56640625
-82.3974609375
-51.26953125
-62.255859375
-86.0595703125
-86.97509765625
-91.552734375
-99.79248046875
-108.94775390625
-96.13037109375
-75.98876953125
-65.00244140625
-57.67822265625
-84.228515625
-99.79248046875
-114.44091796875
-124.51171875
-108.0322265625
-96.13037109375
-90.63720703125
-86.97509765625
-81.48193359375
-63.17138671875
-103.45458984375
-136.41357421875
-130.0048828125
-128.173828125
-132.75146484375
-105.28564453125
-73.2421875
-103.45458984375
-95.21484375
-82.3974609375
-86.97509765625
-88.80615234375
-73.2421875
-71.4111328125
-100.7080078125
-105.28564453125
-97.96142578125
-83.31298828125
-90.63720703125
-84.228515625
-94.29931640625
-105.28564453125
-113.525390625
-133.6669921875
-143.73779296875
-124.51171875
-112.60986328125
-135.498046875
-122.6806640625
-99.79248046875
-101.62353515625
-118.10302734375
-129.08935546875
-114.44091796875
-122.6806640625
-113.525390625
-122.6806640625
-123.59619140625
-115.3564453125
-75.0732421875
-65.91796875
-97.0458984375
-130.92041015625
-142.822265625
-150.146484375
-141.90673828125
-138.24462890625
-128.173828125
-99.79248046875
-83.31298828125
-91.552734375
-113.525390625
-140.9912109375
-140.9912109375
-134.58251953125
-112.60986328125
-112.60986328125
-108.94775390625
-110.77880859375
-79.65087890625
-79.65087890625
-80.56640625
-86.97509765625
-97.0458984375
-125.42724609375
-147.39990234375
-138.24462890625
-119.93408203125
-125.42724609375
-119.0185546875
-108.94775390625
-97.0458984375
-105.28564453125
-116.27197265625
-137.3291015625
-126.3427734375
-116.27197265625
-110.77880859375
-110.77880859375
-102.5390625
-106.201171875
-111.6943359375
-114.44091796875
-121.76513671875
-133.6669921875
-127.25830078125
-119.93408203125
-127.25830078125
-128.173828125
-97.96142578125
-97.0458984375
-111.6943359375
-130.92041015625
-125.42724609375
-137.3291015625
-126.3427734375
-110.77880859375
-123.59619140625
-116.27197265625
-88.80615234375
-97.96142578125
-122.6806640625
-121.76513671875
-126.3427734375
-138.24462890625
-125.42724609375
-102.5390625
-97.0458984375
-89.7216796875
-77.81982421875
-92.46826171875
-109.86328125
-117.1875
-116.27197265625
-128.173828125
-126.3427734375
-114.44091796875
-120.849609375
-112.60986328125
-98.876953125
-96.13037109375
-93.3837890625
-63.17138671875
-54.931640625
-69.580078125
-78.7353515625
-85.14404296875
-99.79248046875
-110.77880859375
-91.552734375
-97.0458984375
-99.79248046875
-88.80615234375
-83.31298828125
-92.46826171875
-91.552734375
-96.13037109375
-93.3837890625
-97.96142578125
-91.552734375
-98.876953125
-109.86328125
-97.0458984375
-100.7080078125
-126.3427734375
-137.3291015625
-135.498046875
-113.525390625
-111.6943359375
-109.86328125
-111.6943359375
-129.08935546875
-150.146484375
-143.73779296875
-150.146484375
-143.73779296875
-145.56884765625
-148.3154296875
-140.07568359375
-120.849609375
-122.6806640625
-124.51171875
-135.498046875
-130.92041015625
-144.6533203125
-139.16015625
-133.6669921875
-135.498046875
-130.92041015625
-124.51171875
-147.39990234375
-145.56884765625
-131.8359375
-134.58251953125
-149.23095703125
-140.9912109375
-133.6669921875
-140.07568359375
-109.86328125
-67.7490234375
-48.52294921875
-42.1142578125
-23.8037109375
21.97265625
96.13037109375
186.767578125
327.7587890625
443.115234375
545.654296875
642.7001953125
676.57470703125
713.19580078125
753.47900390625
789.1845703125
753.47900390625
675.6591796875
522.76611328125
301.20849609375
-11.90185546875
-287.4755859375
-448.6083984375
-523.681640625
-558.4716796875
-606.99462890625
-639.95361328125
-606.0791015625
-564.88037109375
-531.92138671875
-521.8505859375
-492.5537109375
-453.18603515625
-408.3251953125
-366.2109375
-305.7861328125
-255.43212890625
-210.5712890625
-188.5986328125
-172.119140625
-143.73779296875
-98.876953125
-97.0458984375
-120.849609375
-136.41357421875
-127.25830078125
-110.77880859375
-125.42724609375
-112.60986328125
-63.17138671875
-33.87451171875
-38.4521484375
-70.49560546875
-63.17138671875
-83.31298828125
-79.65087890625
-88.80615234375
-69.580078125
-52.18505859375
-70.49560546875
-46.69189453125
-25.634765625
-25.634765625
-21.97265625
-5.4931640625
-10.986328125
-26.55029296875
-8.23974609375
-8.23974609375
-10.986328125
-11.90185546875
3.662109375
-15.56396484375
-14.6484375
-7.32421875
-13.73291015625
-25.634765625
-11.90185546875
-2.74658203125
-11.90185546875
-10.986328125
-3.662109375
9.1552734375
-11.90185546875
-39.36767578125
-30.21240234375
-16.4794921875
-13.73291015625
-14.6484375
-27.4658203125
-12.8173828125
14.6484375
15.56396484375
-14.6484375
-30.21240234375
-19.22607421875
-23.8037109375
-6.40869140625
16.4794921875
61.34033203125
65.00244140625
82.3974609375
67.7490234375
54.931640625
65.91796875
73.2421875
30.21240234375
6.40869140625
34.7900390625
61.34033203125
65.91796875
108.94775390625
108.0322265625
82.3974609375
78.7353515625
94.29931640625
107.11669921875
104.3701171875
112.60986328125
112.60986328125
109.86328125
135.498046875
137.3291015625
120.849609375
119.93408203125
141.90673828125
140.9912109375
141.90673828125
148.3154296875
154.72412109375
166.6259765625
173.9501953125
174.86572265625
188.5986328125
197.75390625
203.2470703125
207.82470703125
224.30419921875
253.60107421875
265.5029296875
260.92529296875
289.306640625
278.3203125
259.09423828125
249.0234375
245.361328125
234.375
249.0234375
272.8271484375
285.64453125
285.64453125
284.72900390625
293.88427734375
280.1513671875
286.56005859375
276.4892578125
266.41845703125
262.75634765625
269.1650390625
272.8271484375
290.22216796875
306.70166015625
286.56005859375
272.8271484375
251.77001953125
222.47314453125
199.5849609375
184.9365234375
178.52783203125
154.72412109375
135.498046875
144.6533203125
130.0048828125
106.201171875
92.46826171875
83.31298828125
66.83349609375
48.52294921875
41.19873046875
33.87451171875
22.88818359375
22.88818359375
-6.40869140625
-26.55029296875
-21.05712890625
-33.87451171875
-65.00244140625
-64.0869140625
-55.84716796875
-66.83349609375
-59.50927734375
-51.26953125
-77.81982421875
-103.45458984375
-90.63720703125
-78.7353515625
-102.5390625
-93.3837890625
-89.7216796875
-98.876953125
-87.890625
-63.17138671875
-67.7490234375
-79.65087890625
-86.97509765625
-86.0595703125
-108.0322265625
-96.13037109375
-92.46826171875
-86.0595703125
-64.0869140625
-55.84716796875
-65.00244140625
-97.96142578125
-114.44091796875
-112.60986328125
-128.173828125
-117.1875
-108.0322265625
-98.876953125
-67.7490234375
-48.52294921875
-66.83349609375
-85.14404296875
-77.81982421875
-72.32666015625
-77.81982421875
-60.4248046875
-53.1005859375
-65.91796875
-73.2421875
-65.00244140625
-73.2421875
-92.46826171875
-104.3701171875
-95.21484375
-86.97509765625
-92.46826171875
-108.0322265625
-103.45458984375
-79.65087890625
-55.84716796875
-70.49560546875
-68.66455078125
-68.66455078125
-86.97509765625
-100.7080078125
-87.890625
-72.32666015625
-60.4248046875
-76.904296875
-69.580078125
-60.4248046875
-70.49560546875
-77.81982421875
-74.15771484375
-91.552734375
-97.0458984375
-67.7490234375
-59.50927734375
-70.49560546875
-71.4111328125
-64.0869140625
-69.580078125
-84.228515625
-97.96142578125
-99.79248046875
-92.46826171875
-79.65087890625
-75.98876953125
-69.580078125
-66.83349609375
-99.79248046875
-114.44091796875
-116.27197265625
-111.6943359375
-130.0048828125
-126.3427734375
-106.201171875
-97.96142578125
-93.3837890625
-90.63720703125
-98.876953125
-110.77880859375
-123.59619140625
-130.92041015625
-133.6669921875
-113.525390625
-105.28564453125
-128.173828125
-140.9912109375
-119.93408203125
-126.3427734375
-133.6669921875
-119.0185546875
-99.79248046875
-107.11669921875
-85.14404296875
-65.91796875
-73.2421875
-83.31298828125
-79.65087890625
-94.29931640625
-113.525390625
-112.60986328125
-121.76513671875
-127.25830078125
-108.0322265625
-110.77880859375
-139.16015625
-123.59619140625
-87.890625
-110.77880859375
-125.42724609375
-122.6806640625
-109.86328125
-102.5390625
-104.3701171875
-119.0185546875
-108.0322265625
-98.876953125
-90.63720703125
-102.5390625
-115.3564453125
-133.6669921875
-139.16015625
-130.92041015625
-126.3427734375
-103.45458984375
-97.96142578125
-82.3974609375
-60.4248046875
-53.1005859375
-103.45458984375
-131.8359375
-118.10302734375
-128.173828125
-103.45458984375
-92.46826171875
-66.83349609375
-55.84716796875
-38.4521484375
-51.26953125
-33.87451171875
-47.607421875
-65.91796875
-55.84716796875
-55.84716796875
-54.931640625
-47.607421875
-41.19873046875
-25.634765625
-54.931640625
-69.580078125
-82.3974609375
-77.81982421875
-68.66455078125
-59.50927734375
-45.7763671875
-42.1142578125
-52.18505859375
-65.00244140625
-92.46826171875
-118.10302734375
-119.0185546875
-124.51171875
-124.51171875
-122.6806640625
-113.525390625
-122.6806640625
-130.0048828125
-130.92041015625
-134.58251953125
-146.484375
-160.21728515625
-173.9501953125
-177.6123046875
-168.45703125
-157.470703125
-147.39990234375
-139.16015625
-111.6943359375
-127.25830078125
-131.8359375
-144.6533203125
-160.21728515625
-162.9638671875
-145.56884765625
-132.75146484375
-128.173828125
-134.58251953125
-130.92041015625
-137.3291015625
-138.24462890625
-139.16015625
-137.3291015625
-146.484375
-130.92041015625
-126.3427734375
-130.92041015625
-125.42724609375
-119.0185546875
-109.86328125
-105.28564453125
-94.29931640625
-67.7490234375
-10.986328125
75.98876953125
172.119140625
277.40478515625
404.6630859375
485.2294921875
551.1474609375
621.64306640625
705.87158203125
760.80322265625
792.8466796875
813.90380859375
783.69140625
646.3623046875
475.15869140625
216.97998046875
-141.90673828125
-383.60595703125
-488.8916015625
-520.93505859375
-564.88037109375
-612.48779296875
-628.0517578125
-613.4033203125
-585.02197265625
-555.72509765625
-539.24560546875
-498.046875
-466.9189453125
-428.466796875
-389.09912109375
-316.7724609375
-245.361328125
-208.740234375
-182.18994140625
-141.90673828125
-127.25830078125
-124.51171875
-126.3427734375
-108.0322265625
-123.59619140625
-108.94775390625
-83.31298828125
-89.7216796875
-89.7216796875
-66.83349609375
-84.228515625
-89.7216796875
-80.56640625
-75.0732421875
-80.56640625
-66.83349609375
-55.84716796875
-61.34033203125
-60.4248046875
-48.52294921875
-59.50927734375
-74.15771484375
-72.32666015625
-69.580078125
-71.4111328125
-50.35400390625
-40.283203125
-35.70556640625
-28.38134765625
-1.8310546875
-17.39501953125
-86.0595703125
-81.48193359375
-57.67822265625
-53.1005859375
-34.7900390625
-23.8037109375
-9.1552734375
-6.40869140625
10.986328125
-10.07080078125
-22.88818359375
-28.38134765625
-31.1279296875
-37.53662109375
-28.38134765625
-18.310546875
-21.05712890625
-3.662109375
0.91552734375
4.57763671875
-5.4931640625
8.23974609375
11.90185546875
-1.8310546875
7.32421875
21.05712890625
34.7900390625
41.19873046875
55.84716796875
54.931640625
35.70556640625
29.296875
42.1142578125
37.53662109375
43.02978515625
57.67822265625
57.67822265625
62.255859375
83.31298828125
86.97509765625
80.56640625
71.4111328125
66.83349609375
59.50927734375
73.2421875
73.2421875
73.2421875
101.62353515625
140.9912109375
136.41357421875
131.8359375
131.8359375
118.10302734375
99.79248046875
114.44091796875
144.6533203125
159.3017578125
196.83837890625
219.7265625
211.48681640625
205.99365234375
211.48681640625
205.99365234375
210.5712890625
205.99365234375
215.14892578125
221.5576171875
236.2060546875
267.333984375
266.41845703125
267.333984375
263.671875
284.72900390625
293.88427734375
305.7861328125
314.94140625
306.70166015625
300.29296875
303.955078125
308.53271484375
302.1240234375
303.03955078125
300.29296875
288.39111328125
304.87060546875
325.01220703125
321.35009765625
311.279296875
316.7724609375
281.06689453125
249.0234375
236.2060546875
225.2197265625
202.33154296875
189.51416015625
182.18994140625
162.9638671875
155.6396484375
161.1328125
132.75146484375
99.79248046875
73.2421875
46.69189453125
20.1416015625
13.73291015625
16.4794921875
1.8310546875
-2.74658203125
-3.662109375
-33.87451171875
-67.7490234375
-85.14404296875
-75.98876953125
-83.31298828125
-70.49560546875
-54.01611328125
-57.67822265625
-67.7490234375
-75.0732421875
-83.31298828125
-88.80615234375
-96.13037109375
-94.29931640625
-98.876953125
-87.890625
-86.97509765625
-90.63720703125
-84.228515625
-90.63720703125
-109.86328125
-108.0322265625
-101.62353515625
-98.876953125
-110.77880859375
-93.3837890625
-91.552734375
-97.96142578125
-89.7216796875
-74.15771484375
-83.31298828125
-103.45458984375
-113.525390625
-123.59619140625
-123.59619140625
-102.5390625
-103.45458984375
-121.76513671875
-110.77880859375
-82.3974609375
-87.890625
-91.552734375
-92.46826171875
-75.98876953125
-75.0732421875
-65.91796875
-66.83349609375
-75.98876953125
-71.4111328125
-64.0869140625
-69.580078125
-85.14404296875
-84.228515625
-95.21484375
-101.62353515625
-95.21484375
-75.98876953125
-65.91796875
-56.7626953125
-49.4384765625
-65.91796875
-82.3974609375
-85.14404296875
-86.97509765625
-84.228515625
-63.17138671875
-59.50927734375
-64.0869140625
-65.91796875
-58.59375
-74.15771484375
-91.552734375
-99.79248046875
-104.3701171875
-109.86328125
-97.0458984375
-82.3974609375
-79.65087890625
-81.48193359375
-77.81982421875
-87.890625
-104.3701171875
-122.6806640625
-116.27197265625
-115.3564453125
-96.13037109375
-86.0595703125
-95.21484375
-93.3837890625
-89.7216796875
-93.3837890625
-98.876953125
-100.7080078125
-108.94775390625
-121.76513671875
-111.6943359375
-118.10302734375
-124.51171875
-108.94775390625
-92.46826171875
-94.29931640625
-111.6943359375
-128.173828125
-131.8359375
-140.9912109375
-138.24462890625
-140.07568359375
-134.58251953125
-108.94775390625
-72.32666015625
-83.31298828125
-94.29931640625
-111.6943359375
-126.3427734375
-139.16015625
-134.58251953125
-127.25830078125
-124.51171875
-132.75146484375
-122.6806640625
-123.59619140625
-123.59619140625
-125.42724609375
-127.25830078125
-133.6669921875
-126.3427734375
-117.1875
-109.86328125
-90.63720703125
-83.31298828125
-97.96142578125
-114.44091796875
-130.0048828125
-135.498046875
-142.822265625
-126.3427734375
-119.0185546875
-125.42724609375
-111.6943359375
-89.7216796875
-118.10302734375
-140.07568359375
-145.56884765625
-133.6669921875
-143.73779296875
-143.73779296875
-129.08935546875
-115.3564453125
-98.876953125
-89.7216796875
-103.45458984375
-124.51171875
-139.16015625
-160.21728515625
-172.119140625
-164.794921875
-156.55517578125
-143.73779296875
-125.42724609375
-103.45458984375
-119.0185546875
-132.75146484375
-129.08935546875
-125.42724609375
-136.41357421875
-126.3427734375
-108.0322265625
-119.93408203125
-119.93408203125
-95.21484375
-107.11669921875
-114.44091796875
-113.525390625
-113.525390625
-114.44091796875
-107.11669921875
-94.29931640625
-76.904296875
-61.34033203125
-51.26953125
-68.66455078125
-88.80615234375
-101.62353515625
-109.86328125
-112.60986328125
-75.0732421875
-44.86083984375
-32.958984375
-25.634765625
-7.32421875
-12.8173828125
-23.8037109375
-53.1005859375
-75.98876953125
-91.552734375
-78.7353515625
-67.7490234375
-74.15771484375
-79.65087890625
-64.0869140625
-75.98876953125
-89.7216796875
-86.0595703125
-84.228515625
-97.96142578125
-91.552734375
-101.62353515625
-108.0322265625
-97.96142578125
-101.62353515625
-120.849609375
-135.498046875
-139.16015625
-155.6396484375
-160.21728515625
-151.06201171875
-144.6533203125
-133.6669921875
-119.0185546875
-110.77880859375
-120.849609375
-129.08935546875
-144.6533203125
-156.55517578125
-164.794921875
-146.484375
-135.498046875
-136.41357421875
-138.24462890625
-128.173828125
-138.24462890625
-144.6533203125
-151.9775390625
-162.9638671875
-174.86572265625
-164.794921875
-151.9775390625
-151.9775390625
-152.89306640625
-124.51171875
-136.41357421875
-148.3154296875
-151.9775390625
-150.146484375
-148.3154296875
-125.42724609375
-114.44091796875
-110.77880859375
-87.890625
-35.70556640625
-7.32421875
19.22607421875
61.34033203125
157.470703125
280.1513671875
416.56494140625
523.681640625
630.79833984375
738.83056640625
810.24169921875
836.7919921875
843.20068359375
850.52490234375
835.87646484375
715.9423828125
564.88037109375
329.58984375
-1.8310546875
-303.955078125
-481.5673828125
-560.302734375
-607.91015625
-662.841796875
-678.40576171875
-668.3349609375
-627.13623046875
-585.9375
-540.1611328125
-473.32763671875
-387.26806640625
-327.7587890625
-277.40478515625
-237.12158203125
-198.66943359375
-179.443359375
-141.90673828125
-115.3564453125
-112.60986328125
-98.876953125
-75.98876953125
-78.7353515625
-86.97509765625
-97.0458984375
-94.29931640625
-100.7080078125
-91.552734375
-75.0732421875
-73.2421875
-63.17138671875
-46.69189453125
-74.15771484375
-98.876953125
-86.97509765625
-97.96142578125
-107.11669921875
-75.98876953125
-49.4384765625
-32.04345703125
-21.97265625
-13.73291015625
-33.87451171875
-34.7900390625
-40.283203125
-54.01611328125
-67.7490234375
-55.84716796875
-32.958984375
-30.21240234375
-28.38134765625
-18.310546875
-31.1279296875
-42.1142578125
-52.18505859375
-65.91796875
-69.580078125
-36.62109375
-20.1416015625
-25.634765625
-19.22607421875
-9.1552734375
-29.296875
-39.36767578125
-38.4521484375
-27.4658203125
-22.88818359375
-15.56396484375
-8.23974609375
-11.90185546875
7.32421875
23.8037109375
16.4794921875
15.56396484375
33.87451171875
40.283203125
14.6484375
27.4658203125
37.53662109375
34.7900390625
40.283203125
54.931640625
41.19873046875
30.21240234375
29.296875
25.634765625
19.22607421875
33.87451171875
52.18505859375
64.0869140625
67.7490234375
78.7353515625
69.580078125
75.98876953125
85.14404296875
77.81982421875
85.14404296875
114.44091796875
117.1875
125.42724609375
131.8359375
137.3291015625
127.25830078125
136.41357421875
149.23095703125
152.89306640625
153.80859375
167.54150390625
177.6123046875
190.4296875
201.416015625
220.64208984375
220.64208984375
218.81103515625
230.712890625
234.375
227.96630859375
237.12158203125
232.5439453125
223.388671875
241.69921875
265.5029296875
272.8271484375
261.8408203125
266.41845703125
274.658203125
263.671875
271.91162109375
289.306640625
301.20849609375
313.1103515625
325.927734375
310.36376953125
303.03955078125
296.630859375
299.37744140625
291.1376953125
295.71533203125
298.4619140625
286.56005859375
262.75634765625
252.685546875
228.8818359375
202.33154296875
180.35888671875
177.6123046875
178.52783203125
173.9501953125
167.54150390625
153.80859375
130.92041015625
108.0322265625
85.14404296875
64.0869140625
49.4384765625
13.73291015625
0
14.6484375
27.4658203125
19.22607421875
10.07080078125
8.23974609375
-20.1416015625
-44.86083984375
-57.67822265625
-71.4111328125
-84.228515625
-65.00244140625
-43.02978515625
-42.1142578125
-42.1142578125
-31.1279296875
-51.26953125
-65.00244140625
-86.97509765625
-97.96142578125
-101.62353515625
-91.552734375
-88.80615234375
-85.14404296875
-81.48193359375
-75.98876953125
-88.80615234375
-93.3837890625
-89.7216796875
-92.46826171875
-103.45458984375
-95.21484375
-97.96142578125
-104.3701171875
-106.201171875
-95.21484375
-113.525390625
-115.3564453125
-96.13037109375
-85.14404296875
-81.48193359375
-84.228515625
-77.81982421875
-78.7353515625
-61.34033203125
-48.52294921875
-62.255859375
-72.32666015625
-75.0732421875
-74.15771484375
-66.83349609375
-42.1142578125
-38.4521484375
-39.36767578125
-39.36767578125
-48.52294921875
-72.32666015625
-105.28564453125
-121.76513671875
-107.11669921875
-97.0458984375
-75.98876953125
-53.1005859375
-52.18505859375
-65.00244140625
-54.01611328125
-62.255859375
-65.00244140625
-65.00244140625
-67.7490234375
-76.904296875
-73.2421875
-69.580078125
-65.00244140625
-57.67822265625
-43.02978515625
-56.7626953125
-65.00244140625
-76.904296875
-89.7216796875
-106.201171875
-97.96142578125
-88.80615234375
-83.31298828125
-75.0732421875
-55.84716796875
-61.34033203125
-84.228515625
-93.3837890625
-96.13037109375
-111.6943359375
-95.21484375
-89.7216796875
-94.29931640625
-97.96142578125
-97.96142578125
-115.3564453125
-129.08935546875
-130.92041015625
-120.849609375
-116.27197265625
-91.552734375
-79.65087890625
-82.3974609375
-86.0595703125
-74.15771484375
-86.0595703125
-92.46826171875
-92.46826171875
-93.3837890625
-108.94775390625
-104.3701171875
-100.7080078125
-107.11669921875
-95.21484375
-70.49560546875
-86.97509765625
-101.62353515625
-101.62353515625
-97.0458984375
-109.86328125
-102.5390625
-107.11669921875
-109.86328125
-105.28564453125
-95.21484375
-109.86328125
-124.51171875
-146.484375
-160.21728515625
-157.470703125
-132.75146484375
-119.0185546875
-106.201171875
-90.63720703125
-75.98876953125
-97.0458984375
-119.93408203125
-121.76513671875
-127.25830078125
-135.498046875
-134.58251953125
-125.42724609375
-114.44091796875
-101.62353515625
-83.31298828125
-92.46826171875
-104.3701171875
-118.10302734375
-127.25830078125
-135.498046875
-122.6806640625
-122.6806640625
-130.92041015625
-126.3427734375
-110.77880859375
-119.93408203125
-126.3427734375
-130.0048828125
-135.498046875
-150.146484375
-136.41357421875
-123.59619140625
-109.86328125
-94.29931640625
-75.0732421875
-96.13037109375
-125.42724609375
-125.42724609375
-128.173828125
-130.0048828125
-114.44091796875
-108.0322265625
-108.0322265625
-101.62353515625
-98.876953125
-114.44091796875
-130.92041015625
-130.0048828125
-131.8359375
-139.16015625
-121.76513671875
-99.79248046875
-100.7080078125
-95.21484375
-83.31298828125
-99.79248046875
-113.525390625
-115.3564453125
-125.42724609375
-151.06201171875
-131.8359375
-118.10302734375
-121.76513671875
-116.27197265625
-106.201171875
-141.90673828125
-151.06201171875
-151.06201171875
-182.18994140625
-197.75390625
-173.9501953125
-158.38623046875
-148.3154296875
-103.45458984375
-71.4111328125
-94.29931640625
-124.51171875
-122.6806640625
-123.59619140625
-130.0048828125
-107.11669921875
-94.29931640625
-94.29931640625
-85.14404296875
-80.56640625
-108.94775390625
-125.42724609375
-117.1875
-110.77880859375
-117.1875
-104.3701171875
-94.29931640625
-88.80615234375
-75.0732421875
-53.1005859375
-68.66455078125
-83.31298828125
-85.14404296875
-83.31298828125
-96.13037109375
-92.46826171875
-81.48193359375
-85.14404296875
-81.48193359375
-65.00244140625
-86.97509765625
-108.94775390625
-126.3427734375
-129.08935546875
-124.51171875
-93.3837890625
-55.84716796875
-34.7900390625
-29.296875
-34.7900390625
-67.7490234375
-73.2421875
-97.96142578125
-109.86328125
-117.1875
-103.45458984375
-101.62353515625
-97.96142578125
-92.46826171875
-67.7490234375
-54.01611328125
-60.4248046875
-72.32666015625
-84.228515625
-96.13037109375
-90.63720703125
-89.7216796875
-97.96142578125
-120.849609375
-117.1875
-127.25830078125
-145.56884765625
-143.73779296875
-139.16015625
-149.23095703125
-140.07568359375
-131.8359375
-139.16015625
-163.87939453125
-169.37255859375
-166.6259765625
-150.146484375
-139.16015625
-142.822265625
-151.06201171875
-134.58251953125
-121.76513671875
-114.44091796875
-84.228515625
-65.91796875
-84.228515625
-97.0458984375
-103.45458984375
-119.0185546875
-137.3291015625
-133.6669921875
-127.25830078125
-139.16015625
-153.80859375
-138.24462890625
-130.92041015625
-130.0048828125
-119.0185546875
-114.44091796875
-86.0595703125
-20.1416015625
33.87451171875
89.7216796875
182.18994140625
303.03955078125
408.3251953125
516.357421875
617.98095703125
718.68896484375
786.43798828125
846.86279296875
875.244140625
888.97705078125
899.0478515625
843.20068359375
678.40576171875
466.9189453125
151.9775390625
-199.5849609375
-451.35498046875
-561.21826171875
-589.599609375
-634.46044921875
-668.3349609375
-662.841796875
-632.62939453125
-603.33251953125
-546.56982421875
-484.31396484375
-433.04443359375
-360.7177734375
-283.8134765625
-231.62841796875
-186.767578125
-138.24462890625
-123.59619140625
-108.0322265625
-97.96142578125
-108.0322265625
-121.76513671875
-87.890625
-69.580078125
-49.4384765625
-41.19873046875
-23.8037109375
-53.1005859375
-68.66455078125
-63.17138671875
-53.1005859375
-51.26953125
-32.958984375
-22.88818359375
-26.55029296875
-26.55029296875
-10.07080078125
-19.22607421875
-36.62109375
-35.70556640625
-43.9453125
-60.4248046875
-66.83349609375
-54.931640625
-30.21240234375
-3.662109375
1.8310546875
-10.07080078125
-21.05712890625
-30.21240234375
-41.19873046875
-35.70556640625
-19.22607421875
-5.4931640625
0
6.40869140625
12.8173828125
1.8310546875
-24.71923828125
-21.05712890625
-11.90185546875
-32.04345703125
-25.634765625
-7.32421875
7.32421875
16.4794921875
28.38134765625
16.4794921875
9.1552734375
10.07080078125
7.32421875
10.07080078125
22.88818359375
29.296875
32.958984375
40.283203125
43.02978515625
31.1279296875
21.97265625
18.310546875
0.91552734375
-7.32421875
33.87451171875
56.7626953125
65.00244140625
77.81982421875
91.552734375
86.97509765625
86.97509765625
100.7080078125
92.46826171875
73.2421875
79.65087890625
91.552734375
98.876953125
112.60986328125
122.6806640625
113.525390625
98.876953125
105.28564453125
108.94775390625
93.3837890625
114.44091796875
138.24462890625
147.39990234375
160.21728515625
177.6123046875
178.52783203125
172.119140625
184.9365234375
169.37255859375
165.71044921875
196.83837890625
216.064453125
225.2197265625
246.27685546875
260.009765625
248.10791015625
236.2060546875
235.29052734375
242.61474609375
247.1923828125
262.75634765625
266.41845703125
269.1650390625
270.08056640625
281.06689453125
283.8134765625
281.982421875
303.03955078125
314.02587890625
310.36376953125
318.603515625
329.58984375
330.50537109375
325.01220703125
325.01220703125
310.36376953125
296.630859375
295.71533203125
287.4755859375
270.99609375
274.658203125
266.41845703125
251.77001953125
229.79736328125
229.79736328125
204.16259765625
168.45703125
144.6533203125
120.849609375
92.46826171875
87.890625
86.0595703125
86.97509765625
81.48193359375
90.63720703125
66.83349609375
39.36767578125
32.04345703125
23.8037109375
10.07080078125
17.39501953125
22.88818359375
11.90185546875
-4.57763671875
-5.4931640625
-31.1279296875
-47.607421875
-52.18505859375
-59.50927734375
-76.904296875
-58.59375
-68.66455078125
-85.14404296875
-82.3974609375
-57.67822265625
-63.17138671875
-69.580078125
-62.255859375
-56.7626953125
-67.7490234375
-57.67822265625
-54.01611328125
-62.255859375
-54.931640625
-45.7763671875
-57.67822265625
-69.580078125
-79.65087890625
-90.63720703125
-88.80615234375
-73.2421875
-66.83349609375
-58.59375
-57.67822265625
-53.1005859375
-59.50927734375
-62.255859375
-70.49560546875
-75.0732421875
-74.15771484375
-65.00244140625
-56.7626953125
-53.1005859375
-56.7626953125
-54.931640625
-80.56640625
-97.96142578125
-93.3837890625
-89.7216796875
-102.5390625
-88.80615234375
-63.17138671875
-63.17138671875
-66.83349609375
-62.255859375
-55.84716796875
-53.1005859375
-50.35400390625
-61.34033203125
-69.580078125
-62.255859375
-49.4384765625
-45.7763671875
-41.19873046875
-35.70556640625
-38.4521484375
-54.931640625
-78.7353515625
-100.7080078125
-126.3427734375
-117.1875
-94.29931640625
-82.3974609375
-67.7490234375
-44.86083984375
-39.36767578125
-54.01611328125
-79.65087890625
-88.80615234375
-87.890625
-81.48193359375
-76.904296875
-74.15771484375
-75.0732421875
-74.15771484375
-82.3974609375
-85.14404296875
-86.97509765625
-80.56640625
-66.83349609375
-67.7490234375
-70.49560546875
-74.15771484375
-72.32666015625
-73.2421875
-90.63720703125
-97.96142578125
-98.876953125
-99.79248046875
-95.21484375
-79.65087890625
-80.56640625
-92.46826171875
-92.46826171875
-90.63720703125
-104.3701171875
-117.1875
-124.51171875
-129.08935546875
-139.16015625
-121.76513671875
-107.11669921875
-101.62353515625
-93.3837890625
-82.3974609375
-91.552734375
-99.79248046875
-98.876953125
-106.201171875
-119.93408203125
-108.94775390625
-93.3837890625
-88.80615234375
-75.98876953125
-67.7490234375
-86.97509765625
-92.46826171875
-102.5390625
-123.59619140625
-127.25830078125
-121.76513671875
-111.6943359375
-109.86328125
-98.876953125
-92.46826171875
-119.93408203125
-121.76513671875
-115.3564453125
-122.6806640625
-132.75146484375
-115.3564453125
-112.60986328125
-115.3564453125
-107.11669921875
-89.7216796875
-88.80615234375
-95.21484375
-98.876953125
-117.1875
-136.41357421875
-127.25830078125
-108.94775390625
-120.849609375
-120.849609375
-105.28564453125
-104.3701171875
-113.525390625
-118.10302734375
-124.51171875
-150.146484375
-134.58251953125
-119.0185546875
-117.1875
-116.27197265625
-116.27197265625
-123.59619140625
-135.498046875
-150.146484375
-142.822265625
-127.25830078125
-112.60986328125
-117.1875
-118.10302734375
-108.0322265625
-94.29931640625
-112.60986328125
-130.0048828125
-141.90673828125
-135.498046875
-145.56884765625
-141.90673828125
-130.92041015625
-129.08935546875
-132.75146484375
-119.93408203125
-118.10302734375
-109.86328125
-125.42724609375
-161.1328125
-188.5986328125
-175.78125
-148.3154296875
-115.3564453125
-108.94775390625
-96.13037109375
-107.11669921875
-124.51171875
-123.59619140625
-123.59619140625
-132.75146484375
-136.41357421875
-123.59619140625
-108.0322265625
-108.0322265625
-107.11669921875
-119.93408203125
-129.08935546875
-133.6669921875
-140.07568359375
-147.39990234375
-138.24462890625
-133.6669921875
-139.16015625
-128.173828125
-122.6806640625
-130.0048828125
-143.73779296875
-140.07568359375
-141.90673828125
-154.72412109375
-154.72412109375
-139.16015625
-132.75146484375
-124.51171875
-115.3564453125
-122.6806640625
-133.6669921875
-130.0048828125
-134.58251953125
-142.822265625
-134.58251953125
-133.6669921875
-133.6669921875
-131.8359375
-129.08935546875
-129.08935546875
-131.8359375
-137.3291015625
-120.849609375
-122.6806640625
-133.6669921875
-136.41357421875
-132.75146484375
-121.76513671875
-110.77880859375
-122.6806640625
-125.42724609375
-123.59619140625
-129.08935546875
-135.498046875
-123.59619140625
-107.11669921875
-97.96142578125
-100.7080078125
-97.96142578125
-108.0322265625
-114.44091796875
-110.77880859375
-109.86328125
-109.86328125
-97.96142578125
-93.3837890625
-98.876953125
-96.13037109375
-88.80615234375
-109.86328125
-127.25830078125
-124.51171875
-114.44091796875
-101.62353515625
-76.904296875
-61.34033203125
-78.7353515625
-102.5390625
-117.1875
-138.24462890625
-158.38623046875
-155.6396484375
-140.07568359375
-129.08935546875
-113.525390625
-104.3701171875
-98.876953125
-91.552734375
-64.0869140625
-72.32666015625
-91.552734375
-93.3837890625
-97.96142578125
-107.11669921875
-110.77880859375
-121.76513671875
-139.16015625
-122.6806640625
-115.3564453125
-135.498046875
-153.80859375
-173.03466796875
-185.85205078125
-198.66943359375
-193.17626953125
-173.9501953125
-156.55517578125
-139.16015625
-121.76513671875
-133.6669921875
-147.39990234375
-150.146484375
-151.9775390625
-157.470703125
-133.6669921875
-128.173828125
-133.6669921875
-126.3427734375
-122.6806640625
-129.08935546875
-130.0048828125
-140.9912109375
-150.146484375
-162.9638671875
-164.794921875
-159.3017578125
-147.39990234375
-133.6669921875
-111.6943359375
-132.75146484375
-155.6396484375
-144.6533203125
-119.0185546875
-72.32666015625
-6.40869140625
78.7353515625
168.45703125
307.6171875
454.1015625
552.978515625
651.85546875
728.759765625
777.28271484375
805.6640625
840.4541015625
856.93359375
822.1435546875
693.05419921875
525.5126953125
263.671875
-87.890625
-383.60595703125
-539.24560546875
-599.67041015625
-619.81201171875
-653.6865234375
-673.828125
-642.7001953125
-595.0927734375
-567.626953125
-527.34375
-473.32763671875
-412.90283203125
-361.63330078125
-283.8134765625
-222.47314453125
-193.17626953125
-160.21728515625
-136.41357421875
-142.822265625
-138.24462890625
-126.3427734375
-119.0185546875
-108.94775390625
-86.0595703125
-71.4111328125
-71.4111328125
-63.17138671875
-54.931640625
-69.580078125
-88.80615234375
-87.890625
-89.7216796875
-85.14404296875
-68.66455078125
-78.7353515625
-72.32666015625
-56.7626953125
-44.86083984375
-48.52294921875
-56.7626953125
-55.84716796875
-57.67822265625
-64.0869140625
-56.7626953125
-58.59375
-70.49560546875
-53.1005859375
-40.283203125
-49.4384765625
-41.19873046875
-30.21240234375
-26.55029296875
-40.283203125
-35.70556640625
-28.38134765625
-34.7900390625
-31.1279296875
-23.8037109375
-28.38134765625
-30.21240234375
-22.88818359375
-31.1279296875
-34.7900390625
-37.53662109375
-42.1142578125
-33.87451171875
-7.32421875
6.40869140625
-10.07080078125
-23.8037109375
-12.8173828125
-6.40869140625
-21.05712890625
3.662109375
18.310546875
16.4794921875
17.39501953125
19.22607421875
11.90185546875
9.1552734375
-3.662109375
-5.4931640625
-2.74658203125
21.97265625
32.04345703125
41.19873046875
53.1005859375
69.580078125
61.34033203125
48.52294921875
44.86083984375
42.1142578125
42.1142578125
46.69189453125
37.53662109375
51.26953125
88.80615234375
107.11669921875
102.5390625
90.63720703125
77.81982421875
68.66455078125
79.65087890625
109.86328125
118.10302734375
130.0048828125
162.04833984375
172.119140625
164.794921875
167.54150390625
173.9501953125
171.20361328125
171.20361328125
191.34521484375
197.75390625
191.34521484375
205.078125
221.5576171875
216.064453125
208.740234375
205.078125
220.64208984375
234.375
261.8408203125
269.1650390625
270.08056640625
276.4892578125
280.1513671875
281.06689453125
266.41845703125
250.8544921875
247.1923828125
251.77001953125
248.10791015625
259.09423828125
269.1650390625
282.89794921875
291.1376953125
281.06689453125
272.8271484375
268.24951171875
257.26318359375
239.8681640625
237.12158203125
237.12158203125
230.712890625
219.7265625
209.65576171875
185.85205078125
155.6396484375
141.90673828125
121.76513671875
102.5390625
91.552734375
72.32666015625
54.01611328125
54.01611328125
32.04345703125
1.8310546875
-21.97265625
-35.70556640625
-45.7763671875
-44.86083984375
-40.283203125
-47.607421875
-50.35400390625
-53.1005859375
-48.52294921875
-59.50927734375
-74.15771484375
-92.46826171875
-94.29931640625
-82.3974609375
-75.0732421875
-66.83349609375
-70.49560546875
-61.34033203125
-74.15771484375
-95.21484375
-106.201171875
-111.6943359375
-118.10302734375
-120.849609375
-100.7080078125
-86.97509765625
-94.29931640625
-86.0595703125
-79.65087890625
-85.14404296875
-99.79248046875
-113.525390625
-125.42724609375
-127.25830078125
-138.24462890625
-115.3564453125
-102.5390625
-99.79248046875
-89.7216796875
-97.0458984375
-97.0458984375
-100.7080078125
-96.13037109375
-86.97509765625
-66.83349609375
-64.0869140625
-86.97509765625
-84.228515625
-69.580078125
-86.0595703125
-106.201171875
-116.27197265625
-129.08935546875
-122.6806640625
-105.28564453125
-96.13037109375
-86.97509765625
-66.83349609375
-58.59375
-62.255859375
-66.83349609375
-76.904296875
-88.80615234375
-93.3837890625
-94.29931640625
-91.552734375
-100.7080078125
-94.29931640625
-88.80615234375
-101.62353515625
-106.201171875
-105.28564453125
-106.201171875
-108.0322265625
-105.28564453125
-98.876953125
-86.0595703125
-66.83349609375
-77.81982421875
-82.3974609375
-91.552734375
-99.79248046875
-110.77880859375
-119.0185546875
-108.0322265625
-99.79248046875
-103.45458984375
-91.552734375
-95.21484375
-105.28564453125
-110.77880859375
-139.16015625
-168.45703125
-176.69677734375
-151.06201171875
-129.08935546875
-119.93408203125
-105.28564453125
-97.0458984375
-116.27197265625
-128.173828125
-134.58251953125
-138.24462890625
-148.3154296875
-154.72412109375
-167.54150390625
-158.38623046875
-149.23095703125
-141.90673828125
-140.07568359375
-131.8359375
-114.44091796875
-119.93408203125
-126.3427734375
-109.86328125
-113.525390625
-120.849609375
-118.10302734375
-119.0185546875
-135.498046875
-147.39990234375
-159.3017578125
-159.3017578125
-151.9775390625
-128.173828125
-115.3564453125
-112.60986328125
-106.201171875
-108.94775390625
-122.6806640625
-130.92041015625
-127.25830078125
-136.41357421875
-143.73779296875
-134.58251953125
-130.0048828125
-122.6806640625
-114.44091796875
-116.27197265625
-130.0048828125
-149.23095703125
-148.3154296875
-155.6396484375
-153.80859375
-149.23095703125
-139.16015625
-137.3291015625
-120.849609375
-123.59619140625
-149.23095703125
-160.21728515625
-167.54150390625
-173.9501953125
-175.78125
-163.87939453125
-170.2880859375
-163.87939453125
-148.3154296875
-141.90673828125
-152.89306640625
-154.72412109375
-152.89306640625
-170.2880859375
-173.9501953125
-154.72412109375
-146.484375
-141.90673828125
-131.8359375
-136.41357421875
-151.9775390625
-159.3017578125
-155.6396484375
-153.80859375
-152.89306640625
-135.498046875
-138.24462890625
-147.39990234375
-134.58251953125
-115.3564453125
-115.3564453125
-104.3701171875
-117.1875
-133.6669921875
-140.9912109375
-143.73779296875
-135.498046875
-134.58251953125
-119.93408203125
-118.10302734375
-139.16015625
-145.56884765625
-159.3017578125
-177.6123046875
-181.2744140625
-172.119140625
-173.03466796875
-156.55517578125
-138.24462890625
-113.525390625
-107.11669921875
-122.6806640625
-139.16015625
-154.72412109375
-152.89306640625
-139.16015625
-131.8359375
-127.25830078125
-108.94775390625
-106.201171875
-123.59619140625
-128.173828125
-126.3427734375
-139.16015625
-141.90673828125
-147.39990234375
-154.72412109375
-150.146484375
-134.58251953125
-128.173828125
-141.90673828125
-154.72412109375
-156.55517578125
-161.1328125
-154.72412109375
-128.173828125
-123.59619140625
-119.0185546875
-105.28564453125
-108.94775390625
-126.3427734375
-127.25830078125
-127.25830078125
-147.39990234375
-160.21728515625
-141.90673828125
-124.51171875
-103.45458984375
-86.0595703125
-92.46826171875
-110.77880859375
-112.60986328125
-123.59619140625
-133.6669921875
-130.0048828125
-117.1875
-111.6943359375
-105.28564453125
-76.904296875
-73.2421875
-95.21484375
-104.3701171875
-102.5390625
-119.0185546875
-121.76513671875
-114.44091796875
-108.94775390625
-101.62353515625
-86.0595703125
-71.4111328125
-69.580078125
-74.15771484375
-73.2421875
-80.56640625
-90.63720703125
-90.63720703125
-99.79248046875
-97.96142578125
-94.29931640625
-107.11669921875
-121.76513671875
-125.42724609375
-131.8359375
-159.3017578125
-173.9501953125
-164.794921875
-126.3427734375
-76.904296875
-47.607421875
-54.01611328125
-83.31298828125
-93.3837890625
-97.0458984375
-110.77880859375
-122.6806640625
-114.44091796875
-117.1875
-125.42724609375
-114.44091796875
-111.6943359375
-130.92041015625
-140.07568359375
-140.9912109375
-156.55517578125
-159.3017578125
-142.822265625
-144.6533203125
-138.24462890625
-115.3564453125
-108.0322265625
-120.849609375
-130.0048828125
-130.0048828125
-143.73779296875
-147.39990234375
-139.16015625
-134.58251953125
-127.25830078125
-124.51171875
-118.10302734375
-140.07568359375
-143.73779296875
-141.90673828125
-148.3154296875
-146.484375
-127.25830078125
-122.6806640625
-128.173828125
-104.3701171875
-82.3974609375
-86.0595703125
-52.18505859375
28.38134765625
148.3154296875
283.8134765625
417.48046875
505.37109375
600.5859375
689.39208984375
744.32373046875
764.46533203125
793.76220703125
802.91748046875
750.732421875
607.91015625
459.5947265625
222.47314453125
-102.5390625
-334.16748046875
-453.18603515625
-512.6953125
-563.04931640625
-620.7275390625
-646.3623046875
-623.47412109375
-584.1064453125
-552.978515625
-521.8505859375
-464.17236328125
-413.818359375
-381.77490234375
-331.4208984375
-273.74267578125
-226.13525390625
-189.51416015625
-150.146484375
-122.6806640625
-108.94775390625
-92.46826171875
-83.31298828125
-93.3837890625
-97.96142578125
-94.29931640625
-100.7080078125
-102.5390625
-99.79248046875
-86.0595703125
-95.21484375
-87.890625
-75.98876953125
-65.91796875
-57.67822265625
-61.34033203125
-67.7490234375
-54.01611328125
-30.21240234375
-23.8037109375
-31.1279296875
-19.22607421875
-15.56396484375
-24.71923828125
-36.62109375
-29.296875
-40.283203125
-44.86083984375
-53.1005859375
-43.02978515625
-42.1142578125
-26.55029296875
-16.4794921875
-21.05712890625
-23.8037109375
-21.05712890625
-36.62109375
-32.04345703125
-12.8173828125
-6.40869140625
7.32421875
27.4658203125
23.8037109375
18.310546875
-2.74658203125
-13.73291015625
-10.986328125
-8.23974609375
5.4931640625
12.8173828125
14.6484375
29.296875
31.1279296875
18.310546875
5.4931640625
-4.57763671875
-23.8037109375
-26.55029296875
-8.23974609375
10.986328125
19.22607421875
22.88818359375
44.86083984375
56.7626953125
65.00244140625
61.34033203125
47.607421875
51.26953125
77.81982421875
86.97509765625
86.97509765625
117.1875
126.3427734375
113.525390625
108.0322265625
103.45458984375
98.876953125
85.14404296875
100.7080078125
111.6943359375
126.3427734375
147.39990234375
152.89306640625
137.3291015625
136.41357421875
143.73779296875
134.58251953125
136.41357421875
155.6396484375
165.71044921875
182.18994140625
206.9091796875
214.2333984375
199.5849609375
203.2470703125
227.05078125
221.5576171875
223.388671875
244.44580078125
270.08056640625
281.982421875
289.306640625
292.96875
287.4755859375
283.8134765625
274.658203125
277.40478515625
292.05322265625
315.85693359375
325.01220703125
325.01220703125
335.0830078125
335.0830078125
314.94140625
300.29296875
288.39111328125
284.72900390625
278.3203125
292.05322265625
301.20849609375
301.20849609375
313.1103515625
315.85693359375
306.70166015625
299.37744140625
275.57373046875
255.43212890625
239.8681640625
223.388671875
207.82470703125
196.83837890625
193.17626953125
173.9501953125
135.498046875
105.28564453125
89.7216796875
65.91796875
58.59375
65.91796875
58.59375
42.1142578125
45.7763671875
33.87451171875
11.90185546875
-18.310546875
-32.04345703125
-50.35400390625
-54.931640625
-37.53662109375
-33.87451171875
-39.36767578125
-28.38134765625
-19.22607421875
-32.958984375
-50.35400390625
-63.17138671875
-82.3974609375
-84.228515625
-79.65087890625
-76.904296875
-73.2421875
-47.607421875
-23.8037109375
-26.55029296875
-42.1142578125
-69.580078125
-80.56640625
-77.81982421875
-58.59375
-51.26953125
-43.02978515625
-27.4658203125
-30.21240234375
-49.4384765625
-68.66455078125
-73.2421875
-74.15771484375
-75.0732421875
-60.4248046875
-50.35400390625
-38.4521484375
-26.55029296875
-30.21240234375
-49.4384765625
-62.255859375
-63.17138671875
-75.0732421875
-80.56640625
-78.7353515625
-75.0732421875
-72.32666015625
-58.59375
-66.83349609375
-64.0869140625
-57.67822265625
-60.4248046875
-75.0732421875
-78.7353515625
-66.83349609375
-64.0869140625
-66.83349609375
-54.931640625
-58.59375
-69.580078125
-75.98876953125
-65.91796875
-70.49560546875
-60.4248046875
-42.1142578125
-24.71923828125
-20.1416015625
-14.6484375
-16.4794921875
-34.7900390625
-49.4384765625
-71.4111328125
-95.21484375
-97.96142578125
-79.65087890625
-75.98876953125
-78.7353515625
-62.255859375
-50.35400390625
-52.18505859375
-67.7490234375
-72.32666015625
-69.580078125
-67.7490234375
-65.00244140625
-65.91796875
-63.17138671875
-54.01611328125
-54.01611328125
-78.7353515625
-98.876953125
-94.29931640625
-100.7080078125
-95.21484375
-87.890625
-89.7216796875
-88.80615234375
-83.31298828125
-82.3974609375
-105.28564453125
-125.42724609375
-128.173828125
-138.24462890625
-135.498046875
-117.1875
-105.28564453125
-90.63720703125
-69.580078125
-74.15771484375
-83.31298828125
-94.29931640625
-101.62353515625
-103.45458984375
-100.7080078125
-90.63720703125
-82.3974609375
-92.46826171875
-101.62353515625
-96.13037109375
-109.86328125
-119.0185546875
-111.6943359375
-108.0322265625
-94.29931640625
-79.65087890625
-75.0732421875
-80.56640625
-71.4111328125
-75.0732421875
-95.21484375
-106.201171875
-107.11669921875
-118.10302734375
-119.0185546875
-109.86328125
-99.79248046875
-98.876953125
-86.97509765625
-93.3837890625
-99.79248046875
-108.0322265625
-113.525390625
-125.42724609375
-117.1875
-117.1875
-117.1875
-113.525390625
-106.201171875
-126.3427734375
-156.55517578125
-158.38623046875
-149.23095703125
-144.6533203125
-128.173828125
-108.94775390625
-93.3837890625
-92.46826171875
-92.46826171875
-90.63720703125
-90.63720703125
-78.7353515625
-91.552734375
-106.201171875
-106.201171875
-104.3701171875
-105.28564453125
-93.3837890625
-75.0732421875
-72.32666015625
-90.63720703125
-101.62353515625
-108.94775390625
-124.51171875
-140.07568359375
-134.58251953125
-119.93408203125
-114.44091796875
-104.3701171875
-93.3837890625
-100.7080078125
-117.1875
-119.93408203125
-129.08935546875
-122.6806640625
-112.60986328125
-105.28564453125
-97.96142578125
-85.14404296875
-86.0595703125
-96.13037109375
-113.525390625
-127.25830078125
-145.56884765625
-144.6533203125
-135.498046875
-129.08935546875
-121.76513671875
-103.45458984375
-116.27197265625
-130.92041015625
-132.75146484375
-144.6533203125
-154.72412109375
-155.6396484375
-145.56884765625
-137.3291015625
-133.6669921875
-122.6806640625
-127.25830078125
-130.92041015625
-129.08935546875
-127.25830078125
-130.92041015625
-119.0185546875
-102.5390625
-106.201171875
-113.525390625
-106.201171875
-109.86328125
-122.6806640625
-122.6806640625
-124.51171875
-140.9912109375
-145.56884765625
-134.58251953125
-130.0048828125
-125.42724609375
-115.3564453125
-113.525390625
-123.59619140625
-130.0048828125
-137.3291015625
-143.73779296875
-137.3291015625
-125.42724609375
-119.0185546875
-117.1875
-98.876953125
-95.21484375
-121.76513671875
-133.6669921875
-134.58251953125
-141.90673828125
-137.3291015625
-119.93408203125
-114.44091796875
-123.59619140625
-118.10302734375
-114.44091796875
-107.11669921875
-108.0322265625
-109.86328125
-119.93408203125
-121.76513671875
-121.76513671875
-124.51171875
-124.51171875
-98.876953125
-88.80615234375
-88.80615234375
-94.29931640625
-94.29931640625
-89.7216796875
-83.31298828125
-74.15771484375
-90.63720703125
-103.45458984375
-106.201171875
-112.60986328125
-122.6806640625
-132.75146484375
-124.51171875
-112.60986328125
-116.27197265625
-105.28564453125
-97.0458984375
-91.552734375
-76.904296875
-79.65087890625
-101.62353515625
-119.0185546875
-131.8359375
-155.6396484375
-154.72412109375
-139.16015625
-132.75146484375
-133.6669921875
-139.16015625
-144.6533203125
-155.6396484375
-155.6396484375
-151.06201171875
-162.9638671875
-158.38623046875
-150.146484375
-158.38623046875
-148.3154296875
-122.6806640625
-119.93408203125
-134.58251953125
-148.3154296875
-154.72412109375
-168.45703125
-167.54150390625
-151.06201171875
-140.9912109375
-147.39990234375
-126.3427734375
-129.08935546875
-143.73779296875
-151.9775390625
-152.89306640625
-156.55517578125
-149.23095703125
-128.173828125
-121.76513671875
-120.849609375
-100.7080078125
-97.96142578125
-99.79248046875
-65.00244140625
-31.1279296875
10.986328125
59.50927734375
164.794921875
299.37744140625
421.142578125
541.9921875
643.61572265625
719.6044921875
769.95849609375
818.4814453125
839.53857421875
860.595703125
862.4267578125
747.0703125
580.4443359375
361.63330078125
15.56396484375
-314.94140625
-514.5263671875
-595.0927734375
-640.869140625
-682.06787109375
-704.04052734375
-682.9833984375
-632.62939453125
-585.02197265625
-551.1474609375
-491.63818359375
-424.8046875
-351.5625
-294.7998046875
-248.10791015625
-204.16259765625
-177.6123046875
-162.04833984375
-143.73779296875
-123.59619140625
-122.6806640625
-106.201171875
-94.29931640625
-92.46826171875
-79.65087890625
-52.18505859375
-39.36767578125
-29.296875
-29.296875
-37.53662109375
-44.86083984375
-45.7763671875
-44.86083984375
-56.7626953125
-55.84716796875
-53.1005859375
-48.52294921875
-37.53662109375
-28.38134765625
-38.4521484375
-50.35400390625
-60.4248046875
-54.931640625
-73.2421875
-87.890625
-69.580078125
-75.0732421875
-65.00244140625
-49.4384765625
-45.7763671875
-43.02978515625
-47.607421875
-52.18505859375
-60.4248046875
-55.84716796875
-43.9453125
-39.36767578125
-32.04345703125
-15.56396484375
-12.8173828125
-17.39501953125
-18.310546875
-31.1279296875
-53.1005859375
-39.36767578125
-16.4794921875
-4.57763671875
-7.32421875
13.73291015625
18.310546875
11.90185546875
5.4931640625
-3.662109375
-24.71923828125
-33.87451171875
-21.97265625
1.8310546875
18.310546875
36.62109375
30.21240234375
31.1279296875
26.55029296875
26.55029296875
18.310546875
24.71923828125
40.283203125
57.67822265625
54.931640625
70.49560546875
69.580078125
56.7626953125
50.35400390625
56.7626953125
41.19873046875
35.70556640625
57.67822265625
72.32666015625
73.2421875
93.3837890625
108.94775390625
108.94775390625
108.0322265625
109.86328125
99.79248046875
110.77880859375
134.58251953125
158.38623046875
173.03466796875
192.2607421875
191.34521484375
177.6123046875
178.52783203125
179.443359375
181.2744140625
191.34521484375
205.078125
220.64208984375
228.8818359375
250.8544921875
241.69921875
240.78369140625
244.44580078125
245.361328125
227.96630859375
240.78369140625
270.08056640625
273.74267578125
280.1513671875
305.7861328125
321.35009765625
311.279296875
298.4619140625
302.1240234375
293.88427734375
287.4755859375
290.22216796875
286.56005859375
284.72900390625
303.03955078125
292.96875
285.64453125
272.8271484375
251.77001953125
237.12158203125
223.388671875
199.5849609375
195.9228515625
201.416015625
205.99365234375
189.51416015625
162.04833984375
137.3291015625
106.201171875
80.56640625
67.7490234375
69.580078125
53.1005859375
47.607421875
61.34033203125
44.86083984375
11.90185546875
-5.4931640625
-21.97265625
-38.4521484375
-33.87451171875
-35.70556640625
-53.1005859375
-54.01611328125
-36.62109375
-50.35400390625
-80.56640625
-92.46826171875
-99.79248046875
-111.6943359375
-106.201171875
-98.876953125
-92.46826171875
-91.552734375
-75.0732421875
-71.4111328125
-71.4111328125
-78.7353515625
-91.552734375
-105.28564453125
-115.3564453125
-106.201171875
-97.96142578125
-91.552734375
-75.98876953125
-75.98876953125
-90.63720703125
-100.7080078125
-106.201171875
-109.86328125
-94.29931640625
-86.97509765625
-86.97509765625
-89.7216796875
-83.31298828125
-73.2421875
-75.0732421875
-78.7353515625
-95.21484375
-113.525390625
-108.0322265625
-100.7080078125
-97.96142578125
-92.46826171875
-65.91796875
-68.66455078125
-85.14404296875
-92.46826171875
-82.3974609375
-90.63720703125
-92.46826171875
-91.552734375
-89.7216796875
-78.7353515625
-60.4248046875
-69.580078125
-81.48193359375
-93.3837890625
-98.876953125
-104.3701171875
-97.96142578125
-79.65087890625
-81.48193359375
-81.48193359375
-67.7490234375
-66.83349609375
-83.31298828125
-88.80615234375
-96.13037109375
-119.0185546875
-128.173828125
-112.60986328125
-104.3701171875
-97.96142578125
-80.56640625
-88.80615234375
-107.11669921875
-107.11669921875
-104.3701171875
-105.28564453125
-94.29931640625
-76.904296875
-78.7353515625
-98.876953125
-97.0458984375
-107.11669921875
-119.0185546875
-113.525390625
-118.10302734375
-132.75146484375
-130.92041015625
-110.77880859375
-102.5390625
-93.3837890625
-74.15771484375
-75.0732421875
-100.7080078125
-116.27197265625
-119.93408203125
-125.42724609375
-125.42724609375
-123.59619140625
-121.76513671875
-114.44091796875
-97.96142578125
-96.13037109375
-117.1875
-117.1875
-116.27197265625
-130.0048828125
-126.3427734375
-117.1875
-115.3564453125
-120.849609375
-98.876953125
-94.29931640625
-109.86328125
-123.59619140625
-132.75146484375
-144.6533203125
-151.9775390625
-143.73779296875
-137.3291015625
-130.92041015625
-109.86328125
-108.0322265625
-118.10302734375
-115.3564453125
-113.525390625
-126.3427734375
-125.42724609375
-120.849609375
-121.76513671875
-118.10302734375
-108.94775390625
-115.3564453125
-127.25830078125
-130.0048828125
-133.6669921875
-137.3291015625
-123.59619140625
-121.76513671875
-126.3427734375
-119.0185546875
-110.77880859375
-118.10302734375
-122.6806640625
-126.3427734375
-136.41357421875
-153.80859375
-162.9638671875
-160.21728515625
-154.72412109375
-154.72412109375
-134.58251953125
-128.173828125
-140.07568359375
-148.3154296875
-158.38623046875
-172.119140625
-164.794921875
-155.6396484375
-134.58251953125
-114.44091796875
-100.7080078125
-104.3701171875
-115.3564453125
-111.6943359375
-119.93408203125
-144.6533203125
-143.73779296875
-133.6669921875
-136.41357421875
-141.90673828125
-154.72412109375
-162.04833984375
-152.89306640625
-136.41357421875
-122.6806640625
-125.42724609375
-120.849609375
-119.0185546875
-124.51171875
-112.60986328125
-91.552734375
-98.876953125
-114.44091796875
-125.42724609375
-131.8359375
-144.6533203125
-151.06201171875
-130.0048828125
-125.42724609375
-121.76513671875
-99.79248046875
-113.525390625
-130.0048828125
-147.39990234375
-162.04833984375
-180.35888671875
-174.86572265625
-145.56884765625
-138.24462890625
-134.58251953125
-119.93408203125
-130.92041015625
-147.39990234375
-148.3154296875
-145.56884765625
-149.23095703125
-139.16015625
-129.08935546875
-125.42724609375
-130.0048828125
-122.6806640625
-128.173828125
-139.16015625
-143.73779296875
-145.56884765625
-153.80859375
-149.23095703125
-139.16015625
-140.9912109375
-143.73779296875
-132.75146484375
-124.51171875
-130.92041015625
-133.6669921875
-127.25830078125
-148.3154296875
-131.8359375
-119.93408203125
-119.0185546875
-121.76513671875
-100.7080078125
-95.21484375
-103.45458984375
-115.3564453125
-127.25830078125
-140.9912109375
-140.9912109375
-143.73779296875
-143.73779296875
-134.58251953125
-109.86328125
-112.60986328125
-129.08935546875
-139.16015625
-143.73779296875
-155.6396484375
-157.470703125
-151.06201171875
-143.73779296875
-152.89306640625
-145.56884765625
-140.07568359375
-142.822265625
-143.73779296875
-145.56884765625
-154.72412109375
-133.6669921875
-119.93408203125
-123.59619140625
-124.51171875
-105.28564453125
-108.94775390625
-121.76513671875
-124.51171875
-128.173828125
-144.6533203125
-164.794921875
-155.6396484375
-119.93408203125
-103.45458984375
-63.17138671875
-63.17138671875
-83.31298828125
-99.79248046875
-112.60986328125
-117.1875
-98.876953125
-81.48193359375
-65.00244140625
-62.255859375
-49.4384765625
-54.01611328125
-78.7353515625
-93.3837890625
-96.13037109375
-114.44091796875
-124.51171875
-109.86328125
-104.3701171875
-101.62353515625
-83.31298828125
-80.56640625
-87.890625
-97.96142578125
-108.0322265625
-133.6669921875
-129.08935546875
-117.1875
-126.3427734375
-135.498046875
-130.92041015625
-160.21728515625
-183.10546875
-188.5986328125
-174.86572265625
-169.37255859375
-167.54150390625
-157.470703125
-161.1328125
-143.73779296875
-122.6806640625
-127.25830078125
-143.73779296875
-140.9912109375
-138.24462890625
-155.6396484375
-163.87939453125
-173.03466796875
-179.443359375
-165.71044921875
-134.58251953125
-121.76513671875
-124.51171875
-129.08935546875
-136.41357421875
-153.80859375
-149.23095703125
-130.0048828125
-128.173828125
-127.25830078125
-108.94775390625
-111.6943359375
-120.849609375
-130.0048828125
-130.92041015625
-120.849609375
-93.3837890625
-52.18505859375
-12.8173828125
48.52294921875
144.6533203125
261.8408203125
389.09912109375
488.8916015625
577.69775390625
661.0107421875
735.16845703125
797.42431640625
824.89013671875
847.7783203125
858.7646484375
769.95849609375
596.923828125
394.59228515625
77.81982421875
-276.4892578125
-484.31396484375
-580.4443359375
-627.13623046875
-656.43310546875
-666.50390625
-674.74365234375
-648.193359375
-604.248046875
-553.89404296875
-507.2021484375
-437.6220703125
-363.46435546875
-299.37744140625
-237.12158203125
-179.443359375
-152.89306640625
-139.16015625
-140.9912109375
-123.59619140625
-120.849609375
-113.525390625
-87.890625
-86.97509765625
-98.876953125
-63.17138671875
-60.4248046875
-69.580078125
-70.49560546875
-64.0869140625
-77.81982421875
-74.15771484375
-61.34033203125
-56.7626953125
-59.50927734375
-47.607421875
-45.7763671875
-58.59375
-63.17138671875
-63.17138671875
-76.904296875
-66.83349609375
-55.84716796875
-54.01611328125
-53.1005859375
-35.70556640625
-39.36767578125
-37.53662109375
-51.26953125
-54.931640625
-65.00244140625
-60.4248046875
-39.36767578125
-31.1279296875
-23.8037109375
-15.56396484375
-21.05712890625
-26.55029296875
-32.04345703125
-19.22607421875
-29.296875
-26.55029296875
-14.6484375
-0.91552734375
-0.91552734375
9.1552734375
0
-13.73291015625
-24.71923828125
-22.88818359375
-29.296875
-31.1279296875
-20.1416015625
-9.1552734375
0
13.73291015625
22.88818359375
4.57763671875
-8.23974609375
-4.57763671875
-5.4931640625
14.6484375
13.73291015625
14.6484375
36.62109375
71.4111328125
66.83349609375
55.84716796875
56.7626953125
58.59375
48.52294921875
53.1005859375
68.66455078125
76.904296875
84.228515625
104.3701171875
94.29931640625
86.0595703125
77.81982421875
83.31298828125
77.81982421875
92.46826171875
125.42724609375
124.51171875
127.25830078125
151.9775390625
154.72412109375
152.89306640625
148.3154296875
148.3154296875
141.90673828125
154.72412109375
175.78125
189.51416015625
197.75390625
223.388671875
224.30419921875
215.14892578125
221.5576171875
235.29052734375
217.8955078125
230.712890625
257.26318359375
269.1650390625
278.3203125
293.88427734375
283.8134765625
271.91162109375
270.99609375
281.06689453125
260.009765625
262.75634765625
279.23583984375
283.8134765625
279.23583984375
292.96875
285.64453125
285.64453125
288.39111328125
295.71533203125
285.64453125
285.64453125
279.23583984375
269.1650390625
255.43212890625
253.60107421875
241.69921875
214.2333984375
195.00732421875
187.68310546875
178.52783203125
152.89306640625
140.9912109375
129.08935546875
116.27197265625
117.1875
95.21484375
66.83349609375
39.36767578125
22.88818359375
2.74658203125
-1.8310546875
0.91552734375
-13.73291015625
-33.87451171875
-22.88818359375
-32.04345703125
-44.86083984375
-54.01611328125
-54.931640625
-84.228515625
-77.81982421875
-66.83349609375
-74.15771484375
-73.2421875
-60.4248046875
-66.83349609375
-81.48193359375
-86.97509765625
-114.44091796875
-143.73779296875
-128.173828125
-109.86328125
-99.79248046875
-97.96142578125
-79.65087890625
-75.98876953125
-90.63720703125
-98.876953125
-101.62353515625
-130.0048828125
-125.42724609375
-106.201171875
-87.890625
-87.890625
-66.83349609375
-60.4248046875
-72.32666015625
-85.14404296875
-86.0595703125
-91.552734375
-85.14404296875
-80.56640625
-74.15771484375
-67.7490234375
-49.4384765625
-60.4248046875
-89.7216796875
-97.0458984375
-89.7216796875
-105.28564453125
-86.97509765625
-72.32666015625
-73.2421875
-76.904296875
-68.66455078125
-81.48193359375
-92.46826171875
-107.11669921875
-101.62353515625
-114.44091796875
-104.3701171875
-96.13037109375
-83.31298828125
-74.15771484375
-58.59375
-71.4111328125
-98.876953125
-112.60986328125
-108.0322265625
-103.45458984375
-88.80615234375
-84.228515625
-94.29931640625
-97.0458984375
-81.48193359375
-91.552734375
-100.7080078125
-100.7080078125
-92.46826171875
-104.3701171875
-103.45458984375
-88.80615234375
-93.3837890625
-94.29931640625
-69.580078125
-80.56640625
-89.7216796875
-97.96142578125
-108.94775390625
-128.173828125
-129.08935546875
-116.27197265625
-110.77880859375
-110.77880859375
-87.890625
-101.62353515625
-119.93408203125
-128.173828125
-134.58251953125
-137.3291015625
-126.3427734375
-122.6806640625
-127.25830078125
-118.10302734375
-89.7216796875
-96.13037109375
-123.59619140625
-135.498046875
-132.75146484375
-140.07568359375
-136.41357421875
-134.58251953125
-110.77880859375
-96.13037109375
-83.31298828125
-96.13037109375
-117.1875
-131.8359375
-139.16015625
-150.146484375
-136.41357421875
-128.173828125
-125.42724609375
-118.10302734375
-100.7080078125
-121.76513671875
-138.24462890625
-140.07568359375
-143.73779296875
-149.23095703125
-136.41357421875
-121.76513671875
-119.93408203125
-127.25830078125
-104.3701171875
-117.1875
-140.9912109375
-149.23095703125
-151.06201171875
-153.80859375
-148.3154296875
-140.07568359375
-134.58251953125
-135.498046875
-127.25830078125
-130.0048828125
-136.41357421875
-138.24462890625
-140.07568359375
-138.24462890625
-132.75146484375
-124.51171875
-119.0185546875
-115.3564453125
-104.3701171875
-112.60986328125
-128.173828125
-134.58251953125
-141.90673828125
-160.21728515625
-155.6396484375
-141.90673828125
-139.16015625
-132.75146484375
-113.525390625
-129.08935546875
-150.146484375
-153.80859375
-155.6396484375
-163.87939453125
-148.3154296875
-145.56884765625
-150.146484375
-140.07568359375
-119.0185546875
-130.92041015625
-146.484375
-142.822265625
-142.822265625
-154.72412109375
-145.56884765625
-138.24462890625
-141.90673828125
-138.24462890625
-115.3564453125
-119.93408203125
-131.8359375
-140.9912109375
-143.73779296875
-157.470703125
-152.89306640625
-151.9775390625
-151.9775390625
-136.41357421875
-122.6806640625
-130.0048828125
-140.9912109375
-140.9912109375
-140.9912109375
-161.1328125
-163.87939453125
-162.04833984375
-161.1328125
-143.73779296875
-125.42724609375
-126.3427734375
-148.3154296875
-153.80859375
-149.23095703125
-148.3154296875
-129.08935546875
-123.59619140625
-134.58251953125
-140.9912109375
-123.59619140625
-131.8359375
-146.484375
-146.484375
-144.6533203125
-154.72412109375
-145.56884765625
-128.173828125
-120.849609375
-126.3427734375
-106.201171875
-114.44091796875
-135.498046875
-139.16015625
-152.89306640625
-170.2880859375
-160.21728515625
-142.822265625
-138.24462890625
-137.3291015625
-120.849609375
-140.07568359375
-151.9775390625
-162.04833984375
-181.2744140625
-197.75390625
-185.85205078125
-173.03466796875
-170.2880859375
-147.39990234375
-116.27197265625
-117.1875
-128.173828125
-129.08935546875
-139.16015625
-150.146484375
-150.146484375
-137.3291015625
-131.8359375
-125.42724609375
-104.3701171875
-109.86328125
-122.6806640625
-130.92041015625
-140.9912109375
-155.6396484375
-151.06201171875
-141.90673828125
-136.41357421875
-131.8359375
-117.1875
-129.08935546875
-142.822265625
-150.146484375
-141.90673828125
-140.9912109375
-130.0048828125
-115.3564453125
-113.525390625
-108.0322265625
-104.3701171875
-108.0322265625
-123.59619140625
-124.51171875
-118.10302734375
-127.25830078125
-122.6806640625
-95.21484375
-81.48193359375
-67.7490234375
-62.255859375
-79.65087890625
-100.7080078125
-103.45458984375
-115.3564453125
-149.23095703125
-141.90673828125
-140.9912109375
-134.58251953125
-127.25830078125
-101.62353515625
-113.525390625
-123.59619140625
-119.0185546875
-125.42724609375
-135.498046875
-149.23095703125
-162.9638671875
-153.80859375
-146.484375
-138.24462890625
-147.39990234375
-147.39990234375
-153.80859375
-155.6396484375
-169.37255859375
-162.9638671875
-155.6396484375
-152.89306640625
-146.484375
-126.3427734375
-142.822265625
-159.3017578125
-170.2880859375
-173.03466796875
-181.2744140625
-172.119140625
-160.21728515625
-153.80859375
-141.90673828125
-127.25830078125
-140.9912109375
-148.3154296875
-162.9638671875
-166.6259765625
-179.443359375
-170.2880859375
-152.89306640625
-144.6533203125
-133.6669921875
-119.0185546875
-128.173828125
-135.498046875
-136.41357421875
-116.27197265625
-105.28564453125
-71.4111328125
-33.87451171875
25.634765625
105.28564453125
215.14892578125
336.9140625
439.453125
519.10400390625
591.4306640625
645.44677734375
717.7734375
768.12744140625
800.1708984375
794.677734375
730.5908203125
573.1201171875
367.12646484375
49.4384765625
-275.57373046875
-476.07421875
-539.24560546875
-559.38720703125
-610.65673828125
-638.12255859375
-626.220703125
-620.7275390625
-613.4033203125
-586.85302734375
-543.8232421875
-505.37109375
-449.52392578125
-396.42333984375
-346.0693359375
-273.74267578125
-203.2470703125
-173.9501953125
-152.89306640625
-131.8359375
-129.08935546875
-125.42724609375
-108.0322265625
-99.79248046875
-96.13037109375
-98.876953125
-104.3701171875
-117.1875
-113.525390625
-113.525390625
-97.0458984375
-105.28564453125
-95.21484375
-76.904296875
-60.4248046875
-64.0869140625
-57.67822265625
-68.66455078125
-79.65087890625
-92.46826171875
-87.890625
-93.3837890625
-91.552734375
-86.97509765625
-75.98876953125
-73.2421875
-64.0869140625
-78.7353515625
-74.15771484375
-65.91796875
-72.32666015625
-69.580078125
-53.1005859375
-40.283203125
-36.62109375
-28.38134765625
-15.56396484375
-30.21240234375
-40.283203125
-45.7763671875
-55.84716796875
-65.00244140625
-46.69189453125
-36.62109375
-31.1279296875
-21.97265625
-2.74658203125
-9.1552734375
-26.55029296875
-31.1279296875
-32.958984375
-36.62109375
-31.1279296875
-27.4658203125
-21.97265625
-14.6484375
4.57763671875
-1.8310546875
-2.74658203125
-11.90185546875
-30.21240234375
-35.70556640625
-12.8173828125
10.986328125
20.1416015625
42.1142578125
66.83349609375
54.931640625
39.36767578125
35.70556640625
33.87451171875
24.71923828125
35.70556640625
49.4384765625
44.86083984375
49.4384765625
68.66455078125
57.67822265625
50.35400390625
70.49560546875
81.48193359375
77.81982421875
90.63720703125
102.5390625
100.7080078125
95.21484375
117.1875
115.3564453125
101.62353515625
97.0458984375
107.11669921875
124.51171875
151.06201171875
173.03466796875
177.6123046875
196.83837890625
218.81103515625
220.64208984375
213.31787109375
216.064453125
215.14892578125
209.65576171875
218.81103515625
228.8818359375
235.29052734375
242.61474609375
260.92529296875
254.5166015625
230.712890625
234.375
244.44580078125
245.361328125
278.3203125
292.96875
296.630859375
309.4482421875
312.19482421875
297.54638671875
275.57373046875
267.333984375
256.34765625
234.375
233.45947265625
230.712890625
217.8955078125
210.5712890625
225.2197265625
209.65576171875
185.85205078125
159.3017578125
133.6669921875
115.3564453125
112.60986328125
105.28564453125
87.890625
72.32666015625
74.15771484375
54.01611328125
30.21240234375
10.07080078125
-8.23974609375
-31.1279296875
-33.87451171875
-25.634765625
-34.7900390625
-41.19873046875
-30.21240234375
-51.26953125
-66.83349609375
-87.890625
-105.28564453125
-128.173828125
-121.76513671875
-98.876953125
-99.79248046875
-96.13037109375
-80.56640625
-89.7216796875
-105.28564453125
-117.1875
-119.0185546875
-124.51171875
-108.94775390625
-106.201171875
-99.79248046875
-97.0458984375
-73.2421875
-82.3974609375
-108.94775390625
-119.93408203125
-128.173828125
-140.07568359375
-131.8359375
-111.6943359375
-103.45458984375
-99.79248046875
-97.0458984375
-133.6669921875
-155.6396484375
-146.484375
-135.498046875
-133.6669921875
-128.173828125
-117.1875
-117.1875
-104.3701171875
-90.63720703125
-98.876953125
-103.45458984375
-104.3701171875
-112.60986328125
-122.6806640625
-119.93408203125
-120.849609375
-114.44091796875
-108.0322265625
-87.890625
-92.46826171875
-97.0458984375
-94.29931640625
-102.5390625
-130.0048828125
-125.42724609375
-111.6943359375
-113.525390625
-110.77880859375
-96.13037109375
-102.5390625
-120.849609375
-120.849609375
-127.25830078125
-134.58251953125
-125.42724609375
-117.1875
-112.60986328125
-100.7080078125
-89.7216796875
-108.94775390625
-119.0185546875
-128.173828125
-124.51171875
-130.92041015625
-141.90673828125
-140.9912109375
-137.3291015625
-123.59619140625
-105.28564453125
-114.44091796875
-126.3427734375
-125.42724609375
-147.39990234375
-169.37255859375
-159.3017578125
-144.6533203125
-129.08935546875
-111.6943359375
-104.3701171875
-120.849609375
-152.89306640625
-166.6259765625
-155.6396484375
-161.1328125
-147.39990234375
-140.9912109375
-140.07568359375
-133.6669921875
-130.92041015625
-147.39990234375
-162.04833984375
-163.87939453125
-168.45703125
-189.51416015625
-172.119140625
-146.484375
-140.9912109375
-128.173828125
-107.11669921875
-124.51171875
-136.41357421875
-151.06201171875
-158.38623046875
-159.3017578125
-141.90673828125
-133.6669921875
-140.9912109375
-139.16015625
-124.51171875
-142.822265625
-166.6259765625
-179.443359375
-188.5986328125
-191.34521484375
-176.69677734375
-156.55517578125
-145.56884765625
-132.75146484375
-118.10302734375
-140.07568359375
-146.484375
-145.56884765625
-151.9775390625
-174.86572265625
-182.18994140625
-166.6259765625
-151.06201171875
-151.9775390625
-137.3291015625
-147.39990234375
-162.9638671875
-182.18994140625
-196.83837890625
-199.5849609375
-179.443359375
-162.04833984375
-158.38623046875
-159.3017578125
-148.3154296875
-157.470703125
-169.37255859375
-159.3017578125
-154.72412109375
-166.6259765625
-159.3017578125
-151.06201171875
-155.6396484375
-151.06201171875
-154.72412109375
-162.04833984375
-161.1328125
-162.04833984375
-162.04833984375
-175.78125
-166.6259765625
-162.04833984375
-160.21728515625
-153.80859375
-134.58251953125
-128.173828125
-145.56884765625
-143.73779296875
-148.3154296875
-160.21728515625
-152.89306640625
-162.04833984375
-162.04833984375
-151.9775390625
-137.3291015625
-156.55517578125
-168.45703125
-173.03466796875
-181.2744140625
-170.2880859375
-156.55517578125
-151.9775390625
-142.822265625
-140.9912109375
-130.0048828125
-145.56884765625
-155.6396484375
-153.80859375
-160.21728515625
-168.45703125
-160.21728515625
-170.2880859375
-173.03466796875
-168.45703125
-145.56884765625
-140.9912109375
-151.06201171875
-151.9775390625
-164.794921875
-192.2607421875
-173.9501953125
-163.87939453125
-161.1328125
-151.06201171875
-156.55517578125
-184.9365234375
-192.2607421875
-200.50048828125
-193.17626953125
-190.4296875
-153.80859375
-130.0048828125
-127.25830078125
-108.0322265625
-102.5390625
-130.92041015625
-151.06201171875
-152.89306640625
-161.1328125
-175.78125
-171.20361328125
-154.72412109375
-139.16015625
-124.51171875
-118.10302734375
-135.498046875
-162.04833984375
-178.52783203125
-176.69677734375
-177.6123046875
-160.21728515625
-141.90673828125
-126.3427734375
-110.77880859375
-108.0322265625
-124.51171875
-130.92041015625
-136.41357421875
-141.90673828125
-149.23095703125
-140.07568359375
-150.146484375
-162.9638671875
-137.3291015625
-121.76513671875
-130.92041015625
-142.822265625
-139.16015625
-121.76513671875
-108.0322265625
-102.5390625
-99.79248046875
-108.0322265625
-130.0048828125
-131.8359375
-143.73779296875
-136.41357421875
-133.6669921875
-146.484375
-144.6533203125
-116.27197265625
-107.11669921875
-104.3701171875
-104.3701171875
-95.21484375
-102.5390625
-122.6806640625
-136.41357421875
-147.39990234375
-159.3017578125
-158.38623046875
-170.2880859375
-188.5986328125
-186.767578125
-168.45703125
-176.69677734375
-184.9365234375
-189.51416015625
-182.18994140625
-179.443359375
-170.2880859375
-163.87939453125
-162.04833984375
-154.72412109375
-137.3291015625
-147.39990234375
-160.21728515625
-169.37255859375
-176.69677734375
-178.52783203125
-167.54150390625
-167.54150390625
-167.54150390625
-161.1328125
-149.23095703125
-161.1328125
-181.2744140625
-179.443359375
-171.20361328125
-181.2744140625
-181.2744140625
-181.2744140625
-183.10546875
-170.2880859375
-143.73779296875
-142.822265625
-145.56884765625
-120.849609375
-86.97509765625
-54.01611328125
16.4794921875
99.79248046875
198.66943359375
332.33642578125
454.1015625
520.01953125
612.48779296875
691.22314453125
736.99951171875
762.63427734375
801.08642578125
804.74853515625
751.64794921875
621.64306640625
466.00341796875
167.54150390625
-179.443359375
-429.38232421875
-563.04931640625
-628.96728515625
-660.09521484375
-673.828125
-662.841796875
-641.78466796875
-601.50146484375
-571.2890625
-533.75244140625
-477.9052734375
-420.22705078125
-368.95751953125
-297.54638671875
-236.2060546875
-204.16259765625
-185.85205078125
-157.470703125
-146.484375
-144.6533203125
-142.822265625
-148.3154296875
-162.9638671875
-148.3154296875
-126.3427734375
-112.60986328125
-87.890625
-62.255859375
-63.17138671875
-76.904296875
-84.228515625
-89.7216796875
-97.96142578125
-98.876953125
-96.13037109375
-86.97509765625
-66.83349609375
-66.83349609375
-83.31298828125
-98.876953125
-105.28564453125
-98.876953125
-91.552734375
-74.15771484375
-68.66455078125
-60.4248046875
-45.7763671875
-39.36767578125
-53.1005859375
-57.67822265625
-54.931640625
-54.01611328125
-68.66455078125
-55.84716796875
-36.62109375
-35.70556640625
-37.53662109375
-22.88818359375
-23.8037109375
-40.283203125
-51.26953125
-61.34033203125
-61.34033203125
-49.4384765625
-41.19873046875
-44.86083984375
-32.958984375
-18.310546875
-32.04345703125
-27.4658203125
-26.55029296875
-39.36767578125
-43.9453125
-26.55029296875
-19.22607421875
-13.73291015625
0.91552734375
21.05712890625
10.07080078125
4.57763671875
4.57763671875
3.662109375
-10.07080078125
-2.74658203125
18.310546875
25.634765625
35.70556640625
54.01611328125
38.4521484375
20.1416015625
21.97265625
24.71923828125
29.296875
49.4384765625
67.7490234375
72.32666015625
83.31298828125
97.96142578125
89.7216796875
76.904296875
79.65087890625
86.97509765625
92.46826171875
118.10302734375
136.41357421875
145.56884765625
164.794921875
184.9365234375
169.37255859375
159.3017578125
161.1328125
165.71044921875
159.3017578125
175.78125
192.2607421875
192.2607421875
201.416015625
225.2197265625
225.2197265625
226.13525390625
227.96630859375
226.13525390625
227.96630859375
239.8681640625
241.69921875
250.8544921875
256.34765625
262.75634765625
270.08056640625
281.06689453125
293.88427734375
288.39111328125
284.72900390625
295.71533203125
294.7998046875
289.306640625
291.1376953125
302.1240234375
289.306640625
268.24951171875
249.93896484375
237.12158203125
215.14892578125
222.47314453125
217.8955078125
205.078125
214.2333984375
217.8955078125
190.4296875
167.54150390625
158.38623046875
130.0048828125
95.21484375
95.21484375
86.0595703125
65.00244140625
55.84716796875
53.1005859375
26.55029296875
4.57763671875
-19.22607421875
-41.19873046875
-56.7626953125
-52.18505859375
-60.4248046875
-64.0869140625
-53.1005859375
-43.02978515625
-51.26953125
-72.32666015625
-89.7216796875
-113.525390625
-125.42724609375
-104.3701171875
-98.876953125
-98.876953125
-76.904296875
-62.255859375
-81.48193359375
-101.62353515625
-106.201171875
-110.77880859375
-117.1875
-109.86328125
-105.28564453125
-107.11669921875
-97.96142578125
-92.46826171875
-111.6943359375
-124.51171875
-127.25830078125
-130.0048828125
-137.3291015625
-120.849609375
-106.201171875
-104.3701171875
-92.46826171875
-83.31298828125
-94.29931640625
-99.79248046875
-101.62353515625
-103.45458984375
-119.0185546875
-103.45458984375
-108.0322265625
-110.77880859375
-94.29931640625
-74.15771484375
-84.228515625
-89.7216796875
-100.7080078125
-116.27197265625
-130.92041015625
-130.92041015625
-108.94775390625
-97.0458984375
-80.56640625
-84.228515625
-107.11669921875
-124.51171875
-127.25830078125
-116.27197265625
-120.849609375
-103.45458984375
-86.97509765625
-82.3974609375
-76.904296875
-64.0869140625
-78.7353515625
-83.31298828125
-79.65087890625
-89.7216796875
-99.79248046875
-92.46826171875
-85.14404296875
-86.0595703125
-80.56640625
-83.31298828125
-115.3564453125
-125.42724609375
-123.59619140625
-129.08935546875
-143.73779296875
-128.173828125
-119.93408203125
-108.0322265625
-101.62353515625
-97.0458984375
-108.94775390625
-109.86328125
-113.525390625
-121.76513671875
-128.173828125
-116.27197265625
-103.45458984375
-103.45458984375
-104.3701171875
-101.62353515625
-121.76513671875
-129.08935546875
-149.23095703125
-172.119140625
-171.20361328125
-148.3154296875
-134.58251953125
-135.498046875
-133.6669921875
-124.51171875
-125.42724609375
-138.24462890625
-142.822265625
-143.73779296875
-145.56884765625
-135.498046875
-117.1875
-104.3701171875
-92.46826171875
-92.46826171875
-122.6806640625
-130.0048828125
-135.498046875
-146.484375
-156.55517578125
-139.16015625
-126.3427734375
-136.41357421875
-128.173828125
-118.10302734375
-126.3427734375
-131.8359375
-135.498046875
-144.6533203125
-146.484375
-136.41357421875
-131.8359375
-131.8359375
-123.59619140625
-116.27197265625
-136.41357421875
-147.39990234375
-156.55517578125
-174.86572265625
-172.119140625
-144.6533203125
-129.08935546875
-116.27197265625
-95.21484375
-87.890625
-108.0322265625
-131.8359375
-141.90673828125
-146.484375
-151.06201171875
-140.07568359375
-133.6669921875
-135.498046875
-131.8359375
-133.6669921875
-153.80859375
-166.6259765625
-159.3017578125
-162.9638671875
-172.119140625
-162.04833984375
-148.3154296875
-130.92041015625
-116.27197265625
-113.525390625
-127.25830078125
-128.173828125
-137.3291015625
-151.9775390625
-153.80859375
-134.58251953125
-122.6806640625
-122.6806640625
-121.76513671875
-114.44091796875
-135.498046875
-151.06201171875
-147.39990234375
-153.80859375
-158.38623046875
-142.822265625
-121.76513671875
-139.16015625
-146.484375
-134.58251953125
-136.41357421875
-143.73779296875
-144.6533203125
-136.41357421875
-132.75146484375
-124.51171875
-118.10302734375
-110.77880859375
-105.28564453125
-114.44091796875
-135.498046875
-146.484375
-143.73779296875
-150.146484375
-154.72412109375
-140.07568359375
-132.75146484375
-134.58251953125
-119.93408203125
-112.60986328125
-130.0048828125
-133.6669921875
-133.6669921875
-139.16015625
-151.9775390625
-145.56884765625
-145.56884765625
-147.39990234375
-143.73779296875
-130.0048828125
-136.41357421875
-141.90673828125
-138.24462890625
-143.73779296875
-145.56884765625
-130.0048828125
-132.75146484375
-134.58251953125
-127.25830078125
-121.76513671875
-140.9912109375
-162.04833984375
-151.9775390625
-154.72412109375
-162.9638671875
-150.146484375
-135.498046875
-124.51171875
-126.3427734375
-122.6806640625
-124.51171875
-129.08935546875
-131.8359375
-137.3291015625
-140.07568359375
-136.41357421875
-141.90673828125
-133.6669921875
-126.3427734375
-125.42724609375
-139.16015625
-145.56884765625
-138.24462890625
-145.56884765625
-140.9912109375
-129.08935546875
-122.6806640625
-114.44091796875
-108.94775390625
-114.44091796875
-135.498046875
-140.9912109375
-144.6533203125
-155.6396484375
-166.6259765625
-151.9775390625
-133.6669921875
-129.08935546875
-114.44091796875
-111.6943359375
-128.173828125
-133.6669921875
-127.25830078125
-130.0048828125
-142.822265625
-121.76513671875
-119.93408203125
-112.60986328125
-83.31298828125
-68.66455078125
-86.0595703125
-104.3701171875
-108.0322265625
-119.0185546875
-137.3291015625
-130.92041015625
-119.93408203125
-90.63720703125
-80.56640625
-73.2421875
-78.7353515625
-88.80615234375
-98.876953125
-105.28564453125
-112.60986328125
-103.45458984375
-92.46826171875
-94.29931640625
-87.890625
-80.56640625
-106.201171875
-119.93408203125
-117.1875
-118.10302734375
-116.27197265625
-109.86328125
-105.28564453125
-117.1875
-113.525390625
-105.28564453125
-137.3291015625
-162.04833984375
-166.6259765625
-164.794921875
-170.2880859375
-155.6396484375
-146.484375
-137.3291015625
-126.3427734375
-118.10302734375
-130.92041015625
-136.41357421875
-137.3291015625
-152.89306640625
-156.55517578125
-131.8359375
-129.08935546875
-136.41357421875
-130.0048828125
-120.849609375
-130.92041015625
-137.3291015625
-137.3291015625
-151.9775390625
-155.6396484375
-142.822265625
-135.498046875
-139.16015625
-147.39990234375
-144.6533203125
-144.6533203125
-144.6533203125
-147.39990234375
-155.6396484375
-162.9638671875
-130.0048828125
-85.14404296875
-42.1142578125
14.6484375
94.29931640625
168.45703125
272.8271484375
400.08544921875
504.45556640625
598.7548828125
699.462890625
767.2119140625
822.1435546875
862.4267578125
887.14599609375
867.00439453125
747.0703125
563.96484375
346.0693359375
21.05712890625
-281.06689453125
-476.07421875
-566.71142578125
-594.17724609375
-629.8828125
-669.25048828125
-672.91259765625
-636.29150390625
-601.50146484375
-552.978515625
-470.5810546875
-398.25439453125
-335.0830078125
-264.58740234375
-207.82470703125
-184.02099609375
-161.1328125
-139.16015625
-137.3291015625
-134.58251953125
-109.86328125
-99.79248046875
-95.21484375
-81.48193359375
-75.98876953125
-78.7353515625
-74.15771484375
-68.66455078125
-80.56640625
-73.2421875
-61.34033203125
-62.255859375
-62.255859375
-63.17138671875
-56.7626953125
-65.00244140625
-75.0732421875
-93.3837890625
-92.46826171875
-80.56640625
-57.67822265625
-54.01611328125
-53.1005859375
-39.36767578125
-51.26953125
-62.255859375
-63.17138671875
-47.607421875
-48.52294921875
-46.69189453125
-29.296875
-23.8037109375
-31.1279296875
-26.55029296875
-37.53662109375
-44.86083984375
-43.02978515625
-36.62109375
-32.958984375
-24.71923828125
-13.73291015625
-22.88818359375
-19.22607421875
1.8310546875
10.986328125
-6.40869140625
-8.23974609375
2.74658203125
2.74658203125
-7.32421875
-5.4931640625
0.91552734375
8.23974609375
23.8037109375
22.88818359375
13.73291015625
16.4794921875
16.4794921875
11.90185546875
10.07080078125
25.634765625
33.87451171875
33.87451171875
47.607421875
54.01611328125
46.69189453125
32.04345703125
30.21240234375
25.634765625
15.56396484375
26.55029296875
25.634765625
34.7900390625
66.83349609375
89.7216796875
92.46826171875
82.3974609375
91.552734375
97.96142578125
92.46826171875
107.11669921875
132.75146484375
147.39990234375
145.56884765625
148.3154296875
140.9912109375
151.06201171875
162.04833984375
155.6396484375
156.55517578125
177.6123046875
192.2607421875
200.50048828125
216.064453125
222.47314453125
217.8955078125
227.05078125
237.12158203125
234.375
239.8681640625
251.77001953125
259.09423828125
270.08056640625
283.8134765625
292.05322265625
281.06689453125
275.57373046875
270.99609375
270.08056640625
282.89794921875
307.6171875
307.6171875
296.630859375
296.630859375
303.955078125
296.630859375
293.88427734375
281.982421875
260.92529296875
266.41845703125
282.89794921875
298.4619140625
307.6171875
310.36376953125
291.1376953125
264.58740234375
243.5302734375
209.65576171875
175.78125
172.119140625
181.2744140625
176.69677734375
172.119140625
164.794921875
147.39990234375
121.76513671875
102.5390625
80.56640625
54.931640625
38.4521484375
27.4658203125
15.56396484375
-4.57763671875
-13.73291015625
-8.23974609375
-22.88818359375
-34.7900390625
-48.52294921875
-63.17138671875
-75.0732421875
-69.580078125
-71.4111328125
-68.66455078125
-52.18505859375
-48.52294921875
-63.17138671875
-72.32666015625
-76.904296875
-81.48193359375
-91.552734375
-88.80615234375
-83.31298828125
-82.3974609375
-69.580078125
-73.2421875
-91.552734375
-96.13037109375
-102.5390625
-111.6943359375
-117.1875
-105.28564453125
-88.80615234375
-84.228515625
-59.50927734375
-68.66455078125
-87.890625
-100.7080078125
-89.7216796875
-96.13037109375
-95.21484375
-77.81982421875
-70.49560546875
-72.32666015625
-65.00244140625
-63.17138671875
-73.2421875
-75.98876953125
-80.56640625
-89.7216796875
-89.7216796875
-72.32666015625
-72.32666015625
-78.7353515625
-56.7626953125
-46.69189453125
-67.7490234375
-82.3974609375
-92.46826171875
-113.525390625
-119.93408203125
-118.10302734375
-114.44091796875
-92.46826171875
-62.255859375
-52.18505859375
-58.59375
-71.4111328125
-73.2421875
-84.228515625
-84.228515625
-75.0732421875
-69.580078125
-74.15771484375
-65.91796875
-75.0732421875
-104.3701171875
-112.60986328125
-93.3837890625
-96.13037109375
-97.0458984375
-87.890625
-85.14404296875
-86.0595703125
-72.32666015625
-72.32666015625
-84.228515625
-96.13037109375
-112.60986328125
-110.77880859375
-115.3564453125
-106.201171875
-95.21484375
-86.97509765625
-77.81982421875
-73.2421875
-90.63720703125
-97.96142578125
-105.28564453125
-135.498046875
-133.6669921875
-110.77880859375
-94.29931640625
-92.46826171875
-77.81982421875
-75.0732421875
-83.31298828125
-96.13037109375
-105.28564453125
-124.51171875
-122.6806640625
-107.11669921875
-106.201171875
-115.3564453125
-116.27197265625
-130.92041015625
-143.73779296875
-143.73779296875
-134.58251953125
-132.75146484375
-111.6943359375
-93.3837890625
-93.3837890625
-94.29931640625
-88.80615234375
-94.29931640625
-108.0322265625
-123.59619140625
-127.25830078125
-138.24462890625
-133.6669921875
-113.525390625
-106.201171875
-99.79248046875
-95.21484375
-94.29931640625
-114.44091796875
-120.849609375
-125.42724609375
-141.90673828125
-157.470703125
-155.6396484375
-148.3154296875
-132.75146484375
-99.79248046875
-89.7216796875
-107.11669921875
-119.93408203125
-116.27197265625
-126.3427734375
-124.51171875
-115.3564453125
-113.525390625
-117.1875
-104.3701171875
-97.96142578125
-111.6943359375
-124.51171875
-130.92041015625
-140.07568359375
-139.16015625
-123.59619140625
-113.525390625
-113.525390625
-106.201171875
-107.11669921875
-124.51171875
-134.58251953125
-141.90673828125
-160.21728515625
-157.470703125
-139.16015625
-138.24462890625
-137.3291015625
-130.0048828125
-122.6806640625
-130.0048828125
-131.8359375
-136.41357421875
-145.56884765625
-135.498046875
-128.173828125
-124.51171875
-109.86328125
-89.7216796875
-90.63720703125
-105.28564453125
-119.93408203125
-124.51171875
-131.8359375
-140.07568359375
-135.498046875
-135.498046875
-126.3427734375
-99.79248046875
-90.63720703125
-106.201171875
-119.93408203125
-131.8359375
-149.23095703125
-152.89306640625
-146.484375
-148.3154296875
-131.8359375
-96.13037109375
-92.46826171875
-118.10302734375
-132.75146484375
-143.73779296875
-152.89306640625
-140.07568359375
-122.6806640625
-125.42724609375
-119.93408203125
-100.7080078125
-95.21484375
-111.6943359375
-124.51171875
-128.173828125
-151.9775390625
-153.80859375
-121.76513671875
-117.1875
-113.525390625
-92.46826171875
-88.80615234375
-102.5390625
-121.76513671875
-130.0048828125
-144.6533203125
-144.6533203125
-129.08935546875
-125.42724609375
-115.3564453125
-105.28564453125
-115.3564453125
-130.0048828125
-140.9912109375
-143.73779296875
-135.498046875
-125.42724609375
-115.3564453125
-119.93408203125
-119.93408203125
-106.201171875
-111.6943359375
-127.25830078125
-128.173828125
-137.3291015625
-151.06201171875
-134.58251953125
-128.173828125
-128.173828125
-134.58251953125
-111.6943359375
-110.77880859375
-123.59619140625
-122.6806640625
-125.42724609375
-140.07568359375
-143.73779296875
-137.3291015625
-124.51171875
-129.08935546875
-124.51171875
-110.77880859375
-125.42724609375
-130.92041015625
-119.93408203125
-130.0048828125
-142.822265625
-130.92041015625
-127.25830078125
-119.93408203125
-108.0322265625
-99.79248046875
-114.44091796875
-130.0048828125
-116.27197265625
-109.86328125
-100.7080078125
-88.80615234375
-83.31298828125
-73.2421875
-58.59375
-58.59375
-77.81982421875
-97.0458984375
-103.45458984375
-111.6943359375
-97.96142578125
-59.50927734375
-56.7626953125
-52.18505859375
-45.7763671875
-65.00244140625
-84.228515625
-97.0458984375
-108.0322265625
-129.08935546875
-125.42724609375
-112.60986328125
-108.0322265625
-103.45458984375
-83.31298828125
-86.97509765625
-88.80615234375
-90.63720703125
-100.7080078125
-117.1875
-123.59619140625
-109.86328125
-114.44091796875
-139.16015625
-142.822265625
-137.3291015625
-141.90673828125
-147.39990234375
-153.80859375
-163.87939453125
-161.1328125
-142.822265625
-145.56884765625
-140.07568359375
-123.59619140625
-134.58251953125
-151.9775390625
-156.55517578125
-151.06201171875
-155.6396484375
-135.498046875
-115.3564453125
-108.0322265625
-113.525390625
-110.77880859375
-119.0185546875
-140.07568359375
-146.484375
-140.9912109375
-149.23095703125
-145.56884765625
-129.08935546875
-124.51171875
-130.92041015625
-115.3564453125
-108.94775390625
-117.1875
-127.25830078125
-116.27197265625
-104.3701171875
-66.83349609375
-13.73291015625
43.9453125
117.1875
239.8681640625
360.7177734375
463.2568359375
554.8095703125
651.85546875
722.35107421875
769.95849609375
811.1572265625
850.52490234375
849.609375
817.56591796875
670.166015625
488.8916015625
191.34521484375
-150.146484375
-419.3115234375
-548.40087890625
-593.26171875
-626.220703125
-662.841796875
-646.3623046875
-622.55859375
-601.50146484375
-567.626953125
-506.28662109375
-450.439453125
-394.59228515625
-312.19482421875
-241.69921875
-198.66943359375
-153.80859375
-123.59619140625
-116.27197265625
-129.08935546875
-128.173828125
-115.3564453125
-97.96142578125
-83.31298828125
-81.48193359375
-78.7353515625
-55.84716796875
-48.52294921875
-56.7626953125
-60.4248046875
-57.67822265625
-68.66455078125
-65.91796875
-51.26953125
-47.607421875
-46.69189453125
-32.04345703125
-45.7763671875
-72.32666015625
-66.83349609375
-58.59375
-70.49560546875
-66.83349609375
-53.1005859375
-45.7763671875
-32.958984375
-10.07080078125
-15.56396484375
-32.958984375
-33.87451171875
-33.87451171875
-46.69189453125
-46.69189453125
-32.04345703125
-33.87451171875
-38.4521484375
-32.958984375
-41.19873046875
-54.931640625
-38.4521484375
-31.1279296875
-39.36767578125
-32.04345703125
-33.87451171875
-21.05712890625
-11.90185546875
8.23974609375
10.07080078125
0.91552734375
8.23974609375
11.90185546875
-1.8310546875
14.6484375
33.87451171875
26.55029296875
32.958984375
49.4384765625
50.35400390625
43.9453125
32.958984375
23.8037109375
20.1416015625
30.21240234375
39.36767578125
43.02978515625
45.7763671875
63.17138671875
71.4111328125
65.00244140625
60.4248046875
56.7626953125
57.67822265625
66.83349609375
76.904296875
86.0595703125
95.21484375
119.93408203125
122.6806640625
118.10302734375
120.849609375
120.849609375
108.0322265625
115.3564453125
130.92041015625
143.73779296875
148.3154296875
166.6259765625
160.21728515625
160.21728515625
167.54150390625
190.4296875
185.85205078125
193.17626953125
210.5712890625
227.05078125
235.29052734375
264.58740234375
265.5029296875
253.60107421875
258.1787109375
259.09423828125
238.95263671875
250.8544921875
278.3203125
292.05322265625
300.29296875
316.7724609375
309.4482421875
297.54638671875
303.955078125
313.1103515625
299.37744140625
307.6171875
319.51904296875
324.0966796875
331.4208984375
346.0693359375
333.251953125
303.03955078125
274.658203125
268.24951171875
245.361328125
235.29052734375
251.77001953125
263.671875
258.1787109375
249.93896484375
235.29052734375
218.81103515625
209.65576171875
202.33154296875
181.2744140625
182.18994140625
192.2607421875
190.4296875
148.3154296875
142.822265625
137.3291015625
117.1875
90.63720703125
76.904296875
66.83349609375
69.580078125
54.931640625
32.04345703125
21.97265625
16.4794921875
-0.91552734375
-27.4658203125
-45.7763671875
-68.66455078125
-86.0595703125
-98.876953125
-92.46826171875
-56.7626953125
-31.1279296875
-10.07080078125
-5.4931640625
-17.39501953125
-30.21240234375
-40.283203125
-49.4384765625
-54.931640625
-48.52294921875
-34.7900390625
-33.87451171875
-30.21240234375
-34.7900390625
-52.18505859375
-72.32666015625
-83.31298828125
-80.56640625
-85.14404296875
-75.98876953125
-65.91796875
-54.01611328125
-43.9453125
-52.18505859375
-61.34033203125
-67.7490234375
-64.0869140625
-64.0869140625
-65.91796875
-58.59375
-57.67822265625
-58.59375
-47.607421875
-59.50927734375
-64.0869140625
-64.0869140625
-61.34033203125
-74.15771484375
-78.7353515625
-65.00244140625
-53.1005859375
-46.69189453125
-35.70556640625
-54.931640625
-67.7490234375
-78.7353515625
-74.15771484375
-86.0595703125
-86.0595703125
-71.4111328125
-65.00244140625
-65.91796875
-44.86083984375
-62.255859375
-70.49560546875
-76.904296875
-79.65087890625
-94.29931640625
-94.29931640625
-84.228515625
-83.31298828125
-79.65087890625
-61.34033203125
-62.255859375
-64.0869140625
-64.0869140625
-70.49560546875
-85.14404296875
-59.50927734375
-42.1142578125
-53.1005859375
-55.84716796875
-45.7763671875
-55.84716796875
-63.17138671875
-71.4111328125
-75.0732421875
-79.65087890625
-66.83349609375
-65.91796875
-73.2421875
-61.34033203125
-41.19873046875
-46.69189453125
-70.49560546875
-86.97509765625
-92.46826171875
-100.7080078125
-107.11669921875
-109.86328125
-102.5390625
-95.21484375
-85.14404296875
-96.13037109375
-122.6806640625
-142.822265625
-136.41357421875
-126.3427734375
-88.80615234375
-79.65087890625
-81.48193359375
-82.3974609375
-64.0869140625
-65.00244140625
-73.2421875
-77.81982421875
-81.48193359375
-99.79248046875
-92.46826171875
-79.65087890625
-73.2421875
-81.48193359375
-75.0732421875
-98.876953125
-117.1875
-122.6806640625
-130.0048828125
-140.07568359375
-130.92041015625
-111.6943359375
-99.79248046875
-82.3974609375
-65.91796875
-74.15771484375
-86.97509765625
-97.0458984375
-107.11669921875
-106.201171875
-93.3837890625
-82.3974609375
-77.81982421875
-78.7353515625
-62.255859375
-69.580078125
-86.97509765625
-103.45458984375
-119.0185546875
-136.41357421875
-126.3427734375
-106.201171875
-113.525390625
-124.51171875
-116.27197265625
-117.1875
-118.10302734375
-120.849609375
-120.849609375
-110.77880859375
-107.11669921875
-108.94775390625
-103.45458984375
-91.552734375
-64.0869140625
-70.49560546875
-75.98876953125
-79.65087890625
-83.31298828125
-98.876953125
-102.5390625
-118.10302734375
-110.77880859375
-104.3701171875
-90.63720703125
-87.890625
-93.3837890625
-94.29931640625
-97.96142578125
-117.1875
-114.44091796875
-103.45458984375
-95.21484375
-94.29931640625
-77.81982421875
-83.31298828125
-97.0458984375
-109.86328125
-116.27197265625
-127.25830078125
-116.27197265625
-98.876953125
-90.63720703125
-98.876953125
-78.7353515625
-86.97509765625
-97.96142578125
-111.6943359375
-115.3564453125
-127.25830078125
-130.0048828125
-136.41357421875
-139.16015625
-142.822265625
-125.42724609375
-119.0185546875
-130.92041015625
-143.73779296875
-132.75146484375
-133.6669921875
-124.51171875
-118.10302734375
-112.60986328125
-107.11669921875
-99.79248046875
-114.44091796875
-111.6943359375
-100.7080078125
-98.876953125
-114.44091796875
-96.13037109375
-72.32666015625
-70.49560546875
-68.66455078125
-60.4248046875
-65.00244140625
-75.0732421875
-95.21484375
-104.3701171875
-130.0048828125
-129.08935546875
-113.525390625
-89.7216796875
-72.32666015625
-50.35400390625
-67.7490234375
-93.3837890625
-99.79248046875
-113.525390625
-135.498046875
-139.16015625
-143.73779296875
-153.80859375
-138.24462890625
-100.7080078125
-88.80615234375
-96.13037109375
-93.3837890625
-81.48193359375
-97.0458984375
-100.7080078125
-88.80615234375
-96.13037109375
-112.60986328125
-88.80615234375
-111.6943359375
-117.1875
-102.5390625
-98.876953125
-110.77880859375
-98.876953125
-75.98876953125
-65.00244140625
-55.84716796875
-50.35400390625
-71.4111328125
-104.3701171875
-108.94775390625
-107.11669921875
-96.13037109375
-62.255859375
-33.87451171875
-44.86083984375
-65.00244140625
-61.34033203125
-73.2421875
-69.580078125
-76.904296875
-82.3974609375
-94.29931640625
-97.0458984375
-87.890625
-76.904296875
-66.83349609375
-53.1005859375
-70.49560546875
-75.0732421875
-67.7490234375
-65.00244140625
-65.00244140625
-68.66455078125
-59.50927734375
-67.7490234375
-80.56640625
-73.2421875
-96.13037109375
-130.0048828125
-136.41357421875
-130.0048828125
-137.3291015625
-126.3427734375
-115.3564453125
-105.28564453125
-96.13037109375
-85.14404296875
-104.3701171875
-120.849609375
-121.76513671875
-141.90673828125
-155.6396484375
-141.90673828125
-129.08935546875
-123.59619140625
-111.6943359375
-106.201171875
-108.0322265625
-119.0185546875
-132.75146484375
-151.06201171875
-164.794921875
-139.16015625
-119.93408203125
-103.45458984375
-102.5390625
-76.904296875
-92.46826171875
-126.3427734375
-133.6669921875
-135.498046875
-120.849609375
-65.91796875
11.90185546875
102.5390625
192.2607421875
341.49169921875
469.66552734375
540.1611328125
627.13623046875
712.2802734375
755.31005859375
791.015625
840.4541015625
878.90625
879.82177734375
786.43798828125
610.65673828125
355.224609375
0.91552734375
-302.1240234375
-474.2431640625
-526.42822265625
-562.1337890625
-611.572265625
-625.30517578125
-600.5859375
-601.50146484375
-598.7548828125
-561.21826171875
-503.5400390625
-460.51025390625
-391.845703125
-324.0966796875
-260.92529296875
-200.50048828125
-140.07568359375
-117.1875
-97.96142578125
-104.3701171875
-113.525390625
-110.77880859375
-87.890625
-77.81982421875
-85.14404296875
-93.3837890625
-80.56640625
-91.552734375
-76.904296875
-64.0869140625
-72.32666015625
-72.32666015625
-34.7900390625
-9.1552734375
-10.986328125
-28.38134765625
-11.90185546875
-21.97265625
-45.7763671875
-48.52294921875
-44.86083984375
-59.50927734375
-34.7900390625
-0.91552734375
9.1552734375
-12.8173828125
14.6484375
17.39501953125
-32.04345703125
-54.01611328125
-42.1142578125
-32.04345703125
-8.23974609375
11.90185546875
-3.662109375
-10.07080078125
-4.57763671875
-7.32421875
-20.1416015625
-7.32421875
10.07080078125
-1.8310546875
5.4931640625
21.97265625
25.634765625
31.1279296875
45.7763671875
32.04345703125
10.986328125
7.32421875
-1.8310546875
-27.4658203125
-5.4931640625
7.32421875
19.22607421875
29.296875
52.18505859375
43.02978515625
21.05712890625
19.22607421875
36.62109375
23.8037109375
29.296875
48.52294921875
63.17138671875
78.7353515625
99.79248046875
96.13037109375
86.0595703125
72.32666015625
74.15771484375
57.67822265625
55.84716796875
64.0869140625
78.7353515625
87.890625
114.44091796875
107.11669921875
99.79248046875
122.6806640625
129.08935546875
126.3427734375
151.06201171875
162.9638671875
159.3017578125
179.443359375
189.51416015625
193.17626953125
203.2470703125
216.064453125
209.65576171875
173.03466796875
185.85205078125
224.30419921875
243.5302734375
246.27685546875
266.41845703125
264.58740234375
263.671875
260.92529296875
260.009765625
259.09423828125
281.06689453125
292.96875
300.29296875
309.4482421875
339.66064453125
325.927734375
311.279296875
299.37744140625
296.630859375
288.39111328125
295.71533203125
320.4345703125
334.16748046875
337.82958984375
357.97119140625
345.15380859375
320.4345703125
305.7861328125
291.1376953125
260.009765625
249.93896484375
239.8681640625
252.685546875
269.1650390625
289.306640625
281.982421875
257.26318359375
228.8818359375
186.767578125
138.24462890625
150.146484375
173.9501953125
172.119140625
162.9638671875
157.470703125
118.10302734375
87.890625
66.83349609375
41.19873046875
6.40869140625
6.40869140625
10.07080078125
-4.57763671875
-5.4931640625
-0.91552734375
-20.1416015625
-40.283203125
-40.283203125
-43.9453125
-63.17138671875
-54.01611328125
-42.1142578125
-38.4521484375
-40.283203125
-31.1279296875
-42.1142578125
-56.7626953125
-81.48193359375
-89.7216796875
-119.0185546875
-147.39990234375
-173.03466796875
-161.1328125
-136.41357421875
-104.3701171875
-70.49560546875
-41.19873046875
-39.36767578125
-45.7763671875
-60.4248046875
-66.83349609375
-48.52294921875
-45.7763671875
-50.35400390625
-35.70556640625
-37.53662109375
-44.86083984375
-54.01611328125
-62.255859375
-86.0595703125
-71.4111328125
-51.26953125
-62.255859375
-48.52294921875
-31.1279296875
-43.02978515625
-55.84716796875
-70.49560546875
-83.31298828125
-93.3837890625
-78.7353515625
-55.84716796875
-55.84716796875
-65.00244140625
-56.7626953125
-56.7626953125
-57.67822265625
-65.00244140625
-78.7353515625
-93.3837890625
-96.13037109375
-91.552734375
-82.3974609375
-58.59375
-40.283203125
-69.580078125
-92.46826171875
-85.14404296875
-98.876953125
-108.0322265625
-75.0732421875
-68.66455078125
-61.34033203125
-43.02978515625
-51.26953125
-74.15771484375
-75.98876953125
-70.49560546875
-72.32666015625
-88.80615234375
-100.7080078125
-88.80615234375
-80.56640625
-66.83349609375
-50.35400390625
-62.255859375
-76.904296875
-78.7353515625
-60.4248046875
-71.4111328125
-87.890625
-108.0322265625
-118.10302734375
-101.62353515625
-73.2421875
-66.83349609375
-62.255859375
-63.17138671875
-59.50927734375
-75.98876953125
-74.15771484375
-71.4111328125
-77.81982421875
-68.66455078125
-65.00244140625
-81.48193359375
-83.31298828125
-93.3837890625
-104.3701171875
-115.3564453125
-103.45458984375
-97.96142578125
-97.96142578125
-97.0458984375
-89.7216796875
-78.7353515625
-86.0595703125
-106.201171875
-116.27197265625
-130.0048828125
-116.27197265625
-93.3837890625
-88.80615234375
-102.5390625
-99.79248046875
-101.62353515625
-111.6943359375
-101.62353515625
-108.94775390625
-122.6806640625
-100.7080078125
-96.13037109375
-100.7080078125
-97.96142578125
-84.228515625
-98.876953125
-109.86328125
-130.0048828125
-133.6669921875
-144.6533203125
-134.58251953125
-116.27197265625
-111.6943359375
-100.7080078125
-85.14404296875
-97.96142578125
-106.201171875
-108.94775390625
-129.08935546875
-140.07568359375
-125.42724609375
-117.1875
-117.1875
-102.5390625
-78.7353515625
-92.46826171875
-110.77880859375
-113.525390625
-111.6943359375
-103.45458984375
-92.46826171875
-100.7080078125
-115.3564453125
-105.28564453125
-93.3837890625
-120.849609375
-134.58251953125
-118.10302734375
-117.1875
-128.173828125
-109.86328125
-86.97509765625
-100.7080078125
-97.0458984375
-88.80615234375
-100.7080078125
-111.6943359375
-112.60986328125
-111.6943359375
-118.10302734375
-116.27197265625
-114.44091796875
-124.51171875
-125.42724609375
-113.525390625
-118.10302734375
-127.25830078125
-126.3427734375
-134.58251953125
-148.3154296875
-131.8359375
-119.93408203125
-113.525390625
-112.60986328125
-98.876953125
-101.62353515625
-122.6806640625
-151.06201171875
-157.470703125
-157.470703125
-151.06201171875
-144.6533203125
-127.25830078125
-102.5390625
-79.65087890625
-96.13037109375
-100.7080078125
-113.525390625
-132.75146484375
-151.9775390625
-137.3291015625
-137.3291015625
-139.16015625
-118.10302734375
-93.3837890625
-103.45458984375
-117.1875
-118.10302734375
-125.42724609375
-134.58251953125
-111.6943359375
-104.3701171875
-119.0185546875
-124.51171875
-113.525390625
-132.75146484375
-136.41357421875
-133.6669921875
-145.56884765625
-151.9775390625
-140.9912109375
-129.08935546875
-128.173828125
-125.42724609375
-130.0048828125
-140.07568359375
-139.16015625
-129.08935546875
-130.92041015625
-138.24462890625
-143.73779296875
-151.06201171875
-146.484375
-129.08935546875
-113.525390625
-127.25830078125
-139.16015625
-154.72412109375
-176.69677734375
-187.68310546875
-154.72412109375
-117.1875
-101.62353515625
-76.904296875
-61.34033203125
-82.3974609375
-97.0458984375
-110.77880859375
-119.93408203125
-104.3701171875
-75.0732421875
-43.02978515625
-48.52294921875
-58.59375
-58.59375
-86.0595703125
-101.62353515625
-120.849609375
-130.92041015625
-138.24462890625
-117.1875
-117.1875
-118.10302734375
-106.201171875
-97.96142578125
-113.525390625
-123.59619140625
-118.10302734375
-134.58251953125
-151.9775390625
-145.56884765625
-140.07568359375
-125.42724609375
-133.6669921875
-124.51171875
-130.92041015625
-130.92041015625
-148.3154296875
-162.04833984375
-184.9365234375
-180.35888671875
-184.9365234375
-184.9365234375
-193.17626953125
-171.20361328125
-159.3017578125
-172.119140625
-155.6396484375
-130.92041015625
-123.59619140625
-120.849609375
-126.3427734375
-124.51171875
-128.173828125
-108.94775390625
-109.86328125
-133.6669921875
-136.41357421875
-142.822265625
-158.38623046875
-155.6396484375
-146.484375
-139.16015625
-162.9638671875
-169.37255859375
-149.23095703125
-139.16015625
-136.41357421875
-117.1875
-88.80615234375
-55.84716796875
5.4931640625
107.11669921875
234.375
373.53515625
476.98974609375
559.38720703125
660.09521484375
714.111328125
761.71875
814.8193359375
853.271484375
854.18701171875
790.10009765625
649.10888671875
480.65185546875
195.00732421875
-156.55517578125
-418.39599609375
-552.978515625
-585.02197265625
-597.83935546875
-644.53125
-649.10888671875
-613.4033203125
-599.67041015625
-575.86669921875
-526.42822265625
-473.32763671875
-428.466796875
-352.47802734375
-291.1376953125
-231.62841796875
-181.2744140625
-145.56884765625
-127.25830078125
-137.3291015625
-128.173828125
-116.27197265625
-115.3564453125
-92.46826171875
-73.2421875
-67.7490234375
-76.904296875
-86.0595703125
-108.94775390625
-108.94775390625
-98.876953125
-92.46826171875
-86.97509765625
-75.0732421875
-70.49560546875
-63.17138671875
-58.59375
-52.18505859375
-55.84716796875
-59.50927734375
-49.4384765625
-55.84716796875
-53.1005859375
-37.53662109375
-31.1279296875
-32.04345703125
-35.70556640625
-45.7763671875
-65.00244140625
-65.91796875
-56.7626953125
-65.91796875
-59.50927734375
-43.02978515625
-35.70556640625
-35.70556640625
-29.296875
-14.6484375
-6.40869140625
-12.8173828125
-30.21240234375
-41.19873046875
-35.70556640625
-21.97265625
-4.57763671875
1.8310546875
-0.91552734375
14.6484375
12.8173828125
2.74658203125
3.662109375
-7.32421875
-15.56396484375
0.91552734375
0.91552734375
4.57763671875
21.97265625
41.19873046875
30.21240234375
32.958984375
32.04345703125
20.1416015625
-4.57763671875
8.23974609375
6.40869140625
28.38134765625
53.1005859375
65.91796875
60.4248046875
46.69189453125
40.283203125
46.69189453125
53.1005859375
56.7626953125
49.4384765625
54.01611328125
73.2421875
97.96142578125
88.80615234375
79.65087890625
87.890625
78.7353515625
95.21484375
122.6806640625
141.90673828125
162.04833984375
189.51416015625
212.40234375
203.2470703125
193.17626953125
186.767578125
187.68310546875
189.51416015625
195.00732421875
216.064453125
230.712890625
244.44580078125
252.685546875
252.685546875
255.43212890625
260.009765625
271.91162109375
258.1787109375
254.5166015625
267.333984375
266.41845703125
271.91162109375
309.4482421875
315.85693359375
301.20849609375
290.22216796875
278.3203125
284.72900390625
296.630859375
307.6171875
322.265625
312.19482421875
302.1240234375
290.22216796875
286.56005859375
288.39111328125
281.06689453125
268.24951171875
269.1650390625
275.57373046875
269.1650390625
261.8408203125
249.93896484375
221.5576171875
209.65576171875
205.078125
185.85205078125
148.3154296875
140.9912109375
114.44091796875
88.80615234375
74.15771484375
77.81982421875
49.4384765625
35.70556640625
23.8037109375
0.91552734375
-4.57763671875
1.8310546875
-1.8310546875
-15.56396484375
-16.4794921875
-24.71923828125
-34.7900390625
-56.7626953125
-83.31298828125
-93.3837890625
-94.29931640625
-63.17138671875
-53.1005859375
-57.67822265625
-54.931640625
-49.4384765625
-65.00244140625
-69.580078125
-79.65087890625
-87.890625
-90.63720703125
-73.2421875
-75.0732421875
-91.552734375
-87.890625
-71.4111328125
-77.81982421875
-89.7216796875
-89.7216796875
-103.45458984375
-105.28564453125
-87.890625
-80.56640625
-84.228515625
-93.3837890625
-82.3974609375
-91.552734375
-116.27197265625
-130.0048828125
-125.42724609375
-137.3291015625
-127.25830078125
-111.6943359375
-101.62353515625
-97.96142578125
-88.80615234375
-89.7216796875
-86.97509765625
-79.65087890625
-73.2421875
-76.904296875
-67.7490234375
-55.84716796875
-70.49560546875
-62.255859375
-57.67822265625
-59.50927734375
-70.49560546875
-89.7216796875
-93.3837890625
-95.21484375
-74.15771484375
-58.59375
-45.7763671875
-29.296875
-33.87451171875
-59.50927734375
-68.66455078125
-77.81982421875
-87.890625
-101.62353515625
-83.31298828125
-75.0732421875
-71.4111328125
-41.19873046875
-35.70556640625
-54.01611328125
-73.2421875
-81.48193359375
-88.80615234375
-93.3837890625
-83.31298828125
-78.7353515625
-78.7353515625
-67.7490234375
-66.83349609375
-87.890625
-92.46826171875
-101.62353515625
-115.3564453125
-111.6943359375
-101.62353515625
-97.0458984375
-96.13037109375
-86.97509765625
-70.49560546875
-87.890625
-103.45458984375
-110.77880859375
-136.41357421875
-145.56884765625
-126.3427734375
-119.93408203125
-121.76513671875
-144.6533203125
-127.25830078125
-131.8359375
-145.56884765625
-140.07568359375
-134.58251953125
-138.24462890625
-120.849609375
-101.62353515625
-97.0458984375
-96.13037109375
-98.876953125
-106.201171875
-102.5390625
-101.62353515625
-101.62353515625
-112.60986328125
-102.5390625
-92.46826171875
-88.80615234375
-82.3974609375
-85.14404296875
-102.5390625
-113.525390625
-116.27197265625
-116.27197265625
-119.93408203125
-114.44091796875
-102.5390625
-100.7080078125
-94.29931640625
-92.46826171875
-104.3701171875
-116.27197265625
-129.08935546875
-132.75146484375
-134.58251953125
-121.76513671875
-109.86328125
-120.849609375
-116.27197265625
-88.80615234375
-80.56640625
-79.65087890625
-105.28564453125
-122.6806640625
-129.08935546875
-113.525390625
-112.60986328125
-109.86328125
-100.7080078125
-103.45458984375
-129.08935546875
-146.484375
-144.6533203125
-146.484375
-160.21728515625
-153.80859375
-138.24462890625
-131.8359375
-122.6806640625
-128.173828125
-145.56884765625
-150.146484375
-184.9365234375
-211.48681640625
-198.66943359375
-184.9365234375
-169.37255859375
-133.6669921875
-89.7216796875
-78.7353515625
-87.890625
-86.97509765625
-97.96142578125
-110.77880859375
-121.76513671875
-103.45458984375
-107.11669921875
-115.3564453125
-97.96142578125
-94.29931640625
-110.77880859375
-112.60986328125
-114.44091796875
-117.1875
-117.1875
-105.28564453125
-131.8359375
-156.55517578125
-154.72412109375
-154.72412109375
-137.3291015625
-130.92041015625
-126.3427734375
-119.93408203125
-123.59619140625
-128.173828125
-127.25830078125
-112.60986328125
-90.63720703125
-92.46826171875
-96.13037109375
-97.96142578125
-112.60986328125
-125.42724609375
-125.42724609375
-99.79248046875
-97.96142578125
-92.46826171875
-78.7353515625
-67.7490234375
-91.552734375
-101.62353515625
-107.11669921875
-114.44091796875
-105.28564453125
-90.63720703125
-86.0595703125
-85.14404296875
-69.580078125
-69.580078125
-99.79248046875
-108.94775390625
-102.5390625
-96.13037109375
-85.14404296875
-65.91796875
-66.83349609375
-71.4111328125
-75.98876953125
-77.81982421875
-82.3974609375
-83.31298828125
-91.552734375
-123.59619140625
-140.07568359375
-126.3427734375
-109.86328125
-108.0322265625
-99.79248046875
-89.7216796875
-90.63720703125
-95.21484375
-95.21484375
-91.552734375
-103.45458984375
-92.46826171875
-104.3701171875
-117.1875
-113.525390625
-124.51171875
-159.3017578125
-184.02099609375
-178.52783203125
-175.78125
-184.9365234375
-160.21728515625
-145.56884765625
-135.498046875
-116.27197265625
-107.11669921875
-114.44091796875
-126.3427734375
-137.3291015625
-140.07568359375
-131.8359375
-125.42724609375
-133.6669921875
-135.498046875
-126.3427734375
-112.60986328125
-118.10302734375
-115.3564453125
-119.0185546875
-149.23095703125
-162.04833984375
-154.72412109375
-142.822265625
-139.16015625
-140.07568359375
-122.6806640625
-129.08935546875
-130.92041015625
-122.6806640625
-91.552734375
-41.19873046875
31.1279296875
108.94775390625
218.81103515625
369.873046875
487.060546875
561.21826171875
650.93994140625
715.9423828125
746.15478515625
774.5361328125
829.4677734375
831.298828125
774.5361328125
628.96728515625
467.83447265625
174.86572265625
-178.52783203125
-422.9736328125
-563.04931640625
-611.572265625
-633.544921875
-652.77099609375
-651.85546875
-612.48779296875
-581.35986328125
-563.96484375
-519.10400390625
-460.51025390625
-408.3251953125
-344.23828125
-271.91162109375
-224.30419921875
-190.4296875
-156.55517578125
-136.41357421875
-130.92041015625
-130.0048828125
-125.42724609375
-129.08935546875
-125.42724609375
-119.0185546875
-112.60986328125
-103.45458984375
-97.0458984375
-90.63720703125
-96.13037109375
-115.3564453125
-113.525390625
-125.42724609375
-152.89306640625
-127.25830078125
-91.552734375
-78.7353515625
-68.66455078125
-49.4384765625
-42.1142578125
-66.83349609375
-81.48193359375
-83.31298828125
-77.81982421875
-55.84716796875
-42.1142578125
-32.958984375
-10.07080078125
1.8310546875
-20.1416015625
-35.70556640625
-48.52294921875
-51.26953125
-49.4384765625
-41.19873046875
-44.86083984375
-32.958984375
-12.8173828125
-3.662109375
-14.6484375
-27.4658203125
-26.55029296875
-41.19873046875
-43.9453125
-28.38134765625
-15.56396484375
-22.88818359375
-16.4794921875
-15.56396484375
-21.05712890625
-13.73291015625
-26.55029296875
-37.53662109375
-37.53662109375
-21.97265625
-16.4794921875
-10.07080078125
12.8173828125
19.22607421875
-2.74658203125
-15.56396484375
-14.6484375
-14.6484375
-8.23974609375
3.662109375
19.22607421875
37.53662109375
58.59375
63.17138671875
44.86083984375
32.958984375
25.634765625
1.8310546875
24.71923828125
57.67822265625
69.580078125
63.17138671875
88.80615234375
108.0322265625
109.86328125
117.1875
108.94775390625
114.44091796875
123.59619140625
138.24462890625
139.16015625
136.41357421875
159.3017578125
174.86572265625
168.45703125
170.2880859375
176.69677734375
181.2744140625
196.83837890625
215.14892578125
225.2197265625
238.037109375
255.43212890625
263.671875
242.61474609375
241.69921875
256.34765625
250.8544921875
250.8544921875
264.58740234375
272.8271484375
277.40478515625
286.56005859375
290.22216796875
284.72900390625
281.06689453125
280.1513671875
278.3203125
285.64453125
297.54638671875
309.4482421875
302.1240234375
320.4345703125
