ECG
160.21728515625
160.21728515625
164.794921875
162.9638671875
196.83837890625
209.65576171875
216.97998046875
227.96630859375
243.5302734375
228.8818359375
225.2197265625
215.14892578125
206.9091796875
193.17626953125
204.16259765625
241.69921875
270.99609375
278.3203125
294.7998046875
281.982421875
263.671875
231.62841796875
237.12158203125
226.13525390625
238.95263671875
264.58740234375
265.5029296875
256.34765625
272.8271484375
278.3203125
270.99609375
249.0234375
235.29052734375
195.9228515625
195.00732421875
201.416015625
204.16259765625
204.16259765625
203.2470703125
174.86572265625
147.39990234375
108.94775390625
76.904296875
57.67822265625
47.607421875
48.52294921875
43.9453125
53.1005859375
66.83349609375
46.69189453125
20.1416015625
-3.662109375
-22.88818359375
-33.87451171875
-23.8037109375
-23.8037109375
-19.22607421875
-26.55029296875
-21.05712890625
-44.86083984375
-67.7490234375
-87.890625
-109.86328125
-125.42724609375
-121.76513671875
-90.63720703125
-70.49560546875
-60.4248046875
-49.4384765625
-84.228515625
-100.7080078125
-107.11669921875
-102.5390625
-94.29931640625
-67.7490234375
-62.255859375
-67.7490234375
-75.98876953125
-66.83349609375
-55.84716796875
-64.0869140625
-62.255859375
-67.7490234375
-81.48193359375
-66.83349609375
-75.0732421875
-84.228515625
-70.49560546875
-46.69189453125
-45.7763671875
-78.7353515625
-95.21484375
-81.48193359375
-90.63720703125
-70.49560546875
-47.607421875
-36.62109375
-35.70556640625
-32.958984375
-43.9453125
-56.7626953125
-59.50927734375
-63.17138671875
-78.7353515625
-63.17138671875
-53.1005859375
-54.01611328125
-55.84716796875
-48.52294921875
-54.931640625
-54.01611328125
-51.26953125
-75.98876953125
-102.5390625
-95.21484375
-85.14404296875
-69.580078125
-48.52294921875
-27.4658203125
-52.18505859375
-77.81982421875
-78.7353515625
-86.0595703125
-93.3837890625
-73.2421875
-65.00244140625
-93.3837890625
-101.62353515625
-88.80615234375
-71.4111328125
-74.15771484375
-72.32666015625
-62.255859375
-75.0732421875
-73.2421875
-65.91796875
-65.91796875
-68.66455078125
-57.67822265625
-71.4111328125
-90.63720703125
-90.63720703125
-77.81982421875
-86.97509765625
-76.904296875
-84.228515625
-85.14404296875
-87.890625
-75.0732421875
-75.98876953125
-75.0732421875
-83.31298828125
-93.3837890625
-106.201171875
-94.29931640625
-90.63720703125
-86.97509765625
-79.65087890625
-66.83349609375
-68.66455078125
-108.94775390625
-134.58251953125
-129.08935546875
-124.51171875
-112.60986328125
-103.45458984375
-95.21484375
-92.46826171875
-83.31298828125
-110.77880859375
-127.25830078125
-115.3564453125
-98.876953125
-100.7080078125
-86.0595703125
-81.48193359375
-89.7216796875
-82.3974609375
-68.66455078125
-79.65087890625
-89.7216796875
-94.29931640625
-95.21484375
-111.6943359375
-113.525390625
-108.94775390625
-96.13037109375
-94.29931640625
-85.14404296875
-86.0595703125
-104.3701171875
-123.59619140625
-112.60986328125
-112.60986328125
-96.13037109375
-76.904296875
-83.31298828125
-91.552734375
-83.31298828125
-89.7216796875
-108.0322265625
-165.71044921875
-194.091796875
-203.2470703125
-172.119140625
-118.10302734375
-88.80615234375
-64.0869140625
-43.02978515625
-59.50927734375
-75.0732421875
-95.21484375
-95.21484375
-108.94775390625
-107.11669921875
-97.96142578125
-94.29931640625
-86.0595703125
-73.2421875
-91.552734375
-106.201171875
-114.44091796875
-114.44091796875
-113.525390625
-98.876953125
-93.3837890625
-99.79248046875
-108.94775390625
-93.3837890625
-93.3837890625
-97.0458984375
-98.876953125
-95.21484375
-107.11669921875
-130.0048828125
-131.8359375
-151.06201171875
-165.71044921875
-119.93408203125
-108.0322265625
-108.0322265625
-86.0595703125
-75.98876953125
-108.0322265625
-108.94775390625
-92.46826171875
-92.46826171875
-77.81982421875
-72.32666015625
-92.46826171875
-108.0322265625
-116.27197265625
-108.0322265625
-117.1875
-108.0322265625
-96.13037109375
-89.7216796875
-92.46826171875
-69.580078125
-75.98876953125
-84.228515625
-97.96142578125
-94.29931640625
-96.13037109375
-73.2421875
-64.0869140625
-74.15771484375
-69.580078125
-63.17138671875
-74.15771484375
-89.7216796875
-97.96142578125
-120.849609375
-121.76513671875
-129.08935546875
-138.24462890625
-133.6669921875
-109.86328125
-96.13037109375
-117.1875
-136.41357421875
-136.41357421875
-129.08935546875
-116.27197265625
-106.201171875
-106.201171875
-97.0458984375
-71.4111328125
-60.4248046875
-68.66455078125
-90.63720703125
-99.79248046875
-90.63720703125
-91.552734375
-69.580078125
-53.1005859375
-40.283203125
-53.1005859375
-48.52294921875
-55.84716796875
-76.904296875
-88.80615234375
-80.56640625
-80.56640625
-62.255859375
-32.04345703125
-20.1416015625
-26.55029296875
-16.4794921875
-51.26953125
-91.552734375
-107.11669921875
-89.7216796875
-108.0322265625
-119.93408203125
-100.7080078125
-110.77880859375
-106.201171875
-54.931640625
-40.283203125
-54.931640625
-48.52294921875
-54.01611328125
-86.97509765625
-81.48193359375
-71.4111328125
-86.97509765625
-74.15771484375
-71.4111328125
-82.3974609375
-102.5390625
-123.59619140625
-121.76513671875
-132.75146484375
-121.76513671875
-113.525390625
-115.3564453125
-101.62353515625
-96.13037109375
-115.3564453125
-129.08935546875
-144.6533203125
-147.39990234375
-140.9912109375
-130.92041015625
-117.1875
-122.6806640625
-120.849609375
-97.0458984375
-97.96142578125
-110.77880859375
-103.45458984375
-97.0458984375
-120.849609375
-135.498046875
-135.498046875
-123.59619140625
-125.42724609375
-94.29931640625
-89.7216796875
-94.29931640625
-80.56640625
-51.26953125
-48.52294921875
-19.22607421875
-4.57763671875
45.7763671875
141.90673828125
274.658203125
402.83203125
526.42822265625
606.99462890625
702.20947265625
777.28271484375
848.69384765625
898.13232421875
941.162109375
964.9658203125
931.09130859375
753.47900390625
576.7822265625
321.35009765625
-23.8037109375
-313.1103515625
-461.42578125
-510.8642578125
-541.9921875
-595.0927734375
-598.7548828125
-601.50146484375
-561.21826171875
-524.59716796875
-466.9189453125
-422.9736328125
-374.45068359375
-320.4345703125
-270.08056640625
-207.82470703125
-139.16015625
-119.93408203125
-110.77880859375
-97.0458984375
-86.97509765625
-102.5390625
-101.62353515625
-71.4111328125
-51.26953125
-31.1279296875
-0.91552734375
-2.74658203125
-27.4658203125
-71.4111328125
-79.65087890625
-81.48193359375
-69.580078125
-58.59375
-43.9453125
-28.38134765625
-17.39501953125
-26.55029296875
-22.88818359375
-11.90185546875
-6.40869140625
-13.73291015625
-12.8173828125
-10.986328125
-10.07080078125
-5.4931640625
9.1552734375
10.986328125
-4.57763671875
-23.8037109375
-12.8173828125
-23.8037109375
-25.634765625
-12.8173828125
-15.56396484375
-16.4794921875
0
5.4931640625
-1.8310546875
10.986328125
36.62109375
27.4658203125
32.958984375
39.36767578125
32.04345703125
40.283203125
54.01611328125
43.9453125
32.04345703125
37.53662109375
43.02978515625
11.90185546875
5.4931640625
8.23974609375
-6.40869140625
13.73291015625
43.02978515625
31.1279296875
18.310546875
30.21240234375
50.35400390625
52.18505859375
56.7626953125
67.7490234375
79.65087890625
86.0595703125
95.21484375
85.14404296875
61.34033203125
49.4384765625
60.4248046875
47.607421875
49.4384765625
86.0595703125
102.5390625
119.0185546875
131.8359375
143.73779296875
133.6669921875
140.9912109375
146.484375
142.822265625
149.23095703125
172.119140625
154.72412109375
148.3154296875
184.02099609375
203.2470703125
204.16259765625
208.740234375
208.740234375
191.34521484375
197.75390625
212.40234375
217.8955078125
238.037109375
268.24951171875
238.037109375
199.5849609375
211.48681640625
231.62841796875
246.27685546875
269.1650390625
272.8271484375
262.75634765625
275.57373046875
278.3203125
265.5029296875
265.5029296875
266.41845703125
276.4892578125
292.96875
301.20849609375
307.6171875
313.1103515625
320.4345703125
329.58984375
321.35009765625
309.4482421875
312.19482421875
312.19482421875
279.23583984375
256.34765625
249.93896484375
249.93896484375
249.93896484375
265.5029296875
260.009765625
240.78369140625
234.375
212.40234375
170.2880859375
146.484375
132.75146484375
103.45458984375
91.552734375
120.849609375
115.3564453125
89.7216796875
78.7353515625
69.580078125
42.1142578125
21.05712890625
14.6484375
2.74658203125
-7.32421875
9.1552734375
16.4794921875
10.07080078125
-1.8310546875
-31.1279296875
-60.4248046875
-60.4248046875
-57.67822265625
-53.1005859375
-46.69189453125
-35.70556640625
-42.1142578125
-54.01611328125
-62.255859375
-68.66455078125
-78.7353515625
-63.17138671875
-65.91796875
-75.98876953125
-75.98876953125
-71.4111328125
-72.32666015625
-61.34033203125
-60.4248046875
-58.59375
-60.4248046875
-55.84716796875
-42.1142578125
-31.1279296875
-32.958984375
-37.53662109375
-54.01611328125
-78.7353515625
-83.31298828125
-77.81982421875
-75.98876953125
-59.50927734375
-39.36767578125
-38.4521484375
-47.607421875
-35.70556640625
-40.283203125
-73.2421875
-62.255859375
-43.9453125
-41.19873046875
-20.1416015625
-12.8173828125
-23.8037109375
-43.9453125
-37.53662109375
-48.52294921875
-64.0869140625
-61.34033203125
-50.35400390625
-55.84716796875
-47.607421875
-26.55029296875
-22.88818359375
-6.40869140625
-2.74658203125
-9.1552734375
-41.19873046875
-57.67822265625
-73.2421875
-86.97509765625
-73.2421875
-55.84716796875
-63.17138671875
-63.17138671875
-41.19873046875
-35.70556640625
-28.38134765625
-32.958984375
-42.1142578125
-57.67822265625
-49.4384765625
-38.4521484375
-43.02978515625
-64.0869140625
-50.35400390625
-54.931640625
-59.50927734375
-56.7626953125
-59.50927734375
-83.31298828125
-77.81982421875
-65.91796875
-60.4248046875
-67.7490234375
-70.49560546875
-81.48193359375
-86.97509765625
-70.49560546875
-60.4248046875
-61.34033203125
-48.52294921875
-32.958984375
-36.62109375
-42.1142578125
-31.1279296875
-45.7763671875
-75.98876953125
-92.46826171875
-84.228515625
-89.7216796875
-79.65087890625
-59.50927734375
-50.35400390625
-61.34033203125
-55.84716796875
-52.18505859375
-63.17138671875
-64.0869140625
-69.580078125
-90.63720703125
-95.21484375
-78.7353515625
-75.98876953125
-86.0595703125
-66.83349609375
-62.255859375
-81.48193359375
-82.3974609375
-76.904296875
-91.552734375
-90.63720703125
-83.31298828125
-77.81982421875
-73.2421875
-66.83349609375
-74.15771484375
-84.228515625
-87.890625
-96.13037109375
-110.77880859375
-104.3701171875
-77.81982421875
-75.98876953125
-91.552734375
-82.3974609375
-93.3837890625
-99.79248046875
-99.79248046875
-96.13037109375
-125.42724609375
-129.08935546875
-92.46826171875
-73.2421875
-68.66455078125
-60.4248046875
-75.0732421875
-97.0458984375
-100.7080078125
-100.7080078125
-120.849609375
-103.45458984375
-92.46826171875
-90.63720703125
-77.81982421875
-56.7626953125
-57.67822265625
-75.0732421875
-84.228515625
-89.7216796875
-109.86328125
-99.79248046875
-78.7353515625
-69.580078125
-56.7626953125
-44.86083984375
-47.607421875
-61.34033203125
-69.580078125
-75.98876953125
-91.552734375
-77.81982421875
-64.0869140625
-80.56640625
-93.3837890625
-86.97509765625
-86.97509765625
-98.876953125
-92.46826171875
-100.7080078125
-108.94775390625
-90.63720703125
-75.0732421875
-77.81982421875
-85.14404296875
-75.0732421875
-85.14404296875
-115.3564453125
-116.27197265625
-115.3564453125
-139.16015625
-146.484375
-121.76513671875
-103.45458984375
-75.98876953125
-56.7626953125
-60.4248046875
-67.7490234375
-77.81982421875
-76.904296875
-78.7353515625
-71.4111328125
-53.1005859375
-59.50927734375
-61.34033203125
-58.59375
-54.931640625
-55.84716796875
-62.255859375
-85.14404296875
-86.0595703125
-75.0732421875
-70.49560546875
-74.15771484375
-89.7216796875
-87.890625
-88.80615234375
-87.890625
-79.65087890625
-79.65087890625
-104.3701171875
-108.94775390625
-97.96142578125
-87.890625
-75.98876953125
-64.0869140625
-91.552734375
-123.59619140625
-101.62353515625
-89.7216796875
-100.7080078125
-84.228515625
-58.59375
-62.255859375
-88.80615234375
-86.97509765625
-79.65087890625
-76.904296875
-72.32666015625
-71.4111328125
-87.890625
-95.21484375
-85.14404296875
-80.56640625
-70.49560546875
-67.7490234375
-77.81982421875
-82.3974609375
-97.0458984375
-94.29931640625
-89.7216796875
-74.15771484375
-55.84716796875
-56.7626953125
-71.4111328125
-69.580078125
-55.84716796875
-61.34033203125
-71.4111328125
-55.84716796875
-56.7626953125
-50.35400390625
-37.53662109375
-25.634765625
-35.70556640625
-37.53662109375
-41.19873046875
-53.1005859375
-58.59375
-59.50927734375
-81.48193359375
-89.7216796875
-64.0869140625
-41.19873046875
-43.9453125
-32.04345703125
-12.8173828125
-38.4521484375
-49.4384765625
-75.98876953125
-96.13037109375
-97.96142578125
-71.4111328125
-59.50927734375
-63.17138671875
-51.26953125
-52.18505859375
-67.7490234375
-66.83349609375
-64.0869140625
-69.580078125
-63.17138671875
-73.2421875
-86.0595703125
-84.228515625
-80.56640625
-85.14404296875
-100.7080078125
-99.79248046875
-101.62353515625
-123.59619140625
-124.51171875
-107.11669921875
-99.79248046875
-99.79248046875
-86.0595703125
-80.56640625
-102.5390625
-114.44091796875
-136.41357421875
-160.21728515625
-140.9912109375
-116.27197265625
-115.3564453125
-124.51171875
-97.0458984375
-98.876953125
-106.201171875
-104.3701171875
-115.3564453125
-110.77880859375
-98.876953125
-84.228515625
-78.7353515625
-82.3974609375
-51.26953125
-43.02978515625
-21.05712890625
30.21240234375
70.49560546875
97.96142578125
162.9638671875
252.685546875
372.61962890625
501.708984375
618.896484375
715.02685546875
790.10009765625
841.36962890625
869.7509765625
878.90625
862.4267578125
830.38330078125
697.6318359375
538.330078125
329.58984375
-7.32421875
-310.36376953125
-469.66552734375
-535.58349609375
-587.7685546875
-614.31884765625
-612.48779296875
-593.26171875
-558.4716796875
-512.6953125
-467.83447265625
-415.6494140625
-360.7177734375
-305.7861328125
-281.06689453125
-233.45947265625
-167.54150390625
-128.173828125
-103.45458984375
-86.0595703125
-65.91796875
-75.98876953125
-86.97509765625
-73.2421875
-67.7490234375
-51.26953125
-40.283203125
-38.4521484375
-50.35400390625
-32.958984375
-29.296875
-43.9453125
-34.7900390625
-32.04345703125
-38.4521484375
-34.7900390625
-17.39501953125
-1.8310546875
3.662109375
12.8173828125
8.23974609375
-10.07080078125
-38.4521484375
-50.35400390625
-36.62109375
-24.71923828125
-16.4794921875
-9.1552734375
-4.57763671875
-1.8310546875
4.57763671875
-10.07080078125
2.74658203125
10.07080078125
1.8310546875
-0.91552734375
6.40869140625
14.6484375
14.6484375
27.4658203125
17.39501953125
-9.1552734375
-10.986328125
-18.310546875
-41.19873046875
-45.7763671875
-11.90185546875
14.6484375
27.4658203125
42.1142578125
49.4384765625
21.05712890625
32.958984375
33.87451171875
36.62109375
43.9453125
54.01611328125
63.17138671875
55.84716796875
65.00244140625
59.50927734375
48.52294921875
47.607421875
54.01611328125
42.1142578125
49.4384765625
77.81982421875
79.65087890625
75.98876953125
93.3837890625
77.81982421875
52.18505859375
52.18505859375
54.01611328125
48.52294921875
82.3974609375
111.6943359375
102.5390625
110.77880859375
113.525390625
104.3701171875
119.0185546875
120.849609375
126.3427734375
129.08935546875
138.24462890625
173.9501953125
182.18994140625
172.119140625
168.45703125
186.767578125
188.5986328125
209.65576171875
226.13525390625
201.416015625
208.740234375
236.2060546875
254.5166015625
261.8408203125
273.74267578125
281.982421875
284.72900390625
275.57373046875
284.72900390625
281.982421875
281.982421875
285.64453125
296.630859375
301.20849609375
312.19482421875
309.4482421875
296.630859375
294.7998046875
307.6171875
288.39111328125
268.24951171875
284.72900390625
295.71533203125
299.37744140625
305.7861328125
311.279296875
296.630859375
276.4892578125
270.99609375
253.60107421875
245.361328125
244.44580078125
238.95263671875
238.037109375
230.712890625
223.388671875
195.00732421875
184.02099609375
164.794921875
130.0048828125
105.28564453125
96.13037109375
99.79248046875
96.13037109375
86.97509765625
65.00244140625
38.4521484375
19.22607421875
11.90185546875
-4.57763671875
-16.4794921875
-3.662109375
3.662109375
-3.662109375
6.40869140625
-4.57763671875
-21.05712890625
-28.38134765625
-38.4521484375
-47.607421875
-65.00244140625
-53.1005859375
-32.958984375
-40.283203125
-45.7763671875
-43.9453125
-54.01611328125
-58.59375
-55.84716796875
-70.49560546875
-75.98876953125
-70.49560546875
-58.59375
-53.1005859375
-53.1005859375
-52.18505859375
-51.26953125
-66.83349609375
-75.98876953125
-80.56640625
-113.525390625
-130.0048828125
-102.5390625
-75.0732421875
-53.1005859375
-36.62109375
-44.86083984375
-56.7626953125
-57.67822265625
-52.18505859375
-49.4384765625
-30.21240234375
-34.7900390625
-25.634765625
-20.1416015625
-5.4931640625
-18.310546875
-40.283203125
-30.21240234375
-42.1142578125
-58.59375
-51.26953125
-39.36767578125
-30.21240234375
-16.4794921875
-14.6484375
-32.04345703125
-35.70556640625
-44.86083984375
-54.01611328125
-62.255859375
-46.69189453125
-29.296875
-40.283203125
-34.7900390625
-29.296875
-43.9453125
-52.18505859375
-73.2421875
-105.28564453125
-112.60986328125
-108.0322265625
-86.0595703125
-45.7763671875
-43.9453125
-53.1005859375
-49.4384765625
-58.59375
-66.83349609375
-68.66455078125
-77.81982421875
-54.01611328125
-59.50927734375
-70.49560546875
-60.4248046875
-75.0732421875
-102.5390625
-97.0458984375
-72.32666015625
-77.81982421875
-90.63720703125
-77.81982421875
-66.83349609375
-49.4384765625
-37.53662109375
-18.310546875
-62.255859375
-74.15771484375
-74.15771484375
-76.904296875
-83.31298828125
-70.49560546875
-55.84716796875
-51.26953125
-53.1005859375
-50.35400390625
-77.81982421875
-90.63720703125
-80.56640625
-86.97509765625
-99.79248046875
-89.7216796875
-84.228515625
-92.46826171875
-91.552734375
-72.32666015625
-79.65087890625
-86.97509765625
-102.5390625
-109.86328125
-106.201171875
-119.93408203125
-120.849609375
-116.27197265625
-107.11669921875
-111.6943359375
-125.42724609375
-127.25830078125
-123.59619140625
-129.08935546875
-117.1875
-95.21484375
-91.552734375
-88.80615234375
-82.3974609375
-80.56640625
-90.63720703125
-93.3837890625
-82.3974609375
-97.96142578125
-106.201171875
-101.62353515625
-86.97509765625
-85.14404296875
-107.11669921875
-98.876953125
-105.28564453125
-101.62353515625
-112.60986328125
-125.42724609375
-136.41357421875
-122.6806640625
-109.86328125
-98.876953125
-91.552734375
-71.4111328125
-86.0595703125
-93.3837890625
-97.0458984375
-111.6943359375
-110.77880859375
-95.21484375
-74.15771484375
-78.7353515625
-73.2421875
-68.66455078125
-82.3974609375
-97.0458984375
-105.28564453125
-124.51171875
-122.6806640625
-112.60986328125
-108.94775390625
-98.876953125
-86.97509765625
-88.80615234375
-97.96142578125
-103.45458984375
-116.27197265625
-123.59619140625
-124.51171875
-114.44091796875
-109.86328125
-107.11669921875
-114.44091796875
-113.525390625
-136.41357421875
-140.9912109375
-164.794921875
-185.85205078125
-160.21728515625
-143.73779296875
-160.21728515625
-153.80859375
-121.76513671875
-121.76513671875
-128.173828125
-142.822265625
-139.16015625
-127.25830078125
-101.62353515625
-87.890625
-90.63720703125
-101.62353515625
-89.7216796875
-79.65087890625
-90.63720703125
-99.79248046875
-101.62353515625
-96.13037109375
-73.2421875
-46.69189453125
-27.4658203125
-39.36767578125
-42.1142578125
-49.4384765625
-51.26953125
-49.4384765625
-62.255859375
-75.98876953125
-81.48193359375
-81.48193359375
-84.228515625
-80.56640625
-69.580078125
-48.52294921875
-54.931640625
-70.49560546875
-58.59375
-66.83349609375
-80.56640625
-86.0595703125
-70.49560546875
-53.1005859375
-62.255859375
-69.580078125
-91.552734375
-98.876953125
-85.14404296875
-74.15771484375
-94.29931640625
-85.14404296875
-104.3701171875
-131.8359375
-108.94775390625
-75.0732421875
-92.46826171875
-101.62353515625
-118.10302734375
-134.58251953125
-140.07568359375
-137.3291015625
-170.2880859375
-189.51416015625
-166.6259765625
-127.25830078125
-120.849609375
-141.90673828125
-132.75146484375
-138.24462890625
-133.6669921875
-120.849609375
-110.77880859375
-123.59619140625
-118.10302734375
-108.94775390625
-124.51171875
-144.6533203125
-135.498046875
-135.498046875
-118.10302734375
-118.10302734375
-128.173828125
-125.42724609375
-107.11669921875
-95.21484375
-105.28564453125
-126.3427734375
-126.3427734375
-140.9912109375
-137.3291015625
-130.92041015625
-114.44091796875
-93.3837890625
-85.14404296875
-54.931640625
-21.97265625
20.1416015625
68.66455078125
129.08935546875
222.47314453125
346.0693359375
459.5947265625
543.8232421875
639.0380859375
699.462890625
720.52001953125
751.64794921875
783.69140625
756.2255859375
645.44677734375
517.27294921875
318.603515625
-14.6484375
-285.64453125
-441.2841796875
-496.2158203125
-540.1611328125
-616.14990234375
-637.20703125
-628.0517578125
-605.16357421875
-585.02197265625
-564.88037109375
-535.58349609375
-469.66552734375
-439.453125
-431.21337890625
-338.7451171875
-292.05322265625
-232.5439453125
-194.091796875
-163.87939453125
-143.73779296875
-127.25830078125
-120.849609375
-107.11669921875
-94.29931640625
-107.11669921875
-104.3701171875
-102.5390625
-101.62353515625
-69.580078125
-91.552734375
-87.890625
-70.49560546875
-76.904296875
-76.904296875
-92.46826171875
-121.76513671875
-113.525390625
-85.14404296875
-43.02978515625
-61.34033203125
-84.228515625
-64.0869140625
-65.91796875
-76.904296875
-65.91796875
-57.67822265625
-60.4248046875
-44.86083984375
-58.59375
-52.18505859375
-43.9453125
-17.39501953125
-33.87451171875
-43.02978515625
-47.607421875
-65.00244140625
-62.255859375
-65.91796875
-51.26953125
-48.52294921875
-28.38134765625
-20.1416015625
-26.55029296875
-20.1416015625
-15.56396484375
-42.1142578125
-50.35400390625
-38.4521484375
-30.21240234375
-32.04345703125
-7.32421875
4.57763671875
-8.23974609375
-14.6484375
-33.87451171875
-36.62109375
-54.01611328125
-24.71923828125
2.74658203125
26.55029296875
18.310546875
47.607421875
44.86083984375
27.4658203125
21.05712890625
-1.8310546875
0.91552734375
27.4658203125
45.7763671875
52.18505859375
59.50927734375
73.2421875
61.34033203125
65.91796875
52.18505859375
53.1005859375
64.0869140625
70.49560546875
65.91796875
51.26953125
84.228515625
100.7080078125
97.0458984375
86.0595703125
66.83349609375
58.59375
68.66455078125
106.201171875
131.8359375
144.6533203125
168.45703125
181.2744140625
182.18994140625
185.85205078125
191.34521484375
182.18994140625
179.443359375
204.16259765625
222.47314453125
215.14892578125
219.7265625
233.45947265625
236.2060546875
240.78369140625
247.1923828125
252.685546875
233.45947265625
240.78369140625
240.78369140625
249.0234375
273.74267578125
289.306640625
287.4755859375
278.3203125
264.58740234375
256.34765625
245.361328125
244.44580078125
232.5439453125
238.037109375
240.78369140625
260.92529296875
240.78369140625
226.13525390625
209.65576171875
204.16259765625
176.69677734375
186.767578125
173.03466796875
162.9638671875
146.484375
126.3427734375
99.79248046875
74.15771484375
60.4248046875
47.607421875
29.296875
28.38134765625
18.310546875
2.74658203125
3.662109375
0
-16.4794921875
-38.4521484375
-50.35400390625
-46.69189453125
-69.580078125
-73.2421875
-67.7490234375
-65.91796875
-84.228515625
-88.80615234375
-119.0185546875
-131.8359375
-137.3291015625
-155.6396484375
-148.3154296875
-135.498046875
-132.75146484375
-109.86328125
-89.7216796875
-66.83349609375
-84.228515625
-111.6943359375
-129.08935546875
-123.59619140625
-125.42724609375
-121.76513671875
-110.77880859375
-110.77880859375
-105.28564453125
-98.876953125
-97.0458984375
-93.3837890625
-112.60986328125
-142.822265625
-137.3291015625
-93.3837890625
-92.46826171875
-108.94775390625
-103.45458984375
-71.4111328125
-70.49560546875
-81.48193359375
-77.81982421875
-72.32666015625
-119.93408203125
-105.28564453125
-90.63720703125
-93.3837890625
-67.7490234375
-66.83349609375
-75.98876953125
-93.3837890625
-115.3564453125
-101.62353515625
-94.29931640625
-79.65087890625
-85.14404296875
-94.29931640625
-91.552734375
-95.21484375
-119.93408203125
-130.92041015625
-142.822265625
-147.39990234375
-131.8359375
-128.173828125
-120.849609375
-108.0322265625
-89.7216796875
-88.80615234375
-88.80615234375
-91.552734375
-97.96142578125
-130.92041015625
-137.3291015625
-124.51171875
-133.6669921875
-116.27197265625
-107.11669921875
-75.98876953125
-74.15771484375
-86.97509765625
-124.51171875
-176.69677734375
-181.2744140625
-162.9638671875
-123.59619140625
-124.51171875
-121.76513671875
-130.0048828125
-135.498046875
-130.0048828125
-98.876953125
-105.28564453125
-137.3291015625
-131.8359375
-121.76513671875
-114.44091796875
-106.201171875
-113.525390625
-125.42724609375
-115.3564453125
-134.58251953125
-146.484375
-160.21728515625
-140.9912109375
-151.9775390625
-151.06201171875
-140.07568359375
-95.21484375
-127.25830078125
-170.2880859375
-177.6123046875
-166.6259765625
-145.56884765625
-130.92041015625
-106.201171875
-101.62353515625
-119.0185546875
-133.6669921875
-145.56884765625
-155.6396484375
-163.87939453125
-157.470703125
-154.72412109375
-148.3154296875
-141.90673828125
-152.89306640625
-156.55517578125
-155.6396484375
-155.6396484375
-165.71044921875
-167.54150390625
-177.6123046875
-198.66943359375
-195.00732421875
-172.119140625
-167.54150390625
-180.35888671875
-169.37255859375
-148.3154296875
-140.07568359375
-126.3427734375
-144.6533203125
-164.794921875
-147.39990234375
-154.72412109375
-167.54150390625
-158.38623046875
-130.92041015625
-160.21728515625
-184.02099609375
-165.71044921875
-146.484375
-163.87939453125
-147.39990234375
-138.24462890625
-141.90673828125
-143.73779296875
-142.822265625
-179.443359375
-170.2880859375
-158.38623046875
-158.38623046875
-140.07568359375
-134.58251953125
-112.60986328125
-108.0322265625
-97.96142578125
-91.552734375
-132.75146484375
-163.87939453125
-150.146484375
-130.0048828125
-122.6806640625
-126.3427734375
-113.525390625
-97.0458984375
-111.6943359375
-140.07568359375
-144.6533203125
-118.10302734375
-134.58251953125
-145.56884765625
-162.04833984375
-147.39990234375
-128.173828125
-139.16015625
-151.06201171875
-156.55517578125
-139.16015625
-118.10302734375
-125.42724609375
-131.8359375
-165.71044921875
-169.37255859375
-176.69677734375
-195.9228515625
-183.10546875
-151.9775390625
-163.87939453125
-196.83837890625
-199.5849609375
-201.416015625
-205.99365234375
-197.75390625
-184.02099609375
-184.9365234375
-164.794921875
-160.21728515625
-183.10546875
-191.34521484375
-177.6123046875
-182.18994140625
-201.416015625
-184.02099609375
-165.71044921875
-166.6259765625
-163.87939453125
-156.55517578125
-174.86572265625
-178.52783203125
-173.9501953125
-165.71044921875
-192.2607421875
-206.9091796875
-189.51416015625
-176.69677734375
-188.5986328125
-175.78125
-174.86572265625
-177.6123046875
-166.6259765625
-109.86328125
-106.201171875
-64.0869140625
26.55029296875
86.97509765625
212.40234375
368.0419921875
462.34130859375
546.56982421875
649.10888671875
708.6181640625
720.52001953125
757.14111328125
793.76220703125
803.8330078125
771.78955078125
627.13623046875
432.12890625
94.29931640625
-252.685546875
-479.736328125
-585.02197265625
-629.8828125
-665.58837890625
-691.22314453125
-671.08154296875
-632.62939453125
-627.13623046875
-613.4033203125
-546.56982421875
-487.97607421875
-469.66552734375
-408.3251953125
-322.265625
-281.982421875
-232.5439453125
-204.16259765625
-201.416015625
-177.6123046875
-180.35888671875
-177.6123046875
-170.2880859375
-115.3564453125
-122.6806640625
-123.59619140625
-130.0048828125
-119.93408203125
-114.44091796875
-117.1875
-119.93408203125
-143.73779296875
-151.9775390625
-122.6806640625
-109.86328125
-96.13037109375
-97.96142578125
-112.60986328125
-127.25830078125
-110.77880859375
-82.3974609375
-116.27197265625
-141.90673828125
-112.60986328125
-104.3701171875
-93.3837890625
-91.552734375
-64.0869140625
-72.32666015625
-98.876953125
-94.29931640625
-91.552734375
-86.97509765625
-77.81982421875
-82.3974609375
-84.228515625
-71.4111328125
-41.19873046875
-42.1142578125
-54.01611328125
-85.14404296875
-103.45458984375
-88.80615234375
-59.50927734375
-52.18505859375
-56.7626953125
-60.4248046875
-30.21240234375
-39.36767578125
-54.931640625
-56.7626953125
-52.18505859375
-46.69189453125
-23.8037109375
-17.39501953125
-31.1279296875
-48.52294921875
-15.56396484375
3.662109375
-5.4931640625
-16.4794921875
-21.05712890625
-41.19873046875
-15.56396484375
6.40869140625
6.40869140625
-6.40869140625
21.97265625
29.296875
13.73291015625
13.73291015625
20.1416015625
18.310546875
38.4521484375
47.607421875
47.607421875
39.36767578125
39.36767578125
67.7490234375
77.81982421875
75.0732421875
86.97509765625
75.98876953125
85.14404296875
97.0458984375
92.46826171875
141.90673828125
152.89306640625
133.6669921875
132.75146484375
142.822265625
135.498046875
86.0595703125
139.16015625
195.9228515625
172.119140625
168.45703125
216.97998046875
200.50048828125
207.82470703125
220.64208984375
219.7265625
200.50048828125
209.65576171875
200.50048828125
218.81103515625
222.47314453125
226.13525390625
219.7265625
211.48681640625
242.61474609375
245.361328125
222.47314453125
228.8818359375
249.93896484375
252.685546875
247.1923828125
265.5029296875
261.8408203125
232.5439453125
220.64208984375
206.9091796875
200.50048828125
192.2607421875
152.89306640625
135.498046875
156.55517578125
147.39990234375
122.6806640625
101.62353515625
86.0595703125
59.50927734375
17.39501953125
19.22607421875
11.90185546875
15.56396484375
17.39501953125
18.310546875
6.40869140625
-42.1142578125
-63.17138671875
-85.14404296875
-86.97509765625
-101.62353515625
-105.28564453125
-73.2421875
-70.49560546875
-65.91796875
-109.86328125
-130.0048828125
-113.525390625
-111.6943359375
-140.07568359375
-135.498046875
-120.849609375
-116.27197265625
-128.173828125
-141.90673828125
-130.92041015625
-108.94775390625
-116.27197265625
-139.16015625
-162.04833984375
-151.06201171875
-135.498046875
-127.25830078125
-136.41357421875
-132.75146484375
-102.5390625
-116.27197265625
-129.08935546875
-138.24462890625
-151.06201171875
-151.06201171875
-143.73779296875
-130.0048828125
-124.51171875
-124.51171875
-125.42724609375
-112.60986328125
-112.60986328125
-110.77880859375
-134.58251953125
-126.3427734375
-124.51171875
-123.59619140625
-116.27197265625
-108.0322265625
-125.42724609375
-125.42724609375
-89.7216796875
-107.11669921875
-131.8359375
-115.3564453125
-115.3564453125
-108.0322265625
-86.0595703125
-95.21484375
-96.13037109375
-120.849609375
-119.0185546875
-111.6943359375
-125.42724609375
-114.44091796875
-97.96142578125
-110.77880859375
-107.11669921875
-88.80615234375
-86.0595703125
-83.31298828125
-101.62353515625
-110.77880859375
-149.23095703125
-152.89306640625
-158.38623046875
-139.16015625
-119.93408203125
-109.86328125
-110.77880859375
-114.44091796875
-124.51171875
-171.20361328125
-133.6669921875
-95.21484375
-123.59619140625
-118.10302734375
-138.24462890625
-141.90673828125
-104.3701171875
-94.29931640625
-118.10302734375
-119.93408203125
-129.08935546875
-119.0185546875
-117.1875
-123.59619140625
-113.525390625
-95.21484375
-97.0458984375
-124.51171875
-141.90673828125
-162.04833984375
-130.0048828125
-119.0185546875
-121.76513671875
-125.42724609375
-121.76513671875
-135.498046875
-119.93408203125
-110.77880859375
-133.6669921875
-134.58251953125
-150.146484375
-142.822265625
-119.0185546875
-130.92041015625
-147.39990234375
-134.58251953125
-131.8359375
-153.80859375
-168.45703125
-169.37255859375
-163.87939453125
-164.794921875
-174.86572265625
-153.80859375
-123.59619140625
-77.81982421875
-113.525390625
-136.41357421875
-155.6396484375
-138.24462890625
-145.56884765625
-118.10302734375
-106.201171875
-111.6943359375
-106.201171875
-102.5390625
-117.1875
-112.60986328125
-100.7080078125
-105.28564453125
-129.08935546875
-120.849609375
-115.3564453125
-100.7080078125
-95.21484375
-93.3837890625
-108.0322265625
-101.62353515625
-98.876953125
-115.3564453125
-139.16015625
-125.42724609375
-83.31298828125
-63.17138671875
-71.4111328125
-49.4384765625
-54.931640625
-88.80615234375
-90.63720703125
-84.228515625
-110.77880859375
-120.849609375
-126.3427734375
-126.3427734375
-110.77880859375
-107.11669921875
-115.3564453125
-132.75146484375
-117.1875
-138.24462890625
-141.90673828125
-133.6669921875
-119.0185546875
-117.1875
-108.0322265625
-115.3564453125
-142.822265625
-141.90673828125
-138.24462890625
-170.2880859375
-180.35888671875
-169.37255859375
-151.9775390625
-147.39990234375
-151.9775390625
-144.6533203125
-151.06201171875
-160.21728515625
-151.9775390625
-158.38623046875
-181.2744140625
-159.3017578125
-142.822265625
-140.9912109375
-157.470703125
-139.16015625
-136.41357421875
-151.06201171875
-154.72412109375
-172.119140625
-186.767578125
-183.10546875
-178.52783203125
-195.00732421875
-194.091796875
-155.6396484375
-162.04833984375
-173.9501953125
-162.9638671875
-135.498046875
-130.92041015625
-109.86328125
-79.65087890625
-28.38134765625
-8.23974609375
64.0869140625
151.06201171875
225.2197265625
329.58984375
447.69287109375
520.01953125
607.91015625
690.3076171875
777.28271484375
824.89013671875
852.35595703125
825.8056640625
788.26904296875
670.166015625
508.11767578125
216.064453125
-119.93408203125
-369.873046875
-501.708984375
-563.96484375
-566.71142578125
-626.220703125
-667.41943359375
-657.3486328125
-622.55859375
-606.99462890625
-560.302734375
-504.45556640625
-408.3251953125
-334.16748046875
-276.4892578125
-206.9091796875
-176.69677734375
-173.03466796875
-153.80859375
-144.6533203125
-126.3427734375
-90.63720703125
-87.890625
-77.81982421875
-62.255859375
-70.49560546875
-86.97509765625
-85.14404296875
-94.29931640625
-96.13037109375
-93.3837890625
-97.96142578125
-92.46826171875
-85.14404296875
-63.17138671875
-66.83349609375
-77.81982421875
-41.19873046875
-36.62109375
-46.69189453125
-50.35400390625
-59.50927734375
-51.26953125
-52.18505859375
-46.69189453125
-43.9453125
-43.9453125
-54.931640625
-43.02978515625
-63.17138671875
-65.91796875
-34.7900390625
-17.39501953125
-15.56396484375
-3.662109375
1.8310546875
-10.986328125
-30.21240234375
-31.1279296875
-59.50927734375
-45.7763671875
-24.71923828125
-20.1416015625
1.8310546875
9.1552734375
-2.74658203125
-6.40869140625
-1.8310546875
1.8310546875
-25.634765625
-28.38134765625
-1.8310546875
15.56396484375
21.05712890625
43.02978515625
42.1142578125
26.55029296875
17.39501953125
8.23974609375
-4.57763671875
32.04345703125
40.283203125
48.52294921875
43.9453125
54.01611328125
45.7763671875
50.35400390625
50.35400390625
57.67822265625
44.86083984375
49.4384765625
50.35400390625
75.0732421875
92.46826171875
121.76513671875
107.11669921875
103.45458984375
97.0458984375
106.201171875
86.97509765625
97.96142578125
105.28564453125
113.525390625
130.92041015625
160.21728515625
158.38623046875
174.86572265625
173.03466796875
181.2744140625
171.20361328125
178.52783203125
207.82470703125
203.2470703125
205.078125
231.62841796875
246.27685546875
251.77001953125
263.671875
263.671875
249.93896484375
256.34765625
267.333984375
282.89794921875
296.630859375
317.68798828125
312.19482421875
301.20849609375
284.72900390625
281.06689453125
279.23583984375
270.99609375
286.56005859375
312.19482421875
304.87060546875
305.7861328125
274.658203125
266.41845703125
260.92529296875
263.671875
249.0234375
246.27685546875
270.08056640625
244.44580078125
216.97998046875
211.48681640625
198.66943359375
151.06201171875
101.62353515625
89.7216796875
66.83349609375
65.00244140625
76.904296875
79.65087890625
83.31298828125
106.201171875
101.62353515625
87.890625
65.91796875
29.296875
-0.91552734375
13.73291015625
24.71923828125
14.6484375
-3.662109375
-8.23974609375
-22.88818359375
-45.7763671875
-60.4248046875
-51.26953125
-75.98876953125
-69.580078125
-75.0732421875
-68.66455078125
-63.17138671875
-62.255859375
-42.1142578125
-67.7490234375
-75.0732421875
-98.876953125
-99.79248046875
-94.29931640625
-82.3974609375
-80.56640625
-77.81982421875
-57.67822265625
-53.1005859375
-64.0869140625
-84.228515625
-99.79248046875
-106.201171875
-100.7080078125
-83.31298828125
-78.7353515625
-73.2421875
-63.17138671875
-85.14404296875
-98.876953125
-119.93408203125
-106.201171875
-114.44091796875
-113.525390625
-62.255859375
-33.87451171875
-32.04345703125
-34.7900390625
-49.4384765625
-51.26953125
-50.35400390625
-41.19873046875
-47.607421875
-49.4384765625
-27.4658203125
-54.01611328125
-59.50927734375
-31.1279296875
-36.62109375
-50.35400390625
-45.7763671875
-57.67822265625
-69.580078125
-63.17138671875
-62.255859375
-61.34033203125
-58.59375
-43.02978515625
-58.59375
-70.49560546875
-78.7353515625
-65.00244140625
-82.3974609375
-86.0595703125
-64.0869140625
-45.7763671875
-43.02978515625
-32.958984375
-40.283203125
-71.4111328125
-79.65087890625
-73.2421875
-84.228515625
-72.32666015625
-53.1005859375
-79.65087890625
-81.48193359375
-72.32666015625
-83.31298828125
-99.79248046875
-101.62353515625
-100.7080078125
-113.525390625
-103.45458984375
-97.0458984375
-91.552734375
-109.86328125
-91.552734375
-90.63720703125
-117.1875
-133.6669921875
-141.90673828125
-126.3427734375
-110.77880859375
-95.21484375
-98.876953125
-99.79248046875
-79.65087890625
-77.81982421875
-74.15771484375
-101.62353515625
-103.45458984375
-93.3837890625
-62.255859375
-52.18505859375
-70.49560546875
-73.2421875
-68.66455078125
-67.7490234375
-92.46826171875
-110.77880859375
-99.79248046875
-110.77880859375
-104.3701171875
-104.3701171875
-91.552734375
-74.15771484375
-63.17138671875
-74.15771484375
-96.13037109375
-72.32666015625
-75.0732421875
-94.29931640625
-101.62353515625
-82.3974609375
-62.255859375
-79.65087890625
-49.4384765625
-53.1005859375
-84.228515625
-110.77880859375
-124.51171875
-147.39990234375
-126.3427734375
-82.3974609375
-60.4248046875
-41.19873046875
-21.05712890625
-44.86083984375
-77.81982421875
-93.3837890625
-68.66455078125
-100.7080078125
-119.0185546875
-86.0595703125
-83.31298828125
-87.890625
-74.15771484375
-92.46826171875
-87.890625
-54.01611328125
-66.83349609375
-106.201171875
-113.525390625
-119.0185546875
-111.6943359375
-86.97509765625
-79.65087890625
-86.97509765625
-109.86328125
-105.28564453125
-108.94775390625
-142.822265625
-134.58251953125
-106.201171875
-113.525390625
-125.42724609375
-119.93408203125
-102.5390625
-115.3564453125
-119.93408203125
-128.173828125
-155.6396484375
-129.08935546875
-106.201171875
-103.45458984375
-99.79248046875
-98.876953125
-97.96142578125
-110.77880859375
-118.10302734375
-126.3427734375
-142.822265625
-133.6669921875
-116.27197265625
-124.51171875
-124.51171875
-141.90673828125
-136.41357421875
-112.60986328125
-94.29931640625
-117.1875
-128.173828125
-107.11669921875
-49.4384765625
2.74658203125
35.70556640625
106.201171875
155.6396484375
230.712890625
356.14013671875
493.46923828125
577.69775390625
683.89892578125
755.31005859375
789.1845703125
822.1435546875
849.609375
813.90380859375
716.85791015625
581.35986328125
402.83203125
75.0732421875
-247.1923828125
-440.36865234375
-539.24560546875
-559.38720703125
-569.4580078125
-606.99462890625
-614.31884765625
-598.7548828125
-586.85302734375
-554.8095703125
-496.2158203125
-426.6357421875
-352.47802734375
-286.56005859375
-210.5712890625
-174.86572265625
-163.87939453125
-134.58251953125
-119.93408203125
-116.27197265625
-122.6806640625
-110.77880859375
-90.63720703125
-86.97509765625
-58.59375
-39.36767578125
-43.02978515625
-39.36767578125
-36.62109375
-43.02978515625
-47.607421875
-47.607421875
-36.62109375
-34.7900390625
-33.87451171875
-21.05712890625
-14.6484375
-8.23974609375
-11.90185546875
-46.69189453125
-58.59375
-42.1142578125
-23.8037109375
-34.7900390625
-21.97265625
9.1552734375
-4.57763671875
-10.986328125
-11.90185546875
-37.53662109375
-32.04345703125
-17.39501953125
-4.57763671875
-8.23974609375
9.1552734375
3.662109375
-11.90185546875
-27.4658203125
-32.04345703125
-43.02978515625
-27.4658203125
-11.90185546875
-21.05712890625
-13.73291015625
18.310546875
20.1416015625
10.986328125
2.74658203125
3.662109375
10.07080078125
8.23974609375
-1.8310546875
8.23974609375
34.7900390625
44.86083984375
38.4521484375
15.56396484375
3.662109375
7.32421875
21.05712890625
35.70556640625
53.1005859375
65.91796875
83.31298828125
100.7080078125
101.62353515625
84.228515625
75.98876953125
85.14404296875
83.31298828125
84.228515625
110.77880859375
109.86328125
105.28564453125
133.6669921875
141.90673828125
123.59619140625
129.08935546875
147.39990234375
115.3564453125
116.27197265625
136.41357421875
145.56884765625
173.03466796875
185.85205078125
174.86572265625
169.37255859375
187.68310546875
166.6259765625
164.794921875
201.416015625
220.64208984375
221.5576171875
215.14892578125
240.78369140625
222.47314453125
205.99365234375
210.5712890625
231.62841796875
249.0234375
253.60107421875
281.982421875
294.7998046875
305.7861328125
292.96875
294.7998046875
296.630859375
284.72900390625
312.19482421875
303.955078125
293.88427734375
310.36376953125
314.02587890625
312.19482421875
319.51904296875
320.4345703125
275.57373046875
254.5166015625
256.34765625
230.712890625
232.5439453125
254.5166015625
233.45947265625
219.7265625
213.31787109375
194.091796875
161.1328125
145.56884765625
136.41357421875
112.60986328125
112.60986328125
123.59619140625
105.28564453125
78.7353515625
57.67822265625
32.958984375
17.39501953125
-3.662109375
-2.74658203125
-32.04345703125
-44.86083984375
-88.80615234375
-94.29931640625
-93.3837890625
-57.67822265625
-27.4658203125
-20.1416015625
-21.05712890625
-21.97265625
-32.04345703125
-49.4384765625
-34.7900390625
-52.18505859375
-91.552734375
-99.79248046875
-82.3974609375
-91.552734375
-81.48193359375
-61.34033203125
-69.580078125
-55.84716796875
-41.19873046875
-43.9453125
-60.4248046875
-34.7900390625
-18.310546875
-39.36767578125
-32.04345703125
-36.62109375
-51.26953125
-54.931640625
-48.52294921875
-65.00244140625
-53.1005859375
-21.05712890625
-40.283203125
-49.4384765625
-53.1005859375
-60.4248046875
-72.32666015625
-64.0869140625
-69.580078125
-54.01611328125
-66.83349609375
-60.4248046875
-55.84716796875
-48.52294921875
-49.4384765625
-59.50927734375
-58.59375
-61.34033203125
-43.9453125
-65.00244140625
-69.580078125
-60.4248046875
-56.7626953125
-61.34033203125
-85.14404296875
-86.97509765625
-91.552734375
-81.48193359375
-63.17138671875
-43.9453125
-42.1142578125
-32.958984375
-44.86083984375
-38.4521484375
-52.18505859375
-70.49560546875
-79.65087890625
-86.0595703125
-75.0732421875
-74.15771484375
-71.4111328125
-66.83349609375
-69.580078125
-72.32666015625
-75.0732421875
-83.31298828125
-86.97509765625
-80.56640625
-63.17138671875
-66.83349609375
-74.15771484375
-52.18505859375
-55.84716796875
-83.31298828125
-80.56640625
-79.65087890625
-83.31298828125
-79.65087890625
-68.66455078125
-86.97509765625
-96.13037109375
-80.56640625
-80.56640625
-88.80615234375
-73.2421875
-71.4111328125
-98.876953125
-99.79248046875
-102.5390625
-108.0322265625
-115.3564453125
-101.62353515625
-86.97509765625
-105.28564453125
-93.3837890625
-96.13037109375
-100.7080078125
-91.552734375
-91.552734375
-91.552734375
-86.0595703125
-85.14404296875
-80.56640625
-88.80615234375
-98.876953125
-101.62353515625
-117.1875
-119.93408203125
-106.201171875
-110.77880859375
-116.27197265625
-92.46826171875
-80.56640625
-96.13037109375
-96.13037109375
-104.3701171875
-119.93408203125
-123.59619140625
-116.27197265625
-118.10302734375
-100.7080078125
-92.46826171875
-83.31298828125
-93.3837890625
-95.21484375
-98.876953125
-122.6806640625
-139.16015625
-119.93408203125
-98.876953125
-98.876953125
-94.29931640625
-92.46826171875
-99.79248046875
-106.201171875
-108.0322265625
-119.93408203125
-130.92041015625
-136.41357421875
-111.6943359375
-98.876953125
-83.31298828125
-70.49560546875
-86.0595703125
-90.63720703125
-99.79248046875
-117.1875
-138.24462890625
-103.45458984375
-66.83349609375
-43.9453125
-22.88818359375
-50.35400390625
-65.91796875
-77.81982421875
-79.65087890625
-91.552734375
-100.7080078125
-104.3701171875
-108.94775390625
-92.46826171875
-95.21484375
-119.0185546875
-132.75146484375
-122.6806640625
-108.0322265625
-119.93408203125
-132.75146484375
-97.0458984375
-92.46826171875
-81.48193359375
-74.15771484375
-93.3837890625
-117.1875
-119.0185546875
-130.92041015625
-151.06201171875
-162.9638671875
-141.90673828125
-139.16015625
-141.90673828125
-123.59619140625
-127.25830078125
-141.90673828125
-133.6669921875
-131.8359375
-143.73779296875
-168.45703125
-158.38623046875
-152.89306640625
-140.07568359375
-120.849609375
-120.849609375
-124.51171875
-135.498046875
-143.73779296875
-157.470703125
-155.6396484375
-131.8359375
-121.76513671875
-132.75146484375
-129.08935546875
-125.42724609375
-130.92041015625
-110.77880859375
-99.79248046875
-119.0185546875
-108.94775390625
-65.91796875
-30.21240234375
8.23974609375
75.0732421875
150.146484375
238.95263671875
345.15380859375
437.6220703125
522.76611328125
628.0517578125
704.04052734375
746.15478515625
792.8466796875
827.63671875
806.57958984375
731.50634765625
580.4443359375
397.3388671875
82.3974609375
-239.8681640625
-425.72021484375
-508.11767578125
-541.9921875
-574.951171875
-585.9375
-601.50146484375
-590.51513671875
-562.1337890625
-556.640625
-520.01953125
-460.51025390625
-403.74755859375
-359.80224609375
-294.7998046875
-249.0234375
-237.12158203125
-220.64208984375
-185.85205078125
-165.71044921875
-148.3154296875
-112.60986328125
-86.97509765625
-83.31298828125
-63.17138671875
-45.7763671875
-61.34033203125
-88.80615234375
-104.3701171875
-108.0322265625
-100.7080078125
-90.63720703125
-79.65087890625
-47.607421875
-34.7900390625
-38.4521484375
-36.62109375
-52.18505859375
-65.91796875
-81.48193359375
-86.0595703125
-86.0595703125
-75.0732421875
-53.1005859375
-50.35400390625
-43.9453125
-60.4248046875
-63.17138671875
-54.931640625
-61.34033203125
-54.931640625
-57.67822265625
-47.607421875
-65.91796875
-70.49560546875
-47.607421875
-42.1142578125
-48.52294921875
-43.9453125
-42.1142578125
-27.4658203125
-22.88818359375
-13.73291015625
1.8310546875
7.32421875
-2.74658203125
-9.1552734375
-9.1552734375
-16.4794921875
-58.59375
-68.66455078125
-49.4384765625
-35.70556640625
-28.38134765625
-3.662109375
24.71923828125
20.1416015625
10.07080078125
17.39501953125
6.40869140625
-11.90185546875
-8.23974609375
18.310546875
49.4384765625
55.84716796875
49.4384765625
48.52294921875
47.607421875
46.69189453125
32.958984375
32.04345703125
58.59375
81.48193359375
73.2421875
75.0732421875
77.81982421875
88.80615234375
82.3974609375
94.29931640625
74.15771484375
75.98876953125
104.3701171875
119.0185546875
128.173828125
141.90673828125
160.21728515625
145.56884765625
149.23095703125
135.498046875
126.3427734375
126.3427734375
147.39990234375
173.03466796875
184.02099609375
196.83837890625
211.48681640625
205.078125
205.078125
209.65576171875
203.2470703125
197.75390625
202.33154296875
207.82470703125
219.7265625
227.05078125
219.7265625
196.83837890625
206.9091796875
219.7265625
205.078125
211.48681640625
237.12158203125
252.685546875
241.69921875
232.5439453125
238.037109375
230.712890625
229.79736328125
245.361328125
232.5439453125
230.712890625
231.62841796875
209.65576171875
202.33154296875
212.40234375
199.5849609375
160.21728515625
139.16015625
126.3427734375
98.876953125
85.14404296875
83.31298828125
73.2421875
64.0869140625
49.4384765625
43.02978515625
30.21240234375
16.4794921875
-10.07080078125
-27.4658203125
-34.7900390625
-43.9453125
-44.86083984375
-59.50927734375
-68.66455078125
-66.83349609375
-74.15771484375
-83.31298828125
-95.21484375
-94.29931640625
-110.77880859375
-99.79248046875
-99.79248046875
-115.3564453125
-136.41357421875
-126.3427734375
-108.94775390625
-104.3701171875
-102.5390625
-104.3701171875
-100.7080078125
-87.890625
-96.13037109375
-103.45458984375
-88.80615234375
-84.228515625
-113.525390625
-109.86328125
-114.44091796875
-147.39990234375
-139.16015625
-117.1875
-113.525390625
-99.79248046875
-106.201171875
-99.79248046875
-108.94775390625
-88.80615234375
-67.7490234375
-84.228515625
-78.7353515625
-64.0869140625
-68.66455078125
-81.48193359375
-79.65087890625
-75.98876953125
-93.3837890625
-94.29931640625
-86.97509765625
-103.45458984375
-103.45458984375
-75.0732421875
-98.876953125
-103.45458984375
-76.904296875
-63.17138671875
-97.96142578125
-129.08935546875
-120.849609375
-118.10302734375
-133.6669921875
-118.10302734375
-97.96142578125
-88.80615234375
-68.66455078125
-47.607421875
-65.00244140625
-79.65087890625
-81.48193359375
-93.3837890625
-104.3701171875
-114.44091796875
-112.60986328125
-108.0322265625
-105.28564453125
-106.201171875
-124.51171875
-107.11669921875
-87.890625
-125.42724609375
-132.75146484375
-99.79248046875
-103.45458984375
-104.3701171875
-94.29931640625
-91.552734375
-109.86328125
-113.525390625
-111.6943359375
-140.07568359375
-170.2880859375
-151.9775390625
-127.25830078125
-116.27197265625
-102.5390625
-97.0458984375
-119.93408203125
-122.6806640625
-120.849609375
-123.59619140625
-145.56884765625
-143.73779296875
-151.9775390625
-153.80859375
-126.3427734375
-102.5390625
-113.525390625
-119.0185546875
-130.92041015625
-149.23095703125
-163.87939453125
-160.21728515625
-153.80859375
-141.90673828125
-131.8359375
-120.849609375
-128.173828125
-132.75146484375
-130.92041015625
-130.0048828125
-145.56884765625
-137.3291015625
-127.25830078125
-126.3427734375
-122.6806640625
-109.86328125
-120.849609375
-115.3564453125
-131.8359375
-152.89306640625
-165.71044921875
-151.9775390625
-149.23095703125
-157.470703125
-154.72412109375
-147.39990234375
-183.10546875
-184.9365234375
-173.03466796875
-163.87939453125
-146.484375
-129.08935546875
-105.28564453125
-86.97509765625
-79.65087890625
-85.14404296875
-91.552734375
-97.0458984375
-106.201171875
-125.42724609375
-155.6396484375
-163.87939453125
-153.80859375
-144.6533203125
-116.27197265625
-103.45458984375
-104.3701171875
-101.62353515625
-108.0322265625
-107.11669921875
-108.0322265625
-97.0458984375
-108.94775390625
-109.86328125
-107.11669921875
-90.63720703125
-110.77880859375
-117.1875
-118.10302734375
-130.0048828125
-142.822265625
-131.8359375
-132.75146484375
-170.2880859375
-160.21728515625
-142.822265625
-152.89306640625
-155.6396484375
-137.3291015625
-151.9775390625
-178.52783203125
-148.3154296875
-131.8359375
-139.16015625
-159.3017578125
-139.16015625
-150.146484375
-161.1328125
-168.45703125
-179.443359375
-201.416015625
-199.5849609375
-192.2607421875
-175.78125
-157.470703125
-150.146484375
-157.470703125
-158.38623046875
-149.23095703125
-173.03466796875
-185.85205078125
-187.68310546875
-181.2744140625
-177.6123046875
-170.2880859375
-160.21728515625
-158.38623046875
-167.54150390625
-149.23095703125
-145.56884765625
-150.146484375
-141.90673828125
-111.6943359375
-83.31298828125
-53.1005859375
-2.74658203125
45.7763671875
102.5390625
194.091796875
290.22216796875
371.7041015625
458.67919921875
542.90771484375
594.17724609375
635.3759765625
695.80078125
736.99951171875
725.09765625
668.3349609375
537.41455078125
366.2109375
72.32666015625
-232.5439453125
-412.90283203125
-496.2158203125
-523.681640625
-577.69775390625
-621.64306640625
-646.3623046875
-634.46044921875
-620.7275390625
-602.4169921875
-564.88037109375
-509.94873046875
-458.67919921875
-414.73388671875
-399.169921875
-357.97119140625
-314.94140625
-276.4892578125
-237.12158203125
-199.5849609375
-190.4296875
-187.68310546875
-161.1328125
-125.42724609375
-116.27197265625
-118.10302734375
-116.27197265625
-112.60986328125
-124.51171875
-100.7080078125
-100.7080078125
-102.5390625
-92.46826171875
-66.83349609375
-86.0595703125
-87.890625
-86.0595703125
-84.228515625
-78.7353515625
-71.4111328125
-80.56640625
-72.32666015625
-72.32666015625
-61.34033203125
-68.66455078125
-75.0732421875
-77.81982421875
-94.29931640625
-124.51171875
-114.44091796875
-101.62353515625
-93.3837890625
-67.7490234375
-53.1005859375
-47.607421875
-46.69189453125
-43.02978515625
-57.67822265625
-82.3974609375
-85.14404296875
-69.580078125
-72.32666015625
-48.52294921875
-19.22607421875
-21.97265625
-32.958984375
-28.38134765625
-24.71923828125
-37.53662109375
-26.55029296875
-10.986328125
-10.986328125
-18.310546875
-23.8037109375
-32.958984375
-28.38134765625
-25.634765625
-41.19873046875
-63.17138671875
-30.21240234375
-10.986328125
8.23974609375
16.4794921875
18.310546875
13.73291015625
13.73291015625
15.56396484375
12.8173828125
11.90185546875
27.4658203125
46.69189453125
45.7763671875
46.69189453125
67.7490234375
55.84716796875
47.607421875
51.26953125
59.50927734375
54.931640625
75.0732421875
77.81982421875
84.228515625
87.890625
119.93408203125
108.94775390625
106.201171875
122.6806640625
108.94775390625
100.7080078125
127.25830078125
134.58251953125
144.6533203125
162.04833984375
170.2880859375
179.443359375
184.9365234375
201.416015625
184.9365234375
170.2880859375
197.75390625
214.2333984375
206.9091796875
215.14892578125
207.82470703125
175.78125
192.2607421875
219.7265625
204.16259765625
196.83837890625
221.5576171875
243.5302734375
249.93896484375
249.0234375
253.60107421875
242.61474609375
224.30419921875
219.7265625
216.064453125
195.00732421875
205.078125
205.99365234375
184.9365234375
177.6123046875
179.443359375
155.6396484375
125.42724609375
110.77880859375
86.97509765625
68.66455078125
82.3974609375
77.81982421875
57.67822265625
61.34033203125
51.26953125
28.38134765625
-8.23974609375
-24.71923828125
-44.86083984375
-66.83349609375
-44.86083984375
-48.52294921875
-59.50927734375
-89.7216796875
-93.3837890625
-107.11669921875
-108.0322265625
-113.525390625
-132.75146484375
-130.92041015625
-117.1875
-130.92041015625
-119.93408203125
-123.59619140625
-113.525390625
-113.525390625
-99.79248046875
-108.0322265625
-111.6943359375
-112.60986328125
-93.3837890625
-90.63720703125
-104.3701171875
-105.28564453125
-111.6943359375
-130.0048828125
-119.93408203125
-94.29931640625
-121.76513671875
-114.44091796875
-99.79248046875
-104.3701171875
-102.5390625
-101.62353515625
-77.81982421875
-92.46826171875
-105.28564453125
-115.3564453125
-115.3564453125
-123.59619140625
-102.5390625
-97.96142578125
-103.45458984375
-94.29931640625
-63.17138671875
-72.32666015625
-86.97509765625
-104.3701171875
-124.51171875
-139.16015625
-111.6943359375
-98.876953125
-99.79248046875
-96.13037109375
-85.14404296875
-95.21484375
-97.96142578125
-115.3564453125
-137.3291015625
-130.92041015625
-98.876953125
-68.66455078125
-99.79248046875
-91.552734375
-89.7216796875
-97.96142578125
-104.3701171875
-139.16015625
-141.90673828125
-154.72412109375
-159.3017578125
-141.90673828125
-115.3564453125
-97.0458984375
-81.48193359375
-84.228515625
-99.79248046875
-115.3564453125
-119.93408203125
-130.92041015625
-125.42724609375
-106.201171875
-84.228515625
-91.552734375
-83.31298828125
-92.46826171875
-110.77880859375
-102.5390625
-124.51171875
-149.23095703125
-135.498046875
-111.6943359375
-101.62353515625
-96.13037109375
-85.14404296875
-108.0322265625
-128.173828125
-136.41357421875
-134.58251953125
-145.56884765625
-142.822265625
-141.90673828125
-138.24462890625
-137.3291015625
-129.08935546875
-130.0048828125
-126.3427734375
-130.0048828125
-137.3291015625
-144.6533203125
-130.92041015625
-143.73779296875
-137.3291015625
-142.822265625
-121.76513671875
-118.10302734375
-133.6669921875
-139.16015625
-161.1328125
-173.03466796875
-153.80859375
-130.92041015625
-113.525390625
-120.849609375
-112.60986328125
-119.93408203125
-122.6806640625
-101.62353515625
-119.0185546875
-133.6669921875
-114.44091796875
-99.79248046875
-97.0458984375
-77.81982421875
-48.52294921875
-58.59375
-66.83349609375
-65.00244140625
-72.32666015625
-108.94775390625
-113.525390625
-98.876953125
-106.201171875
-107.11669921875
-94.29931640625
-106.201171875
-110.77880859375
-98.876953125
-119.0185546875
-124.51171875
-97.96142578125
-110.77880859375
-135.498046875
-146.484375
-126.3427734375
-141.90673828125
-155.6396484375
-146.484375
-167.54150390625
-184.02099609375
-195.00732421875
-196.83837890625
-185.85205078125
-165.71044921875
-149.23095703125
-163.87939453125
-174.86572265625
-152.89306640625
-137.3291015625
-156.55517578125
-157.470703125
-152.89306640625
-147.39990234375
-129.08935546875
-133.6669921875
-150.146484375
-173.03466796875
-181.2744140625
-177.6123046875
-179.443359375
-157.470703125
-144.6533203125
-152.89306640625
-145.56884765625
-139.16015625
-128.173828125
-143.73779296875
-153.80859375
-161.1328125
-182.18994140625
-169.37255859375
-154.72412109375
-149.23095703125
-138.24462890625
-108.94775390625
-97.96142578125
-103.45458984375
-86.97509765625
-36.62109375
15.56396484375
106.201171875
216.064453125
344.23828125
445.86181640625
520.01953125
585.9375
649.10888671875
709.53369140625
759.8876953125
763.5498046875
744.32373046875
647.27783203125
513.61083984375
292.05322265625
-43.9453125
-335.0830078125
-473.32763671875
-536.4990234375
-578.61328125
-654.60205078125
-665.58837890625
-640.869140625
-621.64306640625
-591.4306640625
-560.302734375
-530.09033203125
-517.27294921875
-479.736328125
-445.86181640625
-408.3251953125
-323.18115234375
-238.95263671875
-188.5986328125
-168.45703125
-157.470703125
-157.470703125
-141.90673828125
-131.8359375
-102.5390625
-95.21484375
-75.0732421875
-62.255859375
-51.26953125
-73.2421875
-97.96142578125
-104.3701171875
-94.29931640625
-92.46826171875
-93.3837890625
-101.62353515625
-93.3837890625
-69.580078125
-44.86083984375
-47.607421875
-48.52294921875
-65.91796875
-71.4111328125
-64.0869140625
-61.34033203125
-63.17138671875
-61.34033203125
-69.580078125
-82.3974609375
-74.15771484375
-47.607421875
-42.1142578125
-47.607421875
-58.59375
-80.56640625
-95.21484375
-90.63720703125
-79.65087890625
-46.69189453125
-35.70556640625
-30.21240234375
-20.1416015625
-32.958984375
-31.1279296875
-40.283203125
-43.9453125
-25.634765625
-10.07080078125
-9.1552734375
-22.88818359375
-10.07080078125
-23.8037109375
-46.69189453125
-35.70556640625
-33.87451171875
-36.62109375
-23.8037109375
-18.310546875
-8.23974609375
13.73291015625
31.1279296875
14.6484375
0.91552734375
-1.8310546875
-23.8037109375
-54.01611328125
-42.1142578125
-7.32421875
26.55029296875
49.4384765625
73.2421875
71.4111328125
70.49560546875
68.66455078125
75.98876953125
59.50927734375
72.32666015625
111.6943359375
123.59619140625
126.3427734375
130.0048828125
117.1875
120.849609375
127.25830078125
134.58251953125
122.6806640625
133.6669921875
158.38623046875
156.55517578125
166.6259765625
182.18994140625
162.04833984375
173.03466796875
194.091796875
203.2470703125
205.99365234375
221.5576171875
222.47314453125
225.2197265625
244.44580078125
260.009765625
249.0234375
234.375
232.5439453125
238.95263671875
225.2197265625
249.93896484375
282.89794921875
281.06689453125
247.1923828125
268.24951171875
293.88427734375
270.99609375
266.41845703125
263.671875
256.34765625
277.40478515625
280.1513671875
270.08056640625
249.93896484375
247.1923828125
215.14892578125
188.5986328125
175.78125
164.794921875
140.07568359375
106.201171875
79.65087890625
80.56640625
75.0732421875
64.0869140625
43.02978515625
39.36767578125
14.6484375
-25.634765625
-38.4521484375
-0.91552734375
21.05712890625
22.88818359375
25.634765625
25.634765625
-25.634765625
-54.931640625
-65.91796875
-61.34033203125
-78.7353515625
-98.876953125
-110.77880859375
-113.525390625
-104.3701171875
-75.0732421875
-73.2421875
-74.15771484375
-65.00244140625
-75.98876953125
-90.63720703125
-82.3974609375
-72.32666015625
-72.32666015625
-75.98876953125
-74.15771484375
-88.80615234375
-123.59619140625
-130.92041015625
-140.07568359375
-139.16015625
-118.10302734375
-122.6806640625
-116.27197265625
-114.44091796875
-98.876953125
-102.5390625
-108.94775390625
-86.97509765625
-85.14404296875
-85.14404296875
-81.48193359375
-66.83349609375
-63.17138671875
-63.17138671875
-62.255859375
-78.7353515625
-111.6943359375
-110.77880859375
-130.92041015625
-119.93408203125
-91.552734375
-65.00244140625
-65.00244140625
-76.904296875
-93.3837890625
-104.3701171875
-97.0458984375
-82.3974609375
-77.81982421875
-75.98876953125
-71.4111328125
-74.15771484375
-96.13037109375
-91.552734375
-90.63720703125
-83.31298828125
-72.32666015625
-65.91796875
-64.0869140625
-90.63720703125
-75.0732421875
-58.59375
-70.49560546875
-63.17138671875
-47.607421875
-44.86083984375
-62.255859375
-84.228515625
-101.62353515625
-116.27197265625
-92.46826171875
-82.3974609375
-66.83349609375
-59.50927734375
-54.931640625
-78.7353515625
-98.876953125
-118.10302734375
-108.94775390625
-121.76513671875
-143.73779296875
-130.0048828125
-107.11669921875
-110.77880859375
-83.31298828125
-73.2421875
-105.28564453125
-122.6806640625
-149.23095703125
-181.2744140625
-167.54150390625
-156.55517578125
-130.92041015625
-97.0458984375
-82.3974609375
-96.13037109375
-123.59619140625
-140.07568359375
-144.6533203125
-159.3017578125
-125.42724609375
-102.5390625
-82.3974609375
-52.18505859375
-36.62109375
-77.81982421875
-92.46826171875
-99.79248046875
-106.201171875
-140.9912109375
-130.0048828125
-116.27197265625
-114.44091796875
-110.77880859375
-94.29931640625
-119.0185546875
-122.6806640625
-124.51171875
-118.10302734375
-120.849609375
-119.93408203125
-117.1875
-106.201171875
-103.45458984375
-106.201171875
-111.6943359375
-110.77880859375
-114.44091796875
-137.3291015625
-162.9638671875
-139.16015625
-115.3564453125
-138.24462890625
-145.56884765625
-144.6533203125
-133.6669921875
-138.24462890625
-129.08935546875
-113.525390625
-117.1875
-118.10302734375
-96.13037109375
-106.201171875
-130.92041015625
-121.76513671875
-121.76513671875
-119.0185546875
-118.10302734375
-104.3701171875
-98.876953125
-70.49560546875
-54.931640625
-52.18505859375
-61.34033203125
-49.4384765625
-59.50927734375
-90.63720703125
-91.552734375
-81.48193359375
-75.0732421875
-55.84716796875
-53.1005859375
-50.35400390625
-62.255859375
-46.69189453125
-60.4248046875
-79.65087890625
-86.97509765625
-92.46826171875
-120.849609375
-113.525390625
-110.77880859375
-130.0048828125
-113.525390625
-83.31298828125
-92.46826171875
-95.21484375
-111.6943359375
-125.42724609375
-149.23095703125
-131.8359375
-118.10302734375
-87.890625
-92.46826171875
-116.27197265625
-133.6669921875
-135.498046875
-143.73779296875
-154.72412109375
-183.10546875
-182.18994140625
-151.06201171875
-134.58251953125
-130.0048828125
-112.60986328125
-110.77880859375
-119.0185546875
-108.94775390625
-118.10302734375
-117.1875
-105.28564453125
-107.11669921875
-106.201171875
-102.5390625
-93.3837890625
-107.11669921875
-112.60986328125
-112.60986328125
-115.3564453125
-130.92041015625
-124.51171875
-111.6943359375
-117.1875
-102.5390625
-86.97509765625
-93.3837890625
-101.62353515625
-100.7080078125
-90.63720703125
-54.01611328125
1.8310546875
53.1005859375
109.86328125
177.6123046875
279.23583984375
389.09912109375
487.97607421875
563.04931640625
663.75732421875
747.98583984375
785.5224609375
815.73486328125
868.83544921875
872.49755859375
853.271484375
722.35107421875
537.41455078125
238.95263671875
-106.201171875
-370.78857421875
-509.94873046875
-567.626953125
-593.26171875
-626.220703125
-617.0654296875
-604.248046875
-590.51513671875
-562.1337890625
-516.357421875
-455.01708984375
-379.0283203125
-292.96875
-214.2333984375
-162.9638671875
-128.173828125
-122.6806640625
-111.6943359375
-132.75146484375
-138.24462890625
-131.8359375
-119.0185546875
-100.7080078125
-78.7353515625
-77.81982421875
-65.00244140625
-32.04345703125
-46.69189453125
-51.26953125
-50.35400390625
-69.580078125
-76.904296875
-71.4111328125
-58.59375
-54.931640625
-41.19873046875
-32.04345703125
-35.70556640625
-43.02978515625
-53.1005859375
-54.01611328125
-29.296875
-22.88818359375
-30.21240234375
-23.8037109375
-8.23974609375
-24.71923828125
-32.958984375
-23.8037109375
-17.39501953125
-38.4521484375
-51.26953125
-18.310546875
1.8310546875
-3.662109375
-3.662109375
-4.57763671875
-14.6484375
-15.56396484375
3.662109375
1.8310546875
2.74658203125
18.310546875
28.38134765625
29.296875
32.958984375
24.71923828125
22.88818359375
20.1416015625
18.310546875
4.57763671875
15.56396484375
28.38134765625
33.87451171875
45.7763671875
54.01611328125
46.69189453125
38.4521484375
22.88818359375
24.71923828125
24.71923828125
26.55029296875
43.9453125
59.50927734375
64.0869140625
81.48193359375
71.4111328125
59.50927734375
54.931640625
61.34033203125
49.4384765625
56.7626953125
77.81982421875
73.2421875
71.4111328125
105.28564453125
113.525390625
112.60986328125
110.77880859375
100.7080078125
80.56640625
94.29931640625
122.6806640625
142.822265625
175.78125
210.5712890625
198.66943359375
198.66943359375
215.14892578125
223.388671875
216.064453125
231.62841796875
255.43212890625
259.09423828125
267.333984375
282.89794921875
279.23583984375
275.57373046875
279.23583984375
283.8134765625
260.92529296875
264.58740234375
281.982421875
287.4755859375
294.7998046875
315.85693359375
313.1103515625
301.20849609375
295.71533203125
287.4755859375
267.333984375
276.4892578125
286.56005859375
278.3203125
294.7998046875
314.02587890625
304.87060546875
288.39111328125
269.1650390625
248.10791015625
227.96630859375
224.30419921875
223.388671875
203.2470703125
189.51416015625
182.18994140625
154.72412109375
129.08935546875
119.93408203125
90.63720703125
48.52294921875
66.83349609375
108.0322265625
103.45458984375
66.83349609375
58.59375
40.283203125
12.8173828125
11.90185546875
-6.40869140625
-31.1279296875
-39.36767578125
-42.1142578125
-51.26953125
-46.69189453125
-46.69189453125
-41.19873046875
-55.84716796875
-87.890625
-103.45458984375
-131.8359375
-128.173828125
-81.48193359375
-82.3974609375
-68.66455078125
-28.38134765625
-22.88818359375
-27.4658203125
-43.02978515625
-43.02978515625
-63.17138671875
-79.65087890625
-75.98876953125
-64.0869140625
-54.01611328125
-28.38134765625
-32.958984375
-40.283203125
-41.19873046875
-55.84716796875
-70.49560546875
-68.66455078125
-55.84716796875
-63.17138671875
-59.50927734375
-37.53662109375
-41.19873046875
-68.66455078125
-71.4111328125
-61.34033203125
-75.98876953125
-73.2421875
-36.62109375
-43.9453125
-42.1142578125
-28.38134765625
-40.283203125
-58.59375
-56.7626953125
-69.580078125
-91.552734375
-84.228515625
-68.66455078125
-53.1005859375
-54.931640625
-38.4521484375
-30.21240234375
-38.4521484375
-50.35400390625
-75.98876953125
-86.0595703125
-92.46826171875
-78.7353515625
-64.0869140625
-54.931640625
-31.1279296875
-19.22607421875
-21.97265625
-48.52294921875
-50.35400390625
-55.84716796875
-67.7490234375
-65.91796875
-78.7353515625
-80.56640625
-41.19873046875
-45.7763671875
-61.34033203125
-55.84716796875
-52.18505859375
-72.32666015625
-73.2421875
-83.31298828125
-70.49560546875
-52.18505859375
-36.62109375
-40.283203125
-61.34033203125
-77.81982421875
-75.0732421875
-91.552734375
-94.29931640625
-84.228515625
-63.17138671875
-71.4111328125
-56.7626953125
-53.1005859375
-66.83349609375
-86.0595703125
-92.46826171875
-98.876953125
-98.876953125
-97.0458984375
-94.29931640625
-76.904296875
-56.7626953125
-76.904296875
-114.44091796875
-113.525390625
-104.3701171875
-116.27197265625
-123.59619140625
-85.14404296875
-72.32666015625
-69.580078125
-48.52294921875
-49.4384765625
-63.17138671875
-69.580078125
-72.32666015625
-83.31298828125
-86.97509765625
-93.3837890625
-90.63720703125
-86.97509765625
-73.2421875
-78.7353515625
-86.0595703125
-82.3974609375
-99.79248046875
-121.76513671875
-115.3564453125
-98.876953125
-84.228515625
-77.81982421875
-61.34033203125
-80.56640625
-89.7216796875
-88.80615234375
-80.56640625
-96.13037109375
-108.94775390625
-112.60986328125
-95.21484375
-84.228515625
-68.66455078125
-86.97509765625
-96.13037109375
-115.3564453125
-116.27197265625
-110.77880859375
-111.6943359375
-93.3837890625
-86.97509765625
-85.14404296875
-91.552734375
-103.45458984375
-119.0185546875
-106.201171875
-95.21484375
-97.96142578125
-88.80615234375
-86.97509765625
-80.56640625
-76.904296875
-53.1005859375
-52.18505859375
-80.56640625
-89.7216796875
-100.7080078125
-119.0185546875
-109.86328125
-96.13037109375
-97.0458984375
-109.86328125
-91.552734375
-88.80615234375
-93.3837890625
-108.94775390625
-119.0185546875
-112.60986328125
-114.44091796875
-110.77880859375
-93.3837890625
-86.0595703125
-51.26953125
-52.18505859375
-51.26953125
-49.4384765625
-70.49560546875
-88.80615234375
-86.0595703125
-67.7490234375
-46.69189453125
-49.4384765625
-37.53662109375
-32.04345703125
-54.931640625
-68.66455078125
-90.63720703125
-103.45458984375
-109.86328125
-91.552734375
-83.31298828125
-85.14404296875
-77.81982421875
-60.4248046875
-70.49560546875
-71.4111328125
-70.49560546875
-90.63720703125
-97.96142578125
-79.65087890625
-82.3974609375
-70.49560546875
-57.67822265625
-72.32666015625
-79.65087890625
-99.79248046875
-109.86328125
-125.42724609375
-101.62353515625
-75.0732421875
-83.31298828125
-88.80615234375
-81.48193359375
-85.14404296875
-86.0595703125
-86.97509765625
-104.3701171875
-134.58251953125
-139.16015625
-149.23095703125
-143.73779296875
-107.11669921875
-85.14404296875
-98.876953125
-115.3564453125
-118.10302734375
-116.27197265625
-125.42724609375
-130.92041015625
-135.498046875
-141.90673828125
-132.75146484375
-111.6943359375
-94.29931640625
-97.0458984375
-97.96142578125
-110.77880859375
-128.173828125
-119.93408203125
-106.201171875
-92.46826171875
-86.97509765625
-86.0595703125
-93.3837890625
-97.0458984375
-96.13037109375
-100.7080078125
-106.201171875
-90.63720703125
-47.607421875
-0.91552734375
35.70556640625
92.46826171875
175.78125
259.09423828125
372.61962890625
497.13134765625
571.2890625
668.3349609375
759.8876953125
832.21435546875
842.28515625
869.7509765625
870.66650390625
818.4814453125
693.9697265625
555.72509765625
296.630859375
-52.18505859375
-317.68798828125
-489.80712890625
-570.37353515625
-589.599609375
-598.7548828125
-631.7138671875
-618.896484375
-574.951171875
-546.56982421875
-503.5400390625
-439.453125
-369.873046875
-305.7861328125
-249.93896484375
-187.68310546875
-151.06201171875
-128.173828125
-105.28564453125
-94.29931640625
-84.228515625
-65.91796875
-65.91796875
-72.32666015625
-63.17138671875
-60.4248046875
-64.0869140625
-66.83349609375
-58.59375
-57.67822265625
-47.607421875
-33.87451171875
-22.88818359375
-24.71923828125
-9.1552734375
-16.4794921875
-30.21240234375
-29.296875
-33.87451171875
-56.7626953125
-54.931640625
-43.9453125
-42.1142578125
-39.36767578125
-39.36767578125
-31.1279296875
-35.70556640625
-33.87451171875
-14.6484375
-19.22607421875
-22.88818359375
-17.39501953125
-6.40869140625
-10.986328125
-0.91552734375
9.1552734375
-11.90185546875
-24.71923828125
-25.634765625
-30.21240234375
-25.634765625
-28.38134765625
-17.39501953125
-8.23974609375
26.55029296875
38.4521484375
26.55029296875
2.74658203125
-6.40869140625
8.23974609375
9.1552734375
27.4658203125
49.4384765625
44.86083984375
43.9453125
43.9453125
32.958984375
21.05712890625
10.07080078125
0
5.4931640625
21.97265625
38.4521484375
62.255859375
68.66455078125
66.83349609375
57.67822265625
54.01611328125
60.4248046875
39.36767578125
43.02978515625
71.4111328125
75.98876953125
104.3701171875
130.92041015625
142.822265625
121.76513671875
79.65087890625
93.3837890625
95.21484375
103.45458984375
108.0322265625
128.173828125
148.3154296875
173.03466796875
184.02099609375
188.5986328125
176.69677734375
184.9365234375
172.119140625
178.52783203125
208.740234375
223.388671875
229.79736328125
247.1923828125
260.92529296875
256.34765625
253.60107421875
252.685546875
258.1787109375
259.09423828125
258.1787109375
260.009765625
253.60107421875
279.23583984375
282.89794921875
265.5029296875
255.43212890625
271.91162109375
266.41845703125
261.8408203125
286.56005859375
298.4619140625
312.19482421875
314.94140625
289.306640625
280.1513671875
283.8134765625
277.40478515625
248.10791015625
232.5439453125
229.79736328125
231.62841796875
218.81103515625
222.47314453125
226.13525390625
215.14892578125
187.68310546875
167.54150390625
139.16015625
96.13037109375
65.91796875
63.17138671875
62.255859375
75.0732421875
95.21484375
84.228515625
51.26953125
38.4521484375
24.71923828125
11.90185546875
15.56396484375
-21.05712890625
-29.296875
0.91552734375
6.40869140625
-20.1416015625
-41.19873046875
-45.7763671875
-60.4248046875
-73.2421875
-72.32666015625
-53.1005859375
-70.49560546875
-63.17138671875
-52.18505859375
-46.69189453125
-47.607421875
-60.4248046875
-86.97509765625
-87.890625
-64.0869140625
-78.7353515625
-78.7353515625
-69.580078125
-65.91796875
-63.17138671875
-60.4248046875
-61.34033203125
-70.49560546875
-70.49560546875
-86.0595703125
-73.2421875
-75.98876953125
-66.83349609375
-63.17138671875
-59.50927734375
-79.65087890625
-75.0732421875
-88.80615234375
-87.890625
-67.7490234375
-54.931640625
-52.18505859375
-54.01611328125
-49.4384765625
-43.9453125
-49.4384765625
-68.66455078125
-100.7080078125
-89.7216796875
-67.7490234375
-51.26953125
-43.02978515625
-46.69189453125
-44.86083984375
-54.931640625
-62.255859375
-63.17138671875
-61.34033203125
-77.81982421875
-53.1005859375
-49.4384765625
-57.67822265625
-37.53662109375
-21.05712890625
-40.283203125
-59.50927734375
-56.7626953125
-71.4111328125
-76.904296875
-66.83349609375
-75.0732421875
-95.21484375
-91.552734375
-86.0595703125
-83.31298828125
-79.65087890625
-80.56640625
-75.98876953125
-75.0732421875
-65.00244140625
-53.1005859375
-56.7626953125
-61.34033203125
-56.7626953125
-65.91796875
-71.4111328125
-69.580078125
-79.65087890625
-81.48193359375
-61.34033203125
-58.59375
-59.50927734375
-54.931640625
-43.02978515625
-54.01611328125
-75.98876953125
-93.3837890625
-103.45458984375
-103.45458984375
-81.48193359375
-59.50927734375
-61.34033203125
-59.50927734375
-57.67822265625
-74.15771484375
-89.7216796875
-91.552734375
-96.13037109375
-104.3701171875
-100.7080078125
-79.65087890625
-74.15771484375
-64.0869140625
-73.2421875
-86.97509765625
-96.13037109375
-100.7080078125
-107.11669921875
-122.6806640625
-128.173828125
-113.525390625
-118.10302734375
-134.58251953125
-144.6533203125
-147.39990234375
-152.89306640625
-143.73779296875
-139.16015625
-130.0048828125
-106.201171875
-104.3701171875
-89.7216796875
-75.98876953125
-65.91796875
-89.7216796875
-104.3701171875
-97.0458984375
-91.552734375
-95.21484375
-74.15771484375
-65.91796875
-81.48193359375
-85.14404296875
-97.96142578125
-87.890625
-85.14404296875
-89.7216796875
-103.45458984375
-112.60986328125
-102.5390625
-87.890625
-80.56640625
-70.49560546875
-85.14404296875
-108.94775390625
-111.6943359375
-126.3427734375
-151.06201171875
-142.822265625
-117.1875
-101.62353515625
-91.552734375
-80.56640625
-87.890625
-97.96142578125
-105.28564453125
-107.11669921875
-119.93408203125
-120.849609375
-115.3564453125
-122.6806640625
-121.76513671875
-98.876953125
-91.552734375
-119.93408203125
-125.42724609375
-119.93408203125
-119.93408203125
-140.07568359375
-145.56884765625
-117.1875
-106.201171875
-105.28564453125
-114.44091796875
-98.876953125
-99.79248046875
-110.77880859375
-130.0048828125
-132.75146484375
-123.59619140625
-117.1875
-98.876953125
-83.31298828125
-74.15771484375
-79.65087890625
-91.552734375
-100.7080078125
-108.94775390625
-106.201171875
-98.876953125
-108.94775390625
-119.93408203125
-109.86328125
-89.7216796875
-98.876953125
-98.876953125
-106.201171875
-120.849609375
-121.76513671875
-112.60986328125
-99.79248046875
-107.11669921875
-95.21484375
-97.0458984375
-117.1875
-119.93408203125
-117.1875
-117.1875
-129.08935546875
-118.10302734375
-116.27197265625
-110.77880859375
-95.21484375
-80.56640625
-105.28564453125
-114.44091796875
-108.94775390625
-149.23095703125
-144.6533203125
-109.86328125
-93.3837890625
-94.29931640625
-92.46826171875
-78.7353515625
-76.904296875
-91.552734375
-97.0458984375
-108.0322265625
-125.42724609375
-131.8359375
-108.0322265625
-97.96142578125
-85.14404296875
-82.3974609375
-75.98876953125
-65.00244140625
-56.7626953125
-56.7626953125
-59.50927734375
-39.36767578125
-46.69189453125
-65.00244140625
-75.0732421875
-79.65087890625
-102.5390625
-105.28564453125
-114.44091796875
-122.6806640625
-142.822265625
-128.173828125
-97.0458984375
-75.98876953125
-95.21484375
-79.65087890625
-75.98876953125
-84.228515625
-82.3974609375
-92.46826171875
-106.201171875
-103.45458984375
-117.1875
-150.146484375
-154.72412109375
-138.24462890625
-133.6669921875
-143.73779296875
-160.21728515625
-158.38623046875
-152.89306640625
-135.498046875
-134.58251953125
-127.25830078125
-119.0185546875
-111.6943359375
-116.27197265625
-119.93408203125
-140.07568359375
-155.6396484375
-153.80859375
-128.173828125
-112.60986328125
-101.62353515625
-89.7216796875
-91.552734375
-111.6943359375
-123.59619140625
-140.9912109375
-149.23095703125
-151.06201171875
-130.92041015625
-119.0185546875
-110.77880859375
-99.79248046875
-97.0458984375
-101.62353515625
-75.0732421875
-22.88818359375
5.4931640625
32.04345703125
119.0185546875
208.740234375
325.01220703125
449.52392578125
566.71142578125
646.3623046875
726.01318359375
795.59326171875
823.05908203125
850.52490234375
881.65283203125
856.93359375
750.732421875
606.0791015625
421.142578125
98.876953125
-236.2060546875
-449.52392578125
-557.55615234375
-593.26171875
-608.82568359375
-632.62939453125
-619.81201171875
-592.34619140625
-561.21826171875
-530.09033203125
-472.412109375
-416.56494140625
-366.2109375
-315.85693359375
-250.8544921875
-198.66943359375
-151.06201171875
-109.86328125
-85.14404296875
-89.7216796875
-99.79248046875
-84.228515625
-83.31298828125
-99.79248046875
-102.5390625
-92.46826171875
-86.97509765625
-70.49560546875
-63.17138671875
-72.32666015625
-94.29931640625
-97.0458984375
-91.552734375
-84.228515625
-60.4248046875
-48.52294921875
-44.86083984375
-44.86083984375
-21.05712890625
-24.71923828125
-43.02978515625
-54.01611328125
-65.00244140625
-76.904296875
-53.1005859375
-46.69189453125
-59.50927734375
-27.4658203125
10.07080078125
-7.32421875
-26.55029296875
-35.70556640625
-42.1142578125
-52.18505859375
-33.87451171875
-21.05712890625
-15.56396484375
-4.57763671875
0
-9.1552734375
-19.22607421875
-12.8173828125
-21.05712890625
-27.4658203125
-10.07080078125
-7.32421875
-11.90185546875
-1.8310546875
6.40869140625
-4.57763671875
-9.1552734375
-10.986328125
-34.7900390625
-51.26953125
-29.296875
-9.1552734375
1.8310546875
4.57763671875
27.4658203125
5.4931640625
-6.40869140625
-16.4794921875
-33.87451171875
-25.634765625
-0.91552734375
14.6484375
29.296875
45.7763671875
69.580078125
53.1005859375
68.66455078125
65.00244140625
43.9453125
28.38134765625
14.6484375
33.87451171875
72.32666015625
119.93408203125
134.58251953125
136.41357421875
136.41357421875
139.16015625
127.25830078125
116.27197265625
118.10302734375
122.6806640625
131.8359375
153.80859375
174.86572265625
163.87939453125
151.06201171875
137.3291015625
145.56884765625
158.38623046875
186.767578125
187.68310546875
192.2607421875
207.82470703125
222.47314453125
206.9091796875
213.31787109375
218.81103515625
208.740234375
194.091796875
195.00732421875
199.5849609375
209.65576171875
217.8955078125
243.5302734375
247.1923828125
264.58740234375
274.658203125
258.1787109375
267.333984375
276.4892578125
276.4892578125
271.91162109375
265.5029296875
255.43212890625
243.5302734375
238.037109375
233.45947265625
216.064453125
205.99365234375
204.16259765625
199.5849609375
184.9365234375
171.20361328125
158.38623046875
117.1875
81.48193359375
86.0595703125
78.7353515625
57.67822265625
41.19873046875
41.19873046875
38.4521484375
38.4521484375
36.62109375
8.23974609375
-4.57763671875
-21.97265625
-45.7763671875
-65.00244140625
-54.01611328125
-45.7763671875
-55.84716796875
-65.00244140625
-68.66455078125
-89.7216796875
-95.21484375
-91.552734375
-97.0458984375
-122.6806640625
-103.45458984375
-117.1875
-135.498046875
-124.51171875
-113.525390625
-117.1875
-122.6806640625
-105.28564453125
-107.11669921875
-117.1875
-104.3701171875
-79.65087890625
-80.56640625
-83.31298828125
-87.890625
-124.51171875
-137.3291015625
-117.1875
-108.94775390625
-108.0322265625
-115.3564453125
-101.62353515625
-95.21484375
-94.29931640625
-79.65087890625
-88.80615234375
-96.13037109375
-100.7080078125
-106.201171875
-109.86328125
-94.29931640625
-78.7353515625
-75.98876953125
-75.0732421875
-58.59375
-67.7490234375
-79.65087890625
-82.3974609375
-98.876953125
-125.42724609375
-95.21484375
-75.0732421875
-86.0595703125
-78.7353515625
-76.904296875
-108.94775390625
-115.3564453125
-110.77880859375
-117.1875
-112.60986328125
-87.890625
-56.7626953125
-66.83349609375
-66.83349609375
-73.2421875
-89.7216796875
-91.552734375
-103.45458984375
-87.890625
-90.63720703125
-88.80615234375
-90.63720703125
-84.228515625
-83.31298828125
-78.7353515625
-98.876953125
-108.0322265625
-119.0185546875
-140.07568359375
-173.9501953125
-175.78125
-151.06201171875
-131.8359375
-114.44091796875
-86.0595703125
-87.890625
-101.62353515625
-89.7216796875
-93.3837890625
-124.51171875
-138.24462890625
-127.25830078125
-120.849609375
-115.3564453125
-114.44091796875
-115.3564453125
-117.1875
-125.42724609375
-131.8359375
-142.822265625
-139.16015625
-112.60986328125
-110.77880859375
-108.0322265625
-104.3701171875
-102.5390625
-114.44091796875
-127.25830078125
-130.0048828125
-135.498046875
-140.07568359375
-130.92041015625
-115.3564453125
-125.42724609375
-112.60986328125
-118.10302734375
-141.90673828125
-172.119140625
-175.78125
-175.78125
-167.54150390625
-152.89306640625
-148.3154296875
-138.24462890625
-129.08935546875
-166.6259765625
-199.5849609375
-182.18994140625
-173.03466796875
-169.37255859375
-149.23095703125
-130.0048828125
-117.1875
-110.77880859375
-105.28564453125
-121.76513671875
-120.849609375
-131.8359375
-160.21728515625
-161.1328125
-137.3291015625
-130.92041015625
-132.75146484375
-120.849609375
-97.96142578125
-115.3564453125
-123.59619140625
-151.9775390625
-151.9775390625
-168.45703125
-156.55517578125
-141.90673828125
-133.6669921875
-118.10302734375
-114.44091796875
-127.25830078125
-135.498046875
-151.06201171875
-157.470703125
-175.78125
-156.55517578125
-140.07568359375
-145.56884765625
-143.73779296875
-119.0185546875
-139.16015625
-146.484375
-151.06201171875
-155.6396484375
-171.20361328125
-152.89306640625
-146.484375
-154.72412109375
-171.20361328125
-173.03466796875
-167.54150390625
-180.35888671875
-177.6123046875
-168.45703125
-170.2880859375
-162.04833984375
-157.470703125
-140.9912109375
-116.27197265625
-118.10302734375
-115.3564453125
-134.58251953125
-150.146484375
-162.04833984375
-161.1328125
-147.39990234375
-147.39990234375
-137.3291015625
-139.16015625
-137.3291015625
-159.3017578125
-154.72412109375
-153.80859375
-165.71044921875
-182.18994140625
-162.9638671875
-138.24462890625
-113.525390625
-126.3427734375
-118.10302734375
-127.25830078125
-137.3291015625
-156.55517578125
-164.794921875
-167.54150390625
-165.71044921875
-150.146484375
-135.498046875
-132.75146484375
-114.44091796875
-119.0185546875
-121.76513671875
-110.77880859375
-129.08935546875
-151.06201171875
-138.24462890625
-129.08935546875
-139.16015625
-133.6669921875
-104.3701171875
-89.7216796875
-88.80615234375
-88.80615234375
-97.0458984375
-127.25830078125
-115.3564453125
-124.51171875
-142.822265625
-139.16015625
-102.5390625
-128.173828125
-144.6533203125
-134.58251953125
-147.39990234375
-151.06201171875
-124.51171875
-119.93408203125
-120.849609375
-108.0322265625
-103.45458984375
-127.25830078125
-145.56884765625
-174.86572265625
-188.5986328125
-193.17626953125
-190.4296875
-183.10546875
-173.03466796875
-178.52783203125
-173.03466796875
-184.02099609375
-184.9365234375
-178.52783203125
-169.37255859375
-187.68310546875
-169.37255859375
-154.72412109375
-156.55517578125
-149.23095703125
-151.06201171875
-177.6123046875
-162.9638671875
-172.119140625
-182.18994140625
-197.75390625
-195.9228515625
-176.69677734375
-179.443359375
-164.794921875
-158.38623046875
-168.45703125
-175.78125
-173.03466796875
-166.6259765625
-175.78125
-172.119140625
-153.80859375
-136.41357421875
-91.552734375
-12.8173828125
56.7626953125
119.0185546875
198.66943359375
309.4482421875
396.42333984375
472.412109375
574.951171875
635.3759765625
672.91259765625
712.2802734375
769.95849609375
766.29638671875
693.05419921875
552.06298828125
403.74755859375
136.41357421875
-193.17626953125
-390.93017578125
-498.046875
-521.8505859375
-578.61328125
-632.62939453125
-635.3759765625
-617.98095703125
-610.65673828125
-577.69775390625
-541.07666015625
-507.2021484375
-454.1015625
-408.3251953125
-360.7177734375
-316.7724609375
-281.982421875
-251.77001953125
-215.14892578125
-186.767578125
-169.37255859375
-152.89306640625
-132.75146484375
-112.60986328125
-120.849609375
-137.3291015625
-144.6533203125
-153.80859375
-164.794921875
-156.55517578125
-149.23095703125
-138.24462890625
-127.25830078125
-122.6806640625
-104.3701171875
-85.14404296875
-93.3837890625
-84.228515625
-96.13037109375
-89.7216796875
-84.228515625
-63.17138671875
-45.7763671875
-58.59375
-80.56640625
-79.65087890625
-59.50927734375
-52.18505859375
-77.81982421875
-63.17138671875
-52.18505859375
-59.50927734375
-54.931640625
-35.70556640625
-53.1005859375
-53.1005859375
-61.34033203125
-51.26953125
-51.26953125
-54.01611328125
-53.1005859375
-57.67822265625
-36.62109375
-34.7900390625
-45.7763671875
-45.7763671875
-44.86083984375
-53.1005859375
-93.3837890625
-85.14404296875
-80.56640625
-63.17138671875
-30.21240234375
10.07080078125
13.73291015625
3.662109375
0
-5.4931640625
-25.634765625
-36.62109375
-21.97265625
-5.4931640625
0
6.40869140625
-0.91552734375
-3.662109375
-25.634765625
-44.86083984375
-65.91796875
-51.26953125
-24.71923828125
5.4931640625
15.56396484375
54.01611328125
66.83349609375
51.26953125
68.66455078125
64.0869140625
59.50927734375
87.890625
99.79248046875
107.11669921875
86.0595703125
119.93408203125
144.6533203125
138.24462890625
123.59619140625
108.94775390625
114.44091796875
132.75146484375
140.9912109375
143.73779296875
169.37255859375
189.51416015625
188.5986328125
184.9365234375
197.75390625
185.85205078125
160.21728515625
165.71044921875
189.51416015625
212.40234375
229.79736328125
251.77001953125
234.375
207.82470703125
199.5849609375
215.14892578125
196.83837890625
195.00732421875
200.50048828125
188.5986328125
187.68310546875
185.85205078125
203.2470703125
205.99365234375
199.5849609375
205.99365234375
200.50048828125
189.51416015625
188.5986328125
201.416015625
213.31787109375
222.47314453125
205.078125
190.4296875
176.69677734375
160.21728515625
146.484375
147.39990234375
129.08935546875
121.76513671875
109.86328125
91.552734375
62.255859375
27.4658203125
24.71923828125
-6.40869140625
-32.958984375
-36.62109375
-50.35400390625
-50.35400390625
-43.02978515625
-35.70556640625
-47.607421875
-56.7626953125
-48.52294921875
-58.59375
-86.0595703125
-102.5390625
-112.60986328125
-113.525390625
-112.60986328125
-103.45458984375
-115.3564453125
-117.1875
-127.25830078125
-139.16015625
-164.794921875
-177.6123046875
-181.2744140625
-179.443359375
-164.794921875
-127.25830078125
-136.41357421875
-125.42724609375
-105.28564453125
-119.93408203125
-126.3427734375
-115.3564453125
-91.552734375
-107.11669921875
-113.525390625
-80.56640625
-77.81982421875
-83.31298828125
-66.83349609375
-97.0458984375
-129.08935546875
-112.60986328125
-92.46826171875
-99.79248046875
-115.3564453125
-108.0322265625
-109.86328125
-100.7080078125
-86.0595703125
-76.904296875
-84.228515625
-104.3701171875
-87.890625
-78.7353515625
-78.7353515625
-62.255859375
-74.15771484375
-84.228515625
-88.80615234375
-92.46826171875
-99.79248046875
-76.904296875
-69.580078125
-56.7626953125
-60.4248046875
-73.2421875
-81.48193359375
-86.0595703125
-79.65087890625
-91.552734375
-102.5390625
-104.3701171875
-89.7216796875
-85.14404296875
-84.228515625
-67.7490234375
-86.97509765625
-107.11669921875
-119.0185546875
-110.77880859375
-111.6943359375
-114.44091796875
-120.849609375
-109.86328125
-103.45458984375
-89.7216796875
-80.56640625
-85.14404296875
-74.15771484375
-82.3974609375
-99.79248046875
-106.201171875
-114.44091796875
-112.60986328125
-91.552734375
-87.890625
-96.13037109375
-111.6943359375
-133.6669921875
-149.23095703125
-137.3291015625
-139.16015625
-130.0048828125
-116.27197265625
-117.1875
-97.96142578125
-87.890625
-86.0595703125
-78.7353515625
-97.96142578125
-117.1875
-115.3564453125
-117.1875
-114.44091796875
-104.3701171875
-102.5390625
-121.76513671875
-136.41357421875
-131.8359375
-118.10302734375
-126.3427734375
-130.0048828125
-136.41357421875
-140.07568359375
-119.93408203125
-97.96142578125
-102.5390625
-120.849609375
-119.93408203125
-125.42724609375
-147.39990234375
-122.6806640625
-108.0322265625
-132.75146484375
-150.146484375
-142.822265625
-135.498046875
-136.41357421875
-128.173828125
-131.8359375
-166.6259765625
-153.80859375
-122.6806640625
-118.10302734375
-94.29931640625
-75.0732421875
-97.0458984375
-109.86328125
-104.3701171875
-104.3701171875
-126.3427734375
-129.08935546875
-119.93408203125
-119.93408203125
-128.173828125
-104.3701171875
-113.525390625
-138.24462890625
-144.6533203125
-140.07568359375
-139.16015625
-125.42724609375
-111.6943359375
-93.3837890625
-95.21484375
-86.0595703125
-97.96142578125
-108.94775390625
-100.7080078125
-97.96142578125
-127.25830078125
-136.41357421875
-118.10302734375
-108.94775390625
-107.11669921875
-87.890625
-110.77880859375
-117.1875
-127.25830078125
-142.822265625
-153.80859375
-128.173828125
-118.10302734375
-124.51171875
-108.94775390625
-91.552734375
-109.86328125
-132.75146484375
-118.10302734375
-123.59619140625
-140.9912109375
-136.41357421875
-129.08935546875
-130.92041015625
-122.6806640625
-123.59619140625
-135.498046875
-122.6806640625
-121.76513671875
-111.6943359375
-127.25830078125
-106.201171875
-106.201171875
-113.525390625
-94.29931640625
-97.96142578125
-88.80615234375
-94.29931640625
-102.5390625
-110.77880859375
-127.25830078125
-128.173828125
-122.6806640625
-144.6533203125
-144.6533203125
-117.1875
-123.59619140625
-122.6806640625
-95.21484375
-69.580078125
-76.904296875
-75.98876953125
-58.59375
-60.4248046875
-64.0869140625
-63.17138671875
-61.34033203125
-76.904296875
-101.62353515625
-107.11669921875
-121.76513671875
-108.0322265625
-101.62353515625
-83.31298828125
-74.15771484375
-57.67822265625
-77.81982421875
-94.29931640625
-104.3701171875
-119.93408203125
-146.484375
-162.9638671875
-181.2744140625
-195.00732421875
-203.2470703125
-149.23095703125
-120.849609375
-111.6943359375
-108.94775390625
-119.93408203125
-134.58251953125
-122.6806640625
-112.60986328125
-108.0322265625
-101.62353515625
-90.63720703125
-100.7080078125
-120.849609375
-139.16015625
-121.76513671875
-131.8359375
-127.25830078125
-122.6806640625
-130.92041015625
-125.42724609375
-97.96142578125
-92.46826171875
-126.3427734375
-146.484375
-139.16015625
-154.72412109375
-140.07568359375
-115.3564453125
-71.4111328125
-52.18505859375
-33.87451171875
1.8310546875
31.1279296875
99.79248046875
180.35888671875
237.12158203125
368.95751953125
498.96240234375
604.248046875
720.52001953125
812.98828125
854.18701171875
856.93359375
852.35595703125
850.52490234375
792.8466796875
645.44677734375
454.1015625
152.89306640625
-161.1328125
-364.3798828125
-486.14501953125
-553.89404296875
-607.91015625
-621.64306640625
-629.8828125
-597.83935546875
-553.89404296875
-521.8505859375
-480.65185546875
-409.24072265625
-357.0556640625
-301.20849609375
-242.61474609375
-195.9228515625
-169.37255859375
-130.92041015625
-104.3701171875
-89.7216796875
-75.98876953125
-60.4248046875
-62.255859375
-78.7353515625
-88.80615234375
-95.21484375
-94.29931640625
-66.83349609375
-59.50927734375
-55.84716796875
-55.84716796875
-61.34033203125
-57.67822265625
-29.296875
-23.8037109375
-16.4794921875
-38.4521484375
-54.01611328125
-66.83349609375
-68.66455078125
-54.01611328125
-26.55029296875
-41.19873046875
-45.7763671875
-30.21240234375
-32.958984375
-33.87451171875
-31.1279296875
-12.8173828125
-0.91552734375
-2.74658203125
17.39501953125
18.310546875
11.90185546875
-6.40869140625
-20.1416015625
-40.283203125
-15.56396484375
-1.8310546875
-20.1416015625
-31.1279296875
-4.57763671875
10.986328125
20.1416015625
24.71923828125
21.97265625
-1.8310546875
18.310546875
36.62109375
37.53662109375
65.91796875
63.17138671875
21.97265625
11.90185546875
21.05712890625
15.56396484375
11.90185546875
13.73291015625
29.296875
23.8037109375
13.73291015625
24.71923828125
17.39501953125
4.57763671875
36.62109375
65.91796875
75.0732421875
95.21484375
88.80615234375
89.7216796875
86.97509765625
105.28564453125
115.3564453125
105.28564453125
83.31298828125
63.17138671875
86.0595703125
119.93408203125
133.6669921875
128.173828125
124.51171875
150.146484375
173.9501953125
177.6123046875
194.091796875
210.5712890625
205.99365234375
196.83837890625
214.2333984375
241.69921875
256.34765625
266.41845703125
260.92529296875
249.0234375
239.8681640625
244.44580078125
249.0234375
258.1787109375
260.92529296875
257.26318359375
261.8408203125
299.37744140625
303.955078125
294.7998046875
303.03955078125
298.4619140625
280.1513671875
284.72900390625
305.7861328125
314.94140625
303.955078125
299.37744140625
276.4892578125
270.08056640625
275.57373046875
282.89794921875
277.40478515625
273.74267578125
277.40478515625
281.06689453125
280.1513671875
291.1376953125
261.8408203125
243.5302734375
233.45947265625
214.2333984375
184.02099609375
176.69677734375
163.87939453125
140.07568359375
147.39990234375
164.794921875
160.21728515625
127.25830078125
114.44091796875
107.11669921875
82.3974609375
86.97509765625
91.552734375
73.2421875
62.255859375
57.67822265625
49.4384765625
16.4794921875
-6.40869140625
-13.73291015625
-39.36767578125
-41.19873046875
-32.958984375
-41.19873046875
-63.17138671875
-64.0869140625
-74.15771484375
-94.29931640625
-105.28564453125
-92.46826171875
-79.65087890625
-56.7626953125
-41.19873046875
-35.70556640625
-29.296875
-25.634765625
-50.35400390625
-93.3837890625
-103.45458984375
-92.46826171875
-86.97509765625
-65.91796875
-45.7763671875
-34.7900390625
-43.02978515625
-40.283203125
-38.4521484375
-46.69189453125
-44.86083984375
-40.283203125
-54.01611328125
-60.4248046875
-64.0869140625
-65.91796875
-63.17138671875
-49.4384765625
-59.50927734375
-76.904296875
-64.0869140625
-64.0869140625
-74.15771484375
-41.19873046875
-43.02978515625
-48.52294921875
-37.53662109375
-13.73291015625
-23.8037109375
-23.8037109375
-37.53662109375
-66.83349609375
-81.48193359375
-77.81982421875
-69.580078125
-57.67822265625
-43.9453125
-29.296875
-25.634765625
-36.62109375
-36.62109375
-50.35400390625
-75.0732421875
-71.4111328125
-57.67822265625
-43.9453125
-48.52294921875
-37.53662109375
-34.7900390625
-58.59375
-66.83349609375
-79.65087890625
-95.21484375
-86.97509765625
-70.49560546875
-62.255859375
-49.4384765625
-23.8037109375
-31.1279296875
-59.50927734375
-75.98876953125
-96.13037109375
-134.58251953125
-120.849609375
-68.66455078125
-54.931640625
-54.931640625
-53.1005859375
-45.7763671875
-56.7626953125
-60.4248046875
-57.67822265625
-75.98876953125
-88.80615234375
-70.49560546875
-78.7353515625
-84.228515625
-76.904296875
-82.3974609375
-86.0595703125
-74.15771484375
-65.00244140625
-82.3974609375
-62.255859375
-54.01611328125
-56.7626953125
-70.49560546875
-65.91796875
-66.83349609375
-76.904296875
-86.0595703125
-91.552734375
-86.0595703125
-79.65087890625
-76.904296875
-66.83349609375
-59.50927734375
-49.4384765625
-80.56640625
-103.45458984375
-103.45458984375
-88.80615234375
-111.6943359375
-108.94775390625
-91.552734375
-88.80615234375
-100.7080078125
-115.3564453125
-89.7216796875
-99.79248046875
-100.7080078125
-93.3837890625
-106.201171875
-98.876953125
-79.65087890625
-79.65087890625
-75.0732421875
-67.7490234375
-67.7490234375
-94.29931640625
-97.0458984375
-96.13037109375
-101.62353515625
-107.11669921875
-104.3701171875
-100.7080078125
-88.80615234375
-75.0732421875
-77.81982421875
-88.80615234375
-108.0322265625
-119.0185546875
-140.07568359375
-140.07568359375
-130.0048828125
-113.525390625
-111.6943359375
-109.86328125
-112.60986328125
-111.6943359375
-108.94775390625
-110.77880859375
-119.93408203125
-115.3564453125
-106.201171875
-105.28564453125
-100.7080078125
-96.13037109375
-83.31298828125
-95.21484375
-100.7080078125
-91.552734375
-95.21484375
-93.3837890625
-89.7216796875
-63.17138671875
-61.34033203125
-57.67822265625
-59.50927734375
-77.81982421875
-97.96142578125
-107.11669921875
-114.44091796875
-119.93408203125
-92.46826171875
-86.97509765625
-82.3974609375
-75.98876953125
-75.0732421875
-92.46826171875
-96.13037109375
-89.7216796875
-93.3837890625
-99.79248046875
-116.27197265625
-109.86328125
-97.96142578125
-77.81982421875
-71.4111328125
-77.81982421875
-83.31298828125
-86.0595703125
-103.45458984375
-116.27197265625
-94.29931640625
-77.81982421875
-63.17138671875
-54.01611328125
-40.283203125
-71.4111328125
-108.0322265625
-110.77880859375
-115.3564453125
-121.76513671875
-108.94775390625
-87.890625
-85.14404296875
-70.49560546875
-63.17138671875
-60.4248046875
-58.59375
-57.67822265625
-74.15771484375
-74.15771484375
-51.26953125
-74.15771484375
-92.46826171875
-62.255859375
-57.67822265625
-97.96142578125
-105.28564453125
-90.63720703125
-94.29931640625
-86.97509765625
-79.65087890625
-74.15771484375
-53.1005859375
-45.7763671875
-51.26953125
-45.7763671875
-43.02978515625
-41.19873046875
-54.931640625
-52.18505859375
-51.26953125
-90.63720703125
-98.876953125
-93.3837890625
-87.890625
-108.0322265625
-127.25830078125
-121.76513671875
-123.59619140625
-122.6806640625
-99.79248046875
-90.63720703125
-88.80615234375
-75.0732421875
-72.32666015625
-80.56640625
-86.97509765625
-115.3564453125
-110.77880859375
-108.94775390625
-111.6943359375
-112.60986328125
-124.51171875
-127.25830078125
-127.25830078125
-118.10302734375
-112.60986328125
-99.79248046875
-90.63720703125
-100.7080078125
-90.63720703125
-100.7080078125
-127.25830078125
-110.77880859375
-98.876953125
-89.7216796875
-75.0732421875
-26.55029296875
29.296875
84.228515625
176.69677734375
295.71533203125
444.03076171875
573.1201171875
678.40576171875
761.71875
818.4814453125
861.51123046875
907.28759765625
921.0205078125
903.62548828125
823.974609375
671.08154296875
476.98974609375
151.9775390625
-193.17626953125
-412.90283203125
-531.005859375
-575.86669921875
-601.50146484375
-616.14990234375
-611.572265625
-570.37353515625
-526.42822265625
-485.2294921875
-428.466796875
-361.63330078125
-308.53271484375
-255.43212890625
-205.078125
-146.484375
-123.59619140625
-121.76513671875
-116.27197265625
-91.552734375
-85.14404296875
-94.29931640625
-80.56640625
-86.0595703125
-69.580078125
-43.02978515625
-45.7763671875
-42.1142578125
-21.97265625
-13.73291015625
-17.39501953125
-32.958984375
-33.87451171875
-46.69189453125
-51.26953125
-35.70556640625
-24.71923828125
-54.01611328125
-44.86083984375
-40.283203125
-30.21240234375
-19.22607421875
-16.4794921875
-12.8173828125
-19.22607421875
0.91552734375
14.6484375
21.97265625
23.8037109375
35.70556640625
36.62109375
30.21240234375
32.958984375
26.55029296875
15.56396484375
12.8173828125
30.21240234375
30.21240234375
29.296875
13.73291015625
5.4931640625
14.6484375
26.55029296875
11.90185546875
7.32421875
38.4521484375
48.52294921875
42.1142578125
43.02978515625
46.69189453125
57.67822265625
54.931640625
31.1279296875
0.91552734375
10.986328125
39.36767578125
50.35400390625
57.67822265625
75.98876953125
78.7353515625
65.91796875
56.7626953125
59.50927734375
49.4384765625
43.9453125
58.59375
85.14404296875
96.13037109375
127.25830078125
140.07568359375
126.3427734375
107.11669921875
100.7080078125
94.29931640625
86.0595703125
98.876953125
109.86328125
112.60986328125
140.07568359375
148.3154296875
155.6396484375
174.86572265625
157.470703125
147.39990234375
149.23095703125
182.18994140625
204.16259765625
221.5576171875
233.45947265625
238.95263671875
233.45947265625
238.95263671875
241.69921875
236.2060546875
227.05078125
252.685546875
264.58740234375
258.1787109375
274.658203125
281.06689453125
258.1787109375
250.8544921875
272.8271484375
275.57373046875
277.40478515625
294.7998046875
321.35009765625
328.67431640625
336.9140625
341.49169921875
322.265625
308.53271484375
292.96875
287.4755859375
301.20849609375
320.4345703125
336.9140625
343.32275390625
341.49169921875
346.0693359375
316.7724609375
289.306640625
281.06689453125
264.58740234375
247.1923828125
241.69921875
228.8818359375
216.97998046875
219.7265625
222.47314453125
213.31787109375
175.78125
156.55517578125
129.08935546875
108.94775390625
112.60986328125
107.11669921875
86.97509765625
77.81982421875
76.904296875
52.18505859375
34.7900390625
28.38134765625
14.6484375
-8.23974609375
-4.57763671875
-10.07080078125
-2.74658203125
-3.662109375
0
-21.05712890625
-40.283203125
-47.607421875
-50.35400390625
-56.7626953125
-43.9453125
-44.86083984375
-57.67822265625
-60.4248046875
-51.26953125
-48.52294921875
-53.1005859375
-55.84716796875
-57.67822265625
-57.67822265625
-57.67822265625
-58.59375
-64.0869140625
-49.4384765625
-21.05712890625
-29.296875
-45.7763671875
-32.04345703125
-26.55029296875
-39.36767578125
-40.283203125
-34.7900390625
-36.62109375
-35.70556640625
-32.04345703125
-24.71923828125
-35.70556640625
-38.4521484375
-49.4384765625
-57.67822265625
-42.1142578125
-33.87451171875
-32.04345703125
-26.55029296875
-21.97265625
-30.21240234375
-67.7490234375
-88.80615234375
-67.7490234375
-53.1005859375
-51.26953125
-32.958984375
-21.97265625
-10.07080078125
-6.40869140625
-26.55029296875
-44.86083984375
-28.38134765625
-32.04345703125
-44.86083984375
-21.97265625
-28.38134765625
-30.21240234375
-21.97265625
-19.22607421875
-39.36767578125
-31.1279296875
-21.05712890625
-22.88818359375
-44.86083984375
-35.70556640625
-23.8037109375
-32.958984375
-22.88818359375
-4.57763671875
-32.958984375
-59.50927734375
-65.91796875
-74.15771484375
-74.15771484375
-43.9453125
-28.38134765625
-28.38134765625
-31.1279296875
-20.1416015625
-49.4384765625
-61.34033203125
-66.83349609375
-65.91796875
-66.83349609375
-52.18505859375
-53.1005859375
-57.67822265625
-58.59375
-50.35400390625
-80.56640625
-91.552734375
-95.21484375
-89.7216796875
-76.904296875
-75.0732421875
-71.4111328125
-65.91796875
-65.00244140625
-52.18505859375
-62.255859375
-55.84716796875
-59.50927734375
-74.15771484375
-94.29931640625
-75.98876953125
-65.00244140625
-67.7490234375
-72.32666015625
-74.15771484375
-62.255859375
-63.17138671875
-61.34033203125
-63.17138671875
-67.7490234375
-67.7490234375
-75.0732421875
-83.31298828125
-75.0732421875
-52.18505859375
-75.0732421875
-96.13037109375
-82.3974609375
-75.0732421875
-81.48193359375
-84.228515625
-83.31298828125
-78.7353515625
-80.56640625
-83.31298828125
-100.7080078125
-97.96142578125
-92.46826171875
-98.876953125
-108.0322265625
-88.80615234375
-75.98876953125
-77.81982421875
-80.56640625
-78.7353515625
-70.49560546875
-67.7490234375
-72.32666015625
-75.98876953125
-80.56640625
-66.83349609375
-66.83349609375
-70.49560546875
-63.17138671875
-67.7490234375
-78.7353515625
-85.14404296875
-91.552734375
-110.77880859375
-124.51171875
-105.28564453125
-86.97509765625
-85.14404296875
-80.56640625
-86.97509765625
-87.890625
-92.46826171875
-93.3837890625
-103.45458984375
-96.13037109375
-66.83349609375
-67.7490234375
-77.81982421875
-78.7353515625
-54.01611328125
-65.91796875
-76.904296875
-75.98876953125
-96.13037109375
-111.6943359375
-98.876953125
-96.13037109375
-91.552734375
-81.48193359375
-63.17138671875
-82.3974609375
-89.7216796875
-83.31298828125
-84.228515625
-86.0595703125
-67.7490234375
-58.59375
-58.59375
-53.1005859375
-50.35400390625
-71.4111328125
-74.15771484375
-62.255859375
-68.66455078125
-87.890625
-79.65087890625
-68.66455078125
-77.81982421875
-90.63720703125
-75.98876953125
-64.0869140625
-63.17138671875
-49.4384765625
-44.86083984375
-43.9453125
-35.70556640625
-51.26953125
-77.81982421875
-75.98876953125
-54.931640625
-63.17138671875
-72.32666015625
-64.0869140625
-66.83349609375
-81.48193359375
-54.931640625
-35.70556640625
-34.7900390625
-36.62109375
-35.70556640625
-58.59375
-66.83349609375
-67.7490234375
-81.48193359375
-94.29931640625
-107.11669921875
-117.1875
-102.5390625
-78.7353515625
-71.4111328125
-94.29931640625
-104.3701171875
-109.86328125
-114.44091796875
-126.3427734375
-115.3564453125
-112.60986328125
-110.77880859375
-102.5390625
-90.63720703125
-88.80615234375
-86.0595703125
-96.13037109375
-108.94775390625
-118.10302734375
-119.0185546875
-110.77880859375
-105.28564453125
-91.552734375
-82.3974609375
-103.45458984375
-119.93408203125
-117.1875
-117.1875
-121.76513671875
-116.27197265625
-108.94775390625
-98.876953125
-86.0595703125
-61.34033203125
-56.7626953125
-24.71923828125
6.40869140625
36.62109375
88.80615234375
181.2744140625
303.03955078125
420.22705078125
523.681640625
633.544921875
697.6318359375
746.15478515625
787.353515625
817.56591796875
833.1298828125
810.24169921875
717.7734375
574.03564453125
381.77490234375
54.01611328125
-249.93896484375
-436.70654296875
-518.1884765625
-565.7958984375
-608.82568359375
-615.234375
-600.5859375
-577.69775390625
-552.06298828125
-490.72265625
-461.42578125
-427.55126953125
-374.45068359375
-325.927734375
-269.1650390625
-195.9228515625
-152.89306640625
-133.6669921875
-123.59619140625
-101.62353515625
-83.31298828125
-84.228515625
-74.15771484375
-63.17138671875
-68.66455078125
-70.49560546875
-63.17138671875
-50.35400390625
-43.9453125
-34.7900390625
-38.4521484375
-45.7763671875
-46.69189453125
-41.19873046875
-53.1005859375
-44.86083984375
-35.70556640625
-26.55029296875
-16.4794921875
-9.1552734375
-20.1416015625
-32.958984375
-34.7900390625
-42.1142578125
-50.35400390625
-43.02978515625
-22.88818359375
-20.1416015625
-6.40869140625
-1.8310546875
-15.56396484375
-17.39501953125
-10.07080078125
-21.05712890625
-38.4521484375
-26.55029296875
-20.1416015625
-22.88818359375
-18.310546875
9.1552734375
0.91552734375
1.8310546875
-1.8310546875
0
-0.91552734375
5.4931640625
2.74658203125
6.40869140625
14.6484375
28.38134765625
9.1552734375
7.32421875
11.90185546875
9.1552734375
-6.40869140625
22.88818359375
31.1279296875
37.53662109375
42.1142578125
45.7763671875
37.53662109375
42.1142578125
46.69189453125
44.86083984375
43.9453125
48.52294921875
49.4384765625
66.83349609375
80.56640625
100.7080078125
78.7353515625
73.2421875
63.17138671875
69.580078125
73.2421875
86.0595703125
99.79248046875
115.3564453125
117.1875
126.3427734375
130.0048828125
125.42724609375
130.92041015625
125.42724609375
127.25830078125
143.73779296875
161.1328125
165.71044921875
180.35888671875
192.2607421875
184.9365234375
184.02099609375
187.68310546875
176.69677734375
190.4296875
213.31787109375
223.388671875
221.5576171875
238.95263671875
259.09423828125
251.77001953125
247.1923828125
239.8681640625
240.78369140625
248.10791015625
262.75634765625
278.3203125
291.1376953125
292.96875
295.71533203125
281.982421875
283.8134765625
284.72900390625
286.56005859375
284.72900390625
293.88427734375
298.4619140625
309.4482421875
310.36376953125
311.279296875
301.20849609375
277.40478515625
252.685546875
236.2060546875
203.2470703125
206.9091796875
205.99365234375
189.51416015625
188.5986328125
181.2744140625
143.73779296875
114.44091796875
91.552734375
69.580078125
44.86083984375
27.4658203125
37.53662109375
22.88818359375
11.90185546875
24.71923828125
15.56396484375
6.40869140625
-10.986328125
-29.296875
-39.36767578125
-23.8037109375
-21.97265625
-33.87451171875
-32.958984375
-22.88818359375
-32.958984375
-52.18505859375
-73.2421875
-68.66455078125
-86.97509765625
-82.3974609375
-71.4111328125
-65.00244140625
-74.15771484375
-70.49560546875
-74.15771484375
-91.552734375
-94.29931640625
-102.5390625
-110.77880859375
-92.46826171875
-83.31298828125
-83.31298828125
-81.48193359375
-68.66455078125
-77.81982421875
-87.890625
-86.0595703125
-88.80615234375
-98.876953125
-87.890625
-81.48193359375
-81.48193359375
-80.56640625
-65.91796875
-67.7490234375
-69.580078125
-67.7490234375
-69.580078125
-84.228515625
-74.15771484375
-72.32666015625
-77.81982421875
-69.580078125
-54.01611328125
-53.1005859375
-61.34033203125
-72.32666015625
-85.14404296875
-94.29931640625
-82.3974609375
-74.15771484375
-70.49560546875
-61.34033203125
-48.52294921875
-64.0869140625
-71.4111328125
-69.580078125
-72.32666015625
-84.228515625
-68.66455078125
-61.34033203125
-72.32666015625
-65.00244140625
-46.69189453125
-64.0869140625
-73.2421875
-75.98876953125
-74.15771484375
-93.3837890625
-95.21484375
-85.14404296875
-80.56640625
-70.49560546875
-58.59375
-79.65087890625
-81.48193359375
-83.31298828125
-87.890625
-92.46826171875
-82.3974609375
-81.48193359375
-76.904296875
-80.56640625
-71.4111328125
-79.65087890625
-94.29931640625
-100.7080078125
-102.5390625
-123.59619140625
-109.86328125
-98.876953125
-96.13037109375
-94.29931640625
-81.48193359375
-91.552734375
-108.94775390625
-120.849609375
-125.42724609375
-128.173828125
-106.201171875
-90.63720703125
-93.3837890625
-94.29931640625
-85.14404296875
-96.13037109375
-108.0322265625
-102.5390625
-114.44091796875
-130.0048828125
-118.10302734375
-112.60986328125
-114.44091796875
-109.86328125
-107.11669921875
-119.0185546875
-123.59619140625
-123.59619140625
-125.42724609375
-147.39990234375
-128.173828125
-117.1875
-111.6943359375
-108.0322265625
-94.29931640625
-105.28564453125
-115.3564453125
-129.08935546875
-126.3427734375
-139.16015625
-133.6669921875
-126.3427734375
-122.6806640625
-130.0048828125
-116.27197265625
-117.1875
-119.93408203125
-131.8359375
-126.3427734375
-141.90673828125
-118.10302734375
-112.60986328125
-112.60986328125
-111.6943359375
-103.45458984375
-108.94775390625
-119.0185546875
-122.6806640625
-134.58251953125
-141.90673828125
-127.25830078125
-119.0185546875
-115.3564453125
-97.0458984375
-80.56640625
-88.80615234375
-88.80615234375
-92.46826171875
-96.13037109375
-125.42724609375
-119.0185546875
-108.94775390625
-92.46826171875
-73.2421875
-58.59375
-63.17138671875
-80.56640625
-87.890625
-93.3837890625
-107.11669921875
-104.3701171875
-99.79248046875
-104.3701171875
-96.13037109375
-76.904296875
-88.80615234375
-93.3837890625
-113.525390625
-122.6806640625
-129.08935546875
-118.10302734375
-119.93408203125
-120.849609375
-105.28564453125
-95.21484375
-111.6943359375
-131.8359375
-137.3291015625
-144.6533203125
-169.37255859375
-169.37255859375
-161.1328125
-171.20361328125
-164.794921875
-143.73779296875
-142.822265625
-160.21728515625
-170.2880859375
-193.17626953125
-196.83837890625
-184.9365234375
-169.37255859375
-153.80859375
-131.8359375
-109.86328125
-135.498046875
-143.73779296875
-152.89306640625
-153.80859375
-162.9638671875
-150.146484375
-130.92041015625
-131.8359375
-120.849609375
-97.96142578125
-103.45458984375
-123.59619140625
-134.58251953125
-136.41357421875
-152.89306640625
-139.16015625
-118.10302734375
-88.80615234375
-59.50927734375
-3.662109375
51.26953125
105.28564453125
193.17626953125
310.36376953125
403.74755859375
491.63818359375
587.7685546875
653.6865234375
712.2802734375
763.5498046875
780.94482421875
776.3671875
730.5908203125
593.26171875
424.8046875
173.9501953125
-155.6396484375
-386.3525390625
-492.5537109375
-528.25927734375
-578.61328125
-643.61572265625
-654.60205078125
-646.3623046875
-636.29150390625
-604.248046875
-556.640625
-514.5263671875
-466.9189453125
-404.6630859375
-357.97119140625
-314.02587890625
-267.333984375
-221.5576171875
-219.7265625
-204.16259765625
-166.6259765625
-140.9912109375
-108.0322265625
-98.876953125
-101.62353515625
-115.3564453125
-117.1875
-108.0322265625
-106.201171875
-98.876953125
-78.7353515625
-67.7490234375
-61.34033203125
-40.283203125
-45.7763671875
-49.4384765625
-54.01611328125
-66.83349609375
-75.0732421875
-60.4248046875
-52.18505859375
-44.86083984375
-43.02978515625
-28.38134765625
-32.958984375
-56.7626953125
-53.1005859375
-50.35400390625
-67.7490234375
-60.4248046875
-40.283203125
-42.1142578125
-43.9453125
-24.71923828125
-30.21240234375
-55.84716796875
-53.1005859375
-47.607421875
-51.26953125
-35.70556640625
-23.8037109375
-21.05712890625
-23.8037109375
-12.8173828125
-14.6484375
-18.310546875
-24.71923828125
-25.634765625
-36.62109375
-30.21240234375
-25.634765625
-23.8037109375
-21.05712890625
4.57763671875
-16.4794921875
-25.634765625
-14.6484375
7.32421875
-1.8310546875
6.40869140625
17.39501953125
21.05712890625
30.21240234375
32.04345703125
33.87451171875
35.70556640625
43.02978515625
42.1142578125
39.36767578125
37.53662109375
46.69189453125
57.67822265625
67.7490234375
91.552734375
93.3837890625
83.31298828125
86.97509765625
93.3837890625
86.0595703125
93.3837890625
107.11669921875
115.3564453125
120.849609375
141.90673828125
151.9775390625
143.73779296875
145.56884765625
140.07568359375
135.498046875
155.6396484375
173.9501953125
186.767578125
198.66943359375
223.388671875
224.30419921875
208.740234375
212.40234375
224.30419921875
209.65576171875
212.40234375
232.5439453125
240.78369140625
249.0234375
264.58740234375
266.41845703125
264.58740234375
261.8408203125
264.58740234375
243.5302734375
254.5166015625
267.333984375
279.23583984375
286.56005859375
298.4619140625
296.630859375
281.982421875
276.4892578125
270.99609375
249.93896484375
244.44580078125
249.0234375
231.62841796875
221.5576171875
200.50048828125
179.443359375
157.470703125
138.24462890625
131.8359375
109.86328125
116.27197265625
112.60986328125
108.0322265625
97.96142578125
93.3837890625
68.66455078125
38.4521484375
21.05712890625
0
-31.1279296875
-42.1142578125
-32.04345703125
-33.87451171875
-42.1142578125
-32.04345703125
-43.02978515625
-60.4248046875
-75.0732421875
-75.0732421875
-97.0458984375
-97.0458984375
-81.48193359375
-82.3974609375
-83.31298828125
-73.2421875
-87.890625
-93.3837890625
-106.201171875
-104.3701171875
-117.1875
-108.94775390625
-92.46826171875
-94.29931640625
-96.13037109375
-85.14404296875
-98.876953125
-108.0322265625
-108.94775390625
-111.6943359375
-134.58251953125
-128.173828125
-115.3564453125
-105.28564453125
-108.94775390625
-82.3974609375
-80.56640625
-94.29931640625
-102.5390625
-112.60986328125
-118.10302734375
-115.3564453125
-105.28564453125
-95.21484375
-93.3837890625
-71.4111328125
-72.32666015625
-81.48193359375
-81.48193359375
-89.7216796875
-107.11669921875
-107.11669921875
-92.46826171875
-97.0458984375
-83.31298828125
-66.83349609375
-73.2421875
-78.7353515625
-86.97509765625
-101.62353515625
-123.59619140625
-117.1875
-110.77880859375
-102.5390625
-107.11669921875
-96.13037109375
-92.46826171875
-104.3701171875
-114.44091796875
-106.201171875
-97.96142578125
-85.14404296875
-79.65087890625
-76.904296875
-71.4111328125
-63.17138671875
-75.98876953125
-89.7216796875
-97.96142578125
-108.94775390625
-119.93408203125
-108.0322265625
-98.876953125
-97.0458984375
-97.96142578125
-89.7216796875
-82.3974609375
-96.13037109375
-104.3701171875
-103.45458984375
-119.93408203125
-130.0048828125
-117.1875
-108.94775390625
-107.11669921875
-98.876953125
-100.7080078125
-104.3701171875
-111.6943359375
-115.3564453125
-128.173828125
-123.59619140625
-110.77880859375
-102.5390625
-109.86328125
-94.29931640625
-97.0458984375
-110.77880859375
-121.76513671875
-135.498046875
-145.56884765625
-139.16015625
-127.25830078125
-125.42724609375
-122.6806640625
-105.28564453125
-107.11669921875
-128.173828125
-133.6669921875
-132.75146484375
-147.39990234375
-140.07568359375
-123.59619140625
-126.3427734375
-140.07568359375
-134.58251953125
-130.0048828125
-144.6533203125
-152.89306640625
-140.9912109375
-138.24462890625
-128.173828125
-104.3701171875
-100.7080078125
-99.79248046875
-91.552734375
-92.46826171875
-105.28564453125
-111.6943359375
-115.3564453125
-113.525390625
-106.201171875
-99.79248046875
-90.63720703125
-94.29931640625
-72.32666015625
-92.46826171875
-98.876953125
-100.7080078125
-109.86328125
-125.42724609375
-100.7080078125
-79.65087890625
-70.49560546875
-81.48193359375
-72.32666015625
-77.81982421875
-89.7216796875
-106.201171875
-111.6943359375
-120.849609375
-120.849609375
-131.8359375
-134.58251953125
-117.1875
-98.876953125
-95.21484375
-101.62353515625
-116.27197265625
-116.27197265625
-132.75146484375
-136.41357421875
-140.07568359375
-147.39990234375
-144.6533203125
-137.3291015625
-140.9912109375
-158.38623046875
-171.20361328125
-173.9501953125
-176.69677734375
-169.37255859375
-148.3154296875
-139.16015625
-135.498046875
-121.76513671875
-131.8359375
-151.06201171875
-149.23095703125
-139.16015625
-152.89306640625
-155.6396484375
-140.9912109375
-140.9912109375
-143.73779296875
-131.8359375
-124.51171875
-137.3291015625
-148.3154296875
-153.80859375
-159.3017578125
-151.9775390625
-144.6533203125
-138.24462890625
-137.3291015625
-121.76513671875
-112.60986328125
-119.0185546875
-132.75146484375
-111.6943359375
-85.14404296875
-43.9453125
-2.74658203125
69.580078125
160.21728515625
292.96875
406.494140625
495.30029296875
582.275390625
666.50390625
710.44921875
753.47900390625
805.6640625
819.39697265625
802.91748046875
728.759765625
577.69775390625
358.88671875
23.8037109375
-291.1376953125
-489.80712890625
-563.04931640625
-582.275390625
-623.47412109375
-654.60205078125
-628.0517578125
-600.5859375
-593.26171875
-567.626953125
-529.1748046875
-489.80712890625
-436.70654296875
-370.78857421875
-290.22216796875
-226.13525390625
-167.54150390625
-144.6533203125
-137.3291015625
-124.51171875
-119.0185546875
-127.25830078125
-119.93408203125
-111.6943359375
-101.62353515625
-92.46826171875
-72.32666015625
-72.32666015625
-76.904296875
-76.904296875
-64.0869140625
-77.81982421875
-81.48193359375
-59.50927734375
-54.931640625
-53.1005859375
-33.87451171875
-35.70556640625
-53.1005859375
-63.17138671875
-57.67822265625
-65.00244140625
-57.67822265625
-43.9453125
-45.7763671875
-51.26953125
-34.7900390625
-31.1279296875
-42.1142578125
-46.69189453125
-43.02978515625
-59.50927734375
-81.48193359375
-66.83349609375
-56.7626953125
-48.52294921875
-29.296875
-15.56396484375
-24.71923828125
-29.296875
-18.310546875
-32.04345703125
-33.87451171875
-16.4794921875
-8.23974609375
8.23974609375
23.8037109375
23.8037109375
22.88818359375
15.56396484375
7.32421875
-3.662109375
-3.662109375
12.8173828125
13.73291015625
16.4794921875
26.55029296875
28.38134765625
22.88818359375
20.1416015625
21.97265625
18.310546875
22.88818359375
43.02978515625
49.4384765625
52.18505859375
58.59375
59.50927734375
56.7626953125
67.7490234375
66.83349609375
55.84716796875
63.17138671875
73.2421875
83.31298828125
93.3837890625
122.6806640625
119.93408203125
107.11669921875
108.94775390625
109.86328125
109.86328125
116.27197265625
134.58251953125
151.06201171875
165.71044921875
184.02099609375
183.10546875
183.10546875
161.1328125
171.20361328125
175.78125
190.4296875
216.064453125
238.037109375
249.0234375
263.671875
262.75634765625
251.77001953125
258.1787109375
243.5302734375
227.96630859375
242.61474609375
267.333984375
280.1513671875
295.71533203125
307.6171875
305.7861328125
292.96875
295.71533203125
292.05322265625
279.23583984375
280.1513671875
284.72900390625
291.1376953125
283.8134765625
292.05322265625
293.88427734375
275.57373046875
255.43212890625
238.95263671875
217.8955078125
205.078125
210.5712890625
197.75390625
188.5986328125
184.9365234375
164.794921875
134.58251953125
106.201171875
87.890625
60.4248046875
44.86083984375
42.1142578125
36.62109375
32.04345703125
28.38134765625
15.56396484375
2.74658203125
-20.1416015625
-53.1005859375
-65.00244140625
-58.59375
-49.4384765625
-34.7900390625
-45.7763671875
-33.87451171875
-51.26953125
-71.4111328125
-84.228515625
-87.890625
-101.62353515625
-102.5390625
-91.552734375
-86.97509765625
-84.228515625
-67.7490234375
-63.17138671875
-77.81982421875
-91.552734375
-95.21484375
-99.79248046875
-99.79248046875
-87.890625
-89.7216796875
-79.65087890625
-68.66455078125
-71.4111328125
-75.0732421875
-78.7353515625
-81.48193359375
-94.29931640625
-97.96142578125
-83.31298828125
-77.81982421875
-78.7353515625
-63.17138671875
-65.91796875
-83.31298828125
-82.3974609375
-79.65087890625
-94.29931640625
-96.13037109375
-83.31298828125
-74.15771484375
-72.32666015625
-54.01611328125
-59.50927734375
-70.49560546875
-76.904296875
-74.15771484375
-86.97509765625
