ECG
-86.0595703125
-81.48193359375
-83.31298828125
-68.66455078125
-87.890625
-96.13037109375
-93.3837890625
-85.14404296875
-102.5390625
-106.201171875
-106.201171875
-125.42724609375
-130.92041015625
-128.173828125
-122.6806640625
-112.60986328125
-95.21484375
-86.0595703125
-97.0458984375
-104.3701171875
-103.45458984375
-107.11669921875
-109.86328125
-98.876953125
-72.32666015625
-65.91796875
-69.580078125
-72.32666015625
-86.97509765625
-102.5390625
-111.6943359375
-125.42724609375
-129.08935546875
-116.27197265625
-117.1875
-110.77880859375
-103.45458984375
-93.3837890625
-111.6943359375
-136.41357421875
-152.89306640625
-156.55517578125
-162.04833984375
-147.39990234375
-130.0048828125
-127.25830078125
-124.51171875
-121.76513671875
-126.3427734375
-125.42724609375
-124.51171875
-133.6669921875
-145.56884765625
-136.41357421875
-123.59619140625
-126.3427734375
-119.0185546875
-108.0322265625
-118.10302734375
-134.58251953125
-162.04833984375
-168.45703125
-185.85205078125
-184.02099609375
-168.45703125
-151.9775390625
-139.16015625
-125.42724609375
-108.94775390625
-107.11669921875
-122.6806640625
-155.6396484375
-162.04833984375
-147.39990234375
-140.9912109375
-133.6669921875
-119.93408203125
-116.27197265625
-123.59619140625
-129.08935546875
-131.8359375
-138.24462890625
-142.822265625
-129.08935546875
-119.0185546875
-132.75146484375
-124.51171875
-107.11669921875
-129.08935546875
-144.6533203125
-140.9912109375
-147.39990234375
-152.89306640625
-147.39990234375
-140.07568359375
-132.75146484375
-122.6806640625
-136.41357421875
-148.3154296875
-148.3154296875
-147.39990234375
-157.470703125
-163.87939453125
-154.72412109375
-145.56884765625
-145.56884765625
-141.90673828125
-135.498046875
-141.90673828125
-139.16015625
-138.24462890625
-168.45703125
-173.9501953125
-156.55517578125
-148.3154296875
-151.9775390625
-129.08935546875
-122.6806640625
-134.58251953125
-133.6669921875
-137.3291015625
-152.89306640625
-162.04833984375
-161.1328125
-159.3017578125
-153.80859375
-138.24462890625
-119.0185546875
-99.79248046875
-89.7216796875
-71.4111328125
-70.49560546875
-76.904296875
-76.904296875
-79.65087890625
-106.201171875
-90.63720703125
-85.14404296875
-87.890625
-87.890625
-95.21484375
-104.3701171875
-108.94775390625
-97.0458984375
-98.876953125
-107.11669921875
-97.0458984375
-103.45458984375
-130.0048828125
-154.72412109375
-167.54150390625
-186.767578125
-168.45703125
-162.04833984375
-152.89306640625
-168.45703125
-154.72412109375
-157.470703125
-175.78125
-178.52783203125
-179.443359375
-189.51416015625
-187.68310546875
-181.2744140625
-173.9501953125
-173.03466796875
-153.80859375
-151.9775390625
-172.119140625
-179.443359375
-180.35888671875
-185.85205078125
-188.5986328125
-166.6259765625
-164.794921875
-172.119140625
-162.04833984375
-163.87939453125
-168.45703125
-183.10546875
-200.50048828125
-256.34765625
-303.03955078125
-274.658203125
-251.77001953125
-228.8818359375
-197.75390625
-154.72412109375
-145.56884765625
-143.73779296875
-140.9912109375
-112.60986328125
-90.63720703125
-47.607421875
12.8173828125
75.0732421875
175.78125
304.87060546875
412.90283203125
487.97607421875
563.96484375
617.0654296875
674.74365234375
718.68896484375
744.32373046875
743.408203125
708.6181640625
574.03564453125
427.55126953125
162.04833984375
-188.5986328125
-443.115234375
-559.38720703125
-573.1201171875
-610.65673828125
-656.43310546875
-657.3486328125
-630.79833984375
-632.62939453125
-633.544921875
-607.91015625
-564.88037109375
-524.59716796875
-487.060546875
-411.9873046875
-339.66064453125
-298.4619140625
-260.92529296875
-232.5439453125
-202.33154296875
-175.78125
-167.54150390625
-154.72412109375
-125.42724609375
-128.173828125
-123.59619140625
-120.849609375
-138.24462890625
-151.06201171875
-134.58251953125
-138.24462890625
-140.07568359375
-135.498046875
-126.3427734375
-113.525390625
-104.3701171875
-81.48193359375
-60.4248046875
-64.0869140625
-78.7353515625
-81.48193359375
-80.56640625
-90.63720703125
-86.0595703125
-100.7080078125
-100.7080078125
-83.31298828125
-69.580078125
-70.49560546875
-74.15771484375
-100.7080078125
-108.0322265625
-115.3564453125
-78.7353515625
-40.283203125
-45.7763671875
-42.1142578125
-46.69189453125
-65.00244140625
-69.580078125
-61.34033203125
-65.91796875
-62.255859375
-43.9453125
-38.4521484375
-32.04345703125
-26.55029296875
-19.22607421875
-30.21240234375
-39.36767578125
-41.19873046875
-54.931640625
-61.34033203125
-56.7626953125
-44.86083984375
-39.36767578125
-35.70556640625
-19.22607421875
-40.283203125
-41.19873046875
-42.1142578125
-53.1005859375
-34.7900390625
9.1552734375
21.97265625
27.4658203125
32.04345703125
21.05712890625
14.6484375
15.56396484375
34.7900390625
17.39501953125
12.8173828125
30.21240234375
39.36767578125
53.1005859375
45.7763671875
55.84716796875
63.17138671875
73.2421875
64.0869140625
64.0869140625
93.3837890625
96.13037109375
90.63720703125
101.62353515625
113.525390625
117.1875
108.0322265625
110.77880859375
126.3427734375
133.6669921875
129.08935546875
142.822265625
161.1328125
174.86572265625
190.4296875
208.740234375
208.740234375
207.82470703125
205.078125
198.66943359375
203.2470703125
225.2197265625
246.27685546875
253.60107421875
260.92529296875
266.41845703125
260.009765625
259.09423828125
265.5029296875
257.26318359375
251.77001953125
258.1787109375
262.75634765625
260.92529296875
272.8271484375
264.58740234375
241.69921875
226.13525390625
229.79736328125
218.81103515625
202.33154296875
204.16259765625
208.740234375
195.00732421875
185.85205078125
152.89306640625
125.42724609375
94.29931640625
66.83349609375
45.7763671875
32.958984375
33.87451171875
40.283203125
19.22607421875
21.97265625
10.986328125
-20.1416015625
-51.26953125
-65.00244140625
-96.13037109375
-95.21484375
-84.228515625
-80.56640625
-81.48193359375
-76.904296875
-84.228515625
-99.79248046875
-104.3701171875
-120.849609375
-151.06201171875
-168.45703125
-157.470703125
-174.86572265625
-173.9501953125
-147.39990234375
-120.849609375
-113.525390625
-121.76513671875
-128.173828125
-147.39990234375
-148.3154296875
-129.08935546875
-121.76513671875
-133.6669921875
-106.201171875
-123.59619140625
-142.822265625
-135.498046875
-147.39990234375
-148.3154296875
-149.23095703125
-132.75146484375
-127.25830078125
-130.92041015625
-113.525390625
-108.0322265625
-108.0322265625
-118.10302734375
-125.42724609375
-140.9912109375
-136.41357421875
-117.1875
-119.0185546875
-116.27197265625
-98.876953125
-98.876953125
-121.76513671875
-124.51171875
-123.59619140625
-141.90673828125
-149.23095703125
-127.25830078125
-114.44091796875
-107.11669921875
-94.29931640625
-94.29931640625
-108.0322265625
-111.6943359375
-123.59619140625
-129.08935546875
-125.42724609375
-115.3564453125
-111.6943359375
-112.60986328125
-97.0458984375
-96.13037109375
-125.42724609375
-150.146484375
-165.71044921875
-184.02099609375
-169.37255859375
-151.9775390625
-140.9912109375
-119.0185546875
-93.3837890625
-86.97509765625
-101.62353515625
-116.27197265625
-128.173828125
-141.90673828125
-157.470703125
-151.06201171875
-132.75146484375
-123.59619140625
-108.94775390625
-113.525390625
-130.0048828125
-140.9912109375
-145.56884765625
-176.69677734375
-167.54150390625
-134.58251953125
-136.41357421875
-118.10302734375
-102.5390625
-109.86328125
-134.58251953125
-147.39990234375
-151.9775390625
-173.9501953125
-174.86572265625
-160.21728515625
-145.56884765625
-135.498046875
-129.08935546875
-119.93408203125
-122.6806640625
-130.0048828125
-133.6669921875
-155.6396484375
-162.04833984375
-151.06201171875
-162.04833984375
-170.2880859375
-160.21728515625
-151.06201171875
-157.470703125
-163.87939453125
-161.1328125
-175.78125
-180.35888671875
-162.04833984375
-151.06201171875
-149.23095703125
-141.90673828125
-142.822265625
-162.9638671875
-181.2744140625
-183.10546875
-189.51416015625
-179.443359375
-161.1328125
-160.21728515625
-151.06201171875
-135.498046875
-121.76513671875
-138.24462890625
-149.23095703125
-153.80859375
-168.45703125
-166.6259765625
-147.39990234375
-134.58251953125
-132.75146484375
-118.10302734375
-111.6943359375
-122.6806640625
-130.92041015625
-127.25830078125
-126.3427734375
-119.0185546875
-103.45458984375
-97.0458984375
-89.7216796875
-68.66455078125
-48.52294921875
-48.52294921875
-53.1005859375
-59.50927734375
-80.56640625
-104.3701171875
-104.3701171875
-105.28564453125
-106.201171875
-86.97509765625
-90.63720703125
-107.11669921875
-107.11669921875
-104.3701171875
-112.60986328125
-116.27197265625
-104.3701171875
-119.0185546875
-134.58251953125
-124.51171875
-119.0185546875
-119.93408203125
-112.60986328125
-128.173828125
-137.3291015625
-153.80859375
-158.38623046875
-159.3017578125
-166.6259765625
-167.54150390625
-163.87939453125
-179.443359375
-189.51416015625
-188.5986328125
-202.33154296875
-199.5849609375
-181.2744140625
-178.52783203125
-179.443359375
-163.87939453125
-167.54150390625
-178.52783203125
-177.6123046875
-183.10546875
-206.9091796875
-220.64208984375
-195.9228515625
-173.9501953125
-179.443359375
-165.71044921875
-158.38623046875
-151.9775390625
-163.87939453125
-178.52783203125
-179.443359375
-183.10546875
-175.78125
-164.794921875
-149.23095703125
-135.498046875
-141.90673828125
-139.16015625
-121.76513671875
-83.31298828125
-54.01611328125
-7.32421875
75.98876953125
168.45703125
279.23583984375
421.142578125
526.42822265625
591.4306640625
660.09521484375
710.44921875
734.2529296875
775.45166015625
800.1708984375
758.056640625
616.14990234375
469.66552734375
217.8955078125
-135.498046875
-406.494140625
-549.31640625
-607.91015625
-645.44677734375
-671.9970703125
-673.828125
-653.6865234375
-631.7138671875
-613.4033203125
-584.1064453125
-548.40087890625
-503.5400390625
-442.19970703125
-373.53515625
-297.54638671875
-238.95263671875
-197.75390625
-158.38623046875
-133.6669921875
-140.9912109375
-157.470703125
-161.1328125
-157.470703125
-159.3017578125
-150.146484375
-145.56884765625
-148.3154296875
-126.3427734375
-113.525390625
-127.25830078125
-127.25830078125
-101.62353515625
-86.0595703125
-88.80615234375
-81.48193359375
-59.50927734375
-67.7490234375
-69.580078125
-75.0732421875
-86.0595703125
-79.65087890625
-67.7490234375
-81.48193359375
-71.4111328125
-47.607421875
-44.86083984375
-60.4248046875
-59.50927734375
-53.1005859375
-57.67822265625
-56.7626953125
-43.9453125
-51.26953125
-54.931640625
-41.19873046875
-32.958984375
-33.87451171875
-12.8173828125
-16.4794921875
-25.634765625
-44.86083984375
-47.607421875
-60.4248046875
-53.1005859375
-39.36767578125
-35.70556640625
-22.88818359375
-11.90185546875
-14.6484375
-22.88818359375
-23.8037109375
-5.4931640625
-13.73291015625
-10.986328125
1.8310546875
-1.8310546875
-2.74658203125
10.986328125
16.4794921875
14.6484375
10.986328125
5.4931640625
-13.73291015625
-15.56396484375
-2.74658203125
12.8173828125
10.986328125
15.56396484375
34.7900390625
35.70556640625
32.04345703125
21.97265625
15.56396484375
32.04345703125
44.86083984375
59.50927734375
66.83349609375
102.5390625
131.8359375
136.41357421875
138.24462890625
135.498046875
127.25830078125
138.24462890625
157.470703125
169.37255859375
179.443359375
190.4296875
196.83837890625
191.34521484375
204.16259765625
212.40234375
201.416015625
202.33154296875
224.30419921875
245.361328125
251.77001953125
270.08056640625
277.40478515625
275.57373046875
260.92529296875
261.8408203125
259.09423828125
263.671875
270.99609375
274.658203125
281.982421875
300.29296875
304.87060546875
300.29296875
295.71533203125
301.20849609375
292.96875
292.05322265625
295.71533203125
289.306640625
284.72900390625
291.1376953125
291.1376953125
263.671875
254.5166015625
249.0234375
222.47314453125
200.50048828125
186.767578125
161.1328125
133.6669921875
100.7080078125
75.98876953125
75.98876953125
94.29931640625
87.890625
57.67822265625
54.01611328125
70.49560546875
63.17138671875
39.36767578125
41.19873046875
29.296875
-7.32421875
-26.55029296875
-41.19873046875
-50.35400390625
-52.18505859375
-45.7763671875
-41.19873046875
-57.67822265625
-53.1005859375
-59.50927734375
-83.31298828125
-90.63720703125
-101.62353515625
-117.1875
-114.44091796875
-113.525390625
-123.59619140625
-127.25830078125
-106.201171875
-102.5390625
-108.0322265625
-106.201171875
-105.28564453125
-123.59619140625
-121.76513671875
-105.28564453125
-105.28564453125
-116.27197265625
-110.77880859375
-107.11669921875
-118.10302734375
-124.51171875
-138.24462890625
-156.55517578125
-164.794921875
-156.55517578125
-152.89306640625
-130.0048828125
-89.7216796875
-68.66455078125
-65.00244140625
-75.0732421875
-94.29931640625
-101.62353515625
-118.10302734375
-108.0322265625
-92.46826171875
-75.98876953125
-61.34033203125
-65.00244140625
-84.228515625
-95.21484375
-105.28564453125
-128.173828125
-110.77880859375
-93.3837890625
-83.31298828125
-94.29931640625
-86.97509765625
-74.15771484375
-100.7080078125
-122.6806640625
-120.849609375
-125.42724609375
-100.7080078125
-87.890625
-95.21484375
-93.3837890625
-103.45458984375
-104.3701171875
-108.0322265625
-107.11669921875
-108.0322265625
-117.1875
-107.11669921875
-109.86328125
-139.16015625
-154.72412109375
-155.6396484375
-137.3291015625
-134.58251953125
-132.75146484375
-124.51171875
-146.484375
-152.89306640625
-124.51171875
-109.86328125
-103.45458984375
-87.890625
-90.63720703125
-112.60986328125
-124.51171875
-139.16015625
-156.55517578125
-151.9775390625
-139.16015625
-134.58251953125
-118.10302734375
-97.0458984375
-97.0458984375
-105.28564453125
-115.3564453125
-128.173828125
-143.73779296875
-142.822265625
-131.8359375
-130.92041015625
-128.173828125
-115.3564453125
-111.6943359375
-133.6669921875
-147.39990234375
-144.6533203125
-157.470703125
-156.55517578125
-140.07568359375
-135.498046875
-128.173828125
-117.1875
-118.10302734375
-145.56884765625
-162.04833984375
-162.9638671875
-178.52783203125
-176.69677734375
-162.9638671875
-168.45703125
-176.69677734375
-160.21728515625
-148.3154296875
-153.80859375
-153.80859375
-144.6533203125
-148.3154296875
-141.90673828125
-124.51171875
-120.849609375
-125.42724609375
-106.201171875
-108.0322265625
-129.08935546875
-140.07568359375
-135.498046875
-151.06201171875
-154.72412109375
-155.6396484375
-147.39990234375
-127.25830078125
-120.849609375
-127.25830078125
-136.41357421875
-141.90673828125
-149.23095703125
-159.3017578125
-153.80859375
-140.9912109375
-136.41357421875
-141.90673828125
-126.3427734375
-121.76513671875
-130.92041015625
-137.3291015625
-133.6669921875
-135.498046875
-140.9912109375
-133.6669921875
-116.27197265625
-109.86328125
-103.45458984375
-104.3701171875
-123.59619140625
-121.76513671875
-120.849609375
-129.08935546875
-123.59619140625
-97.0458984375
-84.228515625
-75.0732421875
-45.7763671875
-43.02978515625
-47.607421875
-55.84716796875
-76.904296875
-91.552734375
-100.7080078125
-84.228515625
-80.56640625
-94.29931640625
-87.890625
-86.97509765625
-90.63720703125
-114.44091796875
-105.28564453125
-111.6943359375
-115.3564453125
-105.28564453125
-108.0322265625
-102.5390625
-97.96142578125
-109.86328125
-130.0048828125
-136.41357421875
-151.06201171875
-173.03466796875
-175.78125
-170.2880859375
-164.794921875
-159.3017578125
-149.23095703125
-147.39990234375
-160.21728515625
-166.6259765625
-154.72412109375
-164.794921875
-165.71044921875
-162.9638671875
-162.04833984375
-161.1328125
-151.9775390625
-154.72412109375
-167.54150390625
-178.52783203125
-175.78125
-193.17626953125
-187.68310546875
-158.38623046875
-152.89306640625
-156.55517578125
-152.89306640625
-160.21728515625
-174.86572265625
-172.119140625
-170.2880859375
-184.02099609375
-185.85205078125
-155.6396484375
-148.3154296875
-142.822265625
-130.92041015625
-105.28564453125
-67.7490234375
-32.04345703125
21.05712890625
81.48193359375
204.16259765625
356.14013671875
457.763671875
552.978515625
659.1796875
726.9287109375
771.78955078125
798.33984375
834.9609375
808.41064453125
722.35107421875
578.61328125
405.57861328125
105.28564453125
-231.62841796875
-477.9052734375
-612.48779296875
-648.193359375
-679.3212890625
-715.02685546875
-722.35107421875
-695.80078125
-659.1796875
-617.0654296875
-547.4853515625
-473.32763671875
-401.91650390625
-335.99853515625
-270.08056640625
-224.30419921875
-184.9365234375
-151.9775390625
-135.498046875
-124.51171875
-108.0322265625
-107.11669921875
-116.27197265625
-127.25830078125
-131.8359375
-143.73779296875
-159.3017578125
-114.44091796875
-97.96142578125
-101.62353515625
-85.14404296875
-78.7353515625
-88.80615234375
-91.552734375
-90.63720703125
-108.0322265625
-105.28564453125
-86.97509765625
-65.91796875
-51.26953125
-35.70556640625
-45.7763671875
-61.34033203125
-70.49560546875
-67.7490234375
-82.3974609375
-66.83349609375
-56.7626953125
-50.35400390625
-39.36767578125
-13.73291015625
-6.40869140625
-35.70556640625
-40.283203125
-44.86083984375
-57.67822265625
-50.35400390625
-34.7900390625
-30.21240234375
-35.70556640625
-21.97265625
-19.22607421875
-25.634765625
-26.55029296875
-21.97265625
-35.70556640625
-19.22607421875
5.4931640625
4.57763671875
11.90185546875
25.634765625
18.310546875
6.40869140625
2.74658203125
-3.662109375
-10.07080078125
-2.74658203125
10.986328125
27.4658203125
24.71923828125
43.02978515625
26.55029296875
14.6484375
10.986328125
13.73291015625
17.39501953125
44.86083984375
63.17138671875
66.83349609375
59.50927734375
77.81982421875
71.4111328125
70.49560546875
76.904296875
88.80615234375
75.98876953125
86.0595703125
128.173828125
143.73779296875
160.21728515625
165.71044921875
158.38623046875
159.3017578125
165.71044921875
169.37255859375
144.6533203125
155.6396484375
173.03466796875
181.2744140625
196.83837890625
230.712890625
228.8818359375
226.13525390625
220.64208984375
229.79736328125
220.64208984375
224.30419921875
237.12158203125
244.44580078125
251.77001953125
270.99609375
256.34765625
250.8544921875
260.92529296875
274.658203125
259.09423828125
259.09423828125
275.57373046875
280.1513671875
292.05322265625
310.36376953125
308.53271484375
306.70166015625
313.1103515625
302.1240234375
291.1376953125
298.4619140625
296.630859375
289.306640625
294.7998046875
298.4619140625
287.4755859375
269.1650390625
258.1787109375
244.44580078125
225.2197265625
212.40234375
212.40234375
199.5849609375
184.9365234375
188.5986328125
162.04833984375
125.42724609375
110.77880859375
83.31298828125
51.26953125
48.52294921875
47.607421875
40.283203125
28.38134765625
33.87451171875
16.4794921875
-2.74658203125
-18.310546875
-25.634765625
-49.4384765625
-65.00244140625
-51.26953125
-55.84716796875
-57.67822265625
-49.4384765625
-49.4384765625
-69.580078125
-103.45458984375
-106.201171875
-104.3701171875
-101.62353515625
-85.14404296875
-82.3974609375
-78.7353515625
-63.17138671875
-61.34033203125
-75.98876953125
-77.81982421875
-73.2421875
-89.7216796875
-76.904296875
-75.0732421875
-75.98876953125
-67.7490234375
-57.67822265625
-71.4111328125
-82.3974609375
-80.56640625
-84.228515625
-95.21484375
-93.3837890625
-75.98876953125
-65.00244140625
-61.34033203125
-46.69189453125
-50.35400390625
-69.580078125
-76.904296875
-77.81982421875
-89.7216796875
-81.48193359375
-67.7490234375
-67.7490234375
-73.2421875
-54.931640625
-49.4384765625
-63.17138671875
-66.83349609375
-63.17138671875
-87.890625
-80.56640625
-64.0869140625
-69.580078125
-53.1005859375
-44.86083984375
-54.931640625
-66.83349609375
-73.2421875
-77.81982421875
-90.63720703125
-90.63720703125
-75.98876953125
-77.81982421875
-85.14404296875
-68.66455078125
-52.18505859375
-66.83349609375
-83.31298828125
-89.7216796875
-112.60986328125
-97.96142578125
-85.14404296875
-88.80615234375
-82.3974609375
-61.34033203125
-77.81982421875
-109.86328125
-123.59619140625
-114.44091796875
-131.8359375
-135.498046875
-108.94775390625
-96.13037109375
-84.228515625
-71.4111328125
-79.65087890625
-87.890625
-83.31298828125
-81.48193359375
-97.0458984375
-96.13037109375
-95.21484375
-95.21484375
-91.552734375
-74.15771484375
-75.98876953125
-96.13037109375
-106.201171875
-109.86328125
-119.0185546875
-115.3564453125
-108.0322265625
-113.525390625
-111.6943359375
-97.0458984375
-119.93408203125
-137.3291015625
-140.07568359375
-151.06201171875
-152.89306640625
-138.24462890625
-115.3564453125
-102.5390625
-95.21484375
-81.48193359375
-91.552734375
-105.28564453125
-108.94775390625
-125.42724609375
-133.6669921875
-113.525390625
-105.28564453125
-91.552734375
-96.13037109375
-85.14404296875
-90.63720703125
-114.44091796875
-121.76513671875
-119.0185546875
-132.75146484375
-128.173828125
-106.201171875
-104.3701171875
-107.11669921875
-99.79248046875
-107.11669921875
-108.94775390625
-111.6943359375
-116.27197265625
-119.93408203125
-116.27197265625
-110.77880859375
-119.0185546875
-118.10302734375
-94.29931640625
-93.3837890625
-100.7080078125
-101.62353515625
-100.7080078125
-117.1875
-113.525390625
-101.62353515625
-95.21484375
-90.63720703125
-81.48193359375
-79.65087890625
-83.31298828125
-87.890625
-94.29931640625
-99.79248046875
-77.81982421875
-62.255859375
-63.17138671875
-71.4111328125
-40.283203125
-38.4521484375
-40.283203125
-50.35400390625
-46.69189453125
-63.17138671875
-77.81982421875
-86.97509765625
-76.904296875
-55.84716796875
-38.4521484375
-43.9453125
-66.83349609375
-72.32666015625
-57.67822265625
-75.0732421875
-82.3974609375
-65.00244140625
-59.50927734375
-62.255859375
-59.50927734375
-75.0732421875
-91.552734375
-94.29931640625
-105.28564453125
-130.92041015625
-141.90673828125
-123.59619140625
-119.0185546875
-132.75146484375
-123.59619140625
-125.42724609375
-133.6669921875
-140.9912109375
-146.484375
-152.89306640625
-151.06201171875
-151.06201171875
-141.90673828125
-140.07568359375
-121.76513671875
-131.8359375
-140.9912109375
-143.73779296875
-153.80859375
-171.20361328125
-164.794921875
-152.89306640625
-158.38623046875
-147.39990234375
-130.0048828125
-129.08935546875
-119.93408203125
-121.76513671875
-121.76513671875
-130.92041015625
-133.6669921875
-141.90673828125
-140.9912109375
-130.0048828125
-120.849609375
-109.86328125
-94.29931640625
-76.904296875
-50.35400390625
-17.39501953125
45.7763671875
132.75146484375
250.8544921875
367.12646484375
478.82080078125
571.2890625
660.09521484375
726.01318359375
773.62060546875
799.25537109375
844.1162109375
839.53857421875
754.39453125
605.16357421875
419.3115234375
94.29931640625
-256.34765625
-485.2294921875
-598.7548828125
-637.20703125
-650.0244140625
-668.3349609375
-672.91259765625
-658.26416015625
-609.7412109375
-566.71142578125
-520.93505859375
-474.2431640625
-409.24072265625
-337.82958984375
-266.41845703125
-207.82470703125
-171.20361328125
-143.73779296875
-108.0322265625
-100.7080078125
-108.94775390625
-110.77880859375
-107.11669921875
-113.525390625
-108.0322265625
-95.21484375
-94.29931640625
-88.80615234375
-75.0732421875
-72.32666015625
-82.3974609375
-79.65087890625
-92.46826171875
-107.11669921875
-100.7080078125
-86.0595703125
-84.228515625
-85.14404296875
-67.7490234375
-75.0732421875
-86.0595703125
-84.228515625
-78.7353515625
-91.552734375
-84.228515625
-72.32666015625
-75.98876953125
-67.7490234375
-59.50927734375
-81.48193359375
-83.31298828125
-78.7353515625
-68.66455078125
-77.81982421875
-63.17138671875
-44.86083984375
-36.62109375
-35.70556640625
-22.88818359375
-26.55029296875
-42.1142578125
-47.607421875
-53.1005859375
-65.91796875
-54.01611328125
-30.21240234375
-30.21240234375
-22.88818359375
-3.662109375
-5.4931640625
-26.55029296875
-21.05712890625
-21.05712890625
-32.958984375
-24.71923828125
-3.662109375
1.8310546875
-8.23974609375
14.6484375
16.4794921875
1.8310546875
5.4931640625
5.4931640625
-10.986328125
-13.73291015625
5.4931640625
21.97265625
21.05712890625
42.1142578125
42.1142578125
28.38134765625
31.1279296875
31.1279296875
30.21240234375
45.7763671875
69.580078125
82.3974609375
81.48193359375
96.13037109375
100.7080078125
105.28564453125
103.45458984375
107.11669921875
105.28564453125
111.6943359375
125.42724609375
140.07568359375
141.90673828125
149.23095703125
152.89306640625
151.06201171875
150.146484375
158.38623046875
161.1328125
171.20361328125
185.85205078125
206.9091796875
227.05078125
246.27685546875
241.69921875
227.96630859375
206.9091796875
216.064453125
215.14892578125
235.29052734375
255.43212890625
274.658203125
291.1376953125
307.6171875
298.4619140625
278.3203125
277.40478515625
266.41845703125
249.93896484375
253.60107421875
272.8271484375
280.1513671875
279.23583984375
281.982421875
266.41845703125
253.60107421875
238.037109375
218.81103515625
193.17626953125
182.18994140625
181.2744140625
176.69677734375
154.72412109375
149.23095703125
126.3427734375
83.31298828125
45.7763671875
33.87451171875
13.73291015625
-6.40869140625
-4.57763671875
-0.91552734375
9.1552734375
18.310546875
-8.23974609375
-34.7900390625
-45.7763671875
-55.84716796875
-81.48193359375
-88.80615234375
-75.0732421875
-82.3974609375
-80.56640625
-67.7490234375
-81.48193359375
-96.13037109375
-117.1875
-120.849609375
-136.41357421875
-138.24462890625
-123.59619140625
-119.0185546875
-108.94775390625
-93.3837890625
-102.5390625
-125.42724609375
-137.3291015625
-136.41357421875
-133.6669921875
-126.3427734375
-106.201171875
-103.45458984375
-112.60986328125
-91.552734375
-104.3701171875
-119.93408203125
-127.25830078125
-118.10302734375
-124.51171875
-121.76513671875
-109.86328125
-99.79248046875
-100.7080078125
-92.46826171875
-87.890625
-95.21484375
-102.5390625
-106.201171875
-121.76513671875
-125.42724609375
-111.6943359375
-94.29931640625
-97.0458984375
-88.80615234375
-83.31298828125
-93.3837890625
-99.79248046875
-108.94775390625
-126.3427734375
-128.173828125
-116.27197265625
-103.45458984375
-93.3837890625
-69.580078125
-73.2421875
-89.7216796875
-103.45458984375
-114.44091796875
-122.6806640625
-122.6806640625
-118.10302734375
-120.849609375
-107.11669921875
-90.63720703125
-101.62353515625
-124.51171875
-126.3427734375
-134.58251953125
-142.822265625
-134.58251953125
-119.93408203125
-118.10302734375
-121.76513671875
-108.0322265625
-122.6806640625
-134.58251953125
-141.90673828125
-143.73779296875
-155.6396484375
-146.484375
-135.498046875
-129.08935546875
-129.08935546875
-118.10302734375
-116.27197265625
-128.173828125
-135.498046875
-143.73779296875
-161.1328125
-146.484375
-137.3291015625
-134.58251953125
-132.75146484375
-112.60986328125
-111.6943359375
-130.0048828125
-140.9912109375
-140.9912109375
-152.89306640625
-144.6533203125
-139.16015625
-151.06201171875
-151.9775390625
-141.90673828125
-149.23095703125
-150.146484375
-156.55517578125
-159.3017578125
-180.35888671875
-178.52783203125
-160.21728515625
-152.89306640625
-141.90673828125
-135.498046875
-145.56884765625
-157.470703125
-181.2744140625
-189.51416015625
-196.83837890625
-186.767578125
-168.45703125
-151.06201171875
-157.470703125
-139.16015625
-138.24462890625
-164.794921875
-161.1328125
-158.38623046875
-176.69677734375
-170.2880859375
-162.04833984375
-169.37255859375
-169.37255859375
-157.470703125
-158.38623046875
-173.9501953125
-180.35888671875
-184.9365234375
-197.75390625
-181.2744140625
-165.71044921875
-151.06201171875
-156.55517578125
-143.73779296875
-142.822265625
-146.484375
-130.92041015625
-118.10302734375
-132.75146484375
-137.3291015625
-131.8359375
-126.3427734375
-134.58251953125
-128.173828125
-128.173828125
-140.07568359375
-141.90673828125
-132.75146484375
-133.6669921875
-119.93408203125
-87.890625
-78.7353515625
-75.98876953125
-71.4111328125
-96.13037109375
-113.525390625
-112.60986328125
-110.77880859375
-126.3427734375
-134.58251953125
-123.59619140625
-106.201171875
-100.7080078125
-97.96142578125
-95.21484375
-121.76513671875
-120.849609375
-133.6669921875
-155.6396484375
-162.04833984375
-158.38623046875
-157.470703125
-162.9638671875
-167.54150390625
-172.119140625
-182.18994140625
-193.17626953125
-204.16259765625
-212.40234375
-214.2333984375
-202.33154296875
-195.00732421875
-191.34521484375
-188.5986328125
-206.9091796875
-207.82470703125
-204.16259765625
-194.091796875
-198.66943359375
-191.34521484375
-180.35888671875
-169.37255859375
-186.767578125
-176.69677734375
-170.2880859375
-175.78125
-188.5986328125
-194.091796875
-203.2470703125
-198.66943359375
-185.85205078125
-178.52783203125
-177.6123046875
-164.794921875
-170.2880859375
-177.6123046875
-184.9365234375
-179.443359375
-188.5986328125
-174.86572265625
-147.39990234375
-112.60986328125
-75.0732421875
-14.6484375
32.04345703125
91.552734375
181.2744140625
297.54638671875
382.6904296875
473.32763671875
577.69775390625
653.6865234375
699.462890625
756.2255859375
782.77587890625
736.083984375
633.544921875
493.46923828125
281.982421875
-48.52294921875
-356.14013671875
-533.75244140625
-602.4169921875
-607.91015625
-658.26416015625
-688.4765625
-693.05419921875
-681.15234375
-675.6591796875
-641.78466796875
-580.4443359375
-522.76611328125
-465.087890625
-407.40966796875
-345.15380859375
-311.279296875
-262.75634765625
-225.2197265625
-219.7265625
-197.75390625
-174.86572265625
-154.72412109375
-138.24462890625
-124.51171875
-129.08935546875
-146.484375
-151.06201171875
-145.56884765625
-152.89306640625
-145.56884765625
-114.44091796875
-106.201171875
-110.77880859375
-95.21484375
-84.228515625
-94.29931640625
-103.45458984375
-111.6943359375
-127.25830078125
-124.51171875
-111.6943359375
-100.7080078125
-97.96142578125
-77.81982421875
-82.3974609375
-94.29931640625
-103.45458984375
-107.11669921875
-108.0322265625
-86.0595703125
-71.4111328125
-78.7353515625
-86.97509765625
-75.98876953125
-83.31298828125
-94.29931640625
-85.14404296875
-80.56640625
-101.62353515625
-86.97509765625
-68.66455078125
-56.7626953125
-52.18505859375
-37.53662109375
-43.9453125
-47.607421875
-51.26953125
-57.67822265625
-68.66455078125
-75.98876953125
-59.50927734375
-58.59375
-62.255859375
-54.01611328125
-68.66455078125
-80.56640625
-53.1005859375
-24.71923828125
-36.62109375
-32.04345703125
-13.73291015625
2.74658203125
4.57763671875
16.4794921875
4.57763671875
-6.40869140625
0.91552734375
14.6484375
-3.662109375
5.4931640625
19.22607421875
28.38134765625
37.53662109375
45.7763671875
61.34033203125
60.4248046875
53.1005859375
55.84716796875
51.26953125
51.26953125
69.580078125
80.56640625
96.13037109375
119.0185546875
117.1875
112.60986328125
119.93408203125
118.10302734375
101.62353515625
112.60986328125
129.08935546875
138.24462890625
147.39990234375
183.10546875
173.03466796875
170.2880859375
192.2607421875
191.34521484375
182.18994140625
197.75390625
222.47314453125
241.69921875
246.27685546875
251.77001953125
248.10791015625
241.69921875
220.64208984375
211.48681640625
198.66943359375
216.97998046875
238.95263671875
249.0234375
249.93896484375
269.1650390625
260.009765625
245.361328125
238.037109375
225.2197265625
218.81103515625
217.8955078125
219.7265625
216.064453125
209.65576171875
209.65576171875
176.69677734375
146.484375
137.3291015625
124.51171875
95.21484375
84.228515625
81.48193359375
80.56640625
65.91796875
62.255859375
35.70556640625
4.57763671875
-10.986328125
-29.296875
-51.26953125
-54.931640625
-61.34033203125
-79.65087890625
-86.97509765625
-66.83349609375
-74.15771484375
-90.63720703125
-107.11669921875
-107.11669921875
-121.76513671875
-122.6806640625
-119.0185546875
-121.76513671875
-119.93408203125
-99.79248046875
-90.63720703125
-99.79248046875
-113.525390625
-126.3427734375
-145.56884765625
-141.90673828125
-135.498046875
-135.498046875
-144.6533203125
-122.6806640625
-115.3564453125
-137.3291015625
-143.73779296875
-149.23095703125
-172.119140625
-159.3017578125
-132.75146484375
-137.3291015625
-123.59619140625
-107.11669921875
-104.3701171875
-121.76513671875
-138.24462890625
-139.16015625
-141.90673828125
-139.16015625
-125.42724609375
-120.849609375
-117.1875
-93.3837890625
-84.228515625
-99.79248046875
-112.60986328125
-116.27197265625
-126.3427734375
-126.3427734375
-112.60986328125
-101.62353515625
-102.5390625
-94.29931640625
-112.60986328125
-124.51171875
-119.93408203125
-125.42724609375
-141.90673828125
-137.3291015625
-122.6806640625
-120.849609375
-108.94775390625
-96.13037109375
-110.77880859375
-121.76513671875
-129.08935546875
-138.24462890625
-152.89306640625
-151.9775390625
-131.8359375
-129.08935546875
-129.08935546875
-118.10302734375
-127.25830078125
-132.75146484375
-138.24462890625
-146.484375
-152.89306640625
-169.37255859375
-154.72412109375
-149.23095703125
-141.90673828125
-119.93408203125
-119.0185546875
-135.498046875
-133.6669921875
-141.90673828125
-160.21728515625
-149.23095703125
-140.9912109375
-141.90673828125
-146.484375
-129.08935546875
-136.41357421875
-141.90673828125
-140.9912109375
-152.89306640625
-171.20361328125
-173.03466796875
-161.1328125
-148.3154296875
-142.822265625
-128.173828125
-140.07568359375
-154.72412109375
-161.1328125
-169.37255859375
-182.18994140625
-175.78125
-159.3017578125
-152.89306640625
-147.39990234375
-136.41357421875
-137.3291015625
-142.822265625
-148.3154296875
-154.72412109375
-184.02099609375
-173.03466796875
-167.54150390625
-163.87939453125
-156.55517578125
-141.90673828125
-142.822265625
-156.55517578125
-154.72412109375
-149.23095703125
-162.04833984375
-157.470703125
-141.90673828125
-121.76513671875
-112.60986328125
-109.86328125
-116.27197265625
-136.41357421875
-150.146484375
-146.484375
-154.72412109375
-163.87939453125
-146.484375
-125.42724609375
-97.96142578125
-70.49560546875
-79.65087890625
-85.14404296875
-84.228515625
-87.890625
-122.6806640625
-125.42724609375
-101.62353515625
-97.96142578125
-108.94775390625
-104.3701171875
-108.94775390625
-121.76513671875
-120.849609375
-118.10302734375
-127.25830078125
-118.10302734375
-109.86328125
-116.27197265625
-125.42724609375
-123.59619140625
-127.25830078125
-148.3154296875
-160.21728515625
-164.794921875
-192.2607421875
-202.33154296875
-184.9365234375
-188.5986328125
-186.767578125
-172.119140625
-173.9501953125
-189.51416015625
-188.5986328125
-187.68310546875
-216.97998046875
-210.5712890625
-194.091796875
-195.00732421875
-195.9228515625
-176.69677734375
-183.10546875
-187.68310546875
-195.00732421875
-208.740234375
-239.8681640625
-245.361328125
-223.388671875
-216.064453125
-202.33154296875
-173.03466796875
-173.9501953125
-196.83837890625
-186.767578125
-182.18994140625
-192.2607421875
-180.35888671875
-174.86572265625
-158.38623046875
-148.3154296875
-126.3427734375
-116.27197265625
-87.890625
-64.0869140625
-22.88818359375
18.310546875
97.96142578125
203.2470703125
313.1103515625
411.9873046875
509.033203125
587.7685546875
627.13623046875
673.828125
730.5908203125
737.9150390625
714.111328125
629.8828125
482.48291015625
267.333984375
-57.67822265625
-357.97119140625
-531.92138671875
-606.99462890625
-639.0380859375
-703.125
-715.9423828125
-700.37841796875
-671.9970703125
-649.10888671875
-611.572265625
-570.37353515625
-543.8232421875
-502.62451171875
-452.2705078125
-397.3388671875
-330.50537109375
-265.5029296875
-217.8955078125
-186.767578125
-158.38623046875
-144.6533203125
-142.822265625
-143.73779296875
-138.24462890625
-151.06201171875
-141.90673828125
-113.525390625
-117.1875
-118.10302734375
-90.63720703125
-93.3837890625
-108.94775390625
-110.77880859375
-119.93408203125
-133.6669921875
-118.10302734375
-93.3837890625
-94.29931640625
-81.48193359375
-54.931640625
-65.00244140625
-80.56640625
-97.96142578125
-103.45458984375
-111.6943359375
-104.3701171875
-80.56640625
-70.49560546875
-63.17138671875
-51.26953125
-50.35400390625
-64.0869140625
-74.15771484375
-69.580078125
-95.21484375
-102.5390625
-69.580078125
-63.17138671875
-54.931640625
-26.55029296875
-36.62109375
-68.66455078125
-72.32666015625
-64.0869140625
-70.49560546875
-48.52294921875
-27.4658203125
-26.55029296875
-34.7900390625
-15.56396484375
-16.4794921875
-35.70556640625
-54.931640625
-55.84716796875
-60.4248046875
-36.62109375
-10.986328125
1.8310546875
16.4794921875
34.7900390625
29.296875
12.8173828125
9.1552734375
6.40869140625
1.8310546875
4.57763671875
21.97265625
20.1416015625
18.310546875
34.7900390625
44.86083984375
44.86083984375
46.69189453125
53.1005859375
44.86083984375
70.49560546875
92.46826171875
86.97509765625
95.21484375
114.44091796875
108.0322265625
88.80615234375
98.876953125
101.62353515625
78.7353515625
101.62353515625
134.58251953125
147.39990234375
152.89306640625
173.03466796875
187.68310546875
185.85205078125
179.443359375
186.767578125
174.86572265625
183.10546875
203.2470703125
214.2333984375
221.5576171875
244.44580078125
248.10791015625
244.44580078125
240.78369140625
237.12158203125
227.05078125
231.62841796875
244.44580078125
249.93896484375
264.58740234375
285.64453125
281.06689453125
279.23583984375
269.1650390625
264.58740234375
248.10791015625
244.44580078125
259.09423828125
254.5166015625
260.92529296875
263.671875
251.77001953125
222.47314453125
210.5712890625
190.4296875
150.146484375
136.41357421875
129.08935546875
116.27197265625
98.876953125
97.0458984375
82.3974609375
54.931640625
34.7900390625
12.8173828125
-16.4794921875
-38.4521484375
-29.296875
-18.310546875
-23.8037109375
-22.88818359375
-33.87451171875
-48.52294921875
-61.34033203125
-75.98876953125
-107.11669921875
-106.201171875
-97.96142578125
-91.552734375
-99.79248046875
-93.3837890625
-92.46826171875
-110.77880859375
-110.77880859375
-114.44091796875
-113.525390625
-118.10302734375
-120.849609375
-124.51171875
-108.94775390625
-88.80615234375
-75.98876953125
-87.890625
-108.94775390625
-116.27197265625
-134.58251953125
-140.07568359375
-114.44091796875
-108.0322265625
-115.3564453125
-105.28564453125
-130.0048828125
-134.58251953125
-119.93408203125
-116.27197265625
-146.484375
-141.90673828125
-108.0322265625
-98.876953125
-98.876953125
-82.3974609375
-88.80615234375
-104.3701171875
-114.44091796875
-112.60986328125
-121.76513671875
-115.3564453125
-97.96142578125
-83.31298828125
-79.65087890625
-70.49560546875
-79.65087890625
-96.13037109375
-102.5390625
-104.3701171875
-121.76513671875
-118.10302734375
-93.3837890625
-91.552734375
-94.29931640625
-78.7353515625
-78.7353515625
-103.45458984375
-102.5390625
-102.5390625
-117.1875
-108.0322265625
-93.3837890625
-92.46826171875
-99.79248046875
-94.29931640625
-108.0322265625
-119.93408203125
-123.59619140625
-118.10302734375
-122.6806640625
-116.27197265625
-115.3564453125
-115.3564453125
-108.0322265625
-99.79248046875
-104.3701171875
-119.0185546875
-132.75146484375
-137.3291015625
-153.80859375
-145.56884765625
-129.08935546875
-136.41357421875
-147.39990234375
-130.0048828125
-117.1875
-129.08935546875
-148.3154296875
-136.41357421875
-135.498046875
-138.24462890625
-136.41357421875
-130.92041015625
-120.849609375
-108.94775390625
-121.76513671875
-134.58251953125
-134.58251953125
-128.173828125
-135.498046875
-131.8359375
-114.44091796875
-106.201171875
-125.42724609375
-116.27197265625
-126.3427734375
-148.3154296875
-163.87939453125
-160.21728515625
-173.03466796875
-170.2880859375
-151.06201171875
-137.3291015625
-124.51171875
-109.86328125
-122.6806640625
-148.3154296875
-145.56884765625
-146.484375
-178.52783203125
-177.6123046875
-158.38623046875
-150.146484375
-139.16015625
-136.41357421875
-135.498046875
-141.90673828125
-139.16015625
-140.07568359375
-148.3154296875
-148.3154296875
-138.24462890625
-126.3427734375
-123.59619140625
-113.525390625
-118.10302734375
-141.90673828125
-147.39990234375
-158.38623046875
-161.1328125
-150.146484375
-150.146484375
-145.56884765625
-137.3291015625
-121.76513671875
-128.173828125
-132.75146484375
-148.3154296875
-147.39990234375
-168.45703125
-161.1328125
-141.90673828125
-133.6669921875
-153.80859375
-157.470703125
-141.90673828125
-151.06201171875
-161.1328125
-154.72412109375
-167.54150390625
-176.69677734375
-162.9638671875
-145.56884765625
-133.6669921875
-108.94775390625
-104.3701171875
-108.0322265625
-118.10302734375
-109.86328125
-125.42724609375
-130.92041015625
-116.27197265625
-90.63720703125
-71.4111328125
-54.931640625
-64.0869140625
-75.0732421875
-74.15771484375
-82.3974609375
-88.80615234375
-82.3974609375
-70.49560546875
-65.00244140625
-76.904296875
-65.00244140625
-67.7490234375
-96.13037109375
-106.201171875
-115.3564453125
-130.92041015625
-122.6806640625
-102.5390625
-90.63720703125
-98.876953125
-96.13037109375
-97.96142578125
-114.44091796875
-133.6669921875
-135.498046875
-152.89306640625
-151.06201171875
-151.9775390625
-179.443359375
-189.51416015625
-173.03466796875
-173.03466796875
-173.9501953125
-175.78125
-185.85205078125
-197.75390625
-184.9365234375
-175.78125
-183.10546875
-183.10546875
-164.794921875
-161.1328125
-176.69677734375
-190.4296875
-180.35888671875
-185.85205078125
-177.6123046875
-169.37255859375
-167.54150390625
-173.03466796875
-147.39990234375
-156.55517578125
-167.54150390625
-174.86572265625
-182.18994140625
-208.740234375
-203.2470703125
-182.18994140625
-181.2744140625
-176.69677734375
-153.80859375
-151.06201171875
-160.21728515625
-160.21728515625
-143.73779296875
-141.90673828125
-114.44091796875
-63.17138671875
-18.310546875
38.4521484375
141.90673828125
260.92529296875
384.521484375
461.42578125
567.626953125
660.09521484375
729.67529296875
805.6640625
848.69384765625
850.52490234375
838.623046875
731.50634765625
563.96484375
341.49169921875
-17.39501953125
-347.900390625
-538.330078125
-604.248046875
-639.95361328125
-680.23681640625
-694.88525390625
-702.20947265625
-687.56103515625
-650.0244140625
-600.5859375
-547.4853515625
-461.42578125
-361.63330078125
-298.4619140625
-242.61474609375
-192.2607421875
-170.2880859375
-175.78125
-167.54150390625
-157.470703125
-161.1328125
-142.822265625
-129.08935546875
-127.25830078125
-119.93408203125
-91.552734375
-87.890625
-104.3701171875
-118.10302734375
-109.86328125
-108.94775390625
-108.0322265625
-94.29931640625
-92.46826171875
-97.96142578125
-76.904296875
-74.15771484375
-84.228515625
-80.56640625
-79.65087890625
-82.3974609375
-75.0732421875
-63.17138671875
-62.255859375
-58.59375
-62.255859375
-61.34033203125
-58.59375
-74.15771484375
-74.15771484375
-75.98876953125
-72.32666015625
-54.01611328125
-43.9453125
-49.4384765625
-33.87451171875
-34.7900390625
-44.86083984375
-47.607421875
-43.02978515625
-57.67822265625
-66.83349609375
-59.50927734375
-53.1005859375
-37.53662109375
-8.23974609375
-10.986328125
-30.21240234375
-43.9453125
-43.9453125
-49.4384765625
-45.7763671875
-23.8037109375
-15.56396484375
-8.23974609375
12.8173828125
13.73291015625
18.310546875
3.662109375
-0.91552734375
-15.56396484375
-12.8173828125
16.4794921875
25.634765625
31.1279296875
29.296875
29.296875
27.4658203125
35.70556640625
32.958984375
24.71923828125
38.4521484375
55.84716796875
69.580078125
71.4111328125
85.14404296875
92.46826171875
92.46826171875
89.7216796875
89.7216796875
88.80615234375
104.3701171875
128.173828125
116.27197265625
116.27197265625
139.16015625
150.146484375
146.484375
142.822265625
140.9912109375
130.92041015625
150.146484375
173.9501953125
189.51416015625
205.078125
215.14892578125
214.2333984375
209.65576171875
222.47314453125
220.64208984375
206.9091796875
209.65576171875
236.2060546875
242.61474609375
243.5302734375
265.5029296875
269.1650390625
270.08056640625
268.24951171875
264.58740234375
255.43212890625
264.58740234375
272.8271484375
262.75634765625
270.08056640625
286.56005859375
279.23583984375
270.08056640625
264.58740234375
253.60107421875
227.96630859375
222.47314453125
225.2197265625
210.5712890625
205.078125
200.50048828125
177.6123046875
147.39990234375
137.3291015625
122.6806640625
95.21484375
80.56640625
86.97509765625
80.56640625
54.01611328125
30.21240234375
24.71923828125
10.986328125
7.32421875
4.57763671875
-19.22607421875
-32.04345703125
-27.4658203125
-39.36767578125
-50.35400390625
-40.283203125
-52.18505859375
-70.49560546875
-73.2421875
-80.56640625
-96.13037109375
-105.28564453125
-97.0458984375
-92.46826171875
-88.80615234375
-69.580078125
-79.65087890625
-89.7216796875
-102.5390625
-110.77880859375
-123.59619140625
-132.75146484375
-108.94775390625
-98.876953125
-96.13037109375
-76.904296875
-74.15771484375
-82.3974609375
-87.890625
-88.80615234375
-103.45458984375
-103.45458984375
-93.3837890625
-90.63720703125
-86.97509765625
-74.15771484375
-83.31298828125
-100.7080078125
-89.7216796875
-93.3837890625
-99.79248046875
-91.552734375
-77.81982421875
-75.0732421875
-80.56640625
-74.15771484375
-75.0732421875
-86.0595703125
-87.890625
-81.48193359375
-99.79248046875
-88.80615234375
-76.904296875
-78.7353515625
-90.63720703125
-67.7490234375
-72.32666015625
-83.31298828125
-87.890625
-94.29931640625
-101.62353515625
-102.5390625
-95.21484375
-99.79248046875
-90.63720703125
-70.49560546875
-66.83349609375
-89.7216796875
-122.6806640625
-130.92041015625
-136.41357421875
-134.58251953125
-111.6943359375
-97.0458984375
-84.228515625
-70.49560546875
-71.4111328125
-89.7216796875
-96.13037109375
-101.62353515625
-106.201171875
-110.77880859375
-96.13037109375
-94.29931640625
-97.0458984375
-84.228515625
-86.97509765625
-97.96142578125
-103.45458984375
-102.5390625
-117.1875
-117.1875
-107.11669921875
-97.96142578125
-107.11669921875
-95.21484375
-97.96142578125
-105.28564453125
-112.60986328125
-117.1875
-132.75146484375
-135.498046875
-127.25830078125
-131.8359375
-130.0048828125
-111.6943359375
-124.51171875
-143.73779296875
-138.24462890625
-145.56884765625
-162.04833984375
-147.39990234375
-124.51171875
-117.1875
-116.27197265625
-132.75146484375
-131.8359375
-123.59619140625
-137.3291015625
-147.39990234375
-170.2880859375
-163.87939453125
-147.39990234375
-135.498046875
-130.92041015625
-109.86328125
-112.60986328125
-124.51171875
-121.76513671875
-111.6943359375
-130.0048828125
-128.173828125
-101.62353515625
-101.62353515625
-103.45458984375
-87.890625
-88.80615234375
-99.79248046875
-100.7080078125
-124.51171875
-138.24462890625
-130.0048828125
-121.76513671875
-108.0322265625
-108.0322265625
-103.45458984375
-108.0322265625
-130.0048828125
-132.75146484375
-122.6806640625
-142.822265625
-133.6669921875
-124.51171875
-117.1875
-125.42724609375
-119.93408203125
-121.76513671875
-132.75146484375
-131.8359375
-124.51171875
-130.0048828125
-120.849609375
-111.6943359375
-113.525390625
-124.51171875
-115.3564453125
-128.173828125
-155.6396484375
-152.89306640625
-135.498046875
-132.75146484375
-119.93408203125
-100.7080078125
-107.11669921875
-108.0322265625
-97.96142578125
-108.0322265625
-119.0185546875
-123.59619140625
-127.25830078125
-144.6533203125
-148.3154296875
-126.3427734375
-120.849609375
-124.51171875
-114.44091796875
-109.86328125
-125.42724609375
-121.76513671875
-105.28564453125
-115.3564453125
-128.173828125
-123.59619140625
-120.849609375
-120.849609375
-98.876953125
-106.201171875
-130.0048828125
-131.8359375
-125.42724609375
-124.51171875
-118.10302734375
-99.79248046875
-93.3837890625
-92.46826171875
-86.0595703125
-89.7216796875
-96.13037109375
-97.0458984375
-94.29931640625
-110.77880859375
-104.3701171875
-88.80615234375
-77.81982421875
-62.255859375
-46.69189453125
-38.4521484375
-50.35400390625
-58.59375
-74.15771484375
-97.0458984375
-97.96142578125
-81.48193359375
-75.0732421875
-88.80615234375
-74.15771484375
-79.65087890625
-97.0458984375
-99.79248046875
-108.0322265625
-122.6806640625
-121.76513671875
-119.0185546875
-123.59619140625
-108.0322265625
-107.11669921875
-115.3564453125
-112.60986328125
-120.849609375
-143.73779296875
-176.69677734375
-176.69677734375
-161.1328125
-153.80859375
-148.3154296875
-130.0048828125
-135.498046875
-144.6533203125
-144.6533203125
-150.146484375
-166.6259765625
-146.484375
-123.59619140625
-130.92041015625
-131.8359375
-110.77880859375
-110.77880859375
-139.16015625
-147.39990234375
-156.55517578125
-159.3017578125
-151.06201171875
-128.173828125
-116.27197265625
-127.25830078125
-111.6943359375
-118.10302734375
-132.75146484375
-142.822265625
-141.90673828125
-154.72412109375
-158.38623046875
-135.498046875
-137.3291015625
-125.42724609375
-106.201171875
-88.80615234375
-59.50927734375
-20.1416015625
28.38134765625
79.65087890625
176.69677734375
308.53271484375
428.466796875
534.66796875
659.1796875
735.16845703125
789.1845703125
823.974609375
858.7646484375
855.1025390625
832.21435546875
709.53369140625
543.8232421875
272.8271484375
-89.7216796875
-384.521484375
-552.06298828125
-609.7412109375
-645.44677734375
-687.56103515625
-691.22314453125
-652.77099609375
-603.33251953125
-568.54248046875
-509.94873046875
-455.01708984375
-417.48046875
-358.88671875
-281.06689453125
-238.95263671875
-190.4296875
-149.23095703125
-118.10302734375
-106.201171875
-80.56640625
-76.904296875
-89.7216796875
-97.0458984375
-100.7080078125
-106.201171875
-103.45458984375
-86.97509765625
-84.228515625
-91.552734375
-71.4111328125
-65.00244140625
-82.3974609375
-81.48193359375
-80.56640625
-87.890625
-85.14404296875
-65.00244140625
-53.1005859375
-50.35400390625
-21.05712890625
-21.05712890625
-55.84716796875
-70.49560546875
-72.32666015625
-75.0732421875
-68.66455078125
-53.1005859375
-38.4521484375
-32.04345703125
-20.1416015625
-21.97265625
-26.55029296875
-39.36767578125
-32.04345703125
-50.35400390625
-57.67822265625
-35.70556640625
-39.36767578125
-40.283203125
-14.6484375
-3.662109375
-19.22607421875
-16.4794921875
-18.310546875
-38.4521484375
-40.283203125
-7.32421875
3.662109375
5.4931640625
20.1416015625
21.05712890625
10.07080078125
-5.4931640625
-4.57763671875
-2.74658203125
1.8310546875
0.91552734375
-6.40869140625
9.1552734375
23.8037109375
19.22607421875
12.8173828125
23.8037109375
21.05712890625
6.40869140625
25.634765625
43.02978515625
51.26953125
62.255859375
74.15771484375
77.81982421875
70.49560546875
76.904296875
78.7353515625
78.7353515625
86.97509765625
104.3701171875
111.6943359375
106.201171875
106.201171875
114.44091796875
117.1875
116.27197265625
123.59619140625
130.0048828125
141.90673828125
170.2880859375
171.20361328125
173.03466796875
194.091796875
187.68310546875
182.18994140625
177.6123046875
190.4296875
195.00732421875
195.00732421875
202.33154296875
218.81103515625
224.30419921875
237.12158203125
239.8681640625
242.61474609375
249.0234375
246.27685546875
224.30419921875
235.29052734375
265.5029296875
279.23583984375
292.05322265625
299.37744140625
290.22216796875
276.4892578125
275.57373046875
275.57373046875
256.34765625
257.26318359375
267.333984375
265.5029296875
257.26318359375
266.41845703125
265.5029296875
246.27685546875
230.712890625
216.064453125
205.99365234375
189.51416015625
189.51416015625
182.18994140625
161.1328125
159.3017578125
154.72412109375
123.59619140625
97.96142578125
77.81982421875
49.4384765625
45.7763671875
36.62109375
32.958984375
27.4658203125
31.1279296875
8.23974609375
-18.310546875
-36.62109375
-55.84716796875
-62.255859375
-62.255859375
-55.84716796875
-57.67822265625
-77.81982421875
-72.32666015625
-71.4111328125
-97.0458984375
-112.60986328125
-102.5390625
-102.5390625
-105.28564453125
-96.13037109375
-84.228515625
-86.0595703125
-69.580078125
-67.7490234375
-90.63720703125
-95.21484375
-97.0458984375
-104.3701171875
-109.86328125
-104.3701171875
-93.3837890625
-87.890625
-74.15771484375
-72.32666015625
-82.3974609375
-86.97509765625
-90.63720703125
-99.79248046875
-102.5390625
-90.63720703125
-86.97509765625
-84.228515625
-77.81982421875
-85.14404296875
-95.21484375
-92.46826171875
-93.3837890625
-95.21484375
-96.13037109375
-90.63720703125
-90.63720703125
-92.46826171875
-75.0732421875
-64.0869140625
-75.98876953125
-85.14404296875
-80.56640625
-104.3701171875
-119.0185546875
-97.0458984375
-82.3974609375
-75.98876953125
-62.255859375
-63.17138671875
-69.580078125
-69.580078125
-76.904296875
-102.5390625
-99.79248046875
-83.31298828125
-88.80615234375
-93.3837890625
-76.904296875
-80.56640625
-88.80615234375
-86.97509765625
-75.98876953125
-101.62353515625
-109.86328125
-94.29931640625
-96.13037109375
-105.28564453125
-87.890625
-76.904296875
-90.63720703125
-96.13037109375
-98.876953125
-117.1875
-125.42724609375
-114.44091796875
-99.79248046875
-93.3837890625
-87.890625
-94.29931640625
-105.28564453125
-113.525390625
-124.51171875
-135.498046875
-128.173828125
-132.75146484375
-138.24462890625
-140.07568359375
-112.60986328125
-109.86328125
-124.51171875
-143.73779296875
-148.3154296875
-157.470703125
-148.3154296875
-139.16015625
-144.6533203125
-145.56884765625
-129.08935546875
-122.6806640625
-119.0185546875
-108.94775390625
-120.849609375
-134.58251953125
-132.75146484375
-109.86328125
-97.96142578125
-97.0458984375
-92.46826171875
-93.3837890625
-110.77880859375
-113.525390625
-119.93408203125
-137.3291015625
-138.24462890625
-133.6669921875
-119.93408203125
-114.44091796875
-102.5390625
-95.21484375
-115.3564453125
-142.822265625
-157.470703125
-165.71044921875
-162.04833984375
-159.3017578125
-153.80859375
-143.73779296875
-120.849609375
-112.60986328125
-114.44091796875
-111.6943359375
-108.94775390625
-119.93408203125
-133.6669921875
-128.173828125
-122.6806640625
-134.58251953125
-128.173828125
-117.1875
-119.0185546875
-143.73779296875
-155.6396484375
-160.21728515625
-158.38623046875
-133.6669921875
-125.42724609375
-115.3564453125
-97.0458984375
-93.3837890625
-107.11669921875
-122.6806640625
-127.25830078125
-146.484375
-143.73779296875
-129.08935546875
-126.3427734375
-126.3427734375
-122.6806640625
-124.51171875
-134.58251953125
-147.39990234375
-143.73779296875
-143.73779296875
-156.55517578125
-140.9912109375
-140.07568359375
-139.16015625
-114.44091796875
-119.0185546875
-130.0048828125
-147.39990234375
-157.470703125
-187.68310546875
-188.5986328125
-160.21728515625
-147.39990234375
-140.07568359375
-118.10302734375
-108.94775390625
-117.1875
-128.173828125
-130.92041015625
-149.23095703125
-149.23095703125
-138.24462890625
-134.58251953125
-136.41357421875
-128.173828125
-130.0048828125
-137.3291015625
-130.0048828125
-133.6669921875
-147.39990234375
-141.90673828125
-114.44091796875
-108.94775390625
-122.6806640625
-109.86328125
-96.13037109375
-97.96142578125
-108.94775390625
-107.11669921875
-130.92041015625
-123.59619140625
-110.77880859375
-103.45458984375
-101.62353515625
-93.3837890625
-85.14404296875
-89.7216796875
-79.65087890625
-77.81982421875
-89.7216796875
-88.80615234375
-86.97509765625
-94.29931640625
-91.552734375
-80.56640625
-94.29931640625
-127.25830078125
-145.56884765625
-143.73779296875
-149.23095703125
-133.6669921875
-106.201171875
-116.27197265625
-121.76513671875
-103.45458984375
-91.552734375
-98.876953125
-113.525390625
-130.0048828125
-153.80859375
-166.6259765625
-139.16015625
-130.0048828125
-129.08935546875
-126.3427734375
-115.3564453125
-125.42724609375
-131.8359375
-144.6533203125
-156.55517578125
-148.3154296875
-137.3291015625
-133.6669921875
-137.3291015625
-118.10302734375
-114.44091796875
-132.75146484375
-130.92041015625
-149.23095703125
-161.1328125
-160.21728515625
-147.39990234375
-136.41357421875
-125.42724609375
-105.28564453125
-110.77880859375
-124.51171875
-134.58251953125
-154.72412109375
-166.6259765625
-167.54150390625
-142.822265625
-131.8359375
-130.0048828125
-112.60986328125
-110.77880859375
-96.13037109375
-67.7490234375
-37.53662109375
-2.74658203125
54.931640625
147.39990234375
265.5029296875
401.91650390625
523.681640625
596.923828125
669.25048828125
735.16845703125
778.1982421875
802.91748046875
832.21435546875
829.4677734375
717.7734375
560.302734375
366.2109375
32.958984375
-298.4619140625
-501.708984375
-579.52880859375
-616.14990234375
-635.3759765625
-642.7001953125
-635.3759765625
-626.220703125
-573.1201171875
-529.1748046875
-489.80712890625
-427.55126953125
-373.53515625
-315.85693359375
-251.77001953125
-190.4296875
-147.39990234375
-136.41357421875
-110.77880859375
-102.5390625
-107.11669921875
-96.13037109375
-89.7216796875
-108.0322265625
-92.46826171875
-71.4111328125
-69.580078125
-70.49560546875
-57.67822265625
-44.86083984375
-56.7626953125
-74.15771484375
-98.876953125
-117.1875
-99.79248046875
-73.2421875
-73.2421875
-63.17138671875
-37.53662109375
-30.21240234375
-35.70556640625
-52.18505859375
-52.18505859375
-55.84716796875
-47.607421875
-34.7900390625
-37.53662109375
-30.21240234375
-27.4658203125
-30.21240234375
-52.18505859375
-60.4248046875
-48.52294921875
-37.53662109375
-41.19873046875
-18.310546875
-1.8310546875
-3.662109375
0.91552734375
-6.40869140625
-17.39501953125
-21.05712890625
-21.97265625
-26.55029296875
-19.22607421875
-16.4794921875
-0.91552734375
7.32421875
21.05712890625
15.56396484375
20.1416015625
9.1552734375
1.8310546875
-2.74658203125
-7.32421875
9.1552734375
13.73291015625
25.634765625
44.86083984375
39.36767578125
30.21240234375
29.296875
35.70556640625
19.22607421875
10.986328125
30.21240234375
44.86083984375
49.4384765625
63.17138671875
59.50927734375
36.62109375
36.62109375
47.607421875
41.19873046875
50.35400390625
72.32666015625
79.65087890625
91.552734375
113.525390625
118.10302734375
108.0322265625
99.79248046875
102.5390625
112.60986328125
127.25830078125
153.80859375
171.20361328125
175.78125
191.34521484375
201.416015625
193.17626953125
191.34521484375
197.75390625
188.5986328125
191.34521484375
207.82470703125
221.5576171875
240.78369140625
248.10791015625
261.8408203125
261.8408203125
253.60107421875
252.685546875
245.361328125
245.361328125
260.009765625
269.1650390625
277.40478515625
293.88427734375
291.1376953125
278.3203125
270.99609375
277.40478515625
268.24951171875
265.5029296875
275.57373046875
283.8134765625
282.89794921875
294.7998046875
292.05322265625
264.58740234375
227.05078125
194.091796875
193.17626953125
193.17626953125
193.17626953125
192.2607421875
191.34521484375
191.34521484375
184.9365234375
153.80859375
120.849609375
105.28564453125
84.228515625
63.17138671875
63.17138671875
59.50927734375
48.52294921875
46.69189453125
24.71923828125
-0.91552734375
-10.07080078125
-29.296875
-48.52294921875
-47.607421875
-45.7763671875
-31.1279296875
-36.62109375
-33.87451171875
-38.4521484375
-54.931640625
-61.34033203125
-57.67822265625
-70.49560546875
-78.7353515625
-71.4111328125
-68.66455078125
-70.49560546875
-62.255859375
-53.1005859375
-69.580078125
-77.81982421875
-86.0595703125
-103.45458984375
-103.45458984375
-85.14404296875
-84.228515625
-82.3974609375
-74.15771484375
-69.580078125
-88.80615234375
-98.876953125
-94.29931640625
-107.11669921875
-119.93408203125
-117.1875
-119.0185546875
-106.201171875
-85.14404296875
-75.0732421875
-88.80615234375
-88.80615234375
-88.80615234375
-102.5390625
-98.876953125
-84.228515625
-71.4111328125
-68.66455078125
-51.26953125
-57.67822265625
-73.2421875
-89.7216796875
-92.46826171875
-102.5390625
-99.79248046875
-68.66455078125
-61.34033203125
-74.15771484375
-63.17138671875
-68.66455078125
-90.63720703125
-85.14404296875
-77.81982421875
-87.890625
-88.80615234375
-73.2421875
-70.49560546875
-75.0732421875
-65.91796875
-63.17138671875
-72.32666015625
-80.56640625
-82.3974609375
-100.7080078125
-97.0458984375
-85.14404296875
-80.56640625
-87.890625
-83.31298828125
-80.56640625
-91.552734375
-105.28564453125
-117.1875
-119.93408203125
-108.94775390625
-87.890625
-90.63720703125
-92.46826171875
-79.65087890625
-97.96142578125
-108.94775390625
-114.44091796875
-111.6943359375
-128.173828125
-139.16015625
-126.3427734375
-112.60986328125
-127.25830078125
-129.08935546875
-115.3564453125
-118.10302734375
-124.51171875
-132.75146484375
-144.6533203125
-140.9912109375
-137.3291015625
-123.59619140625
-115.3564453125
-105.28564453125
-101.62353515625
-116.27197265625
-114.44091796875
-124.51171875
-143.73779296875
-152.89306640625
-133.6669921875
-127.25830078125
-122.6806640625
-114.44091796875
-132.75146484375
-128.173828125
-129.08935546875
-129.08935546875
-137.3291015625
-130.92041015625
-105.28564453125
-107.11669921875
-112.60986328125
-96.13037109375
-99.79248046875
-119.93408203125
-122.6806640625
-129.08935546875
-146.484375
-142.822265625
-131.8359375
-133.6669921875
-140.07568359375
-125.42724609375
-119.0185546875
-135.498046875
-154.72412109375
-153.80859375
-154.72412109375
-152.89306640625
-136.41357421875
-129.08935546875
-129.08935546875
-122.6806640625
-115.3564453125
-140.07568359375
-153.80859375
-149.23095703125
-156.55517578125
-153.80859375
-137.3291015625
-138.24462890625
-135.498046875
-115.3564453125
-112.60986328125
-124.51171875
-128.173828125
-128.173828125
-141.90673828125
-149.23095703125
-137.3291015625
-139.16015625
-147.39990234375
-142.822265625
-132.75146484375
-139.16015625
-144.6533203125
-148.3154296875
-153.80859375
-165.71044921875
-169.37255859375
-153.80859375
-140.07568359375
-124.51171875
-117.1875
-130.92041015625
-138.24462890625
-160.21728515625
-156.55517578125
-142.822265625
-133.6669921875
-126.3427734375
-135.498046875
-127.25830078125
-130.92041015625
-141.90673828125
-134.58251953125
-123.59619140625
-129.08935546875
-128.173828125
-104.3701171875
-97.96142578125
-91.552734375
-74.15771484375
-83.31298828125
-98.876953125
-104.3701171875
-113.525390625
-133.6669921875
-140.9912109375
-121.76513671875
-108.0322265625
-86.0595703125
-62.255859375
-47.607421875
-66.83349609375
-81.48193359375
-91.552734375
-113.525390625
-117.1875
-111.6943359375
-109.86328125
-116.27197265625
-105.28564453125
-94.29931640625
-106.201171875
-114.44091796875
-119.0185546875
-123.59619140625
-113.525390625
-105.28564453125
-102.5390625
-111.6943359375
-126.3427734375
-134.58251953125
-163.87939453125
-171.20361328125
-172.119140625
-167.54150390625
-160.21728515625
-157.470703125
-153.80859375
-153.80859375
-138.24462890625
-136.41357421875
-150.146484375
-157.470703125
-168.45703125
-171.20361328125
-174.86572265625
-156.55517578125
-150.146484375
-138.24462890625
-119.0185546875
-112.60986328125
-129.08935546875
-135.498046875
-137.3291015625
-152.89306640625
-165.71044921875
-168.45703125
-171.20361328125
-170.2880859375
-148.3154296875
-135.498046875
-143.73779296875
-147.39990234375
-148.3154296875
-151.06201171875
-162.9638671875
-152.89306640625
-111.6943359375
-74.15771484375
-21.05712890625
20.1416015625
54.931640625
118.10302734375
228.8818359375
344.23828125
446.77734375
552.06298828125
642.7001953125
704.04052734375
747.98583984375
802.91748046875
834.9609375
806.57958984375
682.06787109375
518.1884765625
310.36376953125
-11.90185546875
-315.85693359375
-481.5673828125
-529.1748046875
-557.55615234375
-615.234375
-644.53125
-649.10888671875
-639.0380859375
-625.30517578125
-586.85302734375
-534.66796875
-476.98974609375
-401.0009765625
-343.32275390625
-296.630859375
-245.361328125
-211.48681640625
-195.00732421875
-188.5986328125
-162.04833984375
-133.6669921875
-119.93408203125
-97.96142578125
-82.3974609375
-83.31298828125
-87.890625
-92.46826171875
-108.94775390625
-131.8359375
-115.3564453125
-86.0595703125
-81.48193359375
-65.00244140625
-54.01611328125
-63.17138671875
-69.580078125
-75.0732421875
-94.29931640625
-95.21484375
-70.49560546875
-60.4248046875
-60.4248046875
-43.02978515625
-45.7763671875
-65.00244140625
-71.4111328125
-74.15771484375
-63.17138671875
-54.931640625
-34.7900390625
-26.55029296875
-15.56396484375
-0.91552734375
-10.986328125
-35.70556640625
-46.69189453125
-44.86083984375
-40.283203125
-44.86083984375
-30.21240234375
-19.22607421875
-20.1416015625
-5.4931640625
1.8310546875
-14.6484375
-18.310546875
-10.986328125
-28.38134765625
-52.18505859375
-24.71923828125
-2.74658203125
0.91552734375
11.90185546875
24.71923828125
12.8173828125
1.8310546875
0.91552734375
-5.4931640625
-10.07080078125
10.986328125
35.70556640625
37.53662109375
42.1142578125
40.283203125
31.1279296875
28.38134765625
30.21240234375
30.21240234375
31.1279296875
43.9453125
51.26953125
59.50927734375
65.91796875
97.0458984375
97.0458984375
97.96142578125
98.876953125
85.14404296875
86.97509765625
112.60986328125
127.25830078125
126.3427734375
131.8359375
140.9912109375
139.16015625
137.3291015625
145.56884765625
140.9912109375
137.3291015625
163.87939453125
178.52783203125
193.17626953125
204.16259765625
217.8955078125
218.81103515625
224.30419921875
226.13525390625
226.13525390625
228.8818359375
249.93896484375
258.1787109375
258.1787109375
268.24951171875
270.99609375
255.43212890625
263.671875
270.99609375
270.08056640625
280.1513671875
301.20849609375
310.36376953125
307.6171875
313.1103515625
313.1103515625
300.29296875
286.56005859375
282.89794921875
252.685546875
249.93896484375
266.41845703125
266.41845703125
254.5166015625
260.009765625
266.41845703125
244.44580078125
214.2333984375
191.34521484375
173.03466796875
157.470703125
150.146484375
137.3291015625
115.3564453125
112.60986328125
90.63720703125
72.32666015625
54.01611328125
48.52294921875
36.62109375
19.22607421875
10.07080078125
1.8310546875
-9.1552734375
-13.73291015625
-17.39501953125
-43.9453125
-55.84716796875
-59.50927734375
-73.2421875
-73.2421875
-59.50927734375
-58.59375
-64.0869140625
-54.01611328125
-47.607421875
-66.83349609375
-83.31298828125
-84.228515625
-95.21484375
-100.7080078125
-89.7216796875
-86.0595703125
-86.0595703125
-80.56640625
-70.49560546875
-87.890625
-105.28564453125
-115.3564453125
-124.51171875
-126.3427734375
-112.60986328125
-93.3837890625
-83.31298828125
-69.580078125
-68.66455078125
-89.7216796875
-101.62353515625
-117.1875
-127.25830078125
-119.93408203125
-93.3837890625
-84.228515625
-75.0732421875
-56.7626953125
-56.7626953125
-60.4248046875
-71.4111328125
-86.0595703125
-99.79248046875
-96.13037109375
-85.14404296875
-71.4111328125
-77.81982421875
-72.32666015625
-61.34033203125
-73.2421875
-80.56640625
-81.48193359375
-89.7216796875
-103.45458984375
-104.3701171875
-88.80615234375
-77.81982421875
-72.32666015625
-67.7490234375
-75.0732421875
-86.97509765625
-91.552734375
-101.62353515625
-106.201171875
-92.46826171875
-85.14404296875
-85.14404296875
-74.15771484375
-62.255859375
-81.48193359375
-97.96142578125
-107.11669921875
-126.3427734375
-129.08935546875
-102.5390625
-97.0458984375
-94.29931640625
-97.96142578125
-98.876953125
-122.6806640625
-135.498046875
-138.24462890625
-146.484375
-143.73779296875
-118.10302734375
-112.60986328125
-114.44091796875
-97.96142578125
-87.890625
-104.3701171875
-111.6943359375
-114.44091796875
-130.0048828125
-139.16015625
-123.59619140625
-122.6806640625
-120.849609375
-101.62353515625
-97.0458984375
-108.94775390625
-109.86328125
-124.51171875
-141.90673828125
-147.39990234375
-132.75146484375
-128.173828125
-126.3427734375
-114.44091796875
-108.94775390625
-124.51171875
-135.498046875
-141.90673828125
-146.484375
-147.39990234375
-132.75146484375
-132.75146484375
-128.173828125
-118.10302734375
-104.3701171875
-123.59619140625
-142.822265625
-162.9638671875
-177.6123046875
-187.68310546875
-158.38623046875
-147.39990234375
-135.498046875
-110.77880859375
-107.11669921875
-127.25830078125
-141.90673828125
-146.484375
-155.6396484375
-160.21728515625
-141.90673828125
-128.173828125
-116.27197265625
-93.3837890625
-93.3837890625
-114.44091796875
-134.58251953125
-149.23095703125
-171.20361328125
-159.3017578125
-141.90673828125
-145.56884765625
-131.8359375
-108.94775390625
-108.94775390625
-127.25830078125
-140.07568359375
-144.6533203125
-158.38623046875
-165.71044921875
-154.72412109375
-144.6533203125
-135.498046875
-122.6806640625
-121.76513671875
-140.07568359375
-141.90673828125
-136.41357421875
-139.16015625
-153.80859375
-147.39990234375
-137.3291015625
-134.58251953125
-124.51171875
-116.27197265625
-137.3291015625
-149.23095703125
-150.146484375
-148.3154296875
-144.6533203125
-130.0048828125
-118.10302734375
-121.76513671875
-119.93408203125
-117.1875
-140.9912109375
-152.89306640625
-143.73779296875
-148.3154296875
-149.23095703125
-141.90673828125
-131.8359375
-140.07568359375
-138.24462890625
-117.1875
-122.6806640625
-132.75146484375
-132.75146484375
-137.3291015625
-135.498046875
-126.3427734375
-129.08935546875
-127.25830078125
-112.60986328125
-100.7080078125
-106.201171875
-106.201171875
-104.3701171875
-109.86328125
-124.51171875
-128.173828125
-121.76513671875
-119.0185546875
-99.79248046875
-72.32666015625
-67.7490234375
-62.255859375
-68.66455078125
-84.228515625
-100.7080078125
-93.3837890625
-98.876953125
-107.11669921875
-103.45458984375
-102.5390625
-121.76513671875
-137.3291015625
-137.3291015625
-136.41357421875
-131.8359375
-118.10302734375
-111.6943359375
-106.201171875
-96.13037109375
-109.86328125
-132.75146484375
-145.56884765625
-140.9912109375
-151.9775390625
-159.3017578125
-155.6396484375
-169.37255859375
-169.37255859375
-158.38623046875
-156.55517578125
-167.54150390625
-173.9501953125
-169.37255859375
-173.9501953125
-171.20361328125
-162.04833984375
-143.73779296875
-136.41357421875
-125.42724609375
-120.849609375
-136.41357421875
-144.6533203125
-146.484375
-155.6396484375
-173.03466796875
-165.71044921875
-158.38623046875
-152.89306640625
-140.9912109375
-132.75146484375
-140.9912109375
-143.73779296875
-146.484375
-156.55517578125
-162.9638671875
-150.146484375
-135.498046875
-119.93408203125
-103.45458984375
-93.3837890625
-52.18505859375
-10.07080078125
37.53662109375
106.201171875
211.48681640625
339.66064453125
472.412109375
584.1064453125
693.05419921875
766.29638671875
802.91748046875
836.7919921875
854.18701171875
841.36962890625
757.14111328125
611.572265625
434.87548828125
118.10302734375
-220.64208984375
-462.34130859375
-590.51513671875
-635.3759765625
-668.3349609375
-702.20947265625
-708.6181640625
-661.92626953125
-606.99462890625
-565.7958984375
-495.30029296875
-439.453125
-374.45068359375
-303.955078125
-234.375
-193.17626953125
-169.37255859375
-131.8359375
-103.45458984375
-97.0458984375
-93.3837890625
-89.7216796875
-97.0458984375
-97.96142578125
-97.96142578125
-119.0185546875
-119.0185546875
-101.62353515625
-82.3974609375
-75.0732421875
-66.83349609375
-57.67822265625
-68.66455078125
-76.904296875
-71.4111328125
-69.580078125
-76.904296875
-65.00244140625
-48.52294921875
-47.607421875
-54.01611328125
-49.4384765625
-63.17138671875
-68.66455078125
-58.59375
-56.7626953125
-49.4384765625
-33.87451171875
-33.87451171875
-36.62109375
-21.97265625
-1.8310546875
-21.05712890625
-24.71923828125
-18.310546875
-26.55029296875
-50.35400390625
-44.86083984375
-32.04345703125
-31.1279296875
-4.57763671875
6.40869140625
-10.986328125
-21.05712890625
-7.32421875
-5.4931640625
-17.39501953125
-2.74658203125
11.90185546875
15.56396484375
21.97265625
18.310546875
-3.662109375
-7.32421875
-6.40869140625
-10.986328125
-12.8173828125
11.90185546875
30.21240234375
35.70556640625
36.62109375
44.86083984375
40.283203125
35.70556640625
42.1142578125
36.62109375
32.04345703125
54.931640625
72.32666015625
73.2421875
79.65087890625
96.13037109375
91.552734375
78.7353515625
68.66455078125
53.1005859375
56.7626953125
78.7353515625
107.11669921875
115.3564453125
127.25830078125
144.6533203125
143.73779296875
135.498046875
139.16015625
131.8359375
136.41357421875
156.55517578125
176.69677734375
201.416015625
204.16259765625
213.31787109375
209.65576171875
182.18994140625
186.767578125
195.9228515625
205.078125
229.79736328125
250.8544921875
262.75634765625
266.41845703125
268.24951171875
265.5029296875
270.99609375
274.658203125
273.74267578125
276.4892578125
293.88427734375
303.03955078125
307.6171875
315.85693359375
323.18115234375
303.955078125
296.630859375
284.72900390625
275.57373046875
270.99609375
283.8134765625
290.22216796875
293.88427734375
294.7998046875
292.05322265625
273.74267578125
245.361328125
220.64208984375
201.416015625
169.37255859375
174.86572265625
173.9501953125
168.45703125
163.87939453125
155.6396484375
126.3427734375
97.96142578125
85.14404296875
63.17138671875
36.62109375
23.8037109375
9.1552734375
21.97265625
27.4658203125
32.04345703125
1.8310546875
-21.97265625
-33.87451171875
-57.67822265625
-74.15771484375
-70.49560546875
-64.0869140625
-61.34033203125
-61.34033203125
-60.4248046875
-68.66455078125
-70.49560546875
-69.580078125
-86.97509765625
-111.6943359375
-93.3837890625
-83.31298828125
-83.31298828125
-71.4111328125
-48.52294921875
-65.00244140625
-85.14404296875
-95.21484375
-95.21484375
-100.7080078125
-94.29931640625
-97.0458984375
-86.97509765625
-72.32666015625
-61.34033203125
-64.0869140625
-91.552734375
-93.3837890625
-99.79248046875
-108.94775390625
-97.0458984375
-84.228515625
-76.904296875
-70.49560546875
-74.15771484375
-82.3974609375
-72.32666015625
-65.00244140625
-65.91796875
-70.49560546875
-56.7626953125
-53.1005859375
-57.67822265625
-46.69189453125
-41.19873046875
-60.4248046875
-73.2421875
-80.56640625
-82.3974609375
-84.228515625
-65.91796875
-75.0732421875
-82.3974609375
-70.49560546875
-56.7626953125
-65.91796875
-71.4111328125
-68.66455078125
-76.904296875
-89.7216796875
-84.228515625
-86.97509765625
-98.876953125
-98.876953125
-79.65087890625
-79.65087890625
-81.48193359375
-97.96142578125
-100.7080078125
-90.63720703125
-77.81982421875
-70.49560546875
-76.904296875
-88.80615234375
-78.7353515625
-84.228515625
-96.13037109375
-104.3701171875
-120.849609375
-124.51171875
-103.45458984375
-94.29931640625
-88.80615234375
-79.65087890625
-60.4248046875
-67.7490234375
-75.0732421875
-70.49560546875
-74.15771484375
-92.46826171875
-85.14404296875
-89.7216796875
-96.13037109375
-85.14404296875
-80.56640625
-99.79248046875
-106.201171875
-117.1875
-124.51171875
-135.498046875
-122.6806640625
-108.94775390625
-102.5390625
-89.7216796875
-76.904296875
-97.96142578125
-122.6806640625
-122.6806640625
-127.25830078125
-131.8359375
-124.51171875
-121.76513671875
-107.11669921875
-91.552734375
-93.3837890625
-104.3701171875
-107.11669921875
-111.6943359375
-122.6806640625
-130.92041015625
-132.75146484375
-125.42724609375
-105.28564453125
-97.96142578125
-109.86328125
-123.59619140625
-121.76513671875
-113.525390625
-118.10302734375
-118.10302734375
-106.201171875
-97.96142578125
-100.7080078125
-96.13037109375
-95.21484375
-116.27197265625
-119.0185546875
-123.59619140625
-127.25830078125
-135.498046875
-119.93408203125
-115.3564453125
-117.1875
-101.62353515625
-100.7080078125
-114.44091796875
-121.76513671875
-119.0185546875
-119.93408203125
-124.51171875
-111.6943359375
-118.10302734375
-124.51171875
-117.1875
-98.876953125
-104.3701171875
-113.525390625
-116.27197265625
-119.93408203125
-129.08935546875
-120.849609375
-120.849609375
-134.58251953125
-127.25830078125
-107.11669921875
-106.201171875
-119.0185546875
-122.6806640625
-122.6806640625
-138.24462890625
-117.1875
-107.11669921875
-100.7080078125
-91.552734375
-86.0595703125
-91.552734375
-104.3701171875
-105.28564453125
-107.11669921875
-111.6943359375
-105.28564453125
-105.28564453125
-112.60986328125
-99.79248046875
-104.3701171875
-122.6806640625
-122.6806640625
-119.93408203125
-126.3427734375
-140.07568359375
-124.51171875
-106.201171875
-104.3701171875
-97.0458984375
-87.890625
-96.13037109375
-99.79248046875
-97.96142578125
-106.201171875
-112.60986328125
-103.45458984375
-92.46826171875
-72.32666015625
-69.580078125
-67.7490234375
-95.21484375
-100.7080078125
-94.29931640625
-89.7216796875
-96.13037109375
-82.3974609375
-60.4248046875
-53.1005859375
-54.931640625
-54.931640625
-70.49560546875
-91.552734375
-94.29931640625
-93.3837890625
-97.96142578125
-78.7353515625
-86.0595703125
-83.31298828125
-65.91796875
-54.931640625
-72.32666015625
-75.98876953125
-70.49560546875
-75.0732421875
-87.890625
-87.890625
-86.0595703125
-93.3837890625
-92.46826171875
-92.46826171875
-119.0185546875
-126.3427734375
-129.08935546875
-132.75146484375
-149.23095703125
-143.73779296875
-134.58251953125
-138.24462890625
-126.3427734375
-119.93408203125
-143.73779296875
-149.23095703125
-139.16015625
-132.75146484375
-140.07568359375
-130.0048828125
-112.60986328125
-116.27197265625
-123.59619140625
-115.3564453125
-119.0185546875
-119.93408203125
-118.10302734375
-120.849609375
-133.6669921875
-124.51171875
-122.6806640625
-118.10302734375
-110.77880859375
-101.62353515625
-109.86328125
-108.94775390625
-103.45458984375
-109.86328125
-122.6806640625
-100.7080078125
-80.56640625
-48.52294921875
-2.74658203125
72.32666015625
127.25830078125
224.30419921875
357.0556640625
470.5810546875
552.978515625
667.41943359375
755.31005859375
817.56591796875
869.7509765625
917.3583984375
899.0478515625
819.39697265625
657.3486328125
475.15869140625
161.1328125
-178.52783203125
-422.9736328125
-550.23193359375
-583.19091796875
-606.99462890625
-657.3486328125
-684.814453125
-666.50390625
-626.220703125
-592.34619140625
-510.8642578125
-423.88916015625
-354.30908203125
-293.88427734375
-234.375
-204.16259765625
-190.4296875
-169.37255859375
-143.73779296875
-138.24462890625
-107.11669921875
-90.63720703125
-87.890625
-77.81982421875
-60.4248046875
-69.580078125
-71.4111328125
-67.7490234375
-68.66455078125
-75.98876953125
-62.255859375
-56.7626953125
-53.1005859375
-47.607421875
-35.70556640625
-56.7626953125
-76.904296875
-60.4248046875
-56.7626953125
-66.83349609375
-49.4384765625
-37.53662109375
-39.36767578125
-42.1142578125
-29.296875
-32.04345703125
-32.958984375
-33.87451171875
-49.4384765625
-70.49560546875
-64.0869140625
-51.26953125
-46.69189453125
-26.55029296875
-7.32421875
-17.39501953125
-32.958984375
-32.958984375
-34.7900390625
-51.26953125
-43.02978515625
-38.4521484375
-38.4521484375
-27.4658203125
-7.32421875
-4.57763671875
-3.662109375
4.57763671875
8.23974609375
2.74658203125
19.22607421875
26.55029296875
25.634765625
32.958984375
48.52294921875
28.38134765625
21.97265625
26.55029296875
21.97265625
11.90185546875
26.55029296875
44.86083984375
50.35400390625
48.52294921875
46.69189453125
32.958984375
32.04345703125
37.53662109375
30.21240234375
34.7900390625
62.255859375
81.48193359375
87.890625
97.0458984375
105.28564453125
95.21484375
80.56640625
76.904296875
89.7216796875
84.228515625
99.79248046875
124.51171875
136.41357421875
140.07568359375
158.38623046875
158.38623046875
160.21728515625
160.21728515625
154.72412109375
151.9775390625
164.794921875
182.18994140625
198.66943359375
202.33154296875
221.5576171875
221.5576171875
217.8955078125
222.47314453125
227.05078125
234.375
253.60107421875
260.009765625
273.74267578125
297.54638671875
314.94140625
312.19482421875
304.87060546875
301.20849609375
306.70166015625
300.29296875
310.36376953125
311.279296875
310.36376953125
316.7724609375
328.67431640625
314.94140625
299.37744140625
292.05322265625
277.40478515625
255.43212890625
260.92529296875
265.5029296875
249.93896484375
242.61474609375
251.77001953125
218.81103515625
175.78125
164.794921875
167.54150390625
132.75146484375
124.51171875
136.41357421875
130.92041015625
128.173828125
117.1875
79.65087890625
53.1005859375
32.04345703125
14.6484375
0
11.90185546875
10.07080078125
-5.4931640625
-12.8173828125
-16.4794921875
-34.7900390625
-43.02978515625
-49.4384765625
-69.580078125
-97.0458984375
-102.5390625
-90.63720703125
-76.904296875
-78.7353515625
-86.0595703125
-98.876953125
-98.876953125
-89.7216796875
-97.96142578125
-108.0322265625
-97.0458984375
-79.65087890625
-74.15771484375
-68.66455078125
-56.7626953125
-67.7490234375
-86.97509765625
-98.876953125
-96.13037109375
-97.0458984375
-87.890625
-82.3974609375
-74.15771484375
-73.2421875
-65.91796875
-78.7353515625
-91.552734375
-89.7216796875
-91.552734375
-108.94775390625
-100.7080078125
-95.21484375
-93.3837890625
-74.15771484375
-57.67822265625
-68.66455078125
-82.3974609375
-76.904296875
-74.15771484375
-87.890625
-80.56640625
-66.83349609375
-76.904296875
-72.32666015625
-59.50927734375
-71.4111328125
-78.7353515625
-75.0732421875
-73.2421875
-90.63720703125
-78.7353515625
-70.49560546875
-63.17138671875
-61.34033203125
-59.50927734375
-81.48193359375
-75.98876953125
-52.18505859375
-60.4248046875
-80.56640625
-68.66455078125
-71.4111328125
-84.228515625
-80.56640625
-69.580078125
-81.48193359375
-95.21484375
-104.3701171875
-118.10302734375
-129.08935546875
-114.44091796875
-86.97509765625
-77.81982421875
-78.7353515625
-66.83349609375
-73.2421875
-86.97509765625
-94.29931640625
-97.96142578125
-116.27197265625
-113.525390625
-105.28564453125
-109.86328125
-101.62353515625
-85.14404296875
-102.5390625
-122.6806640625
-112.60986328125
-109.86328125
-119.0185546875
-119.93408203125
-102.5390625
-91.552734375
-88.80615234375
-71.4111328125
-81.48193359375
-98.876953125
-99.79248046875
-103.45458984375
-125.42724609375
-115.3564453125
-110.77880859375
-103.45458984375
-99.79248046875
-88.80615234375
-97.96142578125
-110.77880859375
-123.59619140625
-125.42724609375
-135.498046875
-126.3427734375
-118.10302734375
-117.1875
-120.849609375
-110.77880859375
-113.525390625
-119.0185546875
-129.08935546875
-137.3291015625
-133.6669921875
-124.51171875
-117.1875
-101.62353515625
-96.13037109375
-87.890625
-113.525390625
-132.75146484375
-130.92041015625
-128.173828125
-140.9912109375
-129.08935546875
-120.849609375
-120.849609375
-114.44091796875
-104.3701171875
-111.6943359375
-116.27197265625
-122.6806640625
-135.498046875
-146.484375
-126.3427734375
-117.1875
-118.10302734375
-136.41357421875
-122.6806640625
-127.25830078125
-127.25830078125
-135.498046875
-144.6533203125
-151.9775390625
-139.16015625
-132.75146484375
-134.58251953125
-109.86328125
-103.45458984375
-114.44091796875
-128.173828125
-145.56884765625
-147.39990234375
-154.72412109375
-140.9912109375
-128.173828125
-130.0048828125
-117.1875
-92.46826171875
-101.62353515625
-111.6943359375
-117.1875
-114.44091796875
-124.51171875
-122.6806640625
-118.10302734375
-117.1875
-118.10302734375
-100.7080078125
-108.0322265625
-117.1875
-123.59619140625
-127.25830078125
-132.75146484375
-121.76513671875
-119.93408203125
-119.93408203125
-123.59619140625
-120.849609375
-123.59619140625
-135.498046875
-135.498046875
-145.56884765625
-160.21728515625
-140.07568359375
-116.27197265625
-114.44091796875
-97.0458984375
-81.48193359375
-86.97509765625
-97.0458984375
-101.62353515625
-109.86328125
-123.59619140625
-101.62353515625
-80.56640625
-72.32666015625
-67.7490234375
-66.83349609375
-69.580078125
-92.46826171875
-96.13037109375
-107.11669921875
-120.849609375
-125.42724609375
-121.76513671875
-99.79248046875
-80.56640625
-72.32666015625
-85.14404296875
-102.5390625
-102.5390625
-101.62353515625
-114.44091796875
-108.94775390625
-112.60986328125
-120.849609375
-113.525390625
-107.11669921875
-121.76513671875
-130.0048828125
-139.16015625
-150.146484375
-158.38623046875
-148.3154296875
-140.9912109375
-142.822265625
-140.07568359375
-130.92041015625
-140.07568359375
-146.484375
-141.90673828125
-143.73779296875
-171.20361328125
-157.470703125
-144.6533203125
-142.822265625
-130.0048828125
-112.60986328125
-119.93408203125
-133.6669921875
-138.24462890625
-141.90673828125
-162.9638671875
-157.470703125
-140.9912109375
-119.93408203125
-117.1875
-114.44091796875
-112.60986328125
-116.27197265625
-120.849609375
-127.25830078125
-135.498046875
-119.93408203125
-81.48193359375
-50.35400390625
-11.90185546875
50.35400390625
126.3427734375
246.27685546875
379.94384765625
477.9052734375
553.89404296875
653.6865234375
733.33740234375
791.015625
841.36962890625
877.0751953125
846.86279296875
722.35107421875
547.4853515625
329.58984375
-30.21240234375
-336.9140625
-497.13134765625
-552.978515625
-569.4580078125
-598.7548828125
-636.29150390625
-639.0380859375
-620.7275390625
-606.0791015625
-585.9375
-532.8369140625
-461.42578125
-384.521484375
-326.84326171875
-262.75634765625
-215.14892578125
-179.443359375
-150.146484375
-135.498046875
-139.16015625
-111.6943359375
-96.13037109375
-92.46826171875
-84.228515625
-58.59375
-59.50927734375
-69.580078125
-72.32666015625
-82.3974609375
-98.876953125
-81.48193359375
-68.66455078125
-58.59375
-48.52294921875
-40.283203125
-53.1005859375
-61.34033203125
-58.59375
-62.255859375
-68.66455078125
-67.7490234375
-65.91796875
-59.50927734375
-46.69189453125
-35.70556640625
-36.62109375
-36.62109375
-35.70556640625
-34.7900390625
-46.69189453125
-32.04345703125
-16.4794921875
-14.6484375
-22.88818359375
-4.57763671875
-16.4794921875
-32.958984375
-28.38134765625
-30.21240234375
-42.1142578125
-26.55029296875
-15.56396484375
-10.07080078125
6.40869140625
28.38134765625
24.71923828125
10.07080078125
0
0
2.74658203125
13.73291015625
23.8037109375
24.71923828125
29.296875
33.87451171875
20.1416015625
3.662109375
11.90185546875
14.6484375
14.6484375
17.39501953125
23.8037109375
33.87451171875
41.19873046875
56.7626953125
54.01611328125
50.35400390625
57.67822265625
53.1005859375
47.607421875
68.66455078125
82.3974609375
83.31298828125
78.7353515625
106.201171875
103.45458984375
83.31298828125
72.32666015625
74.15771484375
59.50927734375
86.0595703125
115.3564453125
135.498046875
159.3017578125
165.71044921875
151.06201171875
160.21728515625
166.6259765625
184.02099609375
185.85205078125
191.34521484375
208.740234375
221.5576171875
229.79736328125
254.5166015625
250.8544921875
247.1923828125
248.10791015625
249.0234375
241.69921875
239.8681640625
277.40478515625
284.72900390625
292.96875
294.7998046875
287.4755859375
291.1376953125
292.05322265625
287.4755859375
262.75634765625
274.658203125
296.630859375
302.1240234375
317.68798828125
335.99853515625
314.94140625
304.87060546875
303.03955078125
294.7998046875
265.5029296875
260.009765625
262.75634765625
234.375
225.2197265625
222.47314453125
214.2333984375
192.2607421875
180.35888671875
168.45703125
140.9912109375
130.92041015625
130.92041015625
118.10302734375
106.201171875
104.3701171875
63.17138671875
33.87451171875
9.1552734375
-12.8173828125
-36.62109375
-32.04345703125
-18.310546875
-8.23974609375
-4.57763671875
3.662109375
-13.73291015625
-36.62109375
-42.1142578125
-54.931640625
-70.49560546875
-64.0869140625
-56.7626953125
-67.7490234375
-77.81982421875
-66.83349609375
-79.65087890625
-75.0732421875
-77.81982421875
-85.14404296875
-109.86328125
-109.86328125
-100.7080078125
-99.79248046875
-91.552734375
-83.31298828125
-97.0458984375
-108.94775390625
-104.3701171875
-121.76513671875
-126.3427734375
-113.525390625
-94.29931640625
-90.63720703125
-82.3974609375
-65.91796875
-71.4111328125
-73.2421875
-87.890625
-91.552734375
-97.0458984375
-90.63720703125
-74.15771484375
-81.48193359375
-75.98876953125
-57.67822265625
-69.580078125
-74.15771484375
-58.59375
-63.17138671875
-84.228515625
-77.81982421875
-61.34033203125
-64.0869140625
-67.7490234375
-58.59375
-62.255859375
-71.4111328125
-69.580078125
-69.580078125
-84.228515625
-66.83349609375
-55.84716796875
-62.255859375
-70.49560546875
-64.0869140625
-66.83349609375
-81.48193359375
-91.552734375
-94.29931640625
-103.45458984375
-101.62353515625
-99.79248046875
-88.80615234375
-83.31298828125
-67.7490234375
-66.83349609375
-78.7353515625
-87.890625
-95.21484375
-113.525390625
-116.27197265625
-99.79248046875
-90.63720703125
-83.31298828125
-70.49560546875
-70.49560546875
-77.81982421875
-82.3974609375
-88.80615234375
-101.62353515625
-97.96142578125
-94.29931640625
-97.0458984375
-102.5390625
-97.96142578125
-109.86328125
-119.0185546875
-115.3564453125
-115.3564453125
-119.93408203125
-105.28564453125
-105.28564453125
-116.27197265625
-118.10302734375
-97.96142578125
-100.7080078125
-114.44091796875
-114.44091796875
-109.86328125
-132.75146484375
-150.146484375
-119.0185546875
-108.0322265625
-114.44091796875
-111.6943359375
-113.525390625
-110.77880859375
-101.62353515625
-97.0458984375
-108.0322265625
-108.94775390625
-105.28564453125
-99.79248046875
-86.97509765625
-79.65087890625
-89.7216796875
-97.0458984375
-112.60986328125
-124.51171875
-133.6669921875
-128.173828125
-114.44091796875
-112.60986328125
-131.8359375
-117.1875
-112.60986328125
-117.1875
-123.59619140625
-122.6806640625
-136.41357421875
-114.44091796875
-119.0185546875
-138.24462890625
-127.25830078125
-115.3564453125
-127.25830078125
-130.92041015625
-139.16015625
-136.41357421875
-148.3154296875
-142.822265625
-121.76513671875
-113.525390625
-116.27197265625
-101.62353515625
-90.63720703125
-105.28564453125
-111.6943359375
-127.25830078125
-161.1328125
-162.04833984375
-157.470703125
-136.41357421875
-123.59619140625
-105.28564453125
-108.94775390625
-111.6943359375
-117.1875
-113.525390625
-121.76513671875
-113.525390625
-107.11669921875
-112.60986328125
-105.28564453125
-88.80615234375
-95.21484375
-110.77880859375
-116.27197265625
-125.42724609375
-140.07568359375
-130.0048828125
-117.1875
-98.876953125
-90.63720703125
-85.14404296875
-101.62353515625
-110.77880859375
-99.79248046875
-106.201171875
-122.6806640625
-106.201171875
-79.65087890625
-69.580078125
-51.26953125
-32.958984375
-43.02978515625
-70.49560546875
-89.7216796875
-96.13037109375
-107.11669921875
-104.3701171875
-97.96142578125
-97.96142578125
-102.5390625
-91.552734375
-94.29931640625
-111.6943359375
-107.11669921875
-111.6943359375
-120.849609375
-90.63720703125
-91.552734375
-106.201171875
-100.7080078125
-93.3837890625
-99.79248046875
-115.3564453125
-130.0048828125
-131.8359375
-147.39990234375
-149.23095703125
-142.822265625
-139.16015625
-146.484375
-130.92041015625
-139.16015625
-154.72412109375
-163.87939453125
-169.37255859375
-167.54150390625
-141.90673828125
-126.3427734375
-120.849609375
-116.27197265625
-96.13037109375
-105.28564453125
-128.173828125
-149.23095703125
-153.80859375
-181.2744140625
-166.6259765625
-144.6533203125
-137.3291015625
-119.0185546875
-87.890625
-96.13037109375
-117.1875
-122.6806640625
-134.58251953125
-148.3154296875
-141.90673828125
-109.86328125
-81.48193359375
-42.1142578125
12.8173828125
66.83349609375
104.3701171875
171.20361328125
283.8134765625
394.59228515625
484.31396484375
597.83935546875
683.89892578125
750.732421875
802.91748046875
848.69384765625
847.7783203125
804.74853515625
675.6591796875
505.37109375
274.658203125
-55.84716796875
-335.99853515625
-498.96240234375
-534.66796875
-566.71142578125
-614.31884765625
-632.62939453125
-623.47412109375
-614.31884765625
-598.7548828125
-565.7958984375
-509.94873046875
-435.791015625
-356.14013671875
-303.955078125
-249.93896484375
-201.416015625
-184.9365234375
-176.69677734375
-148.3154296875
-120.849609375
-90.63720703125
-75.98876953125
-51.26953125
-54.01611328125
-73.2421875
-68.66455078125
-67.7490234375
-80.56640625
-61.34033203125
-42.1142578125
-39.36767578125
-33.87451171875
-15.56396484375
-31.1279296875
-45.7763671875
-44.86083984375
-36.62109375
-43.02978515625
-32.04345703125
-24.71923828125
-25.634765625
-21.05712890625
-5.4931640625
-10.07080078125
-32.04345703125
-40.283203125
-41.19873046875
-53.1005859375
-43.9453125
-28.38134765625
-23.8037109375
-1.8310546875
13.73291015625
-19.22607421875
-32.958984375
-22.88818359375
-21.97265625
-30.21240234375
-23.8037109375
-0.91552734375
7.32421875
3.662109375
18.310546875
21.97265625
8.23974609375
11.90185546875
11.90185546875
-8.23974609375
10.986328125
35.70556640625
43.02978515625
47.607421875
65.00244140625
53.1005859375
38.4521484375
46.69189453125
43.02978515625
9.1552734375
24.71923828125
42.1142578125
50.35400390625
59.50927734375
77.81982421875
78.7353515625
69.580078125
77.81982421875
69.580078125
54.931640625
73.2421875
97.0458984375
97.96142578125
93.3837890625
97.96142578125
97.96142578125
89.7216796875
94.29931640625
97.0458984375
91.552734375
101.62353515625
130.0048828125
149.23095703125
172.119140625
190.4296875
196.83837890625
191.34521484375
195.00732421875
194.091796875
178.52783203125
195.00732421875
212.40234375
206.9091796875
218.81103515625
232.5439453125
235.29052734375
239.8681640625
252.685546875
258.1787109375
248.10791015625
271.91162109375
280.1513671875
282.89794921875
292.05322265625
314.94140625
328.67431640625
325.927734375
318.603515625
317.68798828125
302.1240234375
316.7724609375
326.84326171875
327.7587890625
337.82958984375
363.46435546875
357.0556640625
339.66064453125
320.4345703125
300.29296875
282.89794921875
276.4892578125
286.56005859375
298.4619140625
305.7861328125
310.36376953125
299.37744140625
273.74267578125
245.361328125
224.30419921875
194.091796875
183.10546875
170.2880859375
150.146484375
130.0048828125
135.498046875
117.1875
77.81982421875
56.7626953125
32.958984375
3.662109375
-9.1552734375
-0.91552734375
0.91552734375
6.40869140625
11.90185546875
-1.8310546875
-14.6484375
-21.05712890625
-35.70556640625
-57.67822265625
-65.91796875
-56.7626953125
-54.01611328125
-67.7490234375
-54.931640625
-54.01611328125
-70.49560546875
-85.14404296875
-92.46826171875
-105.28564453125
-107.11669921875
-101.62353515625
-103.45458984375
-86.0595703125
-65.00244140625
-61.34033203125
-66.83349609375
-78.7353515625
-81.48193359375
-85.14404296875
-79.65087890625
-71.4111328125
-67.7490234375
-65.91796875
-43.02978515625
-44.86083984375
-61.34033203125
-64.0869140625
-69.580078125
-90.63720703125
-83.31298828125
-83.31298828125
-82.3974609375
-93.3837890625
-72.32666015625
-74.15771484375
-87.890625
-83.31298828125
-76.904296875
-87.890625
-76.904296875
-65.00244140625
-70.49560546875
-73.2421875
-59.50927734375
-65.00244140625
-86.97509765625
-88.80615234375
-83.31298828125
-90.63720703125
-83.31298828125
-62.255859375
-66.83349609375
-65.00244140625
-50.35400390625
-56.7626953125
-64.0869140625
-71.4111328125
-91.552734375
-110.77880859375
-93.3837890625
-69.580078125
-60.4248046875
-56.7626953125
-40.283203125
-50.35400390625
-65.00244140625
-69.580078125
-78.7353515625
-95.21484375
-86.0595703125
-64.0869140625
-59.50927734375
-69.580078125
-67.7490234375
-75.0732421875
-88.80615234375
-97.0458984375
-107.11669921875
-114.44091796875
-108.94775390625
-112.60986328125
-105.28564453125
-89.7216796875
-73.2421875
-74.15771484375
-102.5390625
-109.86328125
-122.6806640625
-151.9775390625
-154.72412109375
-119.93408203125
-98.876953125
-94.29931640625
-86.97509765625
-86.0595703125
-93.3837890625
-101.62353515625
-105.28564453125
-110.77880859375
-106.201171875
-97.0458984375
-108.94775390625
-121.76513671875
-100.7080078125
-90.63720703125
-105.28564453125
-108.0322265625
-109.86328125
-123.59619140625
-131.8359375
-125.42724609375
-118.10302734375
-119.93408203125
-115.3564453125
-124.51171875
-119.0185546875
-108.0322265625
-106.201171875
-117.1875
-112.60986328125
-116.27197265625
-117.1875
-108.94775390625
-93.3837890625
-94.29931640625
-116.27197265625
-119.93408203125
-135.498046875
-167.54150390625
-144.6533203125
-115.3564453125
-113.525390625
-99.79248046875
-83.31298828125
-95.21484375
-124.51171875
-125.42724609375
-121.76513671875
-142.822265625
-140.9912109375
-121.76513671875
-122.6806640625
-117.1875
-104.3701171875
-119.0185546875
-128.173828125
-135.498046875
-140.9912109375
-153.80859375
-149.23095703125
-125.42724609375
-114.44091796875
-109.86328125
-95.21484375
-98.876953125
-119.0185546875
-118.10302734375
-122.6806640625
-133.6669921875
-129.08935546875
-121.76513671875
-119.0185546875
-123.59619140625
-97.96142578125
-100.7080078125
-117.1875
-124.51171875
-129.08935546875
-150.146484375
-149.23095703125
-124.51171875
-115.3564453125
-106.201171875
-89.7216796875
-97.96142578125
-119.93408203125
-125.42724609375
-116.27197265625
-129.08935546875
-131.8359375
-126.3427734375
-120.849609375
-130.0048828125
-123.59619140625
-111.6943359375
-115.3564453125
-130.92041015625
-122.6806640625
-127.25830078125
-140.07568359375
-140.9912109375
-132.75146484375
-119.0185546875
-97.96142578125
-95.21484375
-107.11669921875
-107.11669921875
-94.29931640625
-106.201171875
-109.86328125
-86.0595703125
-80.56640625
-84.228515625
-76.904296875
-87.890625
-99.79248046875
-100.7080078125
-86.97509765625
-85.14404296875
-97.96142578125
-89.7216796875
-84.228515625
-86.97509765625
-75.0732421875
-74.15771484375
-96.13037109375
-107.11669921875
-100.7080078125
-116.27197265625
-124.51171875
-113.525390625
-99.79248046875
-83.31298828125
-63.17138671875
-62.255859375
-80.56640625
-100.7080078125
-113.525390625
-126.3427734375
-129.08935546875
-130.92041015625
-135.498046875
-139.16015625
-130.0048828125
-133.6669921875
-150.146484375
-161.1328125
-155.6396484375
-158.38623046875
-158.38623046875
-145.56884765625
-136.41357421875
-134.58251953125
-119.0185546875
-128.173828125
-146.484375
-159.3017578125
-151.06201171875
-166.6259765625
-165.71044921875
-147.39990234375
-147.39990234375
-140.9912109375
-120.849609375
-123.59619140625
-135.498046875
-139.16015625
-143.73779296875
-151.06201171875
-129.08935546875
-106.201171875
-107.11669921875
-114.44091796875
-99.79248046875
-110.77880859375
-116.27197265625
-84.228515625
-32.958984375
0.91552734375
58.59375
151.06201171875
260.009765625
368.0419921875
495.30029296875
609.7412109375
692.138671875
749.81689453125
802.001953125
829.4677734375
858.7646484375
871.58203125
814.8193359375
671.08154296875
518.1884765625
219.7265625
-153.80859375
-405.57861328125
-549.31640625
-616.14990234375
-659.1796875
-668.3349609375
-663.75732421875
-640.869140625
-600.5859375
-559.38720703125
-518.1884765625
-455.01708984375
-377.197265625
-317.68798828125
-275.57373046875
-220.64208984375
-177.6123046875
-138.24462890625
-99.79248046875
-86.97509765625
-86.97509765625
-91.552734375
-80.56640625
-82.3974609375
-86.0595703125
-75.98876953125
-63.17138671875
-54.931640625
-46.69189453125
-43.9453125
-58.59375
-67.7490234375
-65.00244140625
-80.56640625
-87.890625
-71.4111328125
-56.7626953125
-49.4384765625
-33.87451171875
-47.607421875
-68.66455078125
-74.15771484375
-65.00244140625
-66.83349609375
-56.7626953125
-35.70556640625
-34.7900390625
-28.38134765625
-17.39501953125
-29.296875
-43.02978515625
-43.9453125
-35.70556640625
-31.1279296875
-27.4658203125
-27.4658203125
-20.1416015625
-15.56396484375
-1.8310546875
0.91552734375
0.91552734375
-10.07080078125
-15.56396484375
-21.05712890625
-22.88818359375
-6.40869140625
-3.662109375
4.57763671875
13.73291015625
19.22607421875
15.56396484375
10.07080078125
4.57763671875
5.4931640625
7.32421875
12.8173828125
12.8173828125
16.4794921875
43.02978515625
43.9453125
43.02978515625
44.86083984375
35.70556640625
29.296875
25.634765625
36.62109375
43.9453125
39.36767578125
64.0869140625
82.3974609375
63.17138671875
69.580078125
76.904296875
54.01611328125
46.69189453125
78.7353515625
99.79248046875
108.0322265625
126.3427734375
130.0048828125
115.3564453125
122.6806640625
136.41357421875
132.75146484375
138.24462890625
152.89306640625
162.9638671875
167.54150390625
191.34521484375
192.2607421875
204.16259765625
220.64208984375
220.64208984375
210.5712890625
213.31787109375
230.712890625
238.037109375
249.93896484375
267.333984375
278.3203125
274.658203125
272.8271484375
272.8271484375
262.75634765625
260.009765625
285.64453125
305.7861328125
296.630859375
292.96875
296.630859375
281.982421875
276.4892578125
283.8134765625
290.22216796875
298.4619140625
321.35009765625
323.18115234375
320.4345703125
325.01220703125
314.94140625
303.03955078125
288.39111328125
276.4892578125
259.09423828125
247.1923828125
249.0234375
224.30419921875
199.5849609375
185.85205078125
178.52783203125
152.89306640625
137.3291015625
119.93408203125
86.97509765625
65.91796875
56.7626953125
37.53662109375
32.958984375
38.4521484375
41.19873046875
18.310546875
-3.662109375
-13.73291015625
-27.4658203125
-55.84716796875
-42.1142578125
-43.02978515625
-53.1005859375
-38.4521484375
-40.283203125
-73.2421875
-87.890625
-104.3701171875
-115.3564453125
-107.11669921875
-98.876953125
-93.3837890625
-82.3974609375
-66.83349609375
-64.0869140625
-76.904296875
-80.56640625
-92.46826171875
-101.62353515625
-102.5390625
-90.63720703125
-94.29931640625
-103.45458984375
-83.31298828125
-69.580078125
-83.31298828125
-82.3974609375
-78.7353515625
-102.5390625
-111.6943359375
-97.0458984375
-82.3974609375
-80.56640625
-73.2421875
-58.59375
-65.00244140625
-74.15771484375
-77.81982421875
-90.63720703125
-103.45458984375
-97.0458984375
-81.48193359375
-70.49560546875
-64.0869140625
-69.580078125
-62.255859375
-65.00244140625
-62.255859375
-76.904296875
-87.890625
-73.2421875
-80.56640625
-65.00244140625
-52.18505859375
-41.19873046875
-56.7626953125
-66.83349609375
-72.32666015625
-87.890625
-92.46826171875
-81.48193359375
-62.255859375
-47.607421875
-38.4521484375
-45.7763671875
-61.34033203125
-73.2421875
-80.56640625
-92.46826171875
-106.201171875
-94.29931640625
-78.7353515625
-75.0732421875
-65.00244140625
-55.84716796875
-67.7490234375
-74.15771484375
-79.65087890625
-94.29931640625
-107.11669921875
-108.0322265625
-98.876953125
-93.3837890625
-84.228515625
-72.32666015625
-88.80615234375
-103.45458984375
-117.1875
-119.0185546875
-121.76513671875
-92.46826171875
-78.7353515625
-65.91796875
-60.4248046875
-55.84716796875
-65.91796875
-79.65087890625
-91.552734375
-105.28564453125
-109.86328125
-113.525390625
-122.6806640625
-125.42724609375
-118.10302734375
-112.60986328125
-121.76513671875
-126.3427734375
-120.849609375
-133.6669921875
-130.0048828125
-117.1875
-104.3701171875
-97.96142578125
-86.0595703125
-75.0732421875
-92.46826171875
-94.29931640625
-92.46826171875
-109.86328125
-108.94775390625
-106.201171875
-108.0322265625
-108.0322265625
-97.0458984375
-94.29931640625
-100.7080078125
-107.11669921875
-117.1875
-134.58251953125
-140.07568359375
-130.92041015625
-139.16015625
-157.470703125
-131.8359375
-103.45458984375
-109.86328125
-119.93408203125
-130.92041015625
-123.59619140625
-116.27197265625
-97.0458984375
-97.96142578125
-100.7080078125
-91.552734375
-95.21484375
-108.0322265625
-103.45458984375
-112.60986328125
-119.93408203125
-131.8359375
-118.10302734375
-98.876953125
-103.45458984375
-97.96142578125
-94.29931640625
-103.45458984375
-111.6943359375
-97.96142578125
-108.94775390625
-112.60986328125
-95.21484375
-85.14404296875
-101.62353515625
-102.5390625
-99.79248046875
-115.3564453125
-120.849609375
-115.3564453125
-132.75146484375
-155.6396484375
-162.9638671875
-141.90673828125
-123.59619140625
-100.7080078125
-79.65087890625
-85.14404296875
-93.3837890625
-93.3837890625
-116.27197265625
-127.25830078125
-114.44091796875
-108.0322265625
-94.29931640625
-84.228515625
-77.81982421875
-86.97509765625
-94.29931640625
-107.11669921875
-125.42724609375
-125.42724609375
-115.3564453125
-120.849609375
-134.58251953125
-116.27197265625
-93.3837890625
-97.96142578125
-108.0322265625
-115.3564453125
-115.3564453125
-129.08935546875
-130.0048828125
-120.849609375
-107.11669921875
-95.21484375
-85.14404296875
-89.7216796875
-109.86328125
-115.3564453125
-130.92041015625
-138.24462890625
-124.51171875
-120.849609375
-127.25830078125
-121.76513671875
-106.201171875
-116.27197265625
-115.3564453125
-111.6943359375
-119.0185546875
-115.3564453125
-104.3701171875
-105.28564453125
-108.0322265625
-101.62353515625
-88.80615234375
-98.876953125
-103.45458984375
-94.29931640625
-107.11669921875
-119.0185546875
-103.45458984375
-97.0458984375
-84.228515625
-77.81982421875
-68.66455078125
-74.15771484375
-96.13037109375
-108.0322265625
-110.77880859375
-106.201171875
-90.63720703125
-71.4111328125
-49.4384765625
-29.296875
-23.8037109375
-42.1142578125
-62.255859375
-77.81982421875
-94.29931640625
-100.7080078125
-83.31298828125
-78.7353515625
-88.80615234375
-86.97509765625
-90.63720703125
-101.62353515625
-108.0322265625
-97.96142578125
-91.552734375
-90.63720703125
-77.81982421875
-84.228515625
-86.97509765625
-81.48193359375
-84.228515625
-104.3701171875
-124.51171875
-128.173828125
-133.6669921875
-146.484375
-122.6806640625
-131.8359375
-134.58251953125
-126.3427734375
-117.1875
-117.1875
-135.498046875
-151.06201171875
-148.3154296875
-156.55517578125
-143.73779296875
-130.92041015625
-124.51171875
-115.3564453125
-97.96142578125
-105.28564453125
-112.60986328125
-152.89306640625
-160.21728515625
-156.55517578125
-142.822265625
-131.8359375
-122.6806640625
-119.93408203125
-106.201171875
-111.6943359375
-107.11669921875
-94.29931640625
-97.96142578125
-98.876953125
-87.890625
-77.81982421875
-59.50927734375
-8.23974609375
25.634765625
53.1005859375
108.94775390625
205.99365234375
331.4208984375
441.2841796875
560.302734375
666.50390625
759.8876953125
829.4677734375
869.7509765625
901.79443359375
906.3720703125
857.84912109375
707.70263671875
531.92138671875
275.57373046875
-90.63720703125
-378.11279296875
-517.27294921875
-562.1337890625
-590.51513671875
-612.48779296875
-624.3896484375
-622.55859375
-604.248046875
-560.302734375
-498.96240234375
-433.04443359375
-353.3935546875
-275.57373046875
-216.97998046875
-169.37255859375
-144.6533203125
-125.42724609375
-113.525390625
-92.46826171875
-76.904296875
-68.66455078125
-61.34033203125
-50.35400390625
-54.931640625
-62.255859375
-65.00244140625
-71.4111328125
-78.7353515625
-66.83349609375
-57.67822265625
-57.67822265625
-38.4521484375
-32.958984375
-46.69189453125
-45.7763671875
-38.4521484375
-45.7763671875
-46.69189453125
-31.1279296875
-21.97265625
-22.88818359375
-20.1416015625
-17.39501953125
-30.21240234375
-37.53662109375
-16.4794921875
-21.05712890625
-38.4521484375
-38.4521484375
-25.634765625
-26.55029296875
-22.88818359375
-16.4794921875
-22.88818359375
-36.62109375
-46.69189453125
-40.283203125
-38.4521484375
-27.4658203125
-15.56396484375
-4.57763671875
4.57763671875
12.8173828125
-0.91552734375
-3.662109375
-5.4931640625
-9.1552734375
-13.73291015625
-2.74658203125
8.23974609375
11.90185546875
21.97265625
34.7900390625
22.88818359375
11.90185546875
18.310546875
9.1552734375
-1.8310546875
29.296875
40.283203125
41.19873046875
42.1142578125
47.607421875
27.4658203125
26.55029296875
29.296875
29.296875
17.39501953125
20.1416015625
-5.4931640625
-23.8037109375
-0.91552734375
36.62109375
44.86083984375
64.0869140625
93.3837890625
109.86328125
111.6943359375
124.51171875
140.9912109375
132.75146484375
141.90673828125
162.04833984375
147.39990234375
126.3427734375
121.76513671875
111.6943359375
111.6943359375
136.41357421875
176.69677734375
208.740234375
232.5439453125
249.93896484375
226.13525390625
224.30419921875
240.78369140625
244.44580078125
253.60107421875
285.64453125
299.37744140625
298.4619140625
320.4345703125
335.99853515625
330.50537109375
320.4345703125
312.19482421875
303.955078125
300.29296875
314.94140625
323.18115234375
332.33642578125
335.99853515625
334.16748046875
316.7724609375
301.20849609375
312.19482421875
304.87060546875
269.1650390625
271.91162109375
282.89794921875
273.74267578125
258.1787109375
247.1923828125
205.99365234375
164.794921875
168.45703125
168.45703125
171.20361328125
185.85205078125
186.767578125
165.71044921875
141.90673828125
122.6806640625
102.5390625
78.7353515625
64.0869140625
48.52294921875
10.07080078125
-0.91552734375
-12.8173828125
-20.1416015625
-10.07080078125
15.56396484375
0
-8.23974609375
-4.57763671875
-11.90185546875
-23.8037109375
-25.634765625
-31.1279296875
-31.1279296875
-26.55029296875
2.74658203125
-20.1416015625
-52.18505859375
-43.02978515625
-50.35400390625
-62.255859375
-55.84716796875
-54.01611328125
-55.84716796875
-53.1005859375
-54.931640625
-64.0869140625
-85.14404296875
-99.79248046875
-100.7080078125
-93.3837890625
-79.65087890625
-75.98876953125
-79.65087890625
-75.0732421875
-65.00244140625
-80.56640625
-94.29931640625
-85.14404296875
-87.890625
-105.28564453125
-91.552734375
-86.97509765625
-86.0595703125
-70.49560546875
-64.0869140625
-66.83349609375
-72.32666015625
-77.81982421875
-79.65087890625
-93.3837890625
-74.15771484375
-81.48193359375
-83.31298828125
-75.0732421875
-80.56640625
-93.3837890625
-86.0595703125
-81.48193359375
-72.32666015625
-63.17138671875
-61.34033203125
-61.34033203125
-62.255859375
-55.84716796875
-34.7900390625
-33.87451171875
-55.84716796875
-59.50927734375
-67.7490234375
-76.904296875
-58.59375
-66.83349609375
-74.15771484375
-61.34033203125
-38.4521484375
-50.35400390625
-62.255859375
-56.7626953125
-67.7490234375
-92.46826171875
-91.552734375
-82.3974609375
-74.15771484375
-56.7626953125
-44.86083984375
-57.67822265625
-73.2421875
-65.91796875
-84.228515625
-99.79248046875
-83.31298828125
-65.91796875
-80.56640625
-71.4111328125
-58.59375
-73.2421875
-82.3974609375
-77.81982421875
-85.14404296875
-107.11669921875
-100.7080078125
-89.7216796875
-68.66455078125
-79.65087890625
-80.56640625
-95.21484375
-101.62353515625
-108.94775390625
-116.27197265625
-129.08935546875
-122.6806640625
-109.86328125
-110.77880859375
-101.62353515625
-86.0595703125
-89.7216796875
-108.94775390625
-110.77880859375
-115.3564453125
-142.822265625
-146.484375
-123.59619140625
-104.3701171875
-106.201171875
-87.890625
-75.0732421875
-85.14404296875
-93.3837890625
-119.93408203125
-137.3291015625
-135.498046875
-130.0048828125
-122.6806640625
-87.890625
-56.7626953125
-78.7353515625
-104.3701171875
-101.62353515625
-97.0458984375
-98.876953125
-98.876953125
-97.0458984375
-95.21484375
-117.1875
-120.849609375
-115.3564453125
-111.6943359375
-97.0458984375
-97.0458984375
-108.0322265625
-94.29931640625
-87.890625
-100.7080078125
-106.201171875
-108.0322265625
-112.60986328125
-115.3564453125
-101.62353515625
-106.201171875
-127.25830078125
-136.41357421875
-119.93408203125
-116.27197265625
-111.6943359375
-108.94775390625
-114.44091796875
-116.27197265625
-117.1875
-121.76513671875
-128.173828125
-112.60986328125
-89.7216796875
-83.31298828125
-86.0595703125
-83.31298828125
-87.890625
-113.525390625
-129.08935546875
-119.93408203125
-138.24462890625
-123.59619140625
-123.59619140625
-113.525390625
-88.80615234375
-72.32666015625
-90.63720703125
-107.11669921875
-108.0322265625
-129.08935546875
-151.9775390625
-142.822265625
-132.75146484375
-115.3564453125
-91.552734375
-89.7216796875
-108.0322265625
-113.525390625
-107.11669921875
-124.51171875
-146.484375
-121.76513671875
-105.28564453125
-90.63720703125
-84.228515625
-82.3974609375
-97.0458984375
-119.0185546875
-119.0185546875
-112.60986328125
-135.498046875
-124.51171875
-116.27197265625
-108.0322265625
-101.62353515625
-77.81982421875
-89.7216796875
-107.11669921875
-97.96142578125
-102.5390625
-125.42724609375
-108.94775390625
-88.80615234375
-70.49560546875
-60.4248046875
-47.607421875
-57.67822265625
-66.83349609375
-79.65087890625
-95.21484375
-106.201171875
-76.904296875
-52.18505859375
-48.52294921875
-40.283203125
-11.90185546875
-32.958984375
-56.7626953125
-65.91796875
-83.31298828125
-96.13037109375
-93.3837890625
-87.890625
-96.13037109375
-102.5390625
-94.29931640625
-116.27197265625
-128.173828125
-129.08935546875
-119.93408203125
-109.86328125
-90.63720703125
-79.65087890625
-80.56640625
-87.890625
-77.81982421875
-113.525390625
-150.146484375
-151.06201171875
-142.822265625
-144.6533203125
-127.25830078125
-124.51171875
-121.76513671875
-107.11669921875
-92.46826171875
-97.0458984375
-101.62353515625
-100.7080078125
-105.28564453125
-119.0185546875
-108.94775390625
-107.11669921875
-110.77880859375
-117.1875
-104.3701171875
-96.13037109375
-100.7080078125
-114.44091796875
-116.27197265625
-131.8359375
-122.6806640625
-102.5390625
-113.525390625
-103.45458984375
-86.97509765625
-98.876953125
-108.94775390625
-105.28564453125
-108.0322265625
-109.86328125
-94.29931640625
-65.91796875
-31.1279296875
10.986328125
75.0732421875
134.58251953125
211.48681640625
335.0830078125
444.9462890625
509.033203125
615.234375
686.6455078125
721.435546875
752.5634765625
804.74853515625
818.4814453125
780.029296875
660.09521484375
502.62451171875
246.27685546875
-93.3837890625
-331.4208984375
-469.66552734375
-507.2021484375
-533.75244140625
-566.71142578125
-594.17724609375
-586.85302734375
-566.71142578125
-562.1337890625
-518.1884765625
-470.5810546875
-411.9873046875
-333.251953125
-253.60107421875
-217.8955078125
-203.2470703125
-174.86572265625
-148.3154296875
-139.16015625
-115.3564453125
-108.0322265625
-101.62353515625
-86.97509765625
-69.580078125
-61.34033203125
-48.52294921875
-44.86083984375
-50.35400390625
-48.52294921875
-50.35400390625
-66.83349609375
-67.7490234375
-47.607421875
-24.71923828125
-30.21240234375
-28.38134765625
-31.1279296875
-31.1279296875
-54.931640625
-38.4521484375
-21.97265625
-23.8037109375
-19.22607421875
-5.4931640625
-16.4794921875
-19.22607421875
-21.97265625
-28.38134765625
-37.53662109375
-26.55029296875
-45.7763671875
-43.9453125
-17.39501953125
-5.4931640625
-26.55029296875
-28.38134765625
-24.71923828125
-18.310546875
-13.73291015625
-2.74658203125
0.91552734375
-15.56396484375
-17.39501953125
-10.986328125
-4.57763671875
11.90185546875
27.4658203125
39.36767578125
19.22607421875
18.310546875
47.607421875
64.0869140625
71.4111328125
67.7490234375
44.86083984375
43.9453125
37.53662109375
24.71923828125
20.1416015625
28.38134765625
37.53662109375
47.607421875
60.4248046875
96.13037109375
101.62353515625
87.890625
78.7353515625
72.32666015625
54.931640625
65.00244140625
90.63720703125
98.876953125
112.60986328125
130.92041015625
130.92041015625
129.08935546875
130.0048828125
117.1875
82.3974609375
102.5390625
130.0048828125
149.23095703125
156.55517578125
170.2880859375
153.80859375
135.498046875
136.41357421875
148.3154296875
152.89306640625
190.4296875
214.2333984375
219.7265625
246.27685546875
270.99609375
255.43212890625
254.5166015625
276.4892578125
287.4755859375
270.99609375
272.8271484375
288.39111328125
290.22216796875
298.4619140625
328.67431640625
338.7451171875
329.58984375
329.58984375
341.49169921875
333.251953125
345.15380859375
357.97119140625
344.23828125
334.16748046875
351.5625
337.82958984375
302.1240234375
270.99609375
273.74267578125
262.75634765625
290.22216796875
321.35009765625
333.251953125
326.84326171875
326.84326171875
304.87060546875
269.1650390625
261.8408203125
239.8681640625
209.65576171875
193.17626953125
171.20361328125
134.58251953125
97.0458984375
80.56640625
72.32666015625
73.2421875
87.890625
65.91796875
31.1279296875
22.88818359375
28.38134765625
26.55029296875
27.4658203125
30.21240234375
12.8173828125
-6.40869140625
-10.986328125
-11.90185546875
-34.7900390625
-56.7626953125
-63.17138671875
-63.17138671875
-64.0869140625
-43.02978515625
-51.26953125
-77.81982421875
-91.552734375
-103.45458984375
-119.0185546875
-110.77880859375
-87.890625
-76.904296875
-65.00244140625
-30.21240234375
-17.39501953125
-33.87451171875
-49.4384765625
-54.931640625
-87.890625
-90.63720703125
-96.13037109375
-83.31298828125
-64.0869140625
-41.19873046875
-52.18505859375
-68.66455078125
-60.4248046875
-63.17138671875
-86.97509765625
-91.552734375
-61.34033203125
-50.35400390625
-59.50927734375
-29.296875
-37.53662109375
-58.59375
-56.7626953125
-75.0732421875
-81.48193359375
-56.7626953125
-37.53662109375
-36.62109375
-32.958984375
-11.90185546875
-12.8173828125
-41.19873046875
-62.255859375
-65.91796875
-68.66455078125
-48.52294921875
-43.9453125
-40.283203125
-24.71923828125
-11.90185546875
-13.73291015625
-28.38134765625
-42.1142578125
-57.67822265625
-67.7490234375
-60.4248046875
-55.84716796875
-61.34033203125
-59.50927734375
-50.35400390625
-54.931640625
-78.7353515625
-99.79248046875
-125.42724609375
-126.3427734375
-102.5390625
-70.49560546875
-85.14404296875
-78.7353515625
-43.9453125
-65.00244140625
-88.80615234375
-84.228515625
-83.31298828125
-100.7080078125
-92.46826171875
-82.3974609375
-72.32666015625
-59.50927734375
-30.21240234375
-27.4658203125
-45.7763671875
-55.84716796875
-63.17138671875
-88.80615234375
-77.81982421875
-52.18505859375
-59.50927734375
-58.59375
-37.53662109375
-39.36767578125
-56.7626953125
-71.4111328125
-73.2421875
-97.0458984375
-102.5390625
-95.21484375
-103.45458984375
-88.80615234375
-64.0869140625
-73.2421875
-84.228515625
-76.904296875
-88.80615234375
-109.86328125
-121.76513671875
-122.6806640625
-124.51171875
-125.42724609375
-134.58251953125
-139.16015625
-138.24462890625
-114.44091796875
-100.7080078125
-111.6943359375
-112.60986328125
-103.45458984375
-94.29931640625
-79.65087890625
-65.00244140625
-69.580078125
-77.81982421875
-92.46826171875
-99.79248046875
-113.525390625
-102.5390625
-91.552734375
-83.31298828125
-80.56640625
-52.18505859375
-47.607421875
-64.0869140625
-89.7216796875
-89.7216796875
-95.21484375
-90.63720703125
-66.83349609375
-65.91796875
-71.4111328125
-59.50927734375
-65.00244140625
-75.98876953125
-86.97509765625
-95.21484375
-122.6806640625
-142.822265625
-135.498046875
-114.44091796875
-104.3701171875
-78.7353515625
-78.7353515625
-89.7216796875
-95.21484375
-106.201171875
-129.08935546875
-126.3427734375
-115.3564453125
-128.173828125
-120.849609375
-93.3837890625
-91.552734375
-106.201171875
-112.60986328125
-123.59619140625
-169.37255859375
-166.6259765625
-137.3291015625
-137.3291015625
-121.76513671875
-90.63720703125
-83.31298828125
-98.876953125
-97.0458984375
-95.21484375
-105.28564453125
-101.62353515625
-88.80615234375
-71.4111328125
-65.91796875
-49.4384765625
-80.56640625
-108.94775390625
-110.77880859375
-105.28564453125
-108.0322265625
-99.79248046875
-91.552734375
-78.7353515625
-64.0869140625
-40.283203125
-41.19873046875
-54.01611328125
-70.49560546875
-85.14404296875
-87.890625
-69.580078125
-60.4248046875
-61.34033203125
-57.67822265625
-53.1005859375
-58.59375
-80.56640625
-87.890625
-81.48193359375
-86.97509765625
-69.580078125
-50.35400390625
-49.4384765625
-38.4521484375
-32.04345703125
-66.83349609375
-97.96142578125
-98.876953125
-86.97509765625
-99.79248046875
-86.0595703125
-69.580078125
-63.17138671875
-69.580078125
-61.34033203125
-62.255859375
-73.2421875
-85.14404296875
-109.86328125
-141.90673828125
-151.06201171875
-153.80859375
-131.8359375
-127.25830078125
-111.6943359375
-108.94775390625
-105.28564453125
-104.3701171875
-103.45458984375
-120.849609375
-121.76513671875
-97.0458984375
-86.97509765625
-99.79248046875
-95.21484375
-90.63720703125
-95.21484375
-100.7080078125
-109.86328125
-121.76513671875
-105.28564453125
-99.79248046875
-101.62353515625
-96.13037109375
-77.81982421875
-72.32666015625
-83.31298828125
-93.3837890625
-109.86328125
-125.42724609375
-114.44091796875
-96.13037109375
-96.13037109375
-104.3701171875
-104.3701171875
-140.9912109375
-166.6259765625
-158.38623046875
-150.146484375
-143.73779296875
-93.3837890625
-11.90185546875
47.607421875
111.6943359375
202.33154296875
305.7861328125
404.6630859375
514.5263671875
626.220703125
705.87158203125
777.28271484375
841.36962890625
876.15966796875
904.541015625
923.76708984375
873.4130859375
711.36474609375
535.58349609375
256.34765625
-124.51171875
-400.08544921875
-525.5126953125
-553.89404296875
-574.951171875
-608.82568359375
-626.220703125
-600.5859375
-575.86669921875
-552.978515625
-520.01953125
-443.115234375
-353.3935546875
-287.4755859375
-215.14892578125
-137.3291015625
-97.96142578125
-77.81982421875
-74.15771484375
-70.49560546875
-85.14404296875
-107.11669921875
-133.6669921875
-140.07568359375
-118.10302734375
-78.7353515625
-45.7763671875
-54.01611328125
-58.59375
-63.17138671875
-79.65087890625
-75.0732421875
-41.19873046875
-27.4658203125
-20.1416015625
4.57763671875
0
-0.91552734375
-6.40869140625
-10.986328125
-28.38134765625
-33.87451171875
-23.8037109375
-3.662109375
5.4931640625
17.39501953125
10.986328125
1.8310546875
3.662109375
-5.4931640625
-25.634765625
-20.1416015625
-3.662109375
12.8173828125
19.22607421875
21.97265625
11.90185546875
-1.8310546875
-4.57763671875
-3.662109375
-8.23974609375
4.57763671875
25.634765625
39.36767578125
41.19873046875
53.1005859375
42.1142578125
21.97265625
7.32421875
-0.91552734375
-22.88818359375
-9.1552734375
41.19873046875
62.255859375
72.32666015625
86.97509765625
92.46826171875
92.46826171875
80.56640625
81.48193359375
58.59375
65.91796875
100.7080078125
108.0322265625
107.11669921875
113.525390625
98.876953125
80.56640625
70.49560546875
91.552734375
106.201171875
117.1875
126.3427734375
126.3427734375
116.27197265625
119.0185546875
122.6806640625
121.76513671875
140.07568359375
160.21728515625
158.38623046875
166.6259765625
184.02099609375
202.33154296875
208.740234375
219.7265625
227.96630859375
210.5712890625
195.00732421875
205.078125
196.83837890625
207.82470703125
232.5439453125
243.5302734375
268.24951171875
301.20849609375
317.68798828125
308.53271484375
312.19482421875
318.603515625
317.68798828125
320.4345703125
332.33642578125
339.66064453125
346.0693359375
362.548828125
364.3798828125
363.46435546875
366.2109375
377.197265625
375.3662109375
367.12646484375
369.873046875
376.28173828125
383.60595703125
380.859375
376.28173828125
352.47802734375
342.4072265625
339.66064453125
329.58984375
312.19482421875
314.02587890625
312.19482421875
300.29296875
303.03955078125
306.70166015625
281.06689453125
250.8544921875
233.45947265625
216.97998046875
