ECG
-66.83349609375
-55.84716796875
-65.91796875
-77.81982421875
-90.63720703125
-82.3974609375
-73.2421875
-71.4111328125
-65.00244140625
-62.255859375
-62.255859375
-77.81982421875
-74.15771484375
-73.2421875
-74.15771484375
-72.32666015625
-66.83349609375
-75.0732421875
-75.98876953125
-67.7490234375
-70.49560546875
-76.904296875
-64.0869140625
-68.66455078125
-74.15771484375
-74.15771484375
-71.4111328125
-74.15771484375
-75.98876953125
-79.65087890625
-86.0595703125
-75.0732421875
-77.81982421875
-79.65087890625
-73.2421875
-69.580078125
-82.3974609375
-74.15771484375
-73.2421875
-65.91796875
-63.17138671875
-67.7490234375
-65.91796875
-74.15771484375
-78.7353515625
-74.15771484375
-82.3974609375
-71.4111328125
-65.91796875
-75.98876953125
-66.83349609375
-75.0732421875
-74.15771484375
-84.228515625
-88.80615234375
-78.7353515625
-77.81982421875
-65.91796875
-63.17138671875
-62.255859375
-72.32666015625
-75.0732421875
-71.4111328125
-78.7353515625
-80.56640625
-84.228515625
-87.890625
-78.7353515625
-69.580078125
-70.49560546875
-86.97509765625
-72.32666015625
-70.49560546875
-72.32666015625
-77.81982421875
-82.3974609375
-77.81982421875
-82.3974609375
-76.904296875
-75.0732421875
-79.65087890625
-86.0595703125
-75.98876953125
-78.7353515625
-84.228515625
-81.48193359375
-85.14404296875
-82.3974609375
-75.98876953125
-63.17138671875
-70.49560546875
-81.48193359375
-82.3974609375
-74.15771484375
-82.3974609375
-75.98876953125
-67.7490234375
-65.00244140625
-61.34033203125
-44.86083984375
-25.634765625
-20.1416015625
-32.04345703125
-31.1279296875
-22.88818359375
-21.05712890625
-9.1552734375
-10.07080078125
-4.57763671875
12.8173828125
0
-6.40869140625
0
1.8310546875
-12.8173828125
-22.88818359375
-16.4794921875
-10.986328125
-30.21240234375
-13.73291015625
-13.73291015625
-21.97265625
-34.7900390625
-37.53662109375
-54.01611328125
-58.59375
-60.4248046875
-54.931640625
-48.52294921875
-46.69189453125
-64.0869140625
-69.580078125
-83.31298828125
-87.890625
-84.228515625
-81.48193359375
-80.56640625
-81.48193359375
-87.890625
-73.2421875
-77.81982421875
-88.80615234375
-89.7216796875
-85.14404296875
-93.3837890625
-83.31298828125
-88.80615234375
-91.552734375
-94.29931640625
-91.552734375
-81.48193359375
-82.3974609375
-88.80615234375
-84.228515625
-98.876953125
-96.13037109375
-93.3837890625
-83.31298828125
-81.48193359375
-81.48193359375
-85.14404296875
-90.63720703125
-83.31298828125
-86.0595703125
-101.62353515625
-108.0322265625
-95.21484375
-75.98876953125
-75.0732421875
-69.580078125
-72.32666015625
-59.50927734375
3.662109375
87.890625
166.6259765625
258.1787109375
357.97119140625
461.42578125
543.8232421875
641.78466796875
736.083984375
818.4814453125
904.541015625
975.9521484375
986.9384765625
936.58447265625
796.5087890625
603.33251953125
420.22705078125
292.96875
176.69677734375
102.5390625
44.86083984375
9.1552734375
-1.8310546875
-8.23974609375
7.32421875
16.4794921875
23.8037109375
28.38134765625
24.71923828125
11.90185546875
-0.91552734375
-0.91552734375
-10.07080078125
-21.05712890625
-21.05712890625
-26.55029296875
-25.634765625
-28.38134765625
-32.958984375
-45.7763671875
-43.02978515625
-41.19873046875
-47.607421875
-46.69189453125
-38.4521484375
-33.87451171875
-32.04345703125
-33.87451171875
-36.62109375
-38.4521484375
-37.53662109375
-43.02978515625
-43.02978515625
-38.4521484375
-23.8037109375
-32.958984375
-23.8037109375
-18.310546875
-23.8037109375
-16.4794921875
-26.55029296875
-37.53662109375
-25.634765625
-15.56396484375
-13.73291015625
-7.32421875
-0.91552734375
-2.74658203125
0
0.91552734375
-3.662109375
-3.662109375
-8.23974609375
-15.56396484375
-5.4931640625
4.57763671875
5.4931640625
8.23974609375
16.4794921875
10.986328125
0.91552734375
17.39501953125
15.56396484375
12.8173828125
21.05712890625
10.07080078125
8.23974609375
29.296875
33.87451171875
34.7900390625
30.21240234375
26.55029296875
20.1416015625
27.4658203125
37.53662109375
35.70556640625
49.4384765625
57.67822265625
53.1005859375
51.26953125
63.17138671875
61.34033203125
59.50927734375
54.931640625
59.50927734375
69.580078125
81.48193359375
91.552734375
89.7216796875
91.552734375
94.29931640625
94.29931640625
93.3837890625
111.6943359375
111.6943359375
117.1875
125.42724609375
137.3291015625
144.6533203125
138.24462890625
144.6533203125
148.3154296875
153.80859375
153.80859375
151.9775390625
175.78125
194.091796875
207.82470703125
215.14892578125
198.66943359375
202.33154296875
220.64208984375
216.97998046875
227.05078125
230.712890625
247.1923828125
246.27685546875
251.77001953125
254.5166015625
262.75634765625
255.43212890625
270.08056640625
261.8408203125
267.333984375
285.64453125
297.54638671875
296.630859375
298.4619140625
289.306640625
284.72900390625
276.4892578125
267.333984375
250.8544921875
243.5302734375
232.5439453125
225.2197265625
210.5712890625
192.2607421875
186.767578125
181.2744140625
153.80859375
137.3291015625
113.525390625
95.21484375
83.31298828125
70.49560546875
51.26953125
48.52294921875
37.53662109375
28.38134765625
24.71923828125
21.97265625
-1.8310546875
-9.1552734375
-7.32421875
-23.8037109375
-22.88818359375
-21.05712890625
-37.53662109375
-38.4521484375
-42.1142578125
-41.19873046875
-43.9453125
-49.4384765625
-49.4384765625
-52.18505859375
-49.4384765625
-42.1142578125
-54.931640625
-58.59375
-56.7626953125
-57.67822265625
-71.4111328125
-65.00244140625
-49.4384765625
-55.84716796875
-54.931640625
-50.35400390625
-53.1005859375
-63.17138671875
-59.50927734375
-55.84716796875
-64.0869140625
-71.4111328125
-54.931640625
-58.59375
-58.59375
-56.7626953125
-58.59375
-53.1005859375
-44.86083984375
-43.9453125
-44.86083984375
-54.931640625
-57.67822265625
-54.931640625
-51.26953125
-51.26953125
-56.7626953125
-51.26953125
-42.1142578125
-42.1142578125
-62.255859375
-56.7626953125
-51.26953125
-47.607421875
-47.607421875
-43.02978515625
-48.52294921875
-69.580078125
-65.00244140625
-52.18505859375
-50.35400390625
-46.69189453125
-46.69189453125
-48.52294921875
-40.283203125
-32.958984375
-39.36767578125
-45.7763671875
-45.7763671875
-44.86083984375
-54.931640625
-41.19873046875
-41.19873046875
-40.283203125
-39.36767578125
-42.1142578125
-40.283203125
-50.35400390625
-47.607421875
-44.86083984375
-44.86083984375
-47.607421875
-43.9453125
-46.69189453125
-57.67822265625
-30.21240234375
-39.36767578125
-56.7626953125
-42.1142578125
-40.283203125
-46.69189453125
-39.36767578125
-29.296875
-38.4521484375
-38.4521484375
-32.04345703125
-28.38134765625
-35.70556640625
-39.36767578125
-43.02978515625
-53.1005859375
-42.1142578125
-41.19873046875
-40.283203125
-35.70556640625
-35.70556640625
-35.70556640625
-40.283203125
-41.19873046875
-40.283203125
-43.02978515625
-46.69189453125
-47.607421875
-41.19873046875
-49.4384765625
-36.62109375
-33.87451171875
-36.62109375
-33.87451171875
-44.86083984375
-51.26953125
-52.18505859375
-46.69189453125
-49.4384765625
-48.52294921875
-38.4521484375
-30.21240234375
-51.26953125
-51.26953125
-55.84716796875
-64.0869140625
-60.4248046875
-44.86083984375
-40.283203125
-38.4521484375
-40.283203125
-52.18505859375
-54.01611328125
-49.4384765625
-56.7626953125
-74.15771484375
-62.255859375
-65.00244140625
-68.66455078125
-53.1005859375
-41.19873046875
-44.86083984375
-52.18505859375
-49.4384765625
-53.1005859375
-62.255859375
-57.67822265625
-55.84716796875
-55.84716796875
-57.67822265625
-47.607421875
-51.26953125
-54.931640625
-53.1005859375
-54.01611328125
-65.00244140625
-60.4248046875
-67.7490234375
-75.0732421875
-60.4248046875
-55.84716796875
-61.34033203125
-71.4111328125
-71.4111328125
-58.59375
-53.1005859375
-50.35400390625
-53.1005859375
-56.7626953125
-65.91796875
-52.18505859375
-54.931640625
-52.18505859375
-51.26953125
-57.67822265625
-70.49560546875
-71.4111328125
-60.4248046875
-60.4248046875
-60.4248046875
-61.34033203125
-65.91796875
-67.7490234375
-60.4248046875
-68.66455078125
-78.7353515625
-67.7490234375
-69.580078125
-57.67822265625
-61.34033203125
-52.18505859375
-62.255859375
-68.66455078125
-72.32666015625
-65.00244140625
-63.17138671875
-64.0869140625
-62.255859375
-60.4248046875
-64.0869140625
-54.01611328125
-61.34033203125
-69.580078125
-67.7490234375
-68.66455078125
-75.98876953125
-83.31298828125
-77.81982421875
-65.91796875
-58.59375
-48.52294921875
-68.66455078125
-76.904296875
-54.01611328125
-51.26953125
-54.01611328125
-62.255859375
-56.7626953125
-51.26953125
-50.35400390625
-54.931640625
-54.931640625
-56.7626953125
-56.7626953125
-65.91796875
-68.66455078125
-72.32666015625
-72.32666015625
-72.32666015625
-63.17138671875
-64.0869140625
-62.255859375
-66.83349609375
-69.580078125
-54.01611328125
-58.59375
-63.17138671875
-63.17138671875
-58.59375
-63.17138671875
-59.50927734375
-63.17138671875
-70.49560546875
-57.67822265625
-59.50927734375
-86.0595703125
-68.66455078125
-69.580078125
-46.69189453125
-61.34033203125
-66.83349609375
-64.0869140625
-63.17138671875
-74.15771484375
-69.580078125
-86.0595703125
-75.98876953125
-54.931640625
-54.931640625
-54.01611328125
-65.91796875
-61.34033203125
-63.17138671875
-69.580078125
-63.17138671875
-69.580078125
-70.49560546875
-78.7353515625
-60.4248046875
-52.18505859375
-35.70556640625
-32.04345703125
-24.71923828125
-32.958984375
-36.62109375
-25.634765625
-11.90185546875
-4.57763671875
-9.1552734375
1.8310546875
10.07080078125
-1.8310546875
-2.74658203125
3.662109375
-2.74658203125
-13.73291015625
-15.56396484375
-24.71923828125
-25.634765625
-14.6484375
1.8310546875
-5.4931640625
-28.38134765625
-33.87451171875
-36.62109375
-61.34033203125
-47.607421875
-44.86083984375
-58.59375
-56.7626953125
-62.255859375
-68.66455078125
-63.17138671875
-74.15771484375
-74.15771484375
-84.228515625
-86.97509765625
-74.15771484375
-70.49560546875
-79.65087890625
-77.81982421875
-75.0732421875
-72.32666015625
-88.80615234375
-86.0595703125
-87.890625
-86.0595703125
-90.63720703125
-83.31298828125
-87.890625
-86.0595703125
-83.31298828125
-83.31298828125
-83.31298828125
-83.31298828125
-93.3837890625
-83.31298828125
-71.4111328125
-75.0732421875
-89.7216796875
-79.65087890625
-73.2421875
-88.80615234375
-89.7216796875
-92.46826171875
-97.96142578125
-104.3701171875
-83.31298828125
-65.91796875
-68.66455078125
-69.580078125
-47.607421875
8.23974609375
88.80615234375
184.02099609375
278.3203125
374.45068359375
471.49658203125
552.06298828125
654.60205078125
776.3671875
852.35595703125
936.58447265625
1007.080078125
1016.2353515625
926.513671875
765.380859375
583.19091796875
412.90283203125
279.23583984375
187.68310546875
117.1875
35.70556640625
1.8310546875
6.40869140625
3.662109375
5.4931640625
10.07080078125
21.97265625
27.4658203125
26.55029296875
19.22607421875
4.57763671875
-8.23974609375
-7.32421875
-24.71923828125
-22.88818359375
-17.39501953125
-20.1416015625
-21.97265625
-25.634765625
-25.634765625
-28.38134765625
-36.62109375
-20.1416015625
-41.19873046875
-42.1142578125
-42.1142578125
-39.36767578125
-29.296875
-26.55029296875
-22.88818359375
-31.1279296875
-30.21240234375
-43.02978515625
-47.607421875
-28.38134765625
-25.634765625
-30.21240234375
-37.53662109375
-32.04345703125
-34.7900390625
-40.283203125
-35.70556640625
-26.55029296875
-31.1279296875
-30.21240234375
-13.73291015625
-13.73291015625
-14.6484375
-14.6484375
-18.310546875
-20.1416015625
-17.39501953125
-21.97265625
-13.73291015625
-6.40869140625
-5.4931640625
-4.57763671875
0
11.90185546875
12.8173828125
-0.91552734375
1.8310546875
3.662109375
-4.57763671875
-1.8310546875
4.57763671875
6.40869140625
15.56396484375
21.05712890625
21.05712890625
19.22607421875
18.310546875
17.39501953125
18.310546875
28.38134765625
30.21240234375
40.283203125
47.607421875
51.26953125
48.52294921875
50.35400390625
55.84716796875
56.7626953125
41.19873046875
48.52294921875
57.67822265625
64.0869140625
65.91796875
68.66455078125
86.0595703125
90.63720703125
99.79248046875
105.28564453125
104.3701171875
102.5390625
106.201171875
116.27197265625
117.1875
132.75146484375
140.07568359375
140.9912109375
150.146484375
153.80859375
156.55517578125
161.1328125
164.794921875
171.20361328125
183.10546875
186.767578125
195.9228515625
205.99365234375
206.9091796875
205.99365234375
199.5849609375
215.14892578125
227.05078125
234.375
244.44580078125
255.43212890625
250.8544921875
261.8408203125
274.658203125
272.8271484375
273.74267578125
265.5029296875
281.06689453125
280.1513671875
285.64453125
288.39111328125
293.88427734375
281.06689453125
267.333984375
261.8408203125
254.5166015625
236.2060546875
222.47314453125
219.7265625
207.82470703125
187.68310546875
175.78125
155.6396484375
139.16015625
131.8359375
104.3701171875
95.21484375
77.81982421875
64.0869140625
51.26953125
47.607421875
34.7900390625
11.90185546875
4.57763671875
0.91552734375
-14.6484375
-21.05712890625
-27.4658203125
-27.4658203125
-32.04345703125
-35.70556640625
-38.4521484375
-45.7763671875
-54.931640625
-56.7626953125
-68.66455078125
-65.91796875
-67.7490234375
-64.0869140625
-60.4248046875
-52.18505859375
-55.84716796875
-65.00244140625
-75.0732421875
-69.580078125
-58.59375
-65.91796875
-65.00244140625
-75.0732421875
-64.0869140625
-55.84716796875
-69.580078125
-78.7353515625
-72.32666015625
-72.32666015625
-78.7353515625
-71.4111328125
-70.49560546875
-65.91796875
-69.580078125
-68.66455078125
-66.83349609375
-73.2421875
-85.14404296875
-84.228515625
-81.48193359375
-84.228515625
-74.15771484375
-72.32666015625
-61.34033203125
-67.7490234375
-75.98876953125
-69.580078125
-62.255859375
-63.17138671875
-82.3974609375
-73.2421875
-65.00244140625
-71.4111328125
-69.580078125
-65.91796875
-65.00244140625
-76.904296875
-68.66455078125
-78.7353515625
-90.63720703125
-79.65087890625
-79.65087890625
-78.7353515625
-66.83349609375
-70.49560546875
-72.32666015625
-62.255859375
-64.0869140625
-61.34033203125
-75.98876953125
-75.98876953125
-75.98876953125
-66.83349609375
-65.91796875
-65.00244140625
-51.26953125
-65.91796875
-62.255859375
-49.4384765625
-63.17138671875
-67.7490234375
-65.00244140625
-57.67822265625
-51.26953125
-46.69189453125
-52.18505859375
-61.34033203125
-58.59375
-66.83349609375
-73.2421875
-59.50927734375
-53.1005859375
-54.01611328125
-52.18505859375
-44.86083984375
-47.607421875
-45.7763671875
-50.35400390625
-54.01611328125
-61.34033203125
-62.255859375
-62.255859375
-62.255859375
-69.580078125
-63.17138671875
-59.50927734375
-60.4248046875
-63.17138671875
-58.59375
-65.00244140625
-57.67822265625
-57.67822265625
-65.91796875
-53.1005859375
-60.4248046875
-58.59375
-64.0869140625
-53.1005859375
-50.35400390625
-57.67822265625
-54.01611328125
-71.4111328125
-65.00244140625
-64.0869140625
-59.50927734375
-70.49560546875
-75.98876953125
-79.65087890625
-70.49560546875
-72.32666015625
-66.83349609375
-59.50927734375
-64.0869140625
-54.01611328125
-58.59375
-68.66455078125
-77.81982421875
-65.91796875
-81.48193359375
-89.7216796875
-86.0595703125
-75.98876953125
-71.4111328125
-79.65087890625
-72.32666015625
-72.32666015625
-75.98876953125
-81.48193359375
-88.80615234375
-98.876953125
-89.7216796875
-70.49560546875
-73.2421875
-83.31298828125
-69.580078125
-73.2421875
-90.63720703125
-92.46826171875
-82.3974609375
-77.81982421875
-84.228515625
-83.31298828125
-80.56640625
-73.2421875
-85.14404296875
-84.228515625
-83.31298828125
-75.98876953125
-81.48193359375
-79.65087890625
-79.65087890625
-76.904296875
-78.7353515625
-87.890625
-76.904296875
-78.7353515625
-90.63720703125
-87.890625
-81.48193359375
-87.890625
-88.80615234375
-91.552734375
-95.21484375
-86.0595703125
-84.228515625
-99.79248046875
-81.48193359375
-70.49560546875
-72.32666015625
-71.4111328125
-64.0869140625
-56.7626953125
-38.4521484375
-37.53662109375
-48.52294921875
-48.52294921875
-27.4658203125
-24.71923828125
-28.38134765625
-31.1279296875
-34.7900390625
-19.22607421875
-9.1552734375
-13.73291015625
-6.40869140625
-11.90185546875
-21.97265625
-28.38134765625
-38.4521484375
-33.87451171875
-24.71923828125
-30.21240234375
-37.53662109375
-54.931640625
-48.52294921875
-52.18505859375
-56.7626953125
-65.00244140625
-73.2421875
-75.98876953125
-82.3974609375
-76.904296875
-90.63720703125
-83.31298828125
-91.552734375
-92.46826171875
-97.96142578125
-96.13037109375
-97.96142578125
-100.7080078125
-104.3701171875
-108.0322265625
-105.28564453125
-104.3701171875
-92.46826171875
-103.45458984375
-112.60986328125
-104.3701171875
-108.94775390625
-121.76513671875
-115.3564453125
-107.11669921875
-109.86328125
-102.5390625
-105.28564453125
-104.3701171875
-108.94775390625
-109.86328125
-105.28564453125
-108.0322265625
-108.94775390625
-101.62353515625
-104.3701171875
-110.77880859375
-103.45458984375
-105.28564453125
-117.1875
-103.45458984375
-103.45458984375
-97.96142578125
-97.0458984375
-94.29931640625
-43.9453125
38.4521484375
130.0048828125
236.2060546875
340.576171875
435.791015625
522.76611328125
601.50146484375
709.53369140625
794.677734375
884.3994140625
968.6279296875
988.76953125
918.27392578125
770.8740234375
582.275390625
411.07177734375
262.75634765625
178.52783203125
95.21484375
30.21240234375
-8.23974609375
-19.22607421875
-12.8173828125
-19.22607421875
-6.40869140625
-3.662109375
-1.8310546875
4.57763671875
-5.4931640625
-15.56396484375
-27.4658203125
-17.39501953125
-27.4658203125
-36.62109375
-37.53662109375
-41.19873046875
-54.931640625
-50.35400390625
-40.283203125
-43.9453125
-45.7763671875
-47.607421875
-47.607421875
-58.59375
-43.9453125
-51.26953125
-66.83349609375
-60.4248046875
-57.67822265625
-59.50927734375
-58.59375
-49.4384765625
-43.02978515625
-53.1005859375
-43.9453125
-36.62109375
-41.19873046875
-44.86083984375
-42.1142578125
-29.296875
-29.296875
-28.38134765625
-28.38134765625
-27.4658203125
-38.4521484375
-38.4521484375
-38.4521484375
-31.1279296875
-29.296875
-20.1416015625
-18.310546875
-14.6484375
-14.6484375
-26.55029296875
-16.4794921875
-10.986328125
-26.55029296875
-20.1416015625
-8.23974609375
-7.32421875
-3.662109375
5.4931640625
0.91552734375
-3.662109375
7.32421875
8.23974609375
4.57763671875
6.40869140625
13.73291015625
21.05712890625
17.39501953125
22.88818359375
21.97265625
16.4794921875
26.55029296875
32.04345703125
36.62109375
32.04345703125
35.70556640625
43.02978515625
47.607421875
44.86083984375
41.19873046875
61.34033203125
68.66455078125
76.904296875
75.0732421875
78.7353515625
84.228515625
90.63720703125
94.29931640625
108.94775390625
112.60986328125
106.201171875
119.93408203125
123.59619140625
108.94775390625
123.59619140625
142.822265625
143.73779296875
141.90673828125
162.04833984375
167.54150390625
164.794921875
182.18994140625
184.02099609375
181.2744140625
196.83837890625
209.65576171875
210.5712890625
219.7265625
242.61474609375
232.5439453125
233.45947265625
248.10791015625
255.43212890625
253.60107421875
256.34765625
269.1650390625
265.5029296875
278.3203125
281.982421875
292.96875
292.96875
291.1376953125
299.37744140625
292.05322265625
284.72900390625
283.8134765625
283.8134765625
263.671875
261.8408203125
254.5166015625
246.27685546875
233.45947265625
210.5712890625
185.85205078125
171.20361328125
174.86572265625
151.9775390625
134.58251953125
116.27197265625
102.5390625
82.3974609375
71.4111328125
60.4248046875
34.7900390625
28.38134765625
21.97265625
10.986328125
-1.8310546875
-10.07080078125
-21.05712890625
-29.296875
-37.53662109375
-32.958984375
-44.86083984375
-47.607421875
-43.02978515625
-43.9453125
-46.69189453125
-47.607421875
-51.26953125
-63.17138671875
-64.0869140625
-54.01611328125
-62.255859375
-71.4111328125
-65.91796875
-62.255859375
-62.255859375
-72.32666015625
-69.580078125
-68.66455078125
-75.0732421875
-76.904296875
-82.3974609375
-76.904296875
-69.580078125
-67.7490234375
-65.00244140625
-62.255859375
-61.34033203125
-72.32666015625
-67.7490234375
-68.66455078125
-80.56640625
-81.48193359375
-76.904296875
-78.7353515625
-72.32666015625
-60.4248046875
-66.83349609375
-69.580078125
-77.81982421875
-70.49560546875
-74.15771484375
-75.98876953125
-78.7353515625
-74.15771484375
-73.2421875
-62.255859375
-58.59375
-67.7490234375
-72.32666015625
-70.49560546875
-80.56640625
-74.15771484375
-71.4111328125
-73.2421875
-68.66455078125
-58.59375
-64.0869140625
-81.48193359375
-77.81982421875
-66.83349609375
-62.255859375
-58.59375
-56.7626953125
-64.0869140625
-60.4248046875
-55.84716796875
-50.35400390625
-53.1005859375
-56.7626953125
-63.17138671875
-69.580078125
-62.255859375
-54.01611328125
-53.1005859375
-50.35400390625
-58.59375
-55.84716796875
-53.1005859375
-53.1005859375
-49.4384765625
-47.607421875
-63.17138671875
-65.00244140625
-47.607421875
-52.18505859375
-54.931640625
-47.607421875
-43.9453125
-46.69189453125
-45.7763671875
-56.7626953125
-45.7763671875
-57.67822265625
-38.4521484375
-29.296875
-32.958984375
-47.607421875
-48.52294921875
-49.4384765625
-46.69189453125
-53.1005859375
-41.19873046875
-46.69189453125
-56.7626953125
-51.26953125
-53.1005859375
-42.1142578125
-37.53662109375
-50.35400390625
-49.4384765625
-58.59375
-62.255859375
-60.4248046875
-54.931640625
-48.52294921875
-53.1005859375
-54.01611328125
-52.18505859375
-56.7626953125
-58.59375
-61.34033203125
-65.91796875
-62.255859375
-55.84716796875
-57.67822265625
-48.52294921875
-65.91796875
-70.49560546875
-75.0732421875
-67.7490234375
-73.2421875
-69.580078125
-65.91796875
-60.4248046875
-65.00244140625
-53.1005859375
-54.01611328125
-62.255859375
-65.00244140625
-66.83349609375
-75.98876953125
-70.49560546875
-82.3974609375
-74.15771484375
-62.255859375
-59.50927734375
-54.01611328125
-56.7626953125
-66.83349609375
-66.83349609375
-69.580078125
-75.0732421875
-63.17138671875
-57.67822265625
-63.17138671875
-59.50927734375
-60.4248046875
-62.255859375
-60.4248046875
-66.83349609375
-75.98876953125
-75.0732421875
-71.4111328125
-61.34033203125
-58.59375
-60.4248046875
-79.65087890625
-67.7490234375
-63.17138671875
-77.81982421875
-86.97509765625
-81.48193359375
-70.49560546875
-67.7490234375
-60.4248046875
-57.67822265625
-60.4248046875
-69.580078125
-65.00244140625
-61.34033203125
-76.904296875
-86.0595703125
-71.4111328125
-65.91796875
-67.7490234375
-65.00244140625
-67.7490234375
-69.580078125
-71.4111328125
-70.49560546875
-76.904296875
-72.32666015625
-73.2421875
-68.66455078125
-67.7490234375
-60.4248046875
-67.7490234375
-79.65087890625
-65.00244140625
-68.66455078125
-71.4111328125
-82.3974609375
-75.0732421875
-67.7490234375
-76.904296875
-72.32666015625
-69.580078125
-71.4111328125
-68.66455078125
-67.7490234375
-75.0732421875
-78.7353515625
-70.49560546875
-63.17138671875
-64.0869140625
-63.17138671875
-75.98876953125
-69.580078125
-75.0732421875
-80.56640625
-81.48193359375
-83.31298828125
-75.0732421875
-73.2421875
-63.17138671875
-60.4248046875
-68.66455078125
-66.83349609375
-70.49560546875
-68.66455078125
-76.904296875
-79.65087890625
-75.98876953125
-79.65087890625
-74.15771484375
-57.67822265625
-55.84716796875
-63.17138671875
-60.4248046875
-57.67822265625
-65.91796875
-59.50927734375
-58.59375
-60.4248046875
-47.607421875
-43.02978515625
-29.296875
-32.958984375
-49.4384765625
-38.4521484375
-29.296875
-32.958984375
-21.05712890625
-22.88818359375
-27.4658203125
-22.88818359375
-30.21240234375
-28.38134765625
-32.04345703125
-15.56396484375
-25.634765625
-39.36767578125
-27.4658203125
-30.21240234375
-16.4794921875
-5.4931640625
-12.8173828125
-12.8173828125
-22.88818359375
-32.958984375
-32.958984375
-32.04345703125
-27.4658203125
-21.97265625
-25.634765625
-32.958984375
-36.62109375
-37.53662109375
-40.283203125
-43.9453125
-60.4248046875
-57.67822265625
-50.35400390625
-67.7490234375
-70.49560546875
-70.49560546875
-71.4111328125
-77.81982421875
-83.31298828125
-80.56640625
-78.7353515625
-84.228515625
-87.890625
-83.31298828125
-87.890625
-92.46826171875
-98.876953125
-85.14404296875
-65.00244140625
-73.2421875
-81.48193359375
-78.7353515625
-72.32666015625
-71.4111328125
-78.7353515625
-67.7490234375
-74.15771484375
-78.7353515625
-86.0595703125
-77.81982421875
-85.14404296875
-86.97509765625
-76.904296875
-85.14404296875
-81.48193359375
-72.32666015625
-74.15771484375
-79.65087890625
-73.2421875
-82.3974609375
-88.80615234375
-81.48193359375
-62.255859375
-65.00244140625
-73.2421875
-52.18505859375
-8.23974609375
59.50927734375
143.73779296875
243.5302734375
339.66064453125
438.53759765625
522.76611328125
606.99462890625
706.787109375
813.90380859375
910.94970703125
985.107421875
1010.7421875
986.02294921875
859.68017578125
683.89892578125
496.2158203125
340.576171875
229.79736328125
149.23095703125
74.15771484375
21.05712890625
13.73291015625
7.32421875
19.22607421875
22.88818359375
25.634765625
37.53662109375
45.7763671875
32.958984375
11.90185546875
12.8173828125
13.73291015625
5.4931640625
-8.23974609375
-11.90185546875
-6.40869140625
-4.57763671875
-13.73291015625
-10.07080078125
-12.8173828125
-17.39501953125
-18.310546875
-14.6484375
-25.634765625
-21.05712890625
-15.56396484375
-16.4794921875
-19.22607421875
-15.56396484375
-21.97265625
-19.22607421875
-11.90185546875
-20.1416015625
-31.1279296875
-24.71923828125
-8.23974609375
-6.40869140625
-16.4794921875
-8.23974609375
0
-1.8310546875
-4.57763671875
-7.32421875
-8.23974609375
0.91552734375
0.91552734375
-0.91552734375
9.1552734375
5.4931640625
6.40869140625
7.32421875
12.8173828125
21.05712890625
4.57763671875
5.4931640625
8.23974609375
8.23974609375
22.88818359375
24.71923828125
19.22607421875
20.1416015625
25.634765625
21.97265625
14.6484375
19.22607421875
26.55029296875
38.4521484375
32.04345703125
45.7763671875
40.283203125
39.36767578125
54.01611328125
52.18505859375
54.01611328125
54.931640625
59.50927734375
55.84716796875
54.01611328125
65.00244140625
65.00244140625
56.7626953125
74.15771484375
76.904296875
75.98876953125
73.2421875
89.7216796875
93.3837890625
98.876953125
110.77880859375
109.86328125
115.3564453125
120.849609375
108.94775390625
118.10302734375
133.6669921875
136.41357421875
140.07568359375
143.73779296875
157.470703125
166.6259765625
178.52783203125
188.5986328125
197.75390625
184.02099609375
194.091796875
201.416015625
205.99365234375
222.47314453125
233.45947265625
243.5302734375
248.10791015625
244.44580078125
248.10791015625
250.8544921875
260.009765625
277.40478515625
286.56005859375
284.72900390625
293.88427734375
292.05322265625
292.96875
315.85693359375
302.1240234375
292.05322265625
308.53271484375
323.18115234375
321.35009765625
325.927734375
328.67431640625
322.265625
310.36376953125
311.279296875
290.22216796875
262.75634765625
259.09423828125
256.34765625
244.44580078125
229.79736328125
220.64208984375
195.00732421875
194.091796875
177.6123046875
153.80859375
130.0048828125
119.93408203125
96.13037109375
85.14404296875
78.7353515625
67.7490234375
54.931640625
42.1142578125
35.70556640625
26.55029296875
15.56396484375
9.1552734375
-1.8310546875
-15.56396484375
-8.23974609375
-6.40869140625
-3.662109375
-25.634765625
-28.38134765625
-18.310546875
-26.55029296875
-25.634765625
-22.88818359375
-24.71923828125
-24.71923828125
-23.8037109375
-17.39501953125
-30.21240234375
-33.87451171875
-27.4658203125
-32.958984375
-31.1279296875
-35.70556640625
-39.36767578125
-43.02978515625
-41.19873046875
-32.04345703125
-31.1279296875
-37.53662109375
-38.4521484375
-43.9453125
-39.36767578125
-37.53662109375
-29.296875
-26.55029296875
-25.634765625
-36.62109375
-38.4521484375
-35.70556640625
-41.19873046875
-45.7763671875
-41.19873046875
-42.1142578125
-32.958984375
-38.4521484375
-39.36767578125
-41.19873046875
-42.1142578125
-43.9453125
-41.19873046875
-53.1005859375
-42.1142578125
-38.4521484375
-34.7900390625
-40.283203125
-34.7900390625
-30.21240234375
-39.36767578125
-45.7763671875
-40.283203125
-45.7763671875
-46.69189453125
-32.04345703125
-28.38134765625
-34.7900390625
-32.958984375
-31.1279296875
-33.87451171875
-40.283203125
-35.70556640625
-48.52294921875
-50.35400390625
-34.7900390625
-18.310546875
-23.8037109375
-32.958984375
-34.7900390625
-33.87451171875
-35.70556640625
-32.04345703125
-32.958984375
-27.4658203125
-27.4658203125
-34.7900390625
-30.21240234375
-29.296875
-31.1279296875
-27.4658203125
-21.97265625
-22.88818359375
-32.958984375
-28.38134765625
-22.88818359375
-25.634765625
-21.97265625
-29.296875
-32.04345703125
-35.70556640625
-34.7900390625
-32.04345703125
-33.87451171875
-28.38134765625
-21.97265625
-23.8037109375
-19.22607421875
-15.56396484375
-24.71923828125
-25.634765625
-13.73291015625
-25.634765625
-42.1142578125
-40.283203125
-42.1142578125
-37.53662109375
-42.1142578125
-50.35400390625
-48.52294921875
-52.18505859375
-31.1279296875
-34.7900390625
-45.7763671875
-36.62109375
-31.1279296875
-32.04345703125
-39.36767578125
-31.1279296875
-33.87451171875
-32.04345703125
-33.87451171875
-36.62109375
-47.607421875
-36.62109375
-44.86083984375
-32.958984375
-37.53662109375
-36.62109375
-30.21240234375
-45.7763671875
-46.69189453125
-52.18505859375
-54.931640625
-54.01611328125
-53.1005859375
-57.67822265625
-47.607421875
-38.4521484375
-40.283203125
-47.607421875
-48.52294921875
-50.35400390625
-62.255859375
-53.1005859375
-45.7763671875
-49.4384765625
-43.9453125
-42.1142578125
-51.26953125
-45.7763671875
-43.02978515625
-47.607421875
-54.01611328125
-54.01611328125
-55.84716796875
-58.59375
-57.67822265625
-61.34033203125
-65.00244140625
-53.1005859375
-60.4248046875
-49.4384765625
-54.01611328125
-54.931640625
-56.7626953125
-51.26953125
-53.1005859375
-52.18505859375
-52.18505859375
-53.1005859375
-62.255859375
-65.91796875
-62.255859375
-49.4384765625
-53.1005859375
-58.59375
-67.7490234375
-44.86083984375
-40.283203125
-53.1005859375
-52.18505859375
-54.01611328125
-67.7490234375
-73.2421875
-64.0869140625
-55.84716796875
-66.83349609375
-54.01611328125
-58.59375
-69.580078125
-61.34033203125
-52.18505859375
-68.66455078125
-60.4248046875
-60.4248046875
-62.255859375
-65.00244140625
-62.255859375
-60.4248046875
-58.59375
-62.255859375
-65.91796875
-68.66455078125
-72.32666015625
-68.66455078125
-58.59375
-61.34033203125
-62.255859375
-68.66455078125
-68.66455078125
-62.255859375
-50.35400390625
-65.00244140625
-64.0869140625
-54.931640625
-50.35400390625
-53.1005859375
-41.19873046875
-46.69189453125
-51.26953125
-51.26953125
-61.34033203125
-72.32666015625
-61.34033203125
-75.0732421875
-66.83349609375
-43.9453125
-44.86083984375
-49.4384765625
-38.4521484375
-30.21240234375
-31.1279296875
-41.19873046875
-35.70556640625
-49.4384765625
-37.53662109375
-39.36767578125
-43.9453125
-46.69189453125
-39.36767578125
-39.36767578125
-44.86083984375
-50.35400390625
-55.84716796875
-48.52294921875
-57.67822265625
-45.7763671875
-40.283203125
-52.18505859375
-57.67822265625
-43.9453125
-40.283203125
-50.35400390625
-50.35400390625
-45.7763671875
-39.36767578125
-33.87451171875
-40.283203125
-49.4384765625
-62.255859375
-65.00244140625
-73.2421875
-74.15771484375
-70.49560546875
-66.83349609375
-76.904296875
-72.32666015625
-72.32666015625
-82.3974609375
-86.0595703125
-75.0732421875
-77.81982421875
-80.56640625
-70.49560546875
-75.98876953125
-79.65087890625
-72.32666015625
-71.4111328125
-73.2421875
-72.32666015625
-67.7490234375
-73.2421875
-80.56640625
-74.15771484375
-65.91796875
-66.83349609375
-80.56640625
-77.81982421875
-75.98876953125
-69.580078125
-70.49560546875
-76.904296875
-82.3974609375
-80.56640625
-77.81982421875
-81.48193359375
-84.228515625
-78.7353515625
-71.4111328125
-72.32666015625
-71.4111328125
-78.7353515625
-50.35400390625
25.634765625
109.86328125
207.82470703125
306.70166015625
414.73388671875
510.8642578125
581.35986328125
680.23681640625
783.69140625
867.919921875
965.88134765625
1023.5595703125
1027.2216796875
932.92236328125
761.71875
574.951171875
401.91650390625
281.982421875
189.51416015625
97.96142578125
37.53662109375
26.55029296875
20.1416015625
15.56396484375
24.71923828125
34.7900390625
38.4521484375
44.86083984375
46.69189453125
13.73291015625
-0.91552734375
0
-2.74658203125
0
-4.57763671875
1.8310546875
-8.23974609375
-24.71923828125
-14.6484375
-32.958984375
-32.04345703125
-18.310546875
-22.88818359375
-11.90185546875
-9.1552734375
-24.71923828125
-23.8037109375
-25.634765625
-27.4658203125
-30.21240234375
-29.296875
-28.38134765625
-19.22607421875
-25.634765625
-13.73291015625
-12.8173828125
-25.634765625
-19.22607421875
-19.22607421875
-31.1279296875
-19.22607421875
-10.986328125
-10.07080078125
-8.23974609375
-11.90185546875
1.8310546875
-2.74658203125
-5.4931640625
-3.662109375
-13.73291015625
-7.32421875
1.8310546875
5.4931640625
-3.662109375
11.90185546875
16.4794921875
3.662109375
0.91552734375
3.662109375
10.986328125
10.986328125
7.32421875
14.6484375
10.986328125
18.310546875
20.1416015625
20.1416015625
27.4658203125
22.88818359375
29.296875
32.04345703125
33.87451171875
27.4658203125
29.296875
37.53662109375
38.4521484375
32.04345703125
44.86083984375
50.35400390625
49.4384765625
52.18505859375
64.0869140625
62.255859375
70.49560546875
65.00244140625
67.7490234375
80.56640625
88.80615234375
86.0595703125
85.14404296875
106.201171875
109.86328125
105.28564453125
117.1875
112.60986328125
118.10302734375
125.42724609375
127.25830078125
134.58251953125
143.73779296875
146.484375
157.470703125
165.71044921875
171.20361328125
184.9365234375
195.00732421875
193.17626953125
197.75390625
198.66943359375
196.83837890625
216.97998046875
227.05078125
233.45947265625
234.375
237.12158203125
240.78369140625
240.78369140625
267.333984375
285.64453125
271.91162109375
271.91162109375
276.4892578125
282.89794921875
289.306640625
294.7998046875
300.29296875
298.4619140625
297.54638671875
292.05322265625
281.982421875
276.4892578125
280.1513671875
280.1513671875
261.8408203125
253.60107421875
233.45947265625
211.48681640625
204.16259765625
188.5986328125
163.87939453125
154.72412109375
143.73779296875
119.0185546875
109.86328125
100.7080078125
85.14404296875
61.34033203125
63.17138671875
52.18505859375
22.88818359375
13.73291015625
3.662109375
6.40869140625
-4.57763671875
-2.74658203125
-21.97265625
-31.1279296875
-28.38134765625
-36.62109375
-44.86083984375
-42.1142578125
-42.1142578125
-47.607421875
-43.02978515625
-50.35400390625
-43.9453125
-54.01611328125
-54.01611328125
-48.52294921875
-62.255859375
-62.255859375
-62.255859375
-63.17138671875
-60.4248046875
-43.02978515625
-52.18505859375
-66.83349609375
-63.17138671875
-72.32666015625
-72.32666015625
-66.83349609375
-63.17138671875
-63.17138671875
-63.17138671875
-65.00244140625
-75.98876953125
-68.66455078125
-56.7626953125
-58.59375
-70.49560546875
-60.4248046875
-62.255859375
-61.34033203125
-67.7490234375
-69.580078125
-70.49560546875
-74.15771484375
-66.83349609375
-68.66455078125
-67.7490234375
-64.0869140625
-66.83349609375
-64.0869140625
-71.4111328125
-72.32666015625
-66.83349609375
-65.00244140625
-63.17138671875
-64.0869140625
-72.32666015625
-67.7490234375
-58.59375
-60.4248046875
-65.00244140625
-59.50927734375
-58.59375
-65.00244140625
-80.56640625
-75.0732421875
-66.83349609375
-68.66455078125
-67.7490234375
-68.66455078125
-59.50927734375
-45.7763671875
-48.52294921875
-63.17138671875
-63.17138671875
-65.91796875
-65.91796875
-64.0869140625
-54.931640625
-62.255859375
-63.17138671875
-59.50927734375
-67.7490234375
-54.931640625
-53.1005859375
-48.52294921875
-60.4248046875
-52.18505859375
-57.67822265625
-42.1142578125
-47.607421875
-46.69189453125
-46.69189453125
-47.607421875
-40.283203125
-53.1005859375
-58.59375
-54.01611328125
-44.86083984375
-41.19873046875
-36.62109375
-39.36767578125
-38.4521484375
-49.4384765625
-50.35400390625
-54.931640625
-52.18505859375
-51.26953125
-48.52294921875
-44.86083984375
-40.283203125
-42.1142578125
-55.84716796875
-59.50927734375
-46.69189453125
-50.35400390625
-65.00244140625
-59.50927734375
-56.7626953125
-55.84716796875
-50.35400390625
-52.18505859375
-57.67822265625
-55.84716796875
-51.26953125
-59.50927734375
-66.83349609375
-69.580078125
-74.15771484375
-74.15771484375
-67.7490234375
-54.01611328125
-63.17138671875
-75.98876953125
-75.0732421875
-77.81982421875
-75.98876953125
-75.0732421875
-75.98876953125
-77.81982421875
-65.91796875
-68.66455078125
-69.580078125
-73.2421875
-67.7490234375
-69.580078125
-81.48193359375
-76.904296875
-62.255859375
-75.98876953125
-70.49560546875
-57.67822265625
-66.83349609375
-65.00244140625
-69.580078125
-72.32666015625
-75.98876953125
-66.83349609375
-69.580078125
-79.65087890625
-71.4111328125
-67.7490234375
-72.32666015625
-65.91796875
-49.4384765625
-62.255859375
-72.32666015625
-78.7353515625
-82.3974609375
-79.65087890625
-90.63720703125
-82.3974609375
-87.890625
-93.3837890625
-99.79248046875
-105.28564453125
-111.6943359375
-109.86328125
-106.201171875
-108.0322265625
-101.62353515625
-86.0595703125
-83.31298828125
-86.0595703125
-75.0732421875
-72.32666015625
-81.48193359375
-79.65087890625
-80.56640625
-81.48193359375
-81.48193359375
-72.32666015625
-75.0732421875
-73.2421875
-82.3974609375
-87.890625
-86.0595703125
-76.904296875
-77.81982421875
-73.2421875
-57.67822265625
-59.50927734375
-73.2421875
-84.228515625
-85.14404296875
-77.81982421875
-80.56640625
-82.3974609375
-91.552734375
-88.80615234375
-84.228515625
-89.7216796875
-96.13037109375
-86.0595703125
-90.63720703125
-96.13037109375
-100.7080078125
-95.21484375
-90.63720703125
-99.79248046875
-104.3701171875
-99.79248046875
-95.21484375
-103.45458984375
-94.29931640625
-92.46826171875
-92.46826171875
-90.63720703125
-86.0595703125
-82.3974609375
-85.14404296875
-75.98876953125
-87.890625
-96.13037109375
-94.29931640625
-90.63720703125
-101.62353515625
-89.7216796875
-94.29931640625
-89.7216796875
-93.3837890625
-101.62353515625
-105.28564453125
-95.21484375
-83.31298828125
-97.0458984375
-101.62353515625
-65.91796875
-4.57763671875
71.4111328125
166.6259765625
271.91162109375
375.3662109375
480.65185546875
551.1474609375
639.95361328125
736.99951171875
831.298828125
922.8515625
1002.50244140625
1006.16455078125
906.3720703125
735.16845703125
557.55615234375
409.24072265625
258.1787109375
169.37255859375
99.79248046875
31.1279296875
-9.1552734375
-16.4794921875
-6.40869140625
1.8310546875
-2.74658203125
5.4931640625
21.97265625
26.55029296875
15.56396484375
9.1552734375
-2.74658203125
-9.1552734375
-18.310546875
-26.55029296875
-22.88818359375
-20.1416015625
-21.97265625
-32.04345703125
-30.21240234375
-31.1279296875
-28.38134765625
-36.62109375
-32.04345703125
-22.88818359375
-30.21240234375
-31.1279296875
-31.1279296875
-46.69189453125
-38.4521484375
-40.283203125
-45.7763671875
-45.7763671875
-17.39501953125
-25.634765625
-29.296875
-19.22607421875
-25.634765625
-33.87451171875
-29.296875
-18.310546875
-17.39501953125
-17.39501953125
-6.40869140625
-10.986328125
-13.73291015625
-14.6484375
-1.8310546875
-11.90185546875
-14.6484375
-18.310546875
-21.97265625
-14.6484375
0
-8.23974609375
-8.23974609375
2.74658203125
1.8310546875
3.662109375
4.57763671875
14.6484375
5.4931640625
11.90185546875
20.1416015625
13.73291015625
9.1552734375
6.40869140625
9.1552734375
17.39501953125
15.56396484375
19.22607421875
20.1416015625
23.8037109375
43.9453125
42.1142578125
40.283203125
38.4521484375
33.87451171875
34.7900390625
44.86083984375
42.1142578125
47.607421875
60.4248046875
61.34033203125
58.59375
56.7626953125
78.7353515625
81.48193359375
71.4111328125
80.56640625
95.21484375
97.96142578125
92.46826171875
108.0322265625
119.93408203125
113.525390625
117.1875
123.59619140625
124.51171875
133.6669921875
146.484375
160.21728515625
173.03466796875
173.03466796875
176.69677734375
186.767578125
185.85205078125
184.9365234375
199.5849609375
202.33154296875
223.388671875
231.62841796875
238.037109375
248.10791015625
242.61474609375
248.10791015625
260.92529296875
259.09423828125
253.60107421875
273.74267578125
283.8134765625
282.89794921875
304.87060546875
306.70166015625
288.39111328125
285.64453125
292.96875
302.1240234375
283.8134765625
283.8134765625
288.39111328125
287.4755859375
271.91162109375
254.5166015625
238.037109375
213.31787109375
203.2470703125
185.85205078125
175.78125
155.6396484375
140.9912109375
127.25830078125
114.44091796875
100.7080078125
83.31298828125
74.15771484375
58.59375
35.70556640625
12.8173828125
2.74658203125
6.40869140625
-5.4931640625
-11.90185546875
-13.73291015625
-22.88818359375
-27.4658203125
-35.70556640625
-38.4521484375
-53.1005859375
-54.01611328125
-44.86083984375
-55.84716796875
-64.0869140625
-57.67822265625
-50.35400390625
-64.0869140625
-71.4111328125
-69.580078125
-72.32666015625
-73.2421875
-63.17138671875
-65.91796875
-76.904296875
-75.0732421875
-71.4111328125
-72.32666015625
-73.2421875
-64.0869140625
-68.66455078125
-75.98876953125
-82.3974609375
-79.65087890625
-59.50927734375
-56.7626953125
-61.34033203125
-67.7490234375
-61.34033203125
-57.67822265625
-67.7490234375
-67.7490234375
-62.255859375
-71.4111328125
-73.2421875
-67.7490234375
-65.00244140625
-64.0869140625
-69.580078125
-62.255859375
-77.81982421875
-71.4111328125
-65.91796875
-70.49560546875
-78.7353515625
-63.17138671875
-57.67822265625
-72.32666015625
-70.49560546875
-81.48193359375
-85.14404296875
-74.15771484375
-71.4111328125
-64.0869140625
-55.84716796875
-56.7626953125
-59.50927734375
-65.91796875
-61.34033203125
-65.91796875
-70.49560546875
-75.98876953125
-70.49560546875
-65.91796875
-55.84716796875
-60.4248046875
-64.0869140625
-59.50927734375
-61.34033203125
-72.32666015625
-78.7353515625
-67.7490234375
-71.4111328125
-57.67822265625
-45.7763671875
-44.86083984375
-51.26953125
-54.931640625
-46.69189453125
-64.0869140625
-70.49560546875
-53.1005859375
-43.9453125
-44.86083984375
-47.607421875
-43.9453125
-47.607421875
-40.283203125
-38.4521484375
-50.35400390625
-61.34033203125
-64.0869140625
-52.18505859375
-46.69189453125
-37.53662109375
-40.283203125
-39.36767578125
-47.607421875
-45.7763671875
-43.9453125
-49.4384765625
-58.59375
-61.34033203125
-55.84716796875
-49.4384765625
-47.607421875
-51.26953125
-61.34033203125
-50.35400390625
-51.26953125
-55.84716796875
-54.01611328125
-52.18505859375
-53.1005859375
-60.4248046875
-60.4248046875
-71.4111328125
-61.34033203125
-50.35400390625
-49.4384765625
-68.66455078125
-75.98876953125
-63.17138671875
-53.1005859375
-62.255859375
-70.49560546875
-68.66455078125
-68.66455078125
-78.7353515625
-84.228515625
-78.7353515625
-77.81982421875
-63.17138671875
-65.91796875
-70.49560546875
-56.7626953125
-55.84716796875
-65.00244140625
-75.98876953125
-63.17138671875
-77.81982421875
-68.66455078125
-65.00244140625
-75.0732421875
-70.49560546875
-60.4248046875
-74.15771484375
-81.48193359375
-78.7353515625
-75.0732421875
-72.32666015625
-65.00244140625
-66.83349609375
-73.2421875
-67.7490234375
-61.34033203125
-67.7490234375
-65.00244140625
-61.34033203125
-60.4248046875
-75.0732421875
-74.15771484375
-75.98876953125
-80.56640625
-71.4111328125
-56.7626953125
-62.255859375
-81.48193359375
-86.97509765625
-86.0595703125
-86.0595703125
-67.7490234375
-65.91796875
-73.2421875
-74.15771484375
-71.4111328125
-73.2421875
-80.56640625
-80.56640625
-89.7216796875
-86.0595703125
-73.2421875
-67.7490234375
-72.32666015625
-71.4111328125
-71.4111328125
-73.2421875
-65.00244140625
-64.0869140625
-68.66455078125
-68.66455078125
-65.00244140625
-67.7490234375
-75.98876953125
-79.65087890625
-70.49560546875
-72.32666015625
-83.31298828125
-89.7216796875
-95.21484375
-97.96142578125
-89.7216796875
-92.46826171875
-90.63720703125
-86.97509765625
-78.7353515625
-82.3974609375
-74.15771484375
-73.2421875
-83.31298828125
-81.48193359375
-70.49560546875
-68.66455078125
-60.4248046875
-79.65087890625
-68.66455078125
-54.931640625
-59.50927734375
-52.18505859375
-62.255859375
-83.31298828125
-85.14404296875
-81.48193359375
-63.17138671875
-63.17138671875
-59.50927734375
-57.67822265625
-63.17138671875
-68.66455078125
-76.904296875
-86.0595703125
-76.904296875
-65.00244140625
-69.580078125
-67.7490234375
-75.0732421875
-86.0595703125
-94.29931640625
-83.31298828125
-83.31298828125
-84.228515625
-86.0595703125
-90.63720703125
-80.56640625
-81.48193359375
-73.2421875
-85.14404296875
-88.80615234375
-85.14404296875
-76.904296875
-90.63720703125
-90.63720703125
-93.3837890625
-94.29931640625
-92.46826171875
-85.14404296875
-81.48193359375
-73.2421875
-71.4111328125
-88.80615234375
-70.49560546875
-74.15771484375
-76.904296875
-76.904296875
-73.2421875
-72.32666015625
-79.65087890625
-91.552734375
-90.63720703125
-80.56640625
-86.97509765625
-59.50927734375
-46.69189453125
-63.17138671875
-29.296875
54.931640625
145.56884765625
242.61474609375
330.50537109375
422.05810546875
512.6953125
602.4169921875
700.37841796875
805.6640625
884.3994140625
968.6279296875
1007.080078125
988.76953125
888.0615234375
699.462890625
489.80712890625
334.16748046875
228.8818359375
140.07568359375
76.904296875
27.4658203125
7.32421875
1.8310546875
11.90185546875
19.22607421875
17.39501953125
35.70556640625
41.19873046875
22.88818359375
25.634765625
27.4658203125
9.1552734375
-2.74658203125
-13.73291015625
-7.32421875
-20.1416015625
-16.4794921875
-11.90185546875
-20.1416015625
-10.986328125
-3.662109375
-23.8037109375
-21.97265625
-21.97265625
-21.05712890625
-15.56396484375
-16.4794921875
-10.986328125
-12.8173828125
-12.8173828125
-8.23974609375
-13.73291015625
-18.310546875
-23.8037109375
-28.38134765625
-32.04345703125
-13.73291015625
-10.986328125
-7.32421875
-17.39501953125
-12.8173828125
-1.8310546875
-1.8310546875
-6.40869140625
-7.32421875
-11.90185546875
-5.4931640625
-5.4931640625
-10.07080078125
6.40869140625
7.32421875
0.91552734375
0
6.40869140625
-9.1552734375
-13.73291015625
-4.57763671875
1.8310546875
5.4931640625
11.90185546875
15.56396484375
16.4794921875
8.23974609375
18.310546875
19.22607421875
3.662109375
28.38134765625
28.38134765625
29.296875
31.1279296875
36.62109375
44.86083984375
43.9453125
44.86083984375
40.283203125
36.62109375
38.4521484375
43.9453125
52.18505859375
52.18505859375
65.00244140625
72.32666015625
69.580078125
56.7626953125
61.34033203125
73.2421875
75.98876953125
84.228515625
86.0595703125
100.7080078125
102.5390625
97.0458984375
102.5390625
110.77880859375
108.0322265625
111.6943359375
140.9912109375
137.3291015625
133.6669921875
143.73779296875
158.38623046875
170.2880859375
173.9501953125
179.443359375
175.78125
180.35888671875
192.2607421875
202.33154296875
213.31787109375
217.8955078125
228.8818359375
238.95263671875
245.361328125
247.1923828125
241.69921875
245.361328125
255.43212890625
264.58740234375
275.57373046875
277.40478515625
283.8134765625
289.306640625
295.71533203125
304.87060546875
301.20849609375
301.20849609375
305.7861328125
301.20849609375
297.54638671875
292.96875
295.71533203125
280.1513671875
283.8134765625
262.75634765625
248.10791015625
226.13525390625
213.31787109375
197.75390625
194.091796875
176.69677734375
153.80859375
121.76513671875
102.5390625
99.79248046875
103.45458984375
76.904296875
53.1005859375
52.18505859375
42.1142578125
36.62109375
32.958984375
13.73291015625
0
-11.90185546875
-16.4794921875
-27.4658203125
-34.7900390625
-26.55029296875
-21.97265625
-32.958984375
-30.21240234375
-32.958984375
-39.36767578125
-43.02978515625
-46.69189453125
-47.607421875
-50.35400390625
-54.01611328125
-59.50927734375
-46.69189453125
-43.9453125
-53.1005859375
-51.26953125
-53.1005859375
-51.26953125
-58.59375
-54.931640625
-51.26953125
-56.7626953125
-51.26953125
-36.62109375
-47.607421875
-62.255859375
-59.50927734375
-52.18505859375
-49.4384765625
-57.67822265625
-48.52294921875
-47.607421875
-49.4384765625
-54.931640625
-61.34033203125
-60.4248046875
-54.01611328125
-55.84716796875
-51.26953125
-49.4384765625
-49.4384765625
-53.1005859375
-54.931640625
-55.84716796875
-48.52294921875
-55.84716796875
-58.59375
-60.4248046875
-60.4248046875
-54.01611328125
-58.59375
-54.01611328125
-56.7626953125
-43.9453125
-49.4384765625
-56.7626953125
-56.7626953125
-41.19873046875
-46.69189453125
-42.1142578125
-41.19873046875
-45.7763671875
-48.52294921875
-46.69189453125
-46.69189453125
-40.283203125
-40.283203125
-47.607421875
-57.67822265625
-60.4248046875
-38.4521484375
-45.7763671875
-43.9453125
-43.02978515625
-34.7900390625
-36.62109375
-47.607421875
-60.4248046875
-55.84716796875
-47.607421875
-44.86083984375
-50.35400390625
-45.7763671875
-36.62109375
-35.70556640625
-27.4658203125
-29.296875
-44.86083984375
-56.7626953125
-49.4384765625
-38.4521484375
-35.70556640625
-36.62109375
-32.04345703125
-37.53662109375
-36.62109375
-40.283203125
-41.19873046875
-44.86083984375
-39.36767578125
-45.7763671875
-36.62109375
-37.53662109375
-40.283203125
-42.1142578125
-38.4521484375
-43.02978515625
-56.7626953125
-48.52294921875
-46.69189453125
-36.62109375
-41.19873046875
-39.36767578125
-36.62109375
-32.04345703125
-33.87451171875
-39.36767578125
-40.283203125
-50.35400390625
-43.9453125
-40.283203125
-42.1142578125
-48.52294921875
-38.4521484375
-43.02978515625
-48.52294921875
-49.4384765625
-47.607421875
-65.91796875
-64.0869140625
-57.67822265625
-48.52294921875
-43.9453125
-44.86083984375
-56.7626953125
-58.59375
-58.59375
-59.50927734375
-66.83349609375
-60.4248046875
-49.4384765625
-46.69189453125
-51.26953125
-54.931640625
-54.01611328125
-52.18505859375
-43.9453125
-45.7763671875
-51.26953125
-62.255859375
-68.66455078125
-61.34033203125
-58.59375
-52.18505859375
-43.9453125
-45.7763671875
-51.26953125
-61.34033203125
-56.7626953125
-49.4384765625
-56.7626953125
-58.59375
-57.67822265625
-51.26953125
-58.59375
-65.91796875
-58.59375
-67.7490234375
-68.66455078125
-61.34033203125
-69.580078125
-52.18505859375
-52.18505859375
-57.67822265625
-58.59375
-60.4248046875
-53.1005859375
-54.01611328125
-65.91796875
-66.83349609375
-62.255859375
-70.49560546875
-56.7626953125
-54.931640625
-54.931640625
-56.7626953125
-58.59375
-62.255859375
-69.580078125
-75.0732421875
-57.67822265625
-56.7626953125
-67.7490234375
-67.7490234375
-71.4111328125
-61.34033203125
-62.255859375
-75.98876953125
-61.34033203125
-57.67822265625
-68.66455078125
-65.91796875
-58.59375
-64.0869140625
-71.4111328125
-72.32666015625
-75.98876953125
-72.32666015625
-78.7353515625
-83.31298828125
-81.48193359375
-86.0595703125
-74.15771484375
-77.81982421875
-76.904296875
-66.83349609375
-67.7490234375
-71.4111328125
-70.49560546875
-64.0869140625
-61.34033203125
-55.84716796875
-59.50927734375
-65.91796875
-63.17138671875
-49.4384765625
-47.607421875
-51.26953125
-71.4111328125
-59.50927734375
-60.4248046875
-54.931640625
-50.35400390625
-43.02978515625
-38.4521484375
-39.36767578125
-44.86083984375
-59.50927734375
-74.15771484375
-69.580078125
-61.34033203125
-59.50927734375
-65.00244140625
-64.0869140625
-83.31298828125
-65.91796875
-79.65087890625
-80.56640625
-82.3974609375
-77.81982421875
-75.98876953125
-74.15771484375
-80.56640625
-79.65087890625
-82.3974609375
-71.4111328125
-77.81982421875
-86.97509765625
-83.31298828125
-75.0732421875
-69.580078125
-80.56640625
-84.228515625
-82.3974609375
-80.56640625
-76.904296875
-77.81982421875
-76.904296875
-87.890625
-80.56640625
-74.15771484375
-78.7353515625
-73.2421875
-66.83349609375
-83.31298828125
-86.0595703125
-79.65087890625
-75.98876953125
-84.228515625
-76.904296875
-66.83349609375
-56.7626953125
-59.50927734375
-26.55029296875
47.607421875
127.25830078125
223.388671875
335.99853515625
436.70654296875
534.66796875
624.3896484375
720.52001953125
818.4814453125
910.94970703125
997.00927734375
1029.96826171875
1007.080078125
884.3994140625
694.88525390625
507.2021484375
355.224609375
234.375
154.72412109375
90.63720703125
34.7900390625
15.56396484375
14.6484375
19.22607421875
14.6484375
12.8173828125
32.958984375
34.7900390625
23.8037109375
24.71923828125
20.1416015625
3.662109375
0.91552734375
-12.8173828125
-22.88818359375
-18.310546875
-7.32421875
-21.97265625
-20.1416015625
-9.1552734375
-25.634765625
-29.296875
-17.39501953125
-26.55029296875
-28.38134765625
-32.958984375
-24.71923828125
-28.38134765625
-19.22607421875
-18.310546875
-25.634765625
-28.38134765625
-24.71923828125
-26.55029296875
-37.53662109375
-20.1416015625
-9.1552734375
-4.57763671875
-7.32421875
-5.4931640625
-14.6484375
-12.8173828125
-8.23974609375
-15.56396484375
-16.4794921875
-11.90185546875
-7.32421875
-11.90185546875
-13.73291015625
-1.8310546875
1.8310546875
-8.23974609375
-4.57763671875
-10.07080078125
-2.74658203125
0
10.07080078125
0
0
27.4658203125
11.90185546875
10.986328125
23.8037109375
16.4794921875
12.8173828125
16.4794921875
15.56396484375
22.88818359375
16.4794921875
2.74658203125
19.22607421875
37.53662109375
27.4658203125
37.53662109375
32.958984375
34.7900390625
54.931640625
55.84716796875
56.7626953125
63.17138671875
54.01611328125
57.67822265625
65.91796875
58.59375
59.50927734375
75.98876953125
68.66455078125
64.0869140625
71.4111328125
70.49560546875
83.31298828125
90.63720703125
105.28564453125
108.0322265625
108.94775390625
110.77880859375
119.0185546875
127.25830078125
132.75146484375
145.56884765625
152.89306640625
155.6396484375
156.55517578125
151.06201171875
175.78125
183.10546875
194.091796875
194.091796875
204.16259765625
217.8955078125
211.48681640625
213.31787109375
216.97998046875
216.97998046875
227.05078125
240.78369140625
252.685546875
247.1923828125
253.60107421875
268.24951171875
268.24951171875
272.8271484375
276.4892578125
277.40478515625
283.8134765625
291.1376953125
298.4619140625
291.1376953125
294.7998046875
289.306640625
274.658203125
270.08056640625
261.8408203125
241.69921875
217.8955078125
201.416015625
199.5849609375
194.091796875
167.54150390625
151.9775390625
130.0048828125
112.60986328125
95.21484375
86.97509765625
65.00244140625
48.52294921875
50.35400390625
33.87451171875
24.71923828125
25.634765625
10.986328125
-8.23974609375
-12.8173828125
-13.73291015625
-28.38134765625
-33.87451171875
-50.35400390625
-39.36767578125
-32.04345703125
-45.7763671875
-46.69189453125
-54.01611328125
-64.0869140625
-61.34033203125
-70.49560546875
-65.00244140625
-63.17138671875
-76.904296875
-61.34033203125
-62.255859375
-75.0732421875
-75.98876953125
-66.83349609375
-64.0869140625
-75.0732421875
-69.580078125
-65.00244140625
-72.32666015625
-60.4248046875
-55.84716796875
-65.91796875
-70.49560546875
-65.91796875
-66.83349609375
-85.14404296875
-74.15771484375
-58.59375
-71.4111328125
-65.91796875
-75.98876953125
-78.7353515625
-71.4111328125
-65.91796875
-76.904296875
-71.4111328125
-71.4111328125
-75.0732421875
-81.48193359375
-80.56640625
-71.4111328125
-73.2421875
-70.49560546875
-75.98876953125
-68.66455078125
-71.4111328125
-73.2421875
-63.17138671875
-72.32666015625
-67.7490234375
-68.66455078125
-62.255859375
-75.98876953125
-83.31298828125
-76.904296875
-77.81982421875
-71.4111328125
-57.67822265625
-68.66455078125
-60.4248046875
-58.59375
-75.98876953125
-77.81982421875
-70.49560546875
-63.17138671875
-77.81982421875
-75.0732421875
-58.59375
-62.255859375
-51.26953125
-48.52294921875
-60.4248046875
-58.59375
-64.0869140625
-63.17138671875
-65.91796875
-72.32666015625
-64.0869140625
-52.18505859375
-50.35400390625
-48.52294921875
-50.35400390625
-65.00244140625
-69.580078125
-64.0869140625
-66.83349609375
-68.66455078125
-68.66455078125
-62.255859375
-43.9453125
-45.7763671875
-55.84716796875
-52.18505859375
-55.84716796875
-54.01611328125
-61.34033203125
-56.7626953125
-54.931640625
-59.50927734375
-65.00244140625
-42.1142578125
-44.86083984375
-69.580078125
-66.83349609375
-57.67822265625
-62.255859375
-65.00244140625
-63.17138671875
-59.50927734375
-68.66455078125
-70.49560546875
-63.17138671875
-58.59375
-58.59375
-73.2421875
-83.31298828125
-87.890625
-75.0732421875
-67.7490234375
-68.66455078125
-63.17138671875
-79.65087890625
-86.97509765625
-83.31298828125
-66.83349609375
-73.2421875
-79.65087890625
-72.32666015625
-75.0732421875
-79.65087890625
-69.580078125
-77.81982421875
-88.80615234375
-85.14404296875
-86.0595703125
-80.56640625
-71.4111328125
-70.49560546875
-63.17138671875
-67.7490234375
-70.49560546875
-77.81982421875
-75.0732421875
-74.15771484375
-85.14404296875
-89.7216796875
-83.31298828125
-82.3974609375
-77.81982421875
-82.3974609375
-82.3974609375
-75.98876953125
-86.0595703125
-79.65087890625
-87.890625
-93.3837890625
-82.3974609375
-81.48193359375
-87.890625
-73.2421875
-67.7490234375
-91.552734375
-95.21484375
-77.81982421875
-75.0732421875
-90.63720703125
-85.14404296875
-92.46826171875
-91.552734375
-89.7216796875
-97.96142578125
-98.876953125
-101.62353515625
-101.62353515625
-105.28564453125
-108.94775390625
-108.94775390625
-109.86328125
-103.45458984375
-98.876953125
-93.3837890625
-109.86328125
-103.45458984375
-99.79248046875
-95.21484375
-100.7080078125
-90.63720703125
-80.56640625
-77.81982421875
-82.3974609375
-76.904296875
-73.2421875
-75.0732421875
-69.580078125
-80.56640625
-93.3837890625
-93.3837890625
-79.65087890625
-77.81982421875
-65.91796875
-71.4111328125
-77.81982421875
-84.228515625
-82.3974609375
-81.48193359375
-86.97509765625
-90.63720703125
-76.904296875
-79.65087890625
-78.7353515625
-92.46826171875
-99.79248046875
-101.62353515625
-94.29931640625
-95.21484375
-109.86328125
-106.201171875
-92.46826171875
-93.3837890625
-96.13037109375
-92.46826171875
-92.46826171875
-95.21484375
-97.96142578125
-99.79248046875
-110.77880859375
-100.7080078125
-91.552734375
-91.552734375
-96.13037109375
-97.96142578125
-97.0458984375
-107.11669921875
-91.552734375
-98.876953125
-104.3701171875
-91.552734375
-95.21484375
-85.14404296875
-90.63720703125
-96.13037109375
-98.876953125
-106.201171875
-99.79248046875
-106.201171875
-101.62353515625
-84.228515625
-85.14404296875
-92.46826171875
-68.66455078125
9.1552734375
86.97509765625
177.6123046875
274.658203125
380.859375
466.9189453125
545.654296875
655.517578125
760.80322265625
842.28515625
925.59814453125
992.431640625
986.9384765625
882.568359375
703.125
515.44189453125
353.3935546875
242.61474609375
168.45703125
88.80615234375
21.97265625
-6.40869140625
-10.07080078125
-7.32421875
-8.23974609375
0
8.23974609375
17.39501953125
25.634765625
16.4794921875
9.1552734375
-10.07080078125
-21.97265625
-33.87451171875
-35.70556640625
-32.958984375
-32.04345703125
-35.70556640625
-43.02978515625
-32.958984375
-25.634765625
-30.21240234375
-37.53662109375
-39.36767578125
-36.62109375
-54.01611328125
-55.84716796875
-51.26953125
-58.59375
-41.19873046875
-32.958984375
-26.55029296875
-33.87451171875
-37.53662109375
-41.19873046875
-43.9453125
-36.62109375
-38.4521484375
-27.4658203125
-24.71923828125
-20.1416015625
-22.88818359375
-20.1416015625
-15.56396484375
-28.38134765625
-34.7900390625
-28.38134765625
-25.634765625
-24.71923828125
-20.1416015625
-12.8173828125
-13.73291015625
-15.56396484375
-18.310546875
-25.634765625
-28.38134765625
-18.310546875
-11.90185546875
-3.662109375
-2.74658203125
2.74658203125
0
-2.74658203125
1.8310546875
-4.57763671875
-5.4931640625
1.8310546875
4.57763671875
14.6484375
20.1416015625
17.39501953125
19.22607421875
20.1416015625
13.73291015625
5.4931640625
17.39501953125
21.97265625
35.70556640625
38.4521484375
32.04345703125
34.7900390625
41.19873046875
37.53662109375
31.1279296875
55.84716796875
44.86083984375
47.607421875
58.59375
68.66455078125
69.580078125
84.228515625
86.0595703125
90.63720703125
90.63720703125
93.3837890625
94.29931640625
100.7080078125
112.60986328125
117.1875
122.6806640625
145.56884765625
132.75146484375
146.484375
159.3017578125
150.146484375
160.21728515625
178.52783203125
187.68310546875
190.4296875
188.5986328125
201.416015625
209.65576171875
215.14892578125
218.81103515625
220.64208984375
220.64208984375
236.2060546875
250.8544921875
254.5166015625
262.75634765625
267.333984375
268.24951171875
270.08056640625
267.333984375
261.8408203125
257.26318359375
270.08056640625
272.8271484375
271.91162109375
272.8271484375
257.26318359375
242.61474609375
236.2060546875
234.375
214.2333984375
185.85205078125
183.10546875
172.119140625
151.9775390625
138.24462890625
129.08935546875
107.11669921875
88.80615234375
76.904296875
58.59375
36.62109375
34.7900390625
20.1416015625
10.986328125
-0.91552734375
-6.40869140625
-21.97265625
-28.38134765625
-37.53662109375
-49.4384765625
-54.931640625
-51.26953125
-55.84716796875
-57.67822265625
-54.01611328125
-54.01611328125
-63.17138671875
-70.49560546875
-78.7353515625
-84.228515625
-89.7216796875
-75.0732421875
-71.4111328125
-73.2421875
-72.32666015625
-70.49560546875
-72.32666015625
-75.98876953125
-80.56640625
-79.65087890625
-78.7353515625
-89.7216796875
-91.552734375
-80.56640625
-69.580078125
-68.66455078125
-79.65087890625
-85.14404296875
-77.81982421875
-83.31298828125
-97.0458984375
-97.0458984375
-95.21484375
-78.7353515625
-73.2421875
-81.48193359375
-86.97509765625
-83.31298828125
-77.81982421875
-75.98876953125
-85.14404296875
-88.80615234375
-87.890625
-86.97509765625
-87.890625
-81.48193359375
-90.63720703125
-86.0595703125
-84.228515625
-85.14404296875
-82.3974609375
-88.80615234375
-79.65087890625
-78.7353515625
-80.56640625
-75.98876953125
-78.7353515625
-79.65087890625
-75.0732421875
-80.56640625
-82.3974609375
-80.56640625
-81.48193359375
-78.7353515625
-77.81982421875
-86.0595703125
-76.904296875
-79.65087890625
-75.98876953125
-79.65087890625
-84.228515625
-75.98876953125
-75.0732421875
-84.228515625
-72.32666015625
-69.580078125
-59.50927734375
-64.0869140625
-72.32666015625
-78.7353515625
-75.98876953125
-67.7490234375
-63.17138671875
-55.84716796875
-63.17138671875
-62.255859375
-57.67822265625
-55.84716796875
-60.4248046875
-54.931640625
-68.66455078125
-59.50927734375
-57.67822265625
-62.255859375
-56.7626953125
-54.01611328125
-55.84716796875
-59.50927734375
-62.255859375
-68.66455078125
-70.49560546875
-74.15771484375
-80.56640625
-74.15771484375
-66.83349609375
-62.255859375
-50.35400390625
-55.84716796875
-56.7626953125
-63.17138671875
-65.00244140625
-71.4111328125
-75.98876953125
-72.32666015625
-59.50927734375
-60.4248046875
-68.66455078125
-75.0732421875
-66.83349609375
-77.81982421875
-80.56640625
-68.66455078125
-65.00244140625
-65.91796875
-67.7490234375
-64.0869140625
-68.66455078125
-78.7353515625
-77.81982421875
-75.0732421875
-86.0595703125
-69.580078125
-74.15771484375
-80.56640625
-77.81982421875
-78.7353515625
-67.7490234375
-64.0869140625
-71.4111328125
-79.65087890625
-88.80615234375
-79.65087890625
-74.15771484375
-71.4111328125
-84.228515625
-83.31298828125
-84.228515625
-86.0595703125
-78.7353515625
-83.31298828125
-88.80615234375
-82.3974609375
-75.98876953125
-89.7216796875
-91.552734375
-79.65087890625
-82.3974609375
-84.228515625
-78.7353515625
-86.0595703125
-92.46826171875
-87.890625
-80.56640625
-83.31298828125
-84.228515625
-85.14404296875
-83.31298828125
-83.31298828125
-81.48193359375
-86.97509765625
-98.876953125
-101.62353515625
-91.552734375
-91.552734375
-92.46826171875
-92.46826171875
-94.29931640625
-85.14404296875
-88.80615234375
-88.80615234375
-96.13037109375
-96.13037109375
-92.46826171875
-92.46826171875
-92.46826171875
-90.63720703125
-94.29931640625
-88.80615234375
-92.46826171875
-96.13037109375
-101.62353515625
-92.46826171875
-89.7216796875
-89.7216796875
-78.7353515625
-79.65087890625
-84.228515625
-84.228515625
-90.63720703125
-96.13037109375
-96.13037109375
-88.80615234375
-75.98876953125
-81.48193359375
-71.4111328125
-72.32666015625
-74.15771484375
-77.81982421875
-97.96142578125
-102.5390625
-100.7080078125
-95.21484375
-100.7080078125
-95.21484375
-96.13037109375
-98.876953125
-100.7080078125
-100.7080078125
-108.0322265625
-110.77880859375
-108.94775390625
-96.13037109375
-88.80615234375
-89.7216796875
-86.0595703125
-88.80615234375
-73.2421875
-75.0732421875
-67.7490234375
-71.4111328125
-82.3974609375
-70.49560546875
-64.0869140625
-72.32666015625
-81.48193359375
-71.4111328125
-78.7353515625
-80.56640625
-70.49560546875
-78.7353515625
-75.0732421875
-73.2421875
-71.4111328125
-71.4111328125
-68.66455078125
-79.65087890625
-86.0595703125
-93.3837890625
-86.0595703125
-82.3974609375
-97.96142578125
-91.552734375
-83.31298828125
-83.31298828125
-77.81982421875
-79.65087890625
-89.7216796875
-91.552734375
-79.65087890625
-92.46826171875
-97.96142578125
-102.5390625
-99.79248046875
-93.3837890625
-80.56640625
-92.46826171875
-98.876953125
-102.5390625
-95.21484375
-94.29931640625
-92.46826171875
-76.904296875
-89.7216796875
-81.48193359375
-77.81982421875
-86.0595703125
-84.228515625
-87.890625
-82.3974609375
-85.14404296875
-92.46826171875
-87.890625
-89.7216796875
-86.0595703125
-93.3837890625
-90.63720703125
-84.228515625
-76.904296875
-68.66455078125
-62.255859375
-23.8037109375
61.34033203125
140.9912109375
233.45947265625
344.23828125
455.01708984375
531.005859375
603.33251953125
709.53369140625
798.33984375
893.5546875
969.54345703125
1009.82666015625
978.69873046875
837.70751953125
644.53125
453.18603515625
311.279296875
204.16259765625
116.27197265625
51.26953125
3.662109375
-2.74658203125
7.32421875
14.6484375
21.97265625
24.71923828125
27.4658203125
32.958984375
13.73291015625
-8.23974609375
-8.23974609375
-2.74658203125
-0.91552734375
0
-4.57763671875
-16.4794921875
-22.88818359375
-14.6484375
-23.8037109375
-31.1279296875
-32.958984375
-27.4658203125
-27.4658203125
-29.296875
-18.310546875
-26.55029296875
-17.39501953125
-16.4794921875
-28.38134765625
-30.21240234375
-26.55029296875
-20.1416015625
-21.97265625
-21.97265625
-24.71923828125
-23.8037109375
-12.8173828125
-15.56396484375
-29.296875
-23.8037109375
-21.97265625
-16.4794921875
-10.986328125
-0.91552734375
1.8310546875
-11.90185546875
-15.56396484375
-13.73291015625
-13.73291015625
-4.57763671875
-2.74658203125
1.8310546875
0
-4.57763671875
-0.91552734375
6.40869140625
9.1552734375
8.23974609375
3.662109375
0.91552734375
5.4931640625
6.40869140625
7.32421875
16.4794921875
18.310546875
10.986328125
12.8173828125
20.1416015625
19.22607421875
18.310546875
27.4658203125
26.55029296875
23.8037109375
35.70556640625
37.53662109375
38.4521484375
43.02978515625
50.35400390625
41.19873046875
45.7763671875
52.18505859375
59.50927734375
62.255859375
75.0732421875
74.15771484375
69.580078125
77.81982421875
85.14404296875
70.49560546875
74.15771484375
89.7216796875
95.21484375
92.46826171875
97.96142578125
112.60986328125
114.44091796875
128.173828125
135.498046875
123.59619140625
130.0048828125
140.07568359375
166.6259765625
169.37255859375
170.2880859375
184.02099609375
184.9365234375
193.17626953125
203.2470703125
197.75390625
205.078125
207.82470703125
216.97998046875
210.5712890625
229.79736328125
249.93896484375
243.5302734375
235.29052734375
263.671875
265.5029296875
254.5166015625
275.57373046875
275.57373046875
290.22216796875
298.4619140625
288.39111328125
291.1376953125
292.96875
287.4755859375
288.39111328125
270.08056640625
270.08056640625
266.41845703125
251.77001953125
246.27685546875
236.2060546875
214.2333984375
207.82470703125
194.091796875
173.03466796875
153.80859375
145.56884765625
122.6806640625
108.94775390625
100.7080078125
77.81982421875
60.4248046875
54.01611328125
48.52294921875
29.296875
9.1552734375
5.4931640625
9.1552734375
-6.40869140625
-11.90185546875
-16.4794921875
-16.4794921875
-26.55029296875
-31.1279296875
-50.35400390625
-52.18505859375
-45.7763671875
-43.02978515625
-51.26953125
-59.50927734375
-65.91796875
-73.2421875
-57.67822265625
-50.35400390625
-63.17138671875
-62.255859375
-65.91796875
-58.59375
-64.0869140625
-63.17138671875
-61.34033203125
-65.00244140625
-70.49560546875
-66.83349609375
-68.66455078125
-73.2421875
-66.83349609375
-67.7490234375
-65.00244140625
-62.255859375
-51.26953125
-58.59375
-56.7626953125
-75.0732421875
-74.15771484375
-75.98876953125
-67.7490234375
-56.7626953125
-56.7626953125
-69.580078125
-63.17138671875
-58.59375
-58.59375
-61.34033203125
-65.00244140625
-58.59375
-60.4248046875
-66.83349609375
-65.91796875
-59.50927734375
-54.01611328125
-60.4248046875
-57.67822265625
-58.59375
-68.66455078125
-64.0869140625
-61.34033203125
-62.255859375
-62.255859375
-55.84716796875
-58.59375
-61.34033203125
-64.0869140625
-65.91796875
-75.0732421875
-72.32666015625
-63.17138671875
-55.84716796875
-65.91796875
-62.255859375
-54.931640625
-59.50927734375
-58.59375
-54.931640625
-59.50927734375
-68.66455078125
-56.7626953125
-60.4248046875
-55.84716796875
-54.931640625
-51.26953125
-59.50927734375
-65.91796875
-67.7490234375
-56.7626953125
-53.1005859375
-51.26953125
-51.26953125
-54.01611328125
-54.01611328125
-30.21240234375
-40.283203125
-54.931640625
-54.931640625
-50.35400390625
-59.50927734375
-52.18505859375
-55.84716796875
-49.4384765625
-48.52294921875
-41.19873046875
-51.26953125
-49.4384765625
-41.19873046875
-54.01611328125
-47.607421875
-47.607421875
-50.35400390625
-54.01611328125
-49.4384765625
-51.26953125
-54.01611328125
-61.34033203125
-65.91796875
-67.7490234375
-66.83349609375
-62.255859375
-49.4384765625
-53.1005859375
-45.7763671875
-50.35400390625
-56.7626953125
-56.7626953125
-54.01611328125
-63.17138671875
-71.4111328125
-62.255859375
-66.83349609375
-65.91796875
-62.255859375
-76.904296875
-65.00244140625
-43.02978515625
-53.1005859375
-65.91796875
-69.580078125
-70.49560546875
-56.7626953125
-61.34033203125
-62.255859375
-69.580078125
-77.81982421875
-71.4111328125
-73.2421875
-73.2421875
-72.32666015625
-65.00244140625
-58.59375
-70.49560546875
-69.580078125
-74.15771484375
-83.31298828125
-77.81982421875
-74.15771484375
-71.4111328125
-80.56640625
-71.4111328125
-69.580078125
-70.49560546875
-76.904296875
-67.7490234375
-74.15771484375
-86.0595703125
-76.904296875
-69.580078125
-76.904296875
-81.48193359375
-72.32666015625
-69.580078125
-64.0869140625
-75.98876953125
-85.14404296875
-75.0732421875
-71.4111328125
-82.3974609375
-77.81982421875
-71.4111328125
-67.7490234375
-73.2421875
-82.3974609375
-81.48193359375
-71.4111328125
-74.15771484375
-80.56640625
-86.0595703125
-89.7216796875
-84.228515625
-74.15771484375
-75.0732421875
-83.31298828125
-87.890625
-89.7216796875
-86.0595703125
-83.31298828125
-87.890625
-83.31298828125
-82.3974609375
-77.81982421875
-73.2421875
-76.904296875
-80.56640625
-76.904296875
-75.98876953125
-75.98876953125
-87.890625
-88.80615234375
-84.228515625
-88.80615234375
-80.56640625
-86.0595703125
-86.97509765625
-84.228515625
-84.228515625
-78.7353515625
-75.98876953125
-80.56640625
-73.2421875
-71.4111328125
-76.904296875
-76.904296875
-71.4111328125
-67.7490234375
-79.65087890625
-86.0595703125
-73.2421875
-74.15771484375
-67.7490234375
-67.7490234375
-76.904296875
-74.15771484375
-91.552734375
-88.80615234375
-94.29931640625
-94.29931640625
-89.7216796875
-98.876953125
-94.29931640625
-105.28564453125
-100.7080078125
-86.97509765625
-90.63720703125
-82.3974609375
-83.31298828125
-77.81982421875
-87.890625
-90.63720703125
-82.3974609375
-75.0732421875
-69.580078125
-65.91796875
-73.2421875
-77.81982421875
-77.81982421875
-69.580078125
-70.49560546875
-77.81982421875
-75.0732421875
-72.32666015625
-74.15771484375
-70.49560546875
-68.66455078125
-63.17138671875
-72.32666015625
-72.32666015625
-77.81982421875
-85.14404296875
-79.65087890625
-73.2421875
-75.0732421875
-83.31298828125
-89.7216796875
-90.63720703125
-88.80615234375
-92.46826171875
-97.0458984375
-97.96142578125
-91.552734375
-93.3837890625
-91.552734375
-82.3974609375
-83.31298828125
-88.80615234375
-79.65087890625
-81.48193359375
-98.876953125
-99.79248046875
-86.0595703125
-80.56640625
-86.0595703125
-88.80615234375
-87.890625
-85.14404296875
-86.0595703125
-86.97509765625
-104.3701171875
-102.5390625
-74.15771484375
-78.7353515625
-80.56640625
-75.0732421875
-79.65087890625
-90.63720703125
-86.0595703125
-81.48193359375
-93.3837890625
-87.890625
-79.65087890625
-75.0732421875
-78.7353515625
-66.83349609375
-34.7900390625
17.39501953125
96.13037109375
192.2607421875
283.8134765625
385.43701171875
490.72265625
563.96484375
651.85546875
769.04296875
858.7646484375
937.5
995.17822265625
1004.33349609375
928.3447265625
749.81689453125
563.96484375
400.08544921875
270.08056640625
172.119140625
103.45458984375
34.7900390625
10.986328125
0.91552734375
-2.74658203125
7.32421875
12.8173828125
39.36767578125
43.02978515625
25.634765625
15.56396484375
1.8310546875
-2.74658203125
-3.662109375
-15.56396484375
-25.634765625
-28.38134765625
-20.1416015625
-20.1416015625
-22.88818359375
-20.1416015625
-31.1279296875
-37.53662109375
-38.4521484375
-29.296875
-42.1142578125
-26.55029296875
-20.1416015625
-30.21240234375
-22.88818359375
-16.4794921875
-23.8037109375
-30.21240234375
-24.71923828125
-31.1279296875
-38.4521484375
-29.296875
-33.87451171875
-34.7900390625
-30.21240234375
-21.97265625
-25.634765625
-36.62109375
-36.62109375
-24.71923828125
-21.97265625
-21.97265625
-21.05712890625
-11.90185546875
-19.22607421875
-15.56396484375
-9.1552734375
-14.6484375
-10.07080078125
-10.986328125
-18.310546875
-14.6484375
-8.23974609375
-3.662109375
0
2.74658203125
-1.8310546875
-0.91552734375
-6.40869140625
2.74658203125
9.1552734375
11.90185546875
14.6484375
13.73291015625
23.8037109375
24.71923828125
17.39501953125
12.8173828125
32.958984375
21.05712890625
21.05712890625
26.55029296875
32.04345703125
43.02978515625
51.26953125
49.4384765625
39.36767578125
45.7763671875
46.69189453125
46.69189453125
53.1005859375
46.69189453125
62.255859375
56.7626953125
66.83349609375
77.81982421875
75.0732421875
81.48193359375
85.14404296875
90.63720703125
91.552734375
98.876953125
110.77880859375
109.86328125
109.86328125
119.93408203125
131.8359375
134.58251953125
142.822265625
137.3291015625
153.80859375
154.72412109375
170.2880859375
176.69677734375
187.68310546875
196.83837890625
188.5986328125
189.51416015625
208.740234375
210.5712890625
214.2333984375
227.05078125
238.95263671875
235.29052734375
242.61474609375
261.8408203125
263.671875
270.08056640625
270.99609375
270.08056640625
279.23583984375
274.658203125
276.4892578125
274.658203125
281.06689453125
281.06689453125
270.99609375
253.60107421875
256.34765625
239.8681640625
223.388671875
213.31787109375
200.50048828125
183.10546875
176.69677734375
166.6259765625
136.41357421875
121.76513671875
115.3564453125
101.62353515625
70.49560546875
56.7626953125
46.69189453125
40.283203125
30.21240234375
11.90185546875
-1.8310546875
2.74658203125
-3.662109375
-27.4658203125
-32.958984375
-35.70556640625
-35.70556640625
-49.4384765625
-57.67822265625
-58.59375
-61.34033203125
-62.255859375
-59.50927734375
-64.0869140625
-75.0732421875
-78.7353515625
-72.32666015625
-72.32666015625
-74.15771484375
-68.66455078125
-68.66455078125
-70.49560546875
-66.83349609375
-80.56640625
-78.7353515625
-71.4111328125
-78.7353515625
-82.3974609375
-84.228515625
-80.56640625
-78.7353515625
-76.904296875
-82.3974609375
-84.228515625
-86.97509765625
-75.98876953125
-73.2421875
-73.2421875
-76.904296875
-65.00244140625
-78.7353515625
-76.904296875
-75.0732421875
-82.3974609375
-86.0595703125
-77.81982421875
-82.3974609375
-83.31298828125
-75.0732421875
-75.98876953125
-76.904296875
-75.0732421875
-82.3974609375
-85.14404296875
-86.0595703125
-87.890625
-94.29931640625
-91.552734375
-82.3974609375
-85.14404296875
-88.80615234375
-91.552734375
-79.65087890625
-81.48193359375
-88.80615234375
-81.48193359375
-72.32666015625
-73.2421875
-77.81982421875
-87.890625
-72.32666015625
-70.49560546875
-75.98876953125
-82.3974609375
-80.56640625
-75.0732421875
-75.0732421875
-76.904296875
-71.4111328125
-76.904296875
-75.0732421875
-74.15771484375
-75.98876953125
-84.228515625
-88.80615234375
-75.98876953125
-60.4248046875
-64.0869140625
-61.34033203125
-57.67822265625
-59.50927734375
-69.580078125
-59.50927734375
-71.4111328125
-74.15771484375
-85.14404296875
-80.56640625
-78.7353515625
-68.66455078125
-53.1005859375
-54.01611328125
-57.67822265625
-56.7626953125
-64.0869140625
-67.7490234375
-65.00244140625
-54.931640625
-62.255859375
-60.4248046875
-58.59375
-63.17138671875
-72.32666015625
-73.2421875
-68.66455078125
-74.15771484375
-75.98876953125
-71.4111328125
-73.2421875
-69.580078125
-65.00244140625
-76.904296875
-86.97509765625
-76.904296875
-73.2421875
-86.97509765625
-66.83349609375
-65.91796875
-63.17138671875
-75.98876953125
-75.0732421875
-72.32666015625
-78.7353515625
-82.3974609375
-80.56640625
-79.65087890625
-81.48193359375
-89.7216796875
-68.66455078125
-71.4111328125
-75.0732421875
-81.48193359375
-77.81982421875
-70.49560546875
-91.552734375
-92.46826171875
-81.48193359375
-75.0732421875
-86.0595703125
-79.65087890625
-71.4111328125
-81.48193359375
-76.904296875
-71.4111328125
-85.14404296875
-86.0595703125
-86.97509765625
-94.29931640625
-88.80615234375
-81.48193359375
-80.56640625
-79.65087890625
-84.228515625
-84.228515625
-90.63720703125
-97.0458984375
-88.80615234375
-81.48193359375
-85.14404296875
-83.31298828125
-81.48193359375
-95.21484375
-99.79248046875
-82.3974609375
-88.80615234375
-98.876953125
-88.80615234375
-89.7216796875
-88.80615234375
-81.48193359375
-77.81982421875
-91.552734375
-74.15771484375
-76.904296875
-98.876953125
-98.876953125
-103.45458984375
-113.525390625
-109.86328125
-105.28564453125
-102.5390625
-96.13037109375
-109.86328125
-111.6943359375
-116.27197265625
-121.76513671875
-118.10302734375
-113.525390625
-104.3701171875
-100.7080078125
-99.79248046875
-83.31298828125
-86.97509765625
-85.14404296875
-81.48193359375
-96.13037109375
-93.3837890625
-77.81982421875
-69.580078125
-71.4111328125
-71.4111328125
-79.65087890625
-87.890625
-87.890625
-91.552734375
-79.65087890625
-67.7490234375
-68.66455078125
-77.81982421875
-82.3974609375
-88.80615234375
-98.876953125
-89.7216796875
-97.96142578125
-91.552734375
-112.60986328125
-112.60986328125
-97.0458984375
-93.3837890625
-87.890625
-91.552734375
-94.29931640625
-99.79248046875
-107.11669921875
-106.201171875
-108.94775390625
-101.62353515625
-102.5390625
-102.5390625
-98.876953125
-93.3837890625
-102.5390625
-101.62353515625
-110.77880859375
-113.525390625
-100.7080078125
-96.13037109375
-93.3837890625
-97.0458984375
-95.21484375
-89.7216796875
-101.62353515625
-105.28564453125
-98.876953125
-105.28564453125
-105.28564453125
-103.45458984375
-111.6943359375
-97.96142578125
-94.29931640625
-91.552734375
-98.876953125
-96.13037109375
-90.63720703125
-92.46826171875
-73.2421875
-10.07080078125
61.34033203125
141.90673828125
253.60107421875
358.88671875
455.9326171875
519.10400390625
619.81201171875
736.083984375
807.4951171875
898.13232421875
984.19189453125
1008.9111328125
928.3447265625
771.78955078125
584.1064453125
410.15625
266.41845703125
164.794921875
102.5390625
54.01611328125
3.662109375
-12.8173828125
-4.57763671875
2.74658203125
-0.91552734375
7.32421875
17.39501953125
10.986328125
9.1552734375
-3.662109375
2.74658203125
-10.986328125
-25.634765625
-26.55029296875
-32.04345703125
-26.55029296875
-37.53662109375
-54.01611328125
-53.1005859375
-48.52294921875
-44.86083984375
-41.19873046875
-35.70556640625
-31.1279296875
-33.87451171875
-39.36767578125
-42.1142578125
-49.4384765625
-46.69189453125
-42.1142578125
-39.36767578125
-36.62109375
-31.1279296875
-31.1279296875
-40.283203125
-38.4521484375
-32.958984375
-51.26953125
-46.69189453125
-32.04345703125
-43.02978515625
-32.958984375
-26.55029296875
-15.56396484375
-22.88818359375
-28.38134765625
-24.71923828125
-32.958984375
-33.87451171875
-23.8037109375
-34.7900390625
-33.87451171875
-27.4658203125
-13.73291015625
-20.1416015625
-33.87451171875
-16.4794921875
-10.07080078125
-17.39501953125
-10.07080078125
-3.662109375
-3.662109375
-13.73291015625
-7.32421875
0.91552734375
3.662109375
3.662109375
-5.4931640625
-5.4931640625
6.40869140625
9.1552734375
14.6484375
29.296875
32.04345703125
31.1279296875
36.62109375
21.97265625
25.634765625
30.21240234375
33.87451171875
43.9453125
42.1142578125
44.86083984375
49.4384765625
47.607421875
55.84716796875
60.4248046875
58.59375
71.4111328125
74.15771484375
65.91796875
83.31298828125
91.552734375
93.3837890625
102.5390625
113.525390625
115.3564453125
116.27197265625
116.27197265625
130.0048828125
133.6669921875
135.498046875
140.07568359375
155.6396484375
155.6396484375
168.45703125
179.443359375
173.03466796875
184.02099609375
204.16259765625
206.9091796875
212.40234375
228.8818359375
227.05078125
219.7265625
229.79736328125
242.61474609375
235.29052734375
248.10791015625
259.09423828125
262.75634765625
268.24951171875
282.89794921875
280.1513671875
278.3203125
281.06689453125
283.8134765625
278.3203125
281.06689453125
261.8408203125
258.1787109375
255.43212890625
246.27685546875
234.375
216.97998046875
203.2470703125
188.5986328125
156.55517578125
140.07568359375
125.42724609375
109.86328125
112.60986328125
93.3837890625
81.48193359375
65.91796875
53.1005859375
44.86083984375
20.1416015625
6.40869140625
4.57763671875
-10.986328125
-12.8173828125
-16.4794921875
-23.8037109375
-26.55029296875
-36.62109375
-42.1142578125
-52.18505859375
-54.931640625
-50.35400390625
-52.18505859375
-69.580078125
-65.00244140625
-68.66455078125
-57.67822265625
-54.01611328125
-66.83349609375
-76.904296875
-75.98876953125
-76.904296875
-69.580078125
-62.255859375
-60.4248046875
-64.0869140625
-66.83349609375
-69.580078125
-72.32666015625
-86.97509765625
-85.14404296875
-79.65087890625
-65.91796875
-70.49560546875
-61.34033203125
-60.4248046875
-72.32666015625
-67.7490234375
-67.7490234375
-86.97509765625
-75.98876953125
-69.580078125
-65.91796875
-65.91796875
-61.34033203125
-59.50927734375
-78.7353515625
-81.48193359375
-55.84716796875
-45.7763671875
-67.7490234375
-73.2421875
-66.83349609375
-63.17138671875
-63.17138671875
-60.4248046875
-59.50927734375
-71.4111328125
-75.98876953125
-70.49560546875
-77.81982421875
-71.4111328125
-71.4111328125
-69.580078125
-55.84716796875
-48.52294921875
-55.84716796875
-61.34033203125
-64.0869140625
-71.4111328125
-86.0595703125
-76.904296875
-62.255859375
-71.4111328125
-43.02978515625
-30.21240234375
-47.607421875
-55.84716796875
-56.7626953125
-73.2421875
-86.97509765625
-69.580078125
-56.7626953125
-50.35400390625
-42.1142578125
-30.21240234375
-41.19873046875
-51.26953125
-60.4248046875
-71.4111328125
-72.32666015625
-59.50927734375
-44.86083984375
-51.26953125
-49.4384765625
-43.9453125
-44.86083984375
-48.52294921875
-50.35400390625
-56.7626953125
-54.931640625
-47.607421875
-43.02978515625
-44.86083984375
-54.931640625
-56.7626953125
-54.01611328125
-55.84716796875
-48.52294921875
-48.52294921875
-54.931640625
-65.91796875
-66.83349609375
-49.4384765625
-50.35400390625
-45.7763671875
-47.607421875
-54.931640625
-63.17138671875
-63.17138671875
-60.4248046875
-58.59375
-60.4248046875
-67.7490234375
-55.84716796875
-54.01611328125
-59.50927734375
-59.50927734375
-69.580078125
-74.15771484375
-76.904296875
-65.00244140625
-59.50927734375
-57.67822265625
-54.01611328125
-54.01611328125
-67.7490234375
-76.904296875
-82.3974609375
-85.14404296875
-94.29931640625
-80.56640625
-72.32666015625
-61.34033203125
-58.59375
-45.7763671875
-55.84716796875
-64.0869140625
-71.4111328125
-80.56640625
-89.7216796875
-75.0732421875
-68.66455078125
-65.00244140625
-63.17138671875
-56.7626953125
-70.49560546875
-74.15771484375
-82.3974609375
-88.80615234375
-94.29931640625
-85.14404296875
-88.80615234375
-74.15771484375
-64.0869140625
-65.91796875
-64.0869140625
-82.3974609375
-86.0595703125
-99.79248046875
-100.7080078125
-94.29931640625
-84.228515625
-71.4111328125
-54.931640625
-51.26953125
-53.1005859375
-71.4111328125
-97.96142578125
-109.86328125
-112.60986328125
-96.13037109375
-69.580078125
-75.0732421875
-60.4248046875
-55.84716796875
-68.66455078125
-73.2421875
-83.31298828125
-93.3837890625
-97.96142578125
-80.56640625
-69.580078125
-72.32666015625
-57.67822265625
-58.59375
-72.32666015625
-79.65087890625
-84.228515625
-91.552734375
-97.96142578125
-99.79248046875
-86.0595703125
-86.0595703125
-65.00244140625
-63.17138671875
-86.0595703125
-86.97509765625
-84.228515625
-94.29931640625
-97.0458984375
-91.552734375
-76.904296875
-76.904296875
-73.2421875
-65.91796875
-61.34033203125
-69.580078125
-79.65087890625
-84.228515625
-89.7216796875
-83.31298828125
-90.63720703125
-78.7353515625
-63.17138671875
-64.0869140625
-74.15771484375
-93.3837890625
-101.62353515625
-111.6943359375
-112.60986328125
-113.525390625
-96.13037109375
-97.0458984375
-74.15771484375
-48.52294921875
-57.67822265625
-63.17138671875
-71.4111328125
-86.97509765625
-89.7216796875
-86.97509765625
-65.00244140625
-62.255859375
-58.59375
-48.52294921875
-53.1005859375
-64.0869140625
-83.31298828125
-98.876953125
-89.7216796875
-74.15771484375
-67.7490234375
-54.01611328125
-49.4384765625
-40.283203125
-55.84716796875
-75.98876953125
-88.80615234375
-94.29931640625
-97.96142578125
-86.0595703125
-79.65087890625
-75.98876953125
-65.00244140625
-59.50927734375
-68.66455078125
-77.81982421875
-94.29931640625
-117.1875
-115.3564453125
-89.7216796875
-83.31298828125
-84.228515625
-61.34033203125
-58.59375
-77.81982421875
-83.31298828125
-94.29931640625
-108.0322265625
-109.86328125
-100.7080078125
-89.7216796875
-86.97509765625
-70.49560546875
-64.0869140625
-81.48193359375
-83.31298828125
-90.63720703125
-106.201171875
-108.0322265625
-90.63720703125
-75.0732421875
-88.80615234375
-80.56640625
-71.4111328125
-71.4111328125
-77.81982421875
-75.0732421875
-80.56640625
-91.552734375
-71.4111328125
-1.8310546875
86.97509765625
187.68310546875
284.72900390625
370.78857421875
453.18603515625
538.330078125
612.48779296875
710.44921875
819.39697265625
918.27392578125
992.431640625
1035.46142578125
993.34716796875
830.38330078125
630.79833984375
446.77734375
283.8134765625
176.69677734375
107.11669921875
59.50927734375
17.39501953125
23.8037109375
36.62109375
32.04345703125
22.88818359375
24.71923828125
21.97265625
12.8173828125
0
17.39501953125
22.88818359375
23.8037109375
28.38134765625
15.56396484375
-9.1552734375
-27.4658203125
-43.02978515625
-48.52294921875
-31.1279296875
-21.97265625
-10.07080078125
0.91552734375
0.91552734375
-9.1552734375
-21.97265625
-37.53662109375
-46.69189453125
-53.1005859375
-38.4521484375
-16.4794921875
-12.8173828125
-1.8310546875
7.32421875
-2.74658203125
-13.73291015625
-25.634765625
-38.4521484375
-33.87451171875
-25.634765625
-16.4794921875
-22.88818359375
-19.22607421875
-6.40869140625
-6.40869140625
-17.39501953125
-27.4658203125
-30.21240234375
-6.40869140625
-13.73291015625
-9.1552734375
-9.1552734375
-0.91552734375
14.6484375
14.6484375
17.39501953125
11.90185546875
-2.74658203125
14.6484375
6.40869140625
10.07080078125
16.4794921875
28.38134765625
26.55029296875
25.634765625
23.8037109375
23.8037109375
17.39501953125
14.6484375
21.05712890625
21.05712890625
24.71923828125
47.607421875
57.67822265625
42.1142578125
32.958984375
35.70556640625
46.69189453125
40.283203125
52.18505859375
62.255859375
56.7626953125
68.66455078125
67.7490234375
69.580078125
65.00244140625
75.98876953125
72.32666015625
69.580078125
73.2421875
69.580078125
86.97509765625
96.13037109375
111.6943359375
118.10302734375
116.27197265625
117.1875
121.76513671875
126.3427734375
134.58251953125
139.16015625
148.3154296875
171.20361328125
175.78125
174.86572265625
172.119140625
178.52783203125
174.86572265625
183.10546875
207.82470703125
206.9091796875
216.064453125
231.62841796875
235.29052734375
233.45947265625
246.27685546875
250.8544921875
240.78369140625
241.69921875
261.8408203125
273.74267578125
280.1513671875
287.4755859375
283.8134765625
292.05322265625
297.54638671875
299.37744140625
292.96875
288.39111328125
278.3203125
283.8134765625
291.1376953125
280.1513671875
271.91162109375
271.91162109375
260.92529296875
245.361328125
227.05078125
201.416015625
194.091796875
168.45703125
151.9775390625
155.6396484375
145.56884765625
116.27197265625
93.3837890625
83.31298828125
62.255859375
59.50927734375
31.1279296875
9.1552734375
14.6484375
20.1416015625
-2.74658203125
-10.07080078125
-15.56396484375
-23.8037109375
-31.1279296875
-34.7900390625
-27.4658203125
-30.21240234375
-31.1279296875
-21.05712890625
-15.56396484375
-29.296875
-46.69189453125
-49.4384765625
-46.69189453125
-54.931640625
-57.67822265625
-54.01611328125
-64.0869140625
-63.17138671875
-38.4521484375
-60.4248046875
-67.7490234375
-54.931640625
-55.84716796875
-50.35400390625
-58.59375
-54.01611328125
-55.84716796875
-43.02978515625
-55.84716796875
-60.4248046875
-52.18505859375
-49.4384765625
-51.26953125
-58.59375
-41.19873046875
-45.7763671875
-54.931640625
-55.84716796875
-55.84716796875
-64.0869140625
-62.255859375
-60.4248046875
-60.4248046875
-55.84716796875
-47.607421875
-55.84716796875
-68.66455078125
-52.18505859375
-50.35400390625
-50.35400390625
-58.59375
-55.84716796875
-50.35400390625
-43.9453125
-53.1005859375
-53.1005859375
-40.283203125
-44.86083984375
-54.01611328125
-51.26953125
-46.69189453125
-48.52294921875
-48.52294921875
-60.4248046875
-59.50927734375
-52.18505859375
-60.4248046875
-47.607421875
-34.7900390625
-43.9453125
-45.7763671875
-51.26953125
-69.580078125
-54.931640625
-49.4384765625
-45.7763671875
-53.1005859375
-50.35400390625
-52.18505859375
-54.931640625
-56.7626953125
-47.607421875
-40.283203125
-46.69189453125
-59.50927734375
-62.255859375
-43.9453125
-36.62109375
-28.38134765625
-46.69189453125
-46.69189453125
-37.53662109375
-44.86083984375
-56.7626953125
-52.18505859375
-44.86083984375
-38.4521484375
-41.19873046875
-39.36767578125
-44.86083984375
-33.87451171875
-25.634765625
-47.607421875
-57.67822265625
-62.255859375
-53.1005859375
-53.1005859375
-50.35400390625
-47.607421875
-39.36767578125
-43.02978515625
-56.7626953125
-61.34033203125
-55.84716796875
-43.9453125
-43.02978515625
-37.53662109375
-48.52294921875
-45.7763671875
-55.84716796875
-53.1005859375
-54.01611328125
-62.255859375
-65.00244140625
-54.931640625
-44.86083984375
-43.9453125
-32.958984375
-49.4384765625
-55.84716796875
-57.67822265625
-60.4248046875
-66.83349609375
-64.0869140625
-54.01611328125
-56.7626953125
-53.1005859375
-45.7763671875
-52.18505859375
-73.2421875
-70.49560546875
-63.17138671875
-73.2421875
-80.56640625
-67.7490234375
-65.91796875
-61.34033203125
-52.18505859375
-54.931640625
-56.7626953125
-50.35400390625
-50.35400390625
-67.7490234375
-69.580078125
-75.0732421875
-65.91796875
-63.17138671875
-56.7626953125
-50.35400390625
-54.01611328125
-63.17138671875
-80.56640625
-92.46826171875
-89.7216796875
-71.4111328125
-63.17138671875
-61.34033203125
-48.52294921875
-48.52294921875
-59.50927734375
-73.2421875
-72.32666015625
-88.80615234375
-90.63720703125
-74.15771484375
-66.83349609375
-53.1005859375
-57.67822265625
-46.69189453125
-58.59375
-76.904296875
-87.890625
-87.890625
-97.0458984375
-95.21484375
-81.48193359375
-74.15771484375
-67.7490234375
-65.91796875
-77.81982421875
-78.7353515625
-75.98876953125
-94.29931640625
-112.60986328125
-101.62353515625
-80.56640625
-73.2421875
-78.7353515625
-74.15771484375
-71.4111328125
-73.2421875
-85.14404296875
-103.45458984375
-95.21484375
-97.96142578125
-93.3837890625
-83.31298828125
-75.98876953125
-79.65087890625
-88.80615234375
-89.7216796875
-94.29931640625
-100.7080078125
-111.6943359375
-108.0322265625
-101.62353515625
-88.80615234375
-86.0595703125
-73.2421875
-70.49560546875
-89.7216796875
-99.79248046875
-109.86328125
-100.7080078125
-94.29931640625
-89.7216796875
-88.80615234375
-72.32666015625
-61.34033203125
-78.7353515625
-82.3974609375
-88.80615234375
-109.86328125
-112.60986328125
-101.62353515625
-86.97509765625
-92.46826171875
-75.0732421875
-61.34033203125
-73.2421875
-83.31298828125
-93.3837890625
-122.6806640625
-116.27197265625
-108.0322265625
-100.7080078125
-84.228515625
-71.4111328125
-80.56640625
-90.63720703125
-100.7080078125
-116.27197265625
-124.51171875
-122.6806640625
-122.6806640625
-101.62353515625
-90.63720703125
-85.14404296875
-85.14404296875
-84.228515625
-101.62353515625
-109.86328125
-107.11669921875
-97.96142578125
-82.3974609375
-75.0732421875
-74.15771484375
-68.66455078125
-62.255859375
-59.50927734375
-73.2421875
-86.97509765625
-109.86328125
-112.60986328125
-101.62353515625
-81.48193359375
-56.7626953125
-36.62109375
-46.69189453125
-65.91796875
-81.48193359375
-97.96142578125
-112.60986328125
-122.6806640625
-106.201171875
-99.79248046875
-88.80615234375
-71.4111328125
-61.34033203125
-79.65087890625
-97.96142578125
-105.28564453125
-119.0185546875
-119.93408203125
-105.28564453125
-95.21484375
-92.46826171875
-72.32666015625
-67.7490234375
-86.0595703125
-84.228515625
-101.62353515625
-115.3564453125
-120.849609375
-102.5390625
-94.29931640625
-91.552734375
-86.0595703125
-84.228515625
-94.29931640625
-101.62353515625
-118.10302734375
-128.173828125
-118.10302734375
-107.11669921875
-93.3837890625
-84.228515625
-85.14404296875
-88.80615234375
-107.11669921875
-115.3564453125
-119.0185546875
-121.76513671875
-109.86328125
-101.62353515625
-75.98876953125
-54.931640625
11.90185546875
93.3837890625
157.470703125
249.93896484375
342.4072265625
419.3115234375
504.45556640625
609.7412109375
708.6181640625
803.8330078125
910.94970703125
985.107421875
995.17822265625
918.27392578125
764.46533203125
559.38720703125
382.6904296875
259.09423828125
181.2744140625
108.94775390625
55.84716796875
23.8037109375
-0.91552734375
-7.32421875
-10.986328125
-18.310546875
-22.88818359375
-17.39501953125
12.8173828125
14.6484375
-2.74658203125
-5.4931640625
-13.73291015625
-26.55029296875
-42.1142578125
-62.255859375
-60.4248046875
-44.86083984375
-42.1142578125
-41.19873046875
-19.22607421875
-21.97265625
-29.296875
-48.52294921875
-65.91796875
-71.4111328125
-80.56640625
-54.931640625
-49.4384765625
-43.02978515625
-40.283203125
-30.21240234375
-44.86083984375
-51.26953125
-58.59375
-76.904296875
-93.3837890625
-81.48193359375
-65.00244140625
-40.283203125
-20.1416015625
-5.4931640625
-14.6484375
-36.62109375
-47.607421875
-67.7490234375
-68.66455078125
-55.84716796875
-39.36767578125
-32.04345703125
-8.23974609375
-0.91552734375
-18.310546875
-18.310546875
-35.70556640625
-55.84716796875
-61.34033203125
-45.7763671875
-19.22607421875
-23.8037109375
-16.4794921875
0
-3.662109375
-12.8173828125
-21.97265625
-44.86083984375
-40.283203125
-21.97265625
-10.07080078125
-4.57763671875
8.23974609375
17.39501953125
4.57763671875
-3.662109375
-6.40869140625
-10.07080078125
-10.986328125
6.40869140625
18.310546875
28.38134765625
50.35400390625
48.52294921875
33.87451171875
24.71923828125
20.1416015625
6.40869140625
3.662109375
15.56396484375
41.19873046875
51.26953125
80.56640625
91.552734375
78.7353515625
74.15771484375
73.2421875
58.59375
57.67822265625
81.48193359375
104.3701171875
114.44091796875
123.59619140625
134.58251953125
123.59619140625
116.27197265625
119.0185546875
113.525390625
116.27197265625
132.75146484375
167.54150390625
184.9365234375
187.68310546875
192.2607421875
184.02099609375
191.34521484375
193.17626953125
187.68310546875
188.5986328125
200.50048828125
218.81103515625
234.375
253.60107421875
260.009765625
253.60107421875
239.8681640625
222.47314453125
227.05078125
227.05078125
246.27685546875
249.0234375
253.60107421875
270.08056640625
275.57373046875
258.1787109375
240.78369140625
219.7265625
199.5849609375
190.4296875
173.03466796875
167.54150390625
169.37255859375
172.119140625
151.9775390625
109.86328125
86.0595703125
65.91796875
40.283203125
24.71923828125
15.56396484375
18.310546875
19.22607421875
15.56396484375
1.8310546875
-21.97265625
-40.283203125
-51.26953125
-70.49560546875
-87.890625
-65.91796875
-57.67822265625
-53.1005859375
-43.02978515625
-39.36767578125
-59.50927734375
-76.904296875
-86.0595703125
-103.45458984375
-107.11669921875
-95.21484375
-86.0595703125
-80.56640625
-77.81982421875
-74.15771484375
-79.65087890625
-97.96142578125
-112.60986328125
-124.51171875
-124.51171875
-99.79248046875
-97.0458984375
-102.5390625
-84.228515625
-75.98876953125
-92.46826171875
-108.94775390625
-111.6943359375
-113.525390625
-121.76513671875
-111.6943359375
-91.552734375
-88.80615234375
-79.65087890625
-76.904296875
-100.7080078125
-93.3837890625
-101.62353515625
-122.6806640625
-120.849609375
-102.5390625
-89.7216796875
-90.63720703125
-78.7353515625
-86.97509765625
-99.79248046875
-99.79248046875
-118.10302734375
-126.3427734375
-108.0322265625
-106.201171875
-95.21484375
-88.80615234375
-84.228515625
-78.7353515625
-91.552734375
-105.28564453125
-111.6943359375
-119.0185546875
-116.27197265625
-97.96142578125
-87.890625
-86.97509765625
-72.32666015625
-75.0732421875
-91.552734375
-97.0458984375
-107.11669921875
-137.3291015625
-127.25830078125
-102.5390625
-90.63720703125
-92.46826171875
-83.31298828125
-92.46826171875
-101.62353515625
-102.5390625
-101.62353515625
-112.60986328125
-124.51171875
-97.96142578125
-94.29931640625
-83.31298828125
-74.15771484375
-73.2421875
-90.63720703125
-110.77880859375
-103.45458984375
-115.3564453125
-115.3564453125
-92.46826171875
-83.31298828125
-84.228515625
-81.48193359375
-72.32666015625
-85.14404296875
-98.876953125
-101.62353515625
-114.44091796875
-104.3701171875
-77.81982421875
-67.7490234375
-72.32666015625
-66.83349609375
-61.34033203125
-83.31298828125
-97.96142578125
-99.79248046875
-107.11669921875
-101.62353515625
-97.0458984375
-86.97509765625
-71.4111328125
-72.32666015625
-79.65087890625
-83.31298828125
-85.14404296875
-102.5390625
-119.0185546875
-122.6806640625
-109.86328125
-100.7080078125
-90.63720703125
-86.97509765625
-86.97509765625
-97.96142578125
-107.11669921875
-108.94775390625
-124.51171875
-126.3427734375
-113.525390625
-97.0458984375
-98.876953125
-90.63720703125
-87.890625
-103.45458984375
-118.10302734375
-121.76513671875
-137.3291015625
-137.3291015625
-110.77880859375
-99.79248046875
-94.29931640625
-85.14404296875
-82.3974609375
-106.201171875
-120.849609375
-115.3564453125
-140.9912109375
-141.90673828125
-127.25830078125
-108.0322265625
-102.5390625
-88.80615234375
-84.228515625
-97.0458984375
-109.86328125
-120.849609375
-133.6669921875
-132.75146484375
-119.0185546875
-119.0185546875
-110.77880859375
-94.29931640625
-101.62353515625
-118.10302734375
-124.51171875
-128.173828125
-145.56884765625
-152.89306640625
-151.9775390625
-134.58251953125
-130.92041015625
-123.59619140625
-102.5390625
-97.96142578125
-109.86328125
-125.42724609375
-141.90673828125
-129.08935546875
-104.3701171875
-99.79248046875
-97.0458984375
-89.7216796875
-90.63720703125
-97.0458984375
-105.28564453125
-115.3564453125
-130.92041015625
-130.0048828125
-116.27197265625
-98.876953125
-88.80615234375
-73.2421875
-67.7490234375
-86.0595703125
-101.62353515625
-114.44091796875
-119.93408203125
-116.27197265625
-112.60986328125
-96.13037109375
-101.62353515625
-97.96142578125
-103.45458984375
-119.0185546875
-128.173828125
-128.173828125
-147.39990234375
-156.55517578125
-137.3291015625
-119.0185546875
-125.42724609375
-104.3701171875
-98.876953125
-125.42724609375
-122.6806640625
-140.9912109375
-150.146484375
-142.822265625
-138.24462890625
-108.94775390625
-104.3701171875
-97.0458984375
-102.5390625
-123.59619140625
-130.0048828125
-140.9912109375
-136.41357421875
-132.75146484375
-131.8359375
-104.3701171875
-91.552734375
-82.3974609375
-88.80615234375
-105.28564453125
-116.27197265625
-126.3427734375
-131.8359375
-121.76513671875
-106.201171875
-93.3837890625
-36.62109375
58.59375
150.146484375
227.96630859375
314.02587890625
408.3251953125
474.2431640625
563.04931640625
682.06787109375
775.45166015625
868.83544921875
959.47265625
977.783203125
888.0615234375
727.84423828125
531.92138671875
355.224609375
227.05078125
157.470703125
99.79248046875
38.4521484375
11.90185546875
-2.74658203125
-22.88818359375
-32.958984375
-34.7900390625
-41.19873046875
-34.7900390625
-25.634765625
-18.310546875
-5.4931640625
1.8310546875
-5.4931640625
-25.634765625
-43.9453125
-69.580078125
-75.98876953125
-65.00244140625
-65.00244140625
-59.50927734375
-47.607421875
-30.21240234375
-33.87451171875
-50.35400390625
-70.49560546875
-75.98876953125
-83.31298828125
-82.3974609375
-72.32666015625
-54.01611328125
-43.02978515625
-35.70556640625
-31.1279296875
-45.7763671875
-54.931640625
-64.0869140625
-76.904296875
-66.83349609375
-68.66455078125
-54.01611328125
-42.1142578125
-20.1416015625
-15.56396484375
-34.7900390625
-57.67822265625
-64.0869140625
-72.32666015625
-75.0732421875
-50.35400390625
-33.87451171875
-20.1416015625
-6.40869140625
-6.40869140625
-20.1416015625
-34.7900390625
-45.7763671875
-57.67822265625
-45.7763671875
-32.958984375
-24.71923828125
-15.56396484375
8.23974609375
12.8173828125
-8.23974609375
-21.97265625
-24.71923828125
-36.62109375
-32.04345703125
-16.4794921875
0
4.57763671875
24.71923828125
29.296875
18.310546875
7.32421875
6.40869140625
-10.07080078125
-9.1552734375
7.32421875
22.88818359375
31.1279296875
52.18505859375
54.01611328125
36.62109375
28.38134765625
14.6484375
5.4931640625
13.73291015625
43.9453125
66.83349609375
63.17138671875
80.56640625
87.890625
83.31298828125
65.00244140625
62.255859375
59.50927734375
75.98876953125
104.3701171875
119.0185546875
124.51171875
140.9912109375
144.6533203125
139.16015625
132.75146484375
119.93408203125
125.42724609375
141.90673828125
155.6396484375
175.78125
195.00732421875
217.8955078125
227.96630859375
212.40234375
207.82470703125
195.00732421875
193.17626953125
196.83837890625
217.8955078125
238.95263671875
241.69921875
267.333984375
277.40478515625
265.5029296875
248.10791015625
247.1923828125
238.037109375
237.12158203125
249.0234375
258.1787109375
262.75634765625
264.58740234375
260.92529296875
227.05078125
205.99365234375
187.68310546875
161.1328125
147.39990234375
141.90673828125
148.3154296875
138.24462890625
123.59619140625
105.28564453125
78.7353515625
43.02978515625
12.8173828125
-3.662109375
-7.32421875
-16.4794921875
8.23974609375
11.90185546875
11.90185546875
2.74658203125
-21.05712890625
-50.35400390625
-69.580078125
-82.3974609375
-89.7216796875
-71.4111328125
-60.4248046875
-54.01611328125
-54.931640625
-58.59375
-75.98876953125
-86.0595703125
-101.62353515625
-115.3564453125
-115.3564453125
-93.3837890625
-82.3974609375
-78.7353515625
-57.67822265625
-62.255859375
-84.228515625
-96.13037109375
-101.62353515625
-119.93408203125
-121.76513671875
-110.77880859375
-90.63720703125
-85.14404296875
-66.83349609375
-64.0869140625
-82.3974609375
-97.0458984375
-113.525390625
-137.3291015625
-140.07568359375
-130.92041015625
-99.79248046875
-86.0595703125
-72.32666015625
-80.56640625
-85.14404296875
-102.5390625
-119.93408203125
-130.0048828125
-126.3427734375
-116.27197265625
-89.7216796875
-86.0595703125
-70.49560546875
-75.98876953125
-93.3837890625
-105.28564453125
-108.94775390625
-119.0185546875
-119.0185546875
-107.11669921875
-89.7216796875
-75.0732421875
-63.17138671875
-66.83349609375
-83.31298828125
-97.0458984375
-104.3701171875
-119.0185546875
-113.525390625
-95.21484375
-82.3974609375
-70.49560546875
-49.4384765625
-47.607421875
-72.32666015625
-86.97509765625
-91.552734375
-106.201171875
-102.5390625
-86.97509765625
-76.904296875
-70.49560546875
-50.35400390625
-52.18505859375
-65.00244140625
-80.56640625
-91.552734375
-105.28564453125
-104.3701171875
-90.63720703125
-70.49560546875
-65.00244140625
-48.52294921875
-47.607421875
-66.83349609375
-79.65087890625
-93.3837890625
-96.13037109375
-93.3837890625
-78.7353515625
-72.32666015625
-65.91796875
-53.1005859375
-56.7626953125
-73.2421875
-83.31298828125
-86.97509765625
-102.5390625
-97.0458984375
-86.97509765625
-78.7353515625
-73.2421875
-56.7626953125
-54.01611328125
-65.91796875
-81.48193359375
-96.13037109375
-108.94775390625
-106.201171875
-89.7216796875
-80.56640625
-71.4111328125
-50.35400390625
-56.7626953125
-72.32666015625
-86.97509765625
-97.0458984375
-112.60986328125
-116.27197265625
-101.62353515625
-91.552734375
-77.81982421875
-57.67822265625
-53.1005859375
-71.4111328125
-86.97509765625
-97.0458984375
-112.60986328125
-115.3564453125
-97.96142578125
-85.14404296875
-75.98876953125
-59.50927734375
-58.59375
-84.228515625
-97.96142578125
-119.0185546875
-121.76513671875
-115.3564453125
-107.11669921875
-94.29931640625
-80.56640625
-67.7490234375
-64.0869140625
-79.65087890625
-97.0458984375
-104.3701171875
-126.3427734375
-125.42724609375
-109.86328125
-98.876953125
-90.63720703125
-68.66455078125
-70.49560546875
-89.7216796875
-95.21484375
-105.28564453125
-126.3427734375
-126.3427734375
-111.6943359375
-85.14404296875
-82.3974609375
-65.00244140625
-69.580078125
-84.228515625
-99.79248046875
-113.525390625
-131.8359375
-118.10302734375
-97.0458984375
-78.7353515625
-78.7353515625
-69.580078125
-70.49560546875
-84.228515625
-105.28564453125
-116.27197265625
-115.3564453125
-114.44091796875
-100.7080078125
-98.876953125
-107.11669921875
-69.580078125
-72.32666015625
-85.14404296875
-95.21484375
-110.77880859375
-112.60986328125
-114.44091796875
-95.21484375
-82.3974609375
-68.66455078125
-61.34033203125
-58.59375
-75.98876953125
-93.3837890625
-112.60986328125
-130.92041015625
-131.8359375
-112.60986328125
-90.63720703125
-75.98876953125
-76.904296875
-84.228515625
-101.62353515625
-121.76513671875
-124.51171875
-130.92041015625
-140.9912109375
-111.6943359375
-88.80615234375
-77.81982421875
-65.91796875
-68.66455078125
-76.904296875
-90.63720703125
-99.79248046875
-120.849609375
-119.0185546875
-97.96142578125
-74.15771484375
-58.59375
-46.69189453125
-64.0869140625
-81.48193359375
-92.46826171875
-103.45458984375
-118.10302734375
-111.6943359375
-86.97509765625
-85.14404296875
-72.32666015625
-56.7626953125
-60.4248046875
-83.31298828125
-97.0458984375
-105.28564453125
-127.25830078125
-118.10302734375
-104.3701171875
-103.45458984375
-82.3974609375
-62.255859375
-74.15771484375
-90.63720703125
-104.3701171875
-119.93408203125
-128.173828125
-130.92041015625
-113.525390625
-97.96142578125
-91.552734375
-74.15771484375
-82.3974609375
-103.45458984375
-111.6943359375
-118.10302734375
-130.0048828125
-129.08935546875
-115.3564453125
-95.21484375
-86.0595703125
-69.580078125
-67.7490234375
-90.63720703125
-115.3564453125
-125.42724609375
-138.24462890625
-120.849609375
-98.876953125
-93.3837890625
-92.46826171875
-75.0732421875
-61.34033203125
-69.580078125
-97.0458984375
-96.13037109375
-54.01611328125
19.22607421875
110.77880859375
229.79736328125
353.3935546875
456.84814453125
536.4990234375
595.0927734375
685.72998046875
763.5498046875
845.03173828125
921.93603515625
969.54345703125
948.486328125
831.298828125
662.841796875
475.15869140625
304.87060546875
175.78125
97.96142578125
21.97265625
-22.88818359375
-14.6484375
0
25.634765625
37.53662109375
37.53662109375
31.1279296875
19.22607421875
-3.662109375
-31.1279296875
-31.1279296875
-24.71923828125
-14.6484375
-8.23974609375
0
-8.23974609375
-27.4658203125
-43.9453125
-52.18505859375
-64.0869140625
-64.0869140625
-47.607421875
-34.7900390625
-20.1416015625
-9.1552734375
-10.07080078125
-30.21240234375
-54.01611328125
-57.67822265625
-77.81982421875
-69.580078125
-49.4384765625
-36.62109375
-12.8173828125
1.8310546875
-6.40869140625
-20.1416015625
-29.296875
-34.7900390625
-60.4248046875
-60.4248046875
-40.283203125
-19.22607421875
-7.32421875
10.07080078125
10.07080078125
-15.56396484375
-29.296875
-46.69189453125
-56.7626953125
-51.26953125
-24.71923828125
-15.56396484375
1.8310546875
14.6484375
16.4794921875
2.74658203125
-14.6484375
-23.8037109375
-38.4521484375
-34.7900390625
-7.32421875
3.662109375
11.90185546875
36.62109375
32.958984375
13.73291015625
3.662109375
-9.1552734375
-22.88818359375
-13.73291015625
10.986328125
25.634765625
31.1279296875
51.26953125
61.34033203125
43.02978515625
32.958984375
21.05712890625
4.57763671875
6.40869140625
31.1279296875
59.50927734375
64.0869140625
80.56640625
82.3974609375
61.34033203125
54.01611328125
42.1142578125
32.958984375
40.283203125
65.00244140625
83.31298828125
89.7216796875
108.0322265625
122.6806640625
120.849609375
112.60986328125
100.7080078125
86.97509765625
103.45458984375
123.59619140625
137.3291015625
155.6396484375
179.443359375
179.443359375
166.6259765625
160.21728515625
161.1328125
152.89306640625
164.794921875
186.767578125
199.5849609375
212.40234375
225.2197265625
237.12158203125
244.44580078125
226.13525390625
223.388671875
217.8955078125
223.388671875
239.8681640625
261.8408203125
274.658203125
301.20849609375
292.05322265625
274.658203125
259.09423828125
252.685546875
226.13525390625
222.47314453125
246.27685546875
255.43212890625
247.1923828125
252.685546875
236.2060546875
205.99365234375
175.78125
151.9775390625
132.75146484375
113.525390625
109.86328125
110.77880859375
107.11669921875
105.28564453125
86.97509765625
55.84716796875
28.38134765625
10.07080078125
-15.56396484375
-36.62109375
-34.7900390625
-21.05712890625
1.8310546875
-4.57763671875
-8.23974609375
-32.958984375
-56.7626953125
-71.4111328125
-84.228515625
-84.228515625
-75.98876953125
-65.00244140625
-59.50927734375
-45.7763671875
-51.26953125
-70.49560546875
-84.228515625
-99.79248046875
-109.86328125
-102.5390625
-86.0595703125
-75.98876953125
-67.7490234375
-53.1005859375
-57.67822265625
-70.49560546875
-82.3974609375
-96.13037109375
-112.60986328125
-108.94775390625
-88.80615234375
-75.0732421875
-65.91796875
-56.7626953125
-57.67822265625
-75.98876953125
-89.7216796875
-93.3837890625
-105.28564453125
-103.45458984375
-84.228515625
-66.83349609375
-65.00244140625
-51.26953125
-55.84716796875
-75.0732421875
-87.890625
-106.201171875
-117.1875
-111.6943359375
-92.46826171875
-78.7353515625
-67.7490234375
-55.84716796875
-64.0869140625
-75.0732421875
-86.0595703125
-100.7080078125
-120.849609375
-120.849609375
-100.7080078125
-79.65087890625
-72.32666015625
-65.91796875
-63.17138671875
-71.4111328125
-88.80615234375
-95.21484375
-114.44091796875
-104.3701171875
-81.48193359375
-73.2421875
-60.4248046875
-46.69189453125
-49.4384765625
-55.84716796875
-70.49560546875
-88.80615234375
-97.0458984375
-93.3837890625
-79.65087890625
-64.0869140625
-53.1005859375
-41.19873046875
-34.7900390625
-65.00244140625
-82.3974609375
-89.7216796875
-96.13037109375
-97.0458984375
-77.81982421875
-55.84716796875
-54.931640625
-50.35400390625
-44.86083984375
-57.67822265625
-74.15771484375
-83.31298828125
-95.21484375
-103.45458984375
-89.7216796875
-69.580078125
-49.4384765625
-38.4521484375
-41.19873046875
-56.7626953125
-72.32666015625
-89.7216796875
-100.7080078125
-96.13037109375
-82.3974609375
-75.98876953125
-67.7490234375
-57.67822265625
-50.35400390625
-63.17138671875
-83.31298828125
-91.552734375
-104.3701171875
-103.45458984375
-87.890625
-71.4111328125
-65.91796875
-47.607421875
-54.01611328125
-78.7353515625
-86.97509765625
-98.876953125
-110.77880859375
-107.11669921875
-96.13037109375
-85.14404296875
-77.81982421875
-66.83349609375
-54.01611328125
-78.7353515625
-99.79248046875
-107.11669921875
-119.93408203125
-112.60986328125
-97.96142578125
-70.49560546875
-71.4111328125
-67.7490234375
-65.91796875
-77.81982421875
-93.3837890625
-108.94775390625
-111.6943359375
-108.0322265625
-102.5390625
-91.552734375
-83.31298828125
-71.4111328125
-73.2421875
-93.3837890625
-108.94775390625
-114.44091796875
-115.3564453125
-108.94775390625
-102.5390625
-92.46826171875
-78.7353515625
-71.4111328125
-72.32666015625
-91.552734375
-109.86328125
-115.3564453125
-128.173828125
-120.849609375
-100.7080078125
-83.31298828125
-79.65087890625
-71.4111328125
-74.15771484375
-97.0458984375
-113.525390625
-125.42724609375
-130.92041015625
-130.92041015625
-109.86328125
-97.96142578125
-97.0458984375
-67.7490234375
-71.4111328125
-90.63720703125
-98.876953125
-109.86328125
-133.6669921875
-128.173828125
-110.77880859375
-99.79248046875
-93.3837890625
-74.15771484375
-78.7353515625
-94.29931640625
-108.0322265625
-119.0185546875
-130.92041015625
-122.6806640625
-114.44091796875
-103.45458984375
-80.56640625
-73.2421875
-66.83349609375
-82.3974609375
-107.11669921875
-125.42724609375
-133.6669921875
-128.173828125
-119.0185546875
-111.6943359375
-98.876953125
-86.97509765625
-87.890625
-110.77880859375
-125.42724609375
-134.58251953125
-155.6396484375
-147.39990234375
-135.498046875
-121.76513671875
-101.62353515625
-86.97509765625
-87.890625
-94.29931640625
-94.29931640625
-104.3701171875
-129.08935546875
-126.3427734375
-102.5390625
-82.3974609375
-72.32666015625
-61.34033203125
-77.81982421875
-107.11669921875
-116.27197265625
-117.1875
-124.51171875
-119.0185546875
-99.79248046875
-90.63720703125
-71.4111328125
-67.7490234375
-74.15771484375
-100.7080078125
-110.77880859375
-124.51171875
-131.8359375
-138.24462890625
-122.6806640625
-103.45458984375
-105.28564453125
-91.552734375
-89.7216796875
-111.6943359375
-128.173828125
-137.3291015625
-154.72412109375
-148.3154296875
-127.25830078125
-113.525390625
-108.94775390625
-85.14404296875
-79.65087890625
-104.3701171875
-124.51171875
-136.41357421875
-149.23095703125
-139.16015625
-117.1875
-116.27197265625
-104.3701171875
-96.13037109375
-100.7080078125
-111.6943359375
-121.76513671875
-136.41357421875
-134.58251953125
-134.58251953125
-123.59619140625
-112.60986328125
-103.45458984375
-87.890625
-83.31298828125
-93.3837890625
-124.51171875
-135.498046875
-124.51171875
-56.7626953125
45.7763671875
152.89306640625
268.24951171875
388.18359375
483.3984375
545.654296875
617.0654296875
704.04052734375
784.60693359375
878.90625
959.47265625
988.76953125
917.3583984375
767.2119140625
582.275390625
395.5078125
252.685546875
154.72412109375
62.255859375
-7.32421875
-27.4658203125
-15.56396484375
-7.32421875
10.986328125
15.56396484375
-3.662109375
-19.22607421875
-19.22607421875
-43.02978515625
-54.931640625
-40.283203125
-40.283203125
-32.04345703125
-20.1416015625
-13.73291015625
-44.86083984375
-67.7490234375
-74.15771484375
-79.65087890625
-83.31298828125
-67.7490234375
-54.931640625
-51.26953125
-36.62109375
-35.70556640625
-57.67822265625
-65.00244140625
-65.91796875
-90.63720703125
-79.65087890625
-66.83349609375
-57.67822265625
-45.7763671875
-24.71923828125
-27.4658203125
-43.9453125
-68.66455078125
-80.56640625
-85.14404296875
-76.904296875
-56.7626953125
-49.4384765625
-34.7900390625
-14.6484375
-22.88818359375
-39.36767578125
-59.50927734375
-65.91796875
-75.0732421875
-76.904296875
-66.83349609375
-38.4521484375
-18.310546875
-2.74658203125
-10.986328125
-27.4658203125
-35.70556640625
-53.1005859375
-62.255859375
-52.18505859375
-40.283203125
-25.634765625
-12.8173828125
4.57763671875
8.23974609375
-9.1552734375
-23.8037109375
-30.21240234375
-48.52294921875
-38.4521484375
-19.22607421875
-10.986328125
-1.8310546875
6.40869140625
11.90185546875
-1.8310546875
-12.8173828125
-14.6484375
-33.87451171875
-6.40869140625
9.1552734375
22.88818359375
34.7900390625
50.35400390625
46.69189453125
35.70556640625
28.38134765625
21.05712890625
19.22607421875
23.8037109375
43.02978515625
52.18505859375
61.34033203125
80.56640625
83.31298828125
67.7490234375
56.7626953125
64.0869140625
62.255859375
70.49560546875
88.80615234375
108.94775390625
123.59619140625
140.9912109375
145.56884765625
138.24462890625
135.498046875
128.173828125
115.3564453125
126.3427734375
156.55517578125
174.86572265625
189.51416015625
205.078125
204.16259765625
184.9365234375
184.9365234375
182.18994140625
181.2744140625
192.2607421875
203.2470703125
217.8955078125
235.29052734375
264.58740234375
255.43212890625
234.375
223.388671875
213.31787109375
198.66943359375
199.5849609375
217.8955078125
227.96630859375
230.712890625
234.375
216.97998046875
186.767578125
155.6396484375
130.0048828125
96.13037109375
80.56640625
99.79248046875
102.5390625
92.46826171875
89.7216796875
63.17138671875
25.634765625
4.57763671875
-10.986328125
-36.62109375
-40.283203125
-44.86083984375
-32.04345703125
-29.296875
-21.97265625
-32.958984375
-60.4248046875
-78.7353515625
-95.21484375
-110.77880859375
-102.5390625
-95.21484375
-75.0732421875
-65.91796875
-57.67822265625
-61.34033203125
-86.0595703125
-100.7080078125
-120.849609375
-140.07568359375
-130.92041015625
-108.94775390625
-95.21484375
-87.890625
-75.0732421875
-77.81982421875
-95.21484375
-114.44091796875
-127.25830078125
-140.07568359375
-130.92041015625
-120.849609375
-100.7080078125
-87.890625
-77.81982421875
-82.3974609375
-97.96142578125
-107.11669921875
-123.59619140625
-135.498046875
-129.08935546875
-108.94775390625
-98.876953125
-92.46826171875
-75.98876953125
-81.48193359375
-97.0458984375
-116.27197265625
-132.75146484375
-139.16015625
-131.8359375
-110.77880859375
-90.63720703125
-86.0595703125
-74.15771484375
-74.15771484375
-88.80615234375
-110.77880859375
-122.6806640625
-136.41357421875
-127.25830078125
-108.0322265625
-95.21484375
-81.48193359375
-70.49560546875
-75.0732421875
-86.0595703125
-105.28564453125
-124.51171875
-132.75146484375
-118.10302734375
-108.0322265625
-97.96142578125
-83.31298828125
-62.255859375
-51.26953125
-90.63720703125
-96.13037109375
-109.86328125
-124.51171875
-119.93408203125
-105.28564453125
-86.97509765625
-71.4111328125
-58.59375
-65.91796875
-83.31298828125
-92.46826171875
-113.525390625
-122.6806640625
-106.201171875
-99.79248046875
-84.228515625
-73.2421875
-58.59375
-62.255859375
-78.7353515625
-97.96142578125
-107.11669921875
-120.849609375
-117.1875
-99.79248046875
-92.46826171875
-85.14404296875
-62.255859375
-58.59375
-82.3974609375
-99.79248046875
-106.201171875
-124.51171875
-114.44091796875
-104.3701171875
-89.7216796875
-87.890625
-66.83349609375
-67.7490234375
-90.63720703125
-108.0322265625
-121.76513671875
-130.0048828125
-128.173828125
-113.525390625
-84.228515625
-81.48193359375
-79.65087890625
-78.7353515625
-102.5390625
-113.525390625
-120.849609375
-125.42724609375
-125.42724609375
-111.6943359375
-105.28564453125
-89.7216796875
-75.0732421875
-87.890625
-100.7080078125
-115.3564453125
-115.3564453125
-111.6943359375
-109.86328125
-108.0322265625
-109.86328125
-111.6943359375
-116.27197265625
-112.60986328125
-111.6943359375
-108.94775390625
-99.79248046875
-110.77880859375
-113.525390625
-117.1875
-115.3564453125
-108.94775390625
-117.1875
-125.42724609375
-128.173828125
-128.173828125
-124.51171875
-119.93408203125
-119.0185546875
-112.60986328125
-110.77880859375
-112.60986328125
-104.3701171875
-98.876953125
-103.45458984375
-104.3701171875
-106.201171875
-121.76513671875
-135.498046875
-130.0048828125
-134.58251953125
-125.42724609375
-110.77880859375
-112.60986328125
-119.0185546875
-126.3427734375
-128.173828125
-137.3291015625
-129.08935546875
-125.42724609375
-122.6806640625
-123.59619140625
-124.51171875
-120.849609375
-119.0185546875
-113.525390625
-97.96142578125
-98.876953125
-109.86328125
-116.27197265625
-108.0322265625
-97.0458984375
-90.63720703125
-97.0458984375
-107.11669921875
-113.525390625
-118.10302734375
-119.93408203125
-116.27197265625
-101.62353515625
-101.62353515625
-104.3701171875
-105.28564453125
-108.94775390625
-116.27197265625
-127.25830078125
-120.849609375
-117.1875
-120.849609375
-115.3564453125
-119.0185546875
-128.173828125
-123.59619140625
-122.6806640625
-126.3427734375
-126.3427734375
-131.8359375
-134.58251953125
-134.58251953125
-133.6669921875
-129.08935546875
-129.08935546875
-122.6806640625
-125.42724609375
-119.93408203125
-117.1875
-135.498046875
-132.75146484375
-128.173828125
-122.6806640625
-125.42724609375
-115.3564453125
-106.201171875
-122.6806640625
-125.42724609375
-126.3427734375
-126.3427734375
-118.10302734375
-119.93408203125
-117.1875
-121.76513671875
-130.92041015625
-124.51171875
-130.0048828125
-130.92041015625
-106.201171875
-110.77880859375
-121.76513671875
-106.201171875
-52.18505859375
34.7900390625
119.93408203125
229.79736328125
322.265625
434.87548828125
508.11767578125
585.02197265625
688.4765625
769.95849609375
874.32861328125
954.89501953125
967.71240234375
892.63916015625
734.2529296875
541.07666015625
376.28173828125
235.29052734375
134.58251953125
58.59375
6.40869140625
-25.634765625
-34.7900390625
-33.87451171875
-29.296875
-23.8037109375
-18.310546875
-13.73291015625
-20.1416015625
-27.4658203125
-32.04345703125
-36.62109375
-54.931640625
-48.52294921875
-45.7763671875
-53.1005859375
-55.84716796875
-60.4248046875
-54.01611328125
-58.59375
-64.0869140625
-59.50927734375
-54.931640625
-59.50927734375
-57.67822265625
-59.50927734375
-65.00244140625
-62.255859375
-64.0869140625
-67.7490234375
-67.7490234375
-68.66455078125
-59.50927734375
-46.69189453125
-47.607421875
-62.255859375
-61.34033203125
-56.7626953125
-55.84716796875
-50.35400390625
-43.02978515625
-47.607421875
-50.35400390625
