ECG
213.31787109375
218.81103515625
210.5712890625
206.9091796875
208.740234375
202.33154296875
193.17626953125
193.17626953125
178.52783203125
166.6259765625
155.6396484375
139.16015625
125.42724609375
116.27197265625
96.13037109375
83.31298828125
68.66455078125
56.7626953125
48.52294921875
28.38134765625
12.8173828125
2.74658203125
0
-23.8037109375
-32.04345703125
-31.1279296875
-43.02978515625
-50.35400390625
-59.50927734375
-67.7490234375
-75.0732421875
-75.0732421875
-82.3974609375
-82.3974609375
-83.31298828125
-78.7353515625
-84.228515625
-84.228515625
-90.63720703125
-89.7216796875
-99.79248046875
-101.62353515625
-108.0322265625
-102.5390625
-102.5390625
-100.7080078125
-100.7080078125
-99.79248046875
-105.28564453125
-104.3701171875
-104.3701171875
-100.7080078125
-102.5390625
-104.3701171875
-108.0322265625
-111.6943359375
-106.201171875
-105.28564453125
-99.79248046875
-115.3564453125
-107.11669921875
-105.28564453125
-119.0185546875
-119.0185546875
-110.77880859375
-105.28564453125
-109.86328125
-110.77880859375
-109.86328125
-101.62353515625
-100.7080078125
-101.62353515625
-107.11669921875
-105.28564453125
-111.6943359375
-114.44091796875
-111.6943359375
-100.7080078125
-103.45458984375
-99.79248046875
-99.79248046875
-107.11669921875
-109.86328125
-108.94775390625
-110.77880859375
-109.86328125
-110.77880859375
-108.0322265625
-103.45458984375
-101.62353515625
-101.62353515625
-108.94775390625
-103.45458984375
-103.45458984375
-104.3701171875
-104.3701171875
-100.7080078125
-100.7080078125
-99.79248046875
-100.7080078125
-101.62353515625
-96.13037109375
-100.7080078125
-102.5390625
-103.45458984375
-108.0322265625
-108.94775390625
-102.5390625
-102.5390625
-100.7080078125
-106.201171875
-98.876953125
-101.62353515625
-100.7080078125
-102.5390625
-105.28564453125
-101.62353515625
-104.3701171875
-108.94775390625
-110.77880859375
-112.60986328125
-114.44091796875
-105.28564453125
-106.201171875
-107.11669921875
-111.6943359375
-114.44091796875
-117.1875
-114.44091796875
-121.76513671875
-115.3564453125
-101.62353515625
-115.3564453125
-116.27197265625
-115.3564453125
-116.27197265625
-113.525390625
-118.10302734375
-121.76513671875
-119.93408203125
-119.0185546875
-119.93408203125
-119.0185546875
-118.10302734375
-128.173828125
-130.0048828125
-118.10302734375
-125.42724609375
-119.93408203125
-122.6806640625
-129.08935546875
-126.3427734375
-130.0048828125
-128.173828125
-127.25830078125
-122.6806640625
-119.0185546875
-128.173828125
-136.41357421875
-132.75146484375
-134.58251953125
-146.484375
-145.56884765625
-138.24462890625
-136.41357421875
-130.0048828125
-134.58251953125
-140.07568359375
-135.498046875
-124.51171875
-131.8359375
-140.07568359375
-139.16015625
-137.3291015625
-137.3291015625
-142.822265625
-142.822265625
-141.90673828125
-135.498046875
-138.24462890625
-142.822265625
-143.73779296875
-139.16015625
-139.16015625
-137.3291015625
-143.73779296875
-142.822265625
-144.6533203125
-144.6533203125
-143.73779296875
-136.41357421875
-143.73779296875
-148.3154296875
-141.90673828125
-138.24462890625
-136.41357421875
-143.73779296875
-149.23095703125
-135.498046875
-135.498046875
-141.90673828125
-149.23095703125
-152.89306640625
-150.146484375
-140.9912109375
-141.90673828125
-142.822265625
-149.23095703125
-146.484375
-151.9775390625
-146.484375
-145.56884765625
-143.73779296875
-145.56884765625
-154.72412109375
-153.80859375
-143.73779296875
-150.146484375
-150.146484375
-151.06201171875
-147.39990234375
-156.55517578125
-162.9638671875
-148.3154296875
-157.470703125
-150.146484375
-150.146484375
-142.822265625
-152.89306640625
-152.89306640625
-145.56884765625
-145.56884765625
-142.822265625
-145.56884765625
-149.23095703125
-146.484375
-151.9775390625
-156.55517578125
-162.9638671875
-167.54150390625
-163.87939453125
-162.04833984375
-167.54150390625
-167.54150390625
-165.71044921875
-167.54150390625
-172.119140625
-174.86572265625
-177.6123046875
-176.69677734375
-161.1328125
-151.06201171875
-159.3017578125
-160.21728515625
-142.822265625
-144.6533203125
-145.56884765625
-148.3154296875
-140.07568359375
-151.06201171875
-153.80859375
-148.3154296875
-153.80859375
-155.6396484375
-145.56884765625
-136.41357421875
-134.58251953125
-139.16015625
-140.9912109375
-149.23095703125
-154.72412109375
-162.9638671875
-168.45703125
-158.38623046875
-156.55517578125
-165.71044921875
-165.71044921875
-162.04833984375
-161.1328125
-172.119140625
-169.37255859375
-160.21728515625
-167.54150390625
-168.45703125
-167.54150390625
-173.03466796875
-168.45703125
-165.71044921875
-168.45703125
-175.78125
-172.119140625
-171.20361328125
-165.71044921875
-168.45703125
-167.54150390625
-167.54150390625
-162.04833984375
-160.21728515625
-165.71044921875
-169.37255859375
-166.6259765625
-163.87939453125
-165.71044921875
-163.87939453125
-171.20361328125
-172.119140625
-176.69677734375
-175.78125
-173.03466796875
-176.69677734375
-176.69677734375
-164.794921875
-157.470703125
-158.38623046875
-140.9912109375
-94.29931640625
-8.23974609375
80.56640625
180.35888671875
282.89794921875
357.0556640625
425.72021484375
514.5263671875
612.48779296875
695.80078125
778.1982421875
846.86279296875
834.9609375
731.50634765625
564.88037109375
386.3525390625
245.361328125
131.8359375
54.01611328125
-5.4931640625
-65.91796875
-82.3974609375
-74.15771484375
-70.49560546875
-73.2421875
-63.17138671875
-65.00244140625
-61.34033203125
-67.7490234375
-71.4111328125
-91.552734375
-109.86328125
-105.28564453125
-103.45458984375
-107.11669921875
-106.201171875
-111.6943359375
-115.3564453125
-119.93408203125
-124.51171875
-120.849609375
-120.849609375
-119.93408203125
-119.93408203125
-121.76513671875
-125.42724609375
-128.173828125
-126.3427734375
-130.0048828125
-119.93408203125
-120.849609375
-122.6806640625
-112.60986328125
-115.3564453125
-111.6943359375
-116.27197265625
-122.6806640625
-118.10302734375
-119.93408203125
-112.60986328125
-119.0185546875
-111.6943359375
-110.77880859375
-111.6943359375
-119.0185546875
-119.0185546875
-112.60986328125
-113.525390625
-108.0322265625
-107.11669921875
-102.5390625
-104.3701171875
-107.11669921875
-104.3701171875
-97.0458984375
-101.62353515625
-103.45458984375
-103.45458984375
-89.7216796875
-99.79248046875
-108.94775390625
-96.13037109375
-88.80615234375
-88.80615234375
-89.7216796875
-90.63720703125
-87.890625
-86.97509765625
-86.97509765625
-80.56640625
-83.31298828125
-76.904296875
-70.49560546875
-68.66455078125
-71.4111328125
-71.4111328125
-69.580078125
-60.4248046875
-62.255859375
-58.59375
-53.1005859375
-56.7626953125
-48.52294921875
-49.4384765625
-37.53662109375
-36.62109375
-40.283203125
-39.36767578125
-32.04345703125
-24.71923828125
-16.4794921875
-26.55029296875
-15.56396484375
-12.8173828125
-11.90185546875
0.91552734375
8.23974609375
17.39501953125
21.97265625
28.38134765625
29.296875
30.21240234375
33.87451171875
44.86083984375
54.01611328125
59.50927734375
51.26953125
54.931640625
65.00244140625
77.81982421875
72.32666015625
80.56640625
86.0595703125
92.46826171875
104.3701171875
107.11669921875
108.94775390625
113.525390625
114.44091796875
124.51171875
125.42724609375
121.76513671875
128.173828125
137.3291015625
131.8359375
134.58251953125
142.822265625
137.3291015625
141.90673828125
131.8359375
117.1875
113.525390625
115.3564453125
107.11669921875
90.63720703125
80.56640625
64.0869140625
50.35400390625
40.283203125
25.634765625
7.32421875
-12.8173828125
-18.310546875
-30.21240234375
-43.9453125
-52.18505859375
-60.4248046875
-68.66455078125
-76.904296875
-90.63720703125
-103.45458984375
-111.6943359375
-110.77880859375
-119.0185546875
-133.6669921875
-140.9912109375
-140.07568359375
-141.90673828125
-150.146484375
-152.89306640625
-151.06201171875
-155.6396484375
-165.71044921875
-162.9638671875
-168.45703125
-161.1328125
-162.04833984375
-165.71044921875
-162.9638671875
-166.6259765625
-168.45703125
-164.794921875
-165.71044921875
-164.794921875
-165.71044921875
-165.71044921875
-169.37255859375
-171.20361328125
-165.71044921875
-174.86572265625
-176.69677734375
-167.54150390625
-172.119140625
-161.1328125
-162.04833984375
-176.69677734375
-171.20361328125
-168.45703125
-173.9501953125
-167.54150390625
-172.119140625
-175.78125
-181.2744140625
-172.119140625
-168.45703125
-164.794921875
-164.794921875
-173.9501953125
-164.794921875
-164.794921875
-166.6259765625
-170.2880859375
-168.45703125
-170.2880859375
-165.71044921875
-165.71044921875
-165.71044921875
-160.21728515625
-164.794921875
-156.55517578125
-157.470703125
-164.794921875
-151.06201171875
-158.38623046875
-160.21728515625
-156.55517578125
-157.470703125
-160.21728515625
-157.470703125
-159.3017578125
-159.3017578125
-160.21728515625
-157.470703125
-155.6396484375
-155.6396484375
-166.6259765625
-160.21728515625
-162.9638671875
-158.38623046875
-160.21728515625
-151.9775390625
-153.80859375
-149.23095703125
-153.80859375
-151.9775390625
-152.89306640625
-157.470703125
-152.89306640625
-157.470703125
-154.72412109375
-162.04833984375
-151.9775390625
-151.06201171875
-160.21728515625
-164.794921875
-166.6259765625
-165.71044921875
-159.3017578125
-160.21728515625
-158.38623046875
-156.55517578125
-153.80859375
-153.80859375
-159.3017578125
-161.1328125
-161.1328125
-163.87939453125
-162.04833984375
-162.04833984375
-163.87939453125
-172.119140625
-162.9638671875
-161.1328125
-162.9638671875
-175.78125
-172.119140625
-171.20361328125
-162.9638671875
-170.2880859375
-171.20361328125
-177.6123046875
-169.37255859375
-161.1328125
-176.69677734375
-177.6123046875
-180.35888671875
-178.52783203125
-175.78125
-168.45703125
-175.78125
-175.78125
-184.02099609375
-176.69677734375
-175.78125
-175.78125
-177.6123046875
-174.86572265625
-183.10546875
-176.69677734375
-177.6123046875
-179.443359375
-179.443359375
-178.52783203125
-170.2880859375
-181.2744140625
-184.02099609375
-177.6123046875
-185.85205078125
-177.6123046875
-186.767578125
-187.68310546875
-187.68310546875
-180.35888671875
-183.10546875
-177.6123046875
-186.767578125
-182.18994140625
-184.9365234375
-178.52783203125
-173.03466796875
-175.78125
-183.10546875
-188.5986328125
-177.6123046875
-184.9365234375
-181.2744140625
-185.85205078125
-192.2607421875
-194.091796875
-182.18994140625
-181.2744140625
-183.10546875
-187.68310546875
-191.34521484375
-188.5986328125
-184.02099609375
-183.10546875
-178.52783203125
-185.85205078125
-184.9365234375
-174.86572265625
-182.18994140625
-178.52783203125
-187.68310546875
-188.5986328125
-201.416015625
-200.50048828125
-201.416015625
-195.9228515625
-201.416015625
-200.50048828125
-199.5849609375
-208.740234375
-211.48681640625
-205.99365234375
-215.14892578125
-212.40234375
-210.5712890625
-194.091796875
-185.85205078125
-179.443359375
-192.2607421875
-181.2744140625
-183.10546875
-178.52783203125
-179.443359375
-173.9501953125
-178.52783203125
-180.35888671875
-178.52783203125
-187.68310546875
-186.767578125
-172.119140625
-164.794921875
-169.37255859375
-166.6259765625
-162.9638671875
-176.69677734375
-188.5986328125
-186.767578125
-190.4296875
-184.02099609375
-176.69677734375
-184.02099609375
-190.4296875
-196.83837890625
-196.83837890625
-191.34521484375
-188.5986328125
-189.51416015625
-195.00732421875
-191.34521484375
-189.51416015625
-187.68310546875
-184.9365234375
-193.17626953125
-203.2470703125
-199.5849609375
-190.4296875
-199.5849609375
-197.75390625
-188.5986328125
-181.2744140625
-190.4296875
-186.767578125
-189.51416015625
-190.4296875
-182.18994140625
-179.443359375
-182.18994140625
-194.091796875
-187.68310546875
-186.767578125
-182.18994140625
-186.767578125
-190.4296875
-191.34521484375
-188.5986328125
-183.10546875
-179.443359375
-176.69677734375
-177.6123046875
-169.37255859375
-113.525390625
-41.19873046875
34.7900390625
132.75146484375
236.2060546875
327.7587890625
404.6630859375
483.3984375
592.34619140625
671.08154296875
761.71875
834.04541015625
834.9609375
745.2392578125
596.923828125
414.73388671875
263.671875
137.3291015625
50.35400390625
-10.986328125
-67.7490234375
-97.96142578125
-97.0458984375
-85.14404296875
-75.98876953125
-75.98876953125
-76.904296875
-74.15771484375
-72.32666015625
-81.48193359375
-89.7216796875
-95.21484375
-101.62353515625
-109.86328125
-107.11669921875
-107.11669921875
-119.93408203125
-117.1875
-124.51171875
-118.10302734375
-119.93408203125
-128.173828125
-131.8359375
-123.59619140625
-121.76513671875
-126.3427734375
-124.51171875
-122.6806640625
-119.93408203125
-125.42724609375
-122.6806640625
-119.0185546875
-122.6806640625
-126.3427734375
-124.51171875
-118.10302734375
-114.44091796875
-112.60986328125
-119.93408203125
-113.525390625
-106.201171875
-110.77880859375
-112.60986328125
-109.86328125
-114.44091796875
-112.60986328125
-97.96142578125
-100.7080078125
-102.5390625
-96.13037109375
-107.11669921875
-109.86328125
-97.96142578125
-100.7080078125
-97.0458984375
-93.3837890625
-90.63720703125
-84.228515625
-86.0595703125
-91.552734375
-90.63720703125
-85.14404296875
-77.81982421875
-85.14404296875
-85.14404296875
-90.63720703125
-77.81982421875
-65.91796875
-65.91796875
-63.17138671875
-70.49560546875
-63.17138671875
-58.59375
-62.255859375
-56.7626953125
-56.7626953125
-55.84716796875
-54.931640625
-43.9453125
-44.86083984375
-44.86083984375
-42.1142578125
-41.19873046875
-34.7900390625
-35.70556640625
-23.8037109375
-20.1416015625
-22.88818359375
-15.56396484375
-9.1552734375
-2.74658203125
-8.23974609375
-0.91552734375
7.32421875
15.56396484375
21.05712890625
23.8037109375
28.38134765625
41.19873046875
48.52294921875
50.35400390625
55.84716796875
63.17138671875
62.255859375
74.15771484375
85.14404296875
85.14404296875
84.228515625
85.14404296875
98.876953125
106.201171875
110.77880859375
119.0185546875
119.93408203125
120.849609375
122.6806640625
131.8359375
144.6533203125
153.80859375
151.06201171875
147.39990234375
150.146484375
144.6533203125
151.06201171875
152.89306640625
165.71044921875
162.04833984375
162.9638671875
158.38623046875
159.3017578125
151.9775390625
146.484375
142.822265625
128.173828125
114.44091796875
101.62353515625
86.97509765625
77.81982421875
54.931640625
43.02978515625
41.19873046875
22.88818359375
18.310546875
-4.57763671875
-19.22607421875
-30.21240234375
-41.19873046875
-49.4384765625
-58.59375
-60.4248046875
-80.56640625
-89.7216796875
-96.13037109375
-104.3701171875
-103.45458984375
-109.86328125
-117.1875
-121.76513671875
-122.6806640625
-118.10302734375
-126.3427734375
-131.8359375
-134.58251953125
-135.498046875
-130.92041015625
-127.25830078125
-129.08935546875
-134.58251953125
-140.9912109375
-144.6533203125
-136.41357421875
-138.24462890625
-136.41357421875
-139.16015625
-137.3291015625
-150.146484375
-144.6533203125
-143.73779296875
-139.16015625
-148.3154296875
-143.73779296875
-141.90673828125
-142.822265625
-137.3291015625
-141.90673828125
-147.39990234375
-141.90673828125
-141.90673828125
-143.73779296875
-140.9912109375
-137.3291015625
-143.73779296875
-145.56884765625
-136.41357421875
-131.8359375
-138.24462890625
-135.498046875
-136.41357421875
-134.58251953125
-140.07568359375
-139.16015625
-140.07568359375
-131.8359375
-134.58251953125
-131.8359375
-138.24462890625
-135.498046875
-129.08935546875
-129.08935546875
-127.25830078125
-120.849609375
-122.6806640625
-132.75146484375
-131.8359375
-126.3427734375
-122.6806640625
-118.10302734375
-121.76513671875
-118.10302734375
-117.1875
-119.0185546875
-124.51171875
-117.1875
-124.51171875
-119.0185546875
-124.51171875
-122.6806640625
-119.93408203125
-119.0185546875
-116.27197265625
-113.525390625
-121.76513671875
-120.849609375
-119.0185546875
-116.27197265625
-120.849609375
-112.60986328125
-117.1875
-121.76513671875
-112.60986328125
-109.86328125
-124.51171875
-119.93408203125
-113.525390625
-114.44091796875
-119.93408203125
-129.08935546875
-126.3427734375
-124.51171875
-117.1875
-107.11669921875
-114.44091796875
-120.849609375
-116.27197265625
-119.0185546875
-127.25830078125
-128.173828125
-130.92041015625
-121.76513671875
-113.525390625
-124.51171875
-125.42724609375
-121.76513671875
-120.849609375
-128.173828125
-131.8359375
-134.58251953125
-129.08935546875
-129.08935546875
-134.58251953125
-127.25830078125
-125.42724609375
-128.173828125
-130.92041015625
-129.08935546875
-134.58251953125
-137.3291015625
-135.498046875
-125.42724609375
-130.92041015625
-134.58251953125
-132.75146484375
-123.59619140625
-133.6669921875
-137.3291015625
-133.6669921875
-130.0048828125
-134.58251953125
-136.41357421875
-124.51171875
-135.498046875
-134.58251953125
-129.08935546875
-130.0048828125
-131.8359375
-131.8359375
-134.58251953125
-133.6669921875
-136.41357421875
-133.6669921875
-130.0048828125
-130.92041015625
-132.75146484375
-137.3291015625
-146.484375
-145.56884765625
-140.9912109375
-134.58251953125
-132.75146484375
-136.41357421875
-137.3291015625
-138.24462890625
-131.8359375
-140.9912109375
-147.39990234375
-141.90673828125
-148.3154296875
-147.39990234375
-145.56884765625
-139.16015625
-142.822265625
-145.56884765625
-140.9912109375
-136.41357421875
-143.73779296875
-139.16015625
-140.9912109375
-140.07568359375
-140.07568359375
-133.6669921875
-139.16015625
-141.90673828125
-141.90673828125
-140.07568359375
-131.8359375
-139.16015625
-136.41357421875
-130.0048828125
-130.0048828125
-139.16015625
-143.73779296875
-146.484375
-139.16015625
-142.822265625
-136.41357421875
-138.24462890625
-151.9775390625
-140.9912109375
-138.24462890625
-129.08935546875
-130.92041015625
-145.56884765625
-135.498046875
-131.8359375
-138.24462890625
-144.6533203125
-140.07568359375
-139.16015625
-137.3291015625
-134.58251953125
-135.498046875
-130.92041015625
-130.92041015625
-127.25830078125
-125.42724609375
-130.92041015625
-138.24462890625
-149.23095703125
-147.39990234375
-150.146484375
-148.3154296875
-146.484375
-150.146484375
-151.9775390625
-155.6396484375
-163.87939453125
-158.38623046875
-157.470703125
-156.55517578125
-149.23095703125
-140.9912109375
-129.08935546875
-129.08935546875
-137.3291015625
-134.58251953125
-125.42724609375
-128.173828125
-132.75146484375
-127.25830078125
-119.93408203125
-123.59619140625
-126.3427734375
-130.92041015625
-140.07568359375
-135.498046875
-130.92041015625
-130.92041015625
-130.92041015625
-130.0048828125
-128.173828125
-128.173828125
-140.9912109375
-131.8359375
-132.75146484375
-142.822265625
-147.39990234375
-146.484375
-146.484375
-144.6533203125
-142.822265625
-138.24462890625
-142.822265625
-143.73779296875
-149.23095703125
-159.3017578125
-158.38623046875
-150.146484375
-150.146484375
-140.9912109375
-142.822265625
-148.3154296875
-146.484375
-144.6533203125
-149.23095703125
-151.06201171875
-142.822265625
-146.484375
-154.72412109375
-153.80859375
-151.06201171875
-142.822265625
-138.24462890625
-142.822265625
-142.822265625
-140.07568359375
-149.23095703125
-150.146484375
-152.89306640625
-152.89306640625
-149.23095703125
-149.23095703125
-135.498046875
-130.0048828125
-126.3427734375
-119.93408203125
-84.228515625
-10.986328125
61.34033203125
154.72412109375
250.8544921875
340.576171875
421.142578125
500.79345703125
596.923828125
681.15234375
762.63427734375
837.70751953125
861.51123046875
831.298828125
700.37841796875
514.5263671875
351.5625
230.712890625
118.10302734375
52.18505859375
-9.1552734375
-54.01611328125
-53.1005859375
-39.36767578125
-28.38134765625
-24.71923828125
-25.634765625
-19.22607421875
-26.55029296875
-43.9453125
-52.18505859375
-53.1005859375
-63.17138671875
-70.49560546875
-72.32666015625
-76.904296875
-86.0595703125
-85.14404296875
-83.31298828125
-91.552734375
-85.14404296875
-86.97509765625
-93.3837890625
-82.3974609375
-82.3974609375
-87.890625
-90.63720703125
-91.552734375
-85.14404296875
-88.80615234375
-90.63720703125
-87.890625
-83.31298828125
-90.63720703125
-84.228515625
-82.3974609375
-84.228515625
-79.65087890625
-74.15771484375
-77.81982421875
-79.65087890625
-76.904296875
-76.904296875
-78.7353515625
-77.81982421875
-65.91796875
-65.91796875
-68.66455078125
-71.4111328125
-66.83349609375
-65.00244140625
-68.66455078125
-73.2421875
-67.7490234375
-58.59375
-59.50927734375
-60.4248046875
-62.255859375
-64.0869140625
-60.4248046875
-53.1005859375
-55.84716796875
-55.84716796875
-51.26953125
-51.26953125
-51.26953125
-48.52294921875
-49.4384765625
-44.86083984375
-37.53662109375
-38.4521484375
-36.62109375
-32.958984375
-36.62109375
-38.4521484375
-21.05712890625
-21.97265625
-17.39501953125
-16.4794921875
-20.1416015625
-14.6484375
-11.90185546875
-8.23974609375
-0.91552734375
3.662109375
3.662109375
-0.91552734375
10.986328125
19.22607421875
19.22607421875
14.6484375
21.97265625
29.296875
37.53662109375
46.69189453125
46.69189453125
51.26953125
54.01611328125
53.1005859375
62.255859375
72.32666015625
73.2421875
77.81982421875
93.3837890625
97.96142578125
105.28564453125
108.0322265625
107.11669921875
117.1875
124.51171875
128.173828125
135.498046875
147.39990234375
150.146484375
155.6396484375
157.470703125
157.470703125
166.6259765625
169.37255859375
173.03466796875
176.69677734375
179.443359375
184.02099609375
186.767578125
195.9228515625
198.66943359375
198.66943359375
202.33154296875
197.75390625
186.767578125
184.02099609375
176.69677734375
173.03466796875
162.9638671875
157.470703125
150.146484375
127.25830078125
115.3564453125
108.0322265625
91.552734375
77.81982421875
62.255859375
42.1142578125
39.36767578125
22.88818359375
6.40869140625
-4.57763671875
-21.97265625
-32.04345703125
-40.283203125
-51.26953125
-61.34033203125
-69.580078125
-63.17138671875
-71.4111328125
-79.65087890625
-86.97509765625
-97.0458984375
-98.876953125
-98.876953125
-104.3701171875
-108.0322265625
-102.5390625
-113.525390625
-111.6943359375
-114.44091796875
-110.77880859375
-110.77880859375
-110.77880859375
-122.6806640625
-123.59619140625
-124.51171875
-117.1875
-119.0185546875
-124.51171875
-116.27197265625
-109.86328125
-111.6943359375
-117.1875
-121.76513671875
-121.76513671875
-120.849609375
-118.10302734375
-116.27197265625
-119.0185546875
-124.51171875
-119.0185546875
-126.3427734375
-125.42724609375
-121.76513671875
-119.0185546875
-119.0185546875
-119.93408203125
-117.1875
-115.3564453125
-110.77880859375
-119.93408203125
-120.849609375
-116.27197265625
-111.6943359375
-120.849609375
-116.27197265625
-111.6943359375
-115.3564453125
-116.27197265625
-120.849609375
-117.1875
-115.3564453125
-118.10302734375
-119.0185546875
-124.51171875
-123.59619140625
-119.0185546875
-113.525390625
-108.94775390625
-119.93408203125
-122.6806640625
-112.60986328125
-119.0185546875
-112.60986328125
-110.77880859375
-113.525390625
-114.44091796875
-120.849609375
-117.1875
-108.94775390625
-118.10302734375
-121.76513671875
-118.10302734375
-119.0185546875
-108.94775390625
-110.77880859375
-108.94775390625
-113.525390625
-113.525390625
-117.1875
-108.94775390625
-111.6943359375
-118.10302734375
-114.44091796875
-118.10302734375
-118.10302734375
-112.60986328125
-115.3564453125
-111.6943359375
-108.0322265625
-116.27197265625
-124.51171875
-117.1875
-122.6806640625
-120.849609375
-117.1875
-117.1875
-118.10302734375
-112.60986328125
-119.0185546875
-124.51171875
-123.59619140625
-117.1875
-117.1875
-114.44091796875
-115.3564453125
-114.44091796875
-117.1875
-122.6806640625
-128.173828125
-126.3427734375
-128.173828125
-120.849609375
-126.3427734375
-117.1875
-119.0185546875
-123.59619140625
-125.42724609375
-130.92041015625
-140.07568359375
-133.6669921875
-135.498046875
-130.92041015625
-129.08935546875
-132.75146484375
-132.75146484375
-129.08935546875
-130.0048828125
-128.173828125
-130.92041015625
-141.90673828125
-133.6669921875
-130.0048828125
-129.08935546875
-137.3291015625
-135.498046875
-132.75146484375
-134.58251953125
-138.24462890625
-135.498046875
-141.90673828125
-140.07568359375
-135.498046875
-132.75146484375
-130.0048828125
-141.90673828125
-140.07568359375
-141.90673828125
-139.16015625
-143.73779296875
-134.58251953125
-140.9912109375
-136.41357421875
-137.3291015625
-136.41357421875
-137.3291015625
-140.9912109375
-139.16015625
-136.41357421875
-136.41357421875
-136.41357421875
-141.90673828125
-139.16015625
-142.822265625
-147.39990234375
-140.9912109375
-138.24462890625
-134.58251953125
-133.6669921875
-140.9912109375
-144.6533203125
-140.9912109375
-141.90673828125
-144.6533203125
-141.90673828125
-134.58251953125
-135.498046875
-140.07568359375
-142.822265625
-138.24462890625
-144.6533203125
-143.73779296875
-143.73779296875
-147.39990234375
-141.90673828125
-140.07568359375
-139.16015625
-144.6533203125
-143.73779296875
-139.16015625
-140.9912109375
-141.90673828125
-139.16015625
-140.07568359375
-149.23095703125
-153.80859375
-158.38623046875
-148.3154296875
-141.90673828125
-143.73779296875
-148.3154296875
-140.07568359375
-140.9912109375
-160.21728515625
-149.23095703125
-140.07568359375
-140.07568359375
-144.6533203125
-139.16015625
-137.3291015625
-136.41357421875
-135.498046875
-141.90673828125
-142.822265625
-145.56884765625
-149.23095703125
-147.39990234375
-146.484375
-140.07568359375
-137.3291015625
-131.8359375
-139.16015625
-136.41357421875
-140.07568359375
-137.3291015625
-132.75146484375
-135.498046875
-146.484375
-154.72412109375
-153.80859375
-151.9775390625
-152.89306640625
-155.6396484375
-154.72412109375
-160.21728515625
-164.794921875
-168.45703125
-163.87939453125
-160.21728515625
-165.71044921875
-157.470703125
-141.90673828125
-147.39990234375
-154.72412109375
-139.16015625
-133.6669921875
-133.6669921875
-138.24462890625
-134.58251953125
-127.25830078125
-133.6669921875
-137.3291015625
-140.07568359375
-143.73779296875
-153.80859375
-138.24462890625
-124.51171875
-121.76513671875
-127.25830078125
-129.08935546875
-138.24462890625
-148.3154296875
-145.56884765625
-150.146484375
-140.07568359375
-143.73779296875
-152.89306640625
-157.470703125
-151.9775390625
-150.146484375
-144.6533203125
-147.39990234375
-151.9775390625
-159.3017578125
-162.9638671875
-156.55517578125
-151.9775390625
-151.06201171875
-156.55517578125
-151.06201171875
-146.484375
-153.80859375
-161.1328125
-145.56884765625
-157.470703125
-149.23095703125
-149.23095703125
-146.484375
-149.23095703125
-151.9775390625
-145.56884765625
-151.9775390625
-150.146484375
-152.89306640625
-154.72412109375
-153.80859375
-154.72412109375
-149.23095703125
-156.55517578125
-162.04833984375
-163.87939453125
-154.72412109375
-132.75146484375
-134.58251953125
-144.6533203125
-116.27197265625
-65.91796875
11.90185546875
96.13037109375
193.17626953125
289.306640625
378.11279296875
452.2705078125
534.66796875
635.3759765625
711.36474609375
791.93115234375
856.01806640625
853.271484375
754.39453125
588.68408203125
418.39599609375
279.23583984375
156.55517578125
72.32666015625
6.40869140625
-34.7900390625
-49.4384765625
-53.1005859375
-41.19873046875
-39.36767578125
-45.7763671875
-33.87451171875
-41.19873046875
-54.01611328125
-62.255859375
-65.91796875
-74.15771484375
-75.98876953125
-89.7216796875
-86.97509765625
-92.46826171875
-93.3837890625
-93.3837890625
-95.21484375
-97.0458984375
-95.21484375
-97.0458984375
-101.62353515625
-107.11669921875
-104.3701171875
-107.11669921875
-106.201171875
-101.62353515625
-104.3701171875
-106.201171875
-108.94775390625
-96.13037109375
-101.62353515625
-98.876953125
-97.96142578125
-97.0458984375
-100.7080078125
-102.5390625
-98.876953125
-100.7080078125
-90.63720703125
-97.0458984375
-90.63720703125
-91.552734375
-93.3837890625
-90.63720703125
-87.890625
-88.80615234375
-86.97509765625
-88.80615234375
-83.31298828125
-86.0595703125
-86.97509765625
-78.7353515625
-75.0732421875
-82.3974609375
-79.65087890625
-79.65087890625
-85.14404296875
-77.81982421875
-71.4111328125
-75.0732421875
-67.7490234375
-59.50927734375
-59.50927734375
-61.34033203125
-65.00244140625
-63.17138671875
-57.67822265625
-58.59375
-53.1005859375
-51.26953125
-47.607421875
-41.19873046875
-42.1142578125
-46.69189453125
-45.7763671875
-46.69189453125
-41.19873046875
-34.7900390625
-26.55029296875
-19.22607421875
-17.39501953125
-19.22607421875
-9.1552734375
-17.39501953125
-17.39501953125
-10.986328125
-9.1552734375
-7.32421875
-4.57763671875
-3.662109375
4.57763671875
11.90185546875
22.88818359375
30.21240234375
29.296875
36.62109375
47.607421875
48.52294921875
55.84716796875
54.931640625
65.91796875
65.91796875
69.580078125
73.2421875
79.65087890625
85.14404296875
91.552734375
97.96142578125
105.28564453125
113.525390625
127.25830078125
134.58251953125
128.173828125
137.3291015625
139.16015625
143.73779296875
130.92041015625
140.07568359375
156.55517578125
160.21728515625
167.54150390625
162.04833984375
163.87939453125
168.45703125
166.6259765625
167.54150390625
163.87939453125
162.9638671875
159.3017578125
150.146484375
147.39990234375
145.56884765625
134.58251953125
119.0185546875
106.201171875
97.96142578125
76.904296875
64.0869140625
55.84716796875
32.04345703125
31.1279296875
8.23974609375
-2.74658203125
-5.4931640625
-25.634765625
-46.69189453125
-49.4384765625
-60.4248046875
-68.66455078125
-75.0732421875
-87.890625
-87.890625
-92.46826171875
-106.201171875
-106.201171875
-113.525390625
-128.173828125
-126.3427734375
-122.6806640625
-119.93408203125
-124.51171875
-126.3427734375
-140.07568359375
-140.07568359375
-135.498046875
-135.498046875
-140.9912109375
-137.3291015625
-140.07568359375
-146.484375
-145.56884765625
-146.484375
-147.39990234375
-151.06201171875
-142.822265625
-139.16015625
-141.90673828125
-146.484375
-146.484375
-145.56884765625
-151.06201171875
-150.146484375
-143.73779296875
-140.07568359375
-137.3291015625
-148.3154296875
-151.06201171875
-144.6533203125
-140.9912109375
-145.56884765625
-143.73779296875
-142.822265625
-141.90673828125
-148.3154296875
-140.07568359375
-142.822265625
-147.39990234375
-152.89306640625
-148.3154296875
-140.9912109375
-138.24462890625
-145.56884765625
-139.16015625
-146.484375
-149.23095703125
-145.56884765625
-145.56884765625
-150.146484375
-140.07568359375
-145.56884765625
-135.498046875
-149.23095703125
-148.3154296875
-135.498046875
-129.08935546875
-137.3291015625
-141.90673828125
-140.9912109375
-132.75146484375
-136.41357421875
-136.41357421875
-138.24462890625
-128.173828125
-132.75146484375
-136.41357421875
-137.3291015625
-131.8359375
-136.41357421875
-136.41357421875
-142.822265625
-140.9912109375
-140.9912109375
-136.41357421875
-137.3291015625
-135.498046875
-136.41357421875
-132.75146484375
-126.3427734375
-134.58251953125
-131.8359375
-125.42724609375
-129.08935546875
-131.8359375
-138.24462890625
-139.16015625
-142.822265625
-145.56884765625
-136.41357421875
-130.92041015625
-136.41357421875
-141.90673828125
-140.07568359375
-140.07568359375
-135.498046875
-135.498046875
-139.16015625
-136.41357421875
-145.56884765625
-147.39990234375
-141.90673828125
-140.07568359375
-140.07568359375
-141.90673828125
-142.822265625
-141.90673828125
-146.484375
-152.89306640625
-151.06201171875
-151.06201171875
-156.55517578125
-162.9638671875
-153.80859375
-141.90673828125
-151.06201171875
-149.23095703125
-143.73779296875
-144.6533203125
-150.146484375
-156.55517578125
-155.6396484375
-160.21728515625
-152.89306640625
-146.484375
-157.470703125
-163.87939453125
-166.6259765625
-156.55517578125
-166.6259765625
-160.21728515625
-167.54150390625
-167.54150390625
-164.794921875
-146.484375
-159.3017578125
-165.71044921875
-160.21728515625
-151.06201171875
-154.72412109375
-156.55517578125
-155.6396484375
-159.3017578125
-156.55517578125
-162.04833984375
-166.6259765625
-167.54150390625
-162.9638671875
-155.6396484375
-152.89306640625
-155.6396484375
-161.1328125
-154.72412109375
-154.72412109375
-158.38623046875
-173.9501953125
-172.119140625
-162.9638671875
-166.6259765625
-162.9638671875
-158.38623046875
-163.87939453125
-169.37255859375
-161.1328125
-162.9638671875
-162.04833984375
-173.03466796875
-172.119140625
-162.9638671875
-169.37255859375
-173.9501953125
-166.6259765625
-161.1328125
-166.6259765625
-165.71044921875
-166.6259765625
-163.87939453125
-163.87939453125
-174.86572265625
-165.71044921875
-158.38623046875
-165.71044921875
-162.9638671875
-170.2880859375
-166.6259765625
-160.21728515625
-156.55517578125
-159.3017578125
-167.54150390625
-162.04833984375
-158.38623046875
-170.2880859375
-183.10546875
-173.9501953125
-174.86572265625
-173.03466796875
-186.767578125
-191.34521484375
-186.767578125
-183.10546875
-187.68310546875
-195.00732421875
-184.02099609375
-190.4296875
-184.9365234375
-171.20361328125
-172.119140625
-173.03466796875
-167.54150390625
-160.21728515625
-155.6396484375
-155.6396484375
-162.04833984375
-152.89306640625
-149.23095703125
-156.55517578125
-156.55517578125
-164.794921875
-176.69677734375
-170.2880859375
-160.21728515625
-151.9775390625
-142.822265625
-149.23095703125
-148.3154296875
-158.38623046875
-165.71044921875
-160.21728515625
-170.2880859375
-173.03466796875
-173.03466796875
-177.6123046875
-174.86572265625
-173.03466796875
-174.86572265625
-175.78125
-162.04833984375
-173.9501953125
-169.37255859375
-179.443359375
-177.6123046875
-173.9501953125
-174.86572265625
-180.35888671875
-172.119140625
-171.20361328125
-175.78125
-174.86572265625
-167.54150390625
-170.2880859375
-173.9501953125
-166.6259765625
-171.20361328125
-168.45703125
-167.54150390625
-174.86572265625
-174.86572265625
-173.03466796875
-162.04833984375
-165.71044921875
-175.78125
-172.119140625
-162.04833984375
-164.794921875
-168.45703125
-170.2880859375
-168.45703125
-162.04833984375
-165.71044921875
-158.38623046875
-125.42724609375
-50.35400390625
23.8037109375
129.08935546875
225.2197265625
317.68798828125
396.42333984375
475.15869140625
574.03564453125
654.60205078125
736.083984375
825.8056640625
866.0888671875
797.42431640625
661.0107421875
486.14501953125
325.01220703125
201.416015625
115.3564453125
37.53662109375
-23.8037109375
-62.255859375
-72.32666015625
-71.4111328125
-74.15771484375
-66.83349609375
-69.580078125
-68.66455078125
-58.59375
-55.84716796875
-71.4111328125
-76.904296875
-87.890625
-92.46826171875
-97.0458984375
-104.3701171875
-112.60986328125
-101.62353515625
-111.6943359375
-117.1875
-119.0185546875
-107.11669921875
-108.94775390625
-111.6943359375
-114.44091796875
-116.27197265625
-118.10302734375
-120.849609375
-121.76513671875
-116.27197265625
-117.1875
-107.11669921875
-105.28564453125
-111.6943359375
-111.6943359375
-106.201171875
-115.3564453125
-108.94775390625
-108.0322265625
-106.201171875
-108.0322265625
-101.62353515625
-94.29931640625
-98.876953125
-104.3701171875
-102.5390625
-103.45458984375
-104.3701171875
-92.46826171875
-99.79248046875
-100.7080078125
-99.79248046875
-88.80615234375
-91.552734375
-95.21484375
-90.63720703125
-87.890625
-88.80615234375
-88.80615234375
-88.80615234375
-83.31298828125
-69.580078125
-75.98876953125
-80.56640625
-77.81982421875
-72.32666015625
-67.7490234375
-72.32666015625
-65.91796875
-63.17138671875
-61.34033203125
-59.50927734375
-60.4248046875
-60.4248046875
-57.67822265625
-57.67822265625
-61.34033203125
-44.86083984375
-44.86083984375
-44.86083984375
-47.607421875
-41.19873046875
-33.87451171875
-32.04345703125
-31.1279296875
-28.38134765625
-18.310546875
-24.71923828125
-13.73291015625
-7.32421875
-12.8173828125
-6.40869140625
-0.91552734375
7.32421875
16.4794921875
17.39501953125
18.310546875
20.1416015625
21.05712890625
26.55029296875
49.4384765625
49.4384765625
54.931640625
48.52294921875
56.7626953125
65.00244140625
68.66455078125
75.98876953125
80.56640625
80.56640625
95.21484375
101.62353515625
105.28564453125
98.876953125
121.76513671875
124.51171875
128.173828125
125.42724609375
129.08935546875
134.58251953125
135.498046875
139.16015625
140.07568359375
151.06201171875
143.73779296875
145.56884765625
151.9775390625
161.1328125
160.21728515625
144.6533203125
141.90673828125
135.498046875
125.42724609375
127.25830078125
114.44091796875
101.62353515625
94.29931640625
85.14404296875
62.255859375
49.4384765625
40.283203125
32.958984375
9.1552734375
0
-12.8173828125
-29.296875
-39.36767578125
-48.52294921875
-61.34033203125
-65.91796875
-81.48193359375
-81.48193359375
-87.890625
-97.96142578125
-103.45458984375
-112.60986328125
-119.0185546875
-119.0185546875
-125.42724609375
-130.92041015625
-137.3291015625
-129.08935546875
-123.59619140625
-127.25830078125
-138.24462890625
-133.6669921875
-140.9912109375
-140.9912109375
-138.24462890625
-152.89306640625
-151.06201171875
-153.80859375
-152.89306640625
-150.146484375
-147.39990234375
-148.3154296875
-148.3154296875
-149.23095703125
-150.146484375
-147.39990234375
-142.822265625
-157.470703125
-158.38623046875
-153.80859375
-155.6396484375
-150.146484375
-151.9775390625
-155.6396484375
-160.21728515625
-155.6396484375
-156.55517578125
-154.72412109375
-157.470703125
-155.6396484375
-151.9775390625
-151.9775390625
-151.06201171875
-150.146484375
-147.39990234375
-155.6396484375
-151.06201171875
-146.484375
-147.39990234375
-151.06201171875
-143.73779296875
-145.56884765625
-145.56884765625
-146.484375
-147.39990234375
-150.146484375
-140.9912109375
-138.24462890625
-143.73779296875
-142.822265625
-150.146484375
-143.73779296875
-139.16015625
-151.06201171875
-145.56884765625
-137.3291015625
-138.24462890625
-143.73779296875
-130.0048828125
-131.8359375
-133.6669921875
-142.822265625
-139.16015625
-136.41357421875
-134.58251953125
-137.3291015625
-140.9912109375
-137.3291015625
-132.75146484375
-136.41357421875
-140.9912109375
-143.73779296875
-137.3291015625
-139.16015625
-142.822265625
-136.41357421875
-135.498046875
-140.07568359375
-128.173828125
-131.8359375
-133.6669921875
-134.58251953125
-143.73779296875
-140.9912109375
-128.173828125
-133.6669921875
-139.16015625
-145.56884765625
-136.41357421875
-144.6533203125
-146.484375
-143.73779296875
-143.73779296875
-149.23095703125
-146.484375
-142.822265625
-148.3154296875
-140.07568359375
-142.822265625
-142.822265625
-146.484375
-145.56884765625
-151.06201171875
-153.80859375
-149.23095703125
-153.80859375
-152.89306640625
-147.39990234375
-139.16015625
-145.56884765625
-150.146484375
-154.72412109375
-151.06201171875
-152.89306640625
-152.89306640625
-154.72412109375
-156.55517578125
-155.6396484375
-153.80859375
-154.72412109375
-155.6396484375
-151.06201171875
-152.89306640625
-156.55517578125
-160.21728515625
-162.9638671875
-165.71044921875
-156.55517578125
-149.23095703125
-142.822265625
-151.9775390625
-144.6533203125
-151.06201171875
-155.6396484375
-151.06201171875
-154.72412109375
-145.56884765625
-145.56884765625
-151.9775390625
-148.3154296875
-156.55517578125
-150.146484375
-150.146484375
-142.822265625
-154.72412109375
-157.470703125
-154.72412109375
-153.80859375
-155.6396484375
-153.80859375
-146.484375
-150.146484375
-148.3154296875
-151.06201171875
-152.89306640625
-149.23095703125
-158.38623046875
-156.55517578125
-156.55517578125
-161.1328125
-150.146484375
-140.07568359375
-138.24462890625
-141.90673828125
-149.23095703125
-148.3154296875
-151.06201171875
-150.146484375
-144.6533203125
-140.07568359375
-138.24462890625
-133.6669921875
-140.9912109375
-136.41357421875
-137.3291015625
-147.39990234375
-153.80859375
-159.3017578125
-165.71044921875
-162.9638671875
-154.72412109375
-143.73779296875
-152.89306640625
-162.04833984375
-163.87939453125
-167.54150390625
-169.37255859375
-167.54150390625
-167.54150390625
-168.45703125
-147.39990234375
-145.56884765625
-145.56884765625
-132.75146484375
-131.8359375
-129.08935546875
-133.6669921875
-138.24462890625
-133.6669921875
-129.08935546875
-135.498046875
-139.16015625
-139.16015625
-142.822265625
-144.6533203125
-137.3291015625
-138.24462890625
-129.08935546875
-125.42724609375
-122.6806640625
-128.173828125
-137.3291015625
-140.07568359375
-139.16015625
-141.90673828125
-140.07568359375
-140.07568359375
-144.6533203125
-158.38623046875
-145.56884765625
-142.822265625
-146.484375
-145.56884765625
-148.3154296875
-148.3154296875
-149.23095703125
-145.56884765625
-146.484375
-150.146484375
-148.3154296875
-155.6396484375
-146.484375
-151.06201171875
-155.6396484375
-157.470703125
-154.72412109375
-151.06201171875
-152.89306640625
-149.23095703125
-144.6533203125
-147.39990234375
-146.484375
-152.89306640625
-148.3154296875
-154.72412109375
-154.72412109375
-155.6396484375
-142.822265625
-139.16015625
-146.484375
-145.56884765625
-140.9912109375
-131.8359375
-138.24462890625
-129.08935546875
-91.552734375
-12.8173828125
60.4248046875
159.3017578125
258.1787109375
345.15380859375
430.2978515625
509.033203125
611.572265625
697.6318359375
779.11376953125
860.595703125
882.568359375
812.07275390625
667.41943359375
486.14501953125
329.58984375
199.5849609375
119.0185546875
47.607421875
-21.97265625
-44.86083984375
-59.50927734375
-45.7763671875
-44.86083984375
-39.36767578125
-31.1279296875
-35.70556640625
-27.4658203125
-39.36767578125
-55.84716796875
-60.4248046875
-56.7626953125
-67.7490234375
-73.2421875
-70.49560546875
-69.580078125
-85.14404296875
-86.0595703125
-75.98876953125
-87.890625
-82.3974609375
-84.228515625
-94.29931640625
-92.46826171875
-84.228515625
-86.0595703125
-80.56640625
-82.3974609375
-75.98876953125
-86.0595703125
-81.48193359375
-83.31298828125
-80.56640625
-77.81982421875
-75.0732421875
-81.48193359375
-80.56640625
-81.48193359375
-80.56640625
-83.31298828125
-76.904296875
-63.17138671875
-65.91796875
-75.0732421875
-75.98876953125
-74.15771484375
-69.580078125
-73.2421875
-69.580078125
-67.7490234375
-66.83349609375
-70.49560546875
-65.91796875
-60.4248046875
-61.34033203125
-51.26953125
-65.91796875
-61.34033203125
-65.00244140625
-57.67822265625
-63.17138671875
-57.67822265625
-46.69189453125
-40.283203125
-43.02978515625
-42.1142578125
-43.9453125
-36.62109375
-36.62109375
-27.4658203125
-35.70556640625
-31.1279296875
-30.21240234375
-27.4658203125
-21.97265625
-25.634765625
-18.310546875
-15.56396484375
-10.07080078125
-19.22607421875
-16.4794921875
-9.1552734375
2.74658203125
9.1552734375
4.57763671875
3.662109375
10.986328125
16.4794921875
23.8037109375
20.1416015625
28.38134765625
32.04345703125
40.283203125
49.4384765625
49.4384765625
54.931640625
58.59375
63.17138671875
66.83349609375
71.4111328125
77.81982421875
80.56640625
94.29931640625
99.79248046875
103.45458984375
113.525390625
109.86328125
116.27197265625
127.25830078125
125.42724609375
131.8359375
140.07568359375
151.9775390625
150.146484375
159.3017578125
155.6396484375
152.89306640625
165.71044921875
170.2880859375
182.18994140625
189.51416015625
190.4296875
186.767578125
194.091796875
192.2607421875
192.2607421875
189.51416015625
186.767578125
181.2744140625
179.443359375
174.86572265625
166.6259765625
165.71044921875
146.484375
140.07568359375
122.6806640625
114.44091796875
94.29931640625
77.81982421875
70.49560546875
48.52294921875
37.53662109375
27.4658203125
16.4794921875
0.91552734375
-9.1552734375
-21.05712890625
-30.21240234375
-40.283203125
-43.02978515625
-54.01611328125
-61.34033203125
-78.7353515625
-79.65087890625
-81.48193359375
-81.48193359375
-86.97509765625
-104.3701171875
-99.79248046875
-103.45458984375
-107.11669921875
-104.3701171875
-106.201171875
-109.86328125
-115.3564453125
-110.77880859375
-108.94775390625
-115.3564453125
-106.201171875
-106.201171875
-112.60986328125
-116.27197265625
-115.3564453125
-114.44091796875
-111.6943359375
-118.10302734375
-117.1875
-114.44091796875
-120.849609375
-118.10302734375
-118.10302734375
-119.0185546875
-120.849609375
-113.525390625
-120.849609375
-119.0185546875
-117.1875
-119.0185546875
-110.77880859375
-114.44091796875
-121.76513671875
-113.525390625
-118.10302734375
-121.76513671875
-122.6806640625
-118.10302734375
-113.525390625
-116.27197265625
-114.44091796875
-114.44091796875
-109.86328125
-105.28564453125
-106.201171875
-105.28564453125
-107.11669921875
-103.45458984375
-104.3701171875
-108.0322265625
-100.7080078125
-99.79248046875
-108.0322265625
-105.28564453125
-109.86328125
-99.79248046875
-104.3701171875
-108.0322265625
-98.876953125
-100.7080078125
-107.11669921875
-102.5390625
-102.5390625
-100.7080078125
-100.7080078125
-95.21484375
-95.21484375
-97.96142578125
-99.79248046875
-97.0458984375
-88.80615234375
-97.96142578125
-99.79248046875
-99.79248046875
-102.5390625
-103.45458984375
-102.5390625
-101.62353515625
-90.63720703125
-92.46826171875
-98.876953125
-87.890625
-95.21484375
-92.46826171875
-87.890625
-88.80615234375
-89.7216796875
-90.63720703125
-89.7216796875
-89.7216796875
-90.63720703125
-92.46826171875
-95.21484375
-99.79248046875
-97.0458984375
-105.28564453125
-102.5390625
-97.96142578125
-100.7080078125
-102.5390625
-106.201171875
-96.13037109375
-97.96142578125
-102.5390625
-98.876953125
-99.79248046875
-97.0458984375
-94.29931640625
-103.45458984375
-98.876953125
-101.62353515625
-109.86328125
-108.0322265625
-107.11669921875
-103.45458984375
-112.60986328125
-119.93408203125
-112.60986328125
-108.0322265625
-107.11669921875
-100.7080078125
-107.11669921875
-107.11669921875
-103.45458984375
-106.201171875
-102.5390625
-102.5390625
-104.3701171875
-114.44091796875
-111.6943359375
-104.3701171875
-106.201171875
-105.28564453125
-101.62353515625
-103.45458984375
-106.201171875
-105.28564453125
-103.45458984375
-110.77880859375
-114.44091796875
-117.1875
-111.6943359375
-106.201171875
-112.60986328125
-110.77880859375
-107.11669921875
-111.6943359375
-110.77880859375
-113.525390625
-112.60986328125
-115.3564453125
-110.77880859375
-113.525390625
-120.849609375
-108.0322265625
-121.76513671875
-121.76513671875
-119.93408203125
-112.60986328125
-119.93408203125
-108.0322265625
-108.0322265625
-113.525390625
-114.44091796875
-107.11669921875
-111.6943359375
-106.201171875
-108.94775390625
-114.44091796875
-115.3564453125
-116.27197265625
-108.0322265625
-104.3701171875
-110.77880859375
-112.60986328125
-109.86328125
-112.60986328125
-116.27197265625
-114.44091796875
-104.3701171875
-113.525390625
-112.60986328125
-99.79248046875
-106.201171875
-107.11669921875
-108.0322265625
-108.94775390625
-104.3701171875
-108.0322265625
-108.94775390625
-115.3564453125
-108.0322265625
-104.3701171875
-101.62353515625
-97.0458984375
-102.5390625
-103.45458984375
-99.79248046875
-97.96142578125
-104.3701171875
-103.45458984375
-104.3701171875
-111.6943359375
-117.1875
-119.93408203125
-130.0048828125
-125.42724609375
-123.59619140625
-121.76513671875
-123.59619140625
-124.51171875
-129.08935546875
-129.08935546875
-129.08935546875
-129.08935546875
-124.51171875
-119.93408203125
-112.60986328125
-108.0322265625
-109.86328125
-101.62353515625
-97.96142578125
-102.5390625
-95.21484375
-96.13037109375
-94.29931640625
-93.3837890625
-99.79248046875
-107.11669921875
-108.94775390625
-113.525390625
-104.3701171875
-97.0458984375
-93.3837890625
-91.552734375
-93.3837890625
-98.876953125
-107.11669921875
-104.3701171875
-105.28564453125
-109.86328125
-114.44091796875
-119.93408203125
-120.849609375
-117.1875
-113.525390625
-108.0322265625
-110.77880859375
-108.0322265625
-106.201171875
-114.44091796875
-114.44091796875
-118.10302734375
-113.525390625
-116.27197265625
-110.77880859375
-111.6943359375
-112.60986328125
-106.201171875
-92.46826171875
-102.5390625
-108.0322265625
-108.94775390625
-107.11669921875
-114.44091796875
-108.0322265625
-100.7080078125
-94.29931640625
-97.96142578125
-100.7080078125
-100.7080078125
-95.21484375
-103.45458984375
-107.11669921875
-102.5390625
-98.876953125
-95.21484375
-86.97509765625
-80.56640625
-86.97509765625
-72.32666015625
-33.87451171875
47.607421875
121.76513671875
223.388671875
322.265625
411.07177734375
487.060546875
565.7958984375
661.92626953125
747.98583984375
830.38330078125
909.11865234375
929.26025390625
884.3994140625
748.9013671875
561.21826171875
401.0009765625
276.4892578125
175.78125
102.5390625
46.69189453125
15.56396484375
10.07080078125
13.73291015625
31.1279296875
29.296875
32.958984375
31.1279296875
20.1416015625
8.23974609375
-1.8310546875
-1.8310546875
-8.23974609375
-16.4794921875
-16.4794921875
-24.71923828125
-30.21240234375
-25.634765625
-30.21240234375
-37.53662109375
-38.4521484375
-30.21240234375
-31.1279296875
-33.87451171875
-37.53662109375
-38.4521484375
-40.283203125
-37.53662109375
-44.86083984375
-40.283203125
-40.283203125
-42.1142578125
-44.86083984375
-32.958984375
-35.70556640625
-35.70556640625
-34.7900390625
-33.87451171875
-25.634765625
-26.55029296875
-26.55029296875
-30.21240234375
-24.71923828125
-28.38134765625
-33.87451171875
-34.7900390625
-29.296875
-24.71923828125
-24.71923828125
-24.71923828125
-26.55029296875
-22.88818359375
-18.310546875
-18.310546875
-14.6484375
-17.39501953125
-19.22607421875
-19.22607421875
-21.05712890625
-21.97265625
-20.1416015625
-9.1552734375
-11.90185546875
-13.73291015625
-6.40869140625
-8.23974609375
-10.07080078125
-4.57763671875
-0.91552734375
-7.32421875
0.91552734375
1.8310546875
0
8.23974609375
5.4931640625
7.32421875
10.07080078125
13.73291015625
6.40869140625
12.8173828125
16.4794921875
14.6484375
27.4658203125
31.1279296875
32.958984375
35.70556640625
38.4521484375
43.9453125
44.86083984375
54.01611328125
56.7626953125
57.67822265625
67.7490234375
75.0732421875
75.0732421875
78.7353515625
77.81982421875
82.3974609375
86.0595703125
93.3837890625
102.5390625
107.11669921875
117.1875
128.173828125
130.0048828125
131.8359375
141.90673828125
151.06201171875
154.72412109375
156.55517578125
164.794921875
174.86572265625
182.18994140625
188.5986328125
193.17626953125
196.83837890625
193.17626953125
205.99365234375
205.078125
214.2333984375
218.81103515625
221.5576171875
237.12158203125
240.78369140625
242.61474609375
245.361328125
242.61474609375
237.12158203125
242.61474609375
236.2060546875
237.12158203125
234.375
224.30419921875
209.65576171875
201.416015625
184.9365234375
181.2744140625
169.37255859375
157.470703125
140.9912109375
123.59619140625
108.94775390625
98.876953125
88.80615234375
67.7490234375
63.17138671875
50.35400390625
29.296875
21.05712890625
10.07080078125
8.23974609375
2.74658203125
-10.986328125
-23.8037109375
-31.1279296875
-27.4658203125
-36.62109375
-42.1142578125
-49.4384765625
-58.59375
-57.67822265625
-49.4384765625
-63.17138671875
-64.0869140625
-66.83349609375
-64.0869140625
-61.34033203125
-55.84716796875
-61.34033203125
-65.91796875
-65.91796875
-60.4248046875
-65.91796875
-70.49560546875
-68.66455078125
-67.7490234375
-70.49560546875
-73.2421875
-77.81982421875
-75.98876953125
-71.4111328125
-67.7490234375
-73.2421875
-75.98876953125
-74.15771484375
-78.7353515625
-80.56640625
-76.904296875
-81.48193359375
-86.0595703125
-86.97509765625
-84.228515625
-96.13037109375
-86.0595703125
-78.7353515625
-79.65087890625
-89.7216796875
-87.890625
-88.80615234375
-90.63720703125
-88.80615234375
-87.890625
-87.890625
-88.80615234375
-96.13037109375
-95.21484375
-84.228515625
-84.228515625
-89.7216796875
-80.56640625
-87.890625
-86.97509765625
-89.7216796875
-89.7216796875
-90.63720703125
-98.876953125
-89.7216796875
-94.29931640625
-93.3837890625
-103.45458984375
-108.0322265625
-99.79248046875
-93.3837890625
-92.46826171875
-96.13037109375
-95.21484375
-92.46826171875
-96.13037109375
-105.28564453125
-99.79248046875
-96.13037109375
-104.3701171875
-96.13037109375
-97.0458984375
-100.7080078125
-96.13037109375
-97.0458984375
-104.3701171875
-111.6943359375
-108.94775390625
-101.62353515625
-104.3701171875
-101.62353515625
-101.62353515625
-98.876953125
-108.0322265625
-105.28564453125
-102.5390625
-110.77880859375
-96.13037109375
-109.86328125
-113.525390625
-105.28564453125
-110.77880859375
-108.0322265625
-109.86328125
-111.6943359375
-113.525390625
-113.525390625
-118.10302734375
-121.76513671875
-127.25830078125
-118.10302734375
-109.86328125
-113.525390625
-123.59619140625
-118.10302734375
-119.93408203125
-128.173828125
-122.6806640625
-126.3427734375
-123.59619140625
-120.849609375
-120.849609375
-120.849609375
-114.44091796875
-133.6669921875
-140.07568359375
-128.173828125
-126.3427734375
-129.08935546875
-136.41357421875
-134.58251953125
-127.25830078125
-131.8359375
-123.59619140625
-122.6806640625
-140.07568359375
-144.6533203125
-140.07568359375
-133.6669921875
-134.58251953125
-134.58251953125
-130.92041015625
-139.16015625
-136.41357421875
-146.484375
-147.39990234375
-145.56884765625
-137.3291015625
-138.24462890625
-140.07568359375
-147.39990234375
-146.484375
-147.39990234375
-139.16015625
-140.9912109375
-152.89306640625
-138.24462890625
-140.9912109375
-145.56884765625
-141.90673828125
-140.9912109375
-140.9912109375
-144.6533203125
-138.24462890625
-145.56884765625
-149.23095703125
-150.146484375
-145.56884765625
-148.3154296875
-148.3154296875
-155.6396484375
-151.06201171875
-146.484375
-154.72412109375
-155.6396484375
-150.146484375
-156.55517578125
-157.470703125
-155.6396484375
-151.06201171875
-153.80859375
-155.6396484375
-154.72412109375
-156.55517578125
-156.55517578125
-145.56884765625
-150.146484375
-158.38623046875
-143.73779296875
-150.146484375
-154.72412109375
-153.80859375
-151.9775390625
-156.55517578125
-154.72412109375
-154.72412109375
-154.72412109375
-153.80859375
-151.06201171875
-151.06201171875
-155.6396484375
-153.80859375
-143.73779296875
-148.3154296875
-151.06201171875
-149.23095703125
-142.822265625
-149.23095703125
-145.56884765625
-153.80859375
-159.3017578125
-159.3017578125
-162.9638671875
-169.37255859375
-168.45703125
-170.2880859375
-173.9501953125
-170.2880859375
-178.52783203125
-177.6123046875
-175.78125
-176.69677734375
-173.03466796875
-160.21728515625
-158.38623046875
-151.9775390625
-166.6259765625
-153.80859375
-146.484375
-141.90673828125
-148.3154296875
-147.39990234375
-140.07568359375
-140.9912109375
-136.41357421875
-144.6533203125
-153.80859375
-172.119140625
-157.470703125
-146.484375
-140.9912109375
-132.75146484375
-134.58251953125
-142.822265625
-151.9775390625
-151.9775390625
-160.21728515625
-153.80859375
-148.3154296875
-156.55517578125
-167.54150390625
-163.87939453125
-160.21728515625
-162.04833984375
-161.1328125
-162.04833984375
-160.21728515625
-168.45703125
-166.6259765625
-159.3017578125
-158.38623046875
-160.21728515625
-163.87939453125
-161.1328125
-162.9638671875
-158.38623046875
-168.45703125
-165.71044921875
-165.71044921875
-161.1328125
-159.3017578125
-155.6396484375
-154.72412109375
-154.72412109375
-159.3017578125
-161.1328125
-158.38623046875
-160.21728515625
-161.1328125
-158.38623046875
-155.6396484375
-167.54150390625
-168.45703125
-165.71044921875
-157.470703125
-146.484375
-139.16015625
-140.9912109375
-143.73779296875
-105.28564453125
-27.4658203125
39.36767578125
135.498046875
234.375
319.51904296875
405.57861328125
476.07421875
575.86669921875
662.841796875
748.9013671875
828.55224609375
859.68017578125
828.55224609375
715.02685546875
528.25927734375
361.63330078125
234.375
120.849609375
54.01611328125
-14.6484375
-45.7763671875
-52.18505859375
-49.4384765625
-33.87451171875
-39.36767578125
-35.70556640625
-36.62109375
-43.02978515625
-48.52294921875
-59.50927734375
-68.66455078125
-70.49560546875
-81.48193359375
-79.65087890625
-83.31298828125
-89.7216796875
-94.29931640625
-97.96142578125
-97.0458984375
-94.29931640625
-104.3701171875
-101.62353515625
-103.45458984375
-95.21484375
-102.5390625
-104.3701171875
-108.0322265625
-101.62353515625
-101.62353515625
-101.62353515625
-98.876953125
-91.552734375
-92.46826171875
-91.552734375
-94.29931640625
-101.62353515625
-94.29931640625
-92.46826171875
-97.0458984375
-92.46826171875
-92.46826171875
-91.552734375
-92.46826171875
-86.97509765625
-87.890625
-91.552734375
-87.890625
-86.0595703125
-86.97509765625
-86.97509765625
-84.228515625
-82.3974609375
-84.228515625
-79.65087890625
-79.65087890625
-79.65087890625
-81.48193359375
-78.7353515625
-76.904296875
-72.32666015625
-65.00244140625
-64.0869140625
-68.66455078125
-69.580078125
-65.00244140625
-67.7490234375
-64.0869140625
-57.67822265625
-57.67822265625
-51.26953125
-54.931640625
-61.34033203125
-54.01611328125
-52.18505859375
-58.59375
-51.26953125
-43.02978515625
-40.283203125
-36.62109375
-41.19873046875
-27.4658203125
-23.8037109375
-31.1279296875
-23.8037109375
-8.23974609375
-16.4794921875
-11.90185546875
-7.32421875
-1.8310546875
0.91552734375
7.32421875
10.986328125
15.56396484375
14.6484375
21.05712890625
36.62109375
28.38134765625
44.86083984375
50.35400390625
52.18505859375
58.59375
58.59375
65.00244140625
67.7490234375
81.48193359375
86.0595703125
86.97509765625
97.0458984375
104.3701171875
108.94775390625
103.45458984375
114.44091796875
118.10302734375
115.3564453125
122.6806640625
126.3427734375
130.0048828125
134.58251953125
142.822265625
149.23095703125
144.6533203125
156.55517578125
172.119140625
169.37255859375
172.119140625
172.119140625
171.20361328125
164.794921875
173.03466796875
165.71044921875
151.06201171875
152.89306640625
148.3154296875
133.6669921875
126.3427734375
108.94775390625
93.3837890625
84.228515625
68.66455078125
54.931640625
36.62109375
20.1416015625
14.6484375
10.986328125
-10.07080078125
-23.8037109375
-42.1142578125
-48.52294921875
-60.4248046875
-69.580078125
-75.0732421875
-78.7353515625
-84.228515625
-97.96142578125
-110.77880859375
-113.525390625
-110.77880859375
-120.849609375
-130.0048828125
-133.6669921875
-121.76513671875
-130.0048828125
-135.498046875
-137.3291015625
-132.75146484375
-143.73779296875
-148.3154296875
-147.39990234375
-151.06201171875
-151.9775390625
-137.3291015625
-145.56884765625
-140.9912109375
-144.6533203125
-146.484375
-149.23095703125
-160.21728515625
-162.9638671875
-150.146484375
-147.39990234375
-152.89306640625
-140.07568359375
-139.16015625
-142.822265625
-139.16015625
-137.3291015625
-148.3154296875
-146.484375
-143.73779296875
-144.6533203125
-151.9775390625
-154.72412109375
-150.146484375
-140.07568359375
-138.24462890625
-144.6533203125
-142.822265625
-142.822265625
-140.07568359375
-136.41357421875
-141.90673828125
-139.16015625
-138.24462890625
-146.484375
-147.39990234375
-141.90673828125
-140.9912109375
-140.9912109375
-138.24462890625
-141.90673828125
-141.90673828125
-134.58251953125
-140.07568359375
-140.9912109375
-137.3291015625
-138.24462890625
-135.498046875
-131.8359375
-137.3291015625
-136.41357421875
-135.498046875
-137.3291015625
-132.75146484375
-139.16015625
-134.58251953125
-140.07568359375
-135.498046875
-139.16015625
-133.6669921875
-140.07568359375
-139.16015625
-138.24462890625
-132.75146484375
-142.822265625
-136.41357421875
-133.6669921875
-131.8359375
-136.41357421875
-135.498046875
-142.822265625
-141.90673828125
-132.75146484375
-132.75146484375
-136.41357421875
-134.58251953125
-140.9912109375
-141.90673828125
-130.92041015625
-140.9912109375
-142.822265625
-134.58251953125
-134.58251953125
-133.6669921875
-142.822265625
-130.0048828125
-140.07568359375
-141.90673828125
-142.822265625
-134.58251953125
-137.3291015625
-131.8359375
-142.822265625
-140.9912109375
-140.9912109375
-149.23095703125
-144.6533203125
-148.3154296875
-146.484375
-141.90673828125
-145.56884765625
-151.9775390625
-148.3154296875
-146.484375
-141.90673828125
-146.484375
-151.9775390625
-147.39990234375
-146.484375
-147.39990234375
-149.23095703125
-154.72412109375
-148.3154296875
-156.55517578125
-143.73779296875
-154.72412109375
-152.89306640625
-151.06201171875
-151.06201171875
-157.470703125
-152.89306640625
-155.6396484375
-157.470703125
-156.55517578125
-154.72412109375
-152.89306640625
-149.23095703125
-157.470703125
-157.470703125
-152.89306640625
-164.794921875
-164.794921875
-158.38623046875
-150.146484375
-167.54150390625
-172.119140625
-163.87939453125
-162.04833984375
-155.6396484375
-154.72412109375
-164.794921875
-160.21728515625
-173.9501953125
-169.37255859375
-146.484375
-152.89306640625
-165.71044921875
-163.87939453125
-155.6396484375
-162.9638671875
-162.9638671875
-164.794921875
-163.87939453125
-161.1328125
-168.45703125
-164.794921875
-169.37255859375
-168.45703125
-172.119140625
-166.6259765625
-167.54150390625
-165.71044921875
-160.21728515625
-154.72412109375
-157.470703125
-151.9775390625
-155.6396484375
-167.54150390625
-163.87939453125
-161.1328125
-171.20361328125
-176.69677734375
-172.119140625
-181.2744140625
-173.9501953125
-173.9501953125
-185.85205078125
-181.2744140625
-176.69677734375
-178.52783203125
-174.86572265625
-181.2744140625
-186.767578125
-178.52783203125
-171.20361328125
-174.86572265625
-162.9638671875
-167.54150390625
-157.470703125
-148.3154296875
-159.3017578125
-158.38623046875
-152.89306640625
-153.80859375
-160.21728515625
-156.55517578125
-162.9638671875
-162.9638671875
-164.794921875
-154.72412109375
-140.07568359375
-151.06201171875
-155.6396484375
-150.146484375
-163.87939453125
-170.2880859375
-164.794921875
-166.6259765625
-165.71044921875
-168.45703125
-170.2880859375
-173.03466796875
-172.119140625
-173.9501953125
-172.119140625
-170.2880859375
-172.119140625
-171.20361328125
-176.69677734375
-172.119140625
-168.45703125
-169.37255859375
-171.20361328125
-185.85205078125
-183.10546875
-175.78125
-178.52783203125
-173.9501953125
-174.86572265625
-169.37255859375
-171.20361328125
-173.03466796875
-168.45703125
-171.20361328125
-165.71044921875
-162.9638671875
-172.119140625
-176.69677734375
-173.03466796875
-167.54150390625
-164.794921875
-166.6259765625
-170.2880859375
-172.119140625
-173.9501953125
-173.9501953125
-173.03466796875
-169.37255859375
-148.3154296875
-80.56640625
-1.8310546875
78.7353515625
191.34521484375
282.89794921875
370.78857421875
448.6083984375
543.8232421875
623.47412109375
702.20947265625
785.5224609375
858.7646484375
842.28515625
731.50634765625
574.03564453125
390.0146484375
250.8544921875
146.484375
72.32666015625
-10.07080078125
-55.84716796875
-68.66455078125
-65.00244140625
-60.4248046875
-60.4248046875
-54.931640625
-57.67822265625
-57.67822265625
-50.35400390625
-54.931640625
-73.2421875
-87.890625
-89.7216796875
-86.97509765625
-95.21484375
-112.60986328125
-109.86328125
-103.45458984375
-108.0322265625
-112.60986328125
-119.0185546875
-112.60986328125
-114.44091796875
-116.27197265625
-111.6943359375
-97.0458984375
-110.77880859375
-112.60986328125
-109.86328125
-106.201171875
-101.62353515625
-111.6943359375
-113.525390625
-105.28564453125
-108.0322265625
-100.7080078125
-101.62353515625
-103.45458984375
-102.5390625
-103.45458984375
-97.96142578125
-96.13037109375
-97.0458984375
-103.45458984375
-94.29931640625
-97.96142578125
-98.876953125
-98.876953125
-88.80615234375
-100.7080078125
-92.46826171875
-90.63720703125
-85.14404296875
-77.81982421875
-90.63720703125
-86.0595703125
-81.48193359375
-86.0595703125
-71.4111328125
-74.15771484375
-74.15771484375
-79.65087890625
-77.81982421875
-77.81982421875
-65.00244140625
-57.67822265625
-62.255859375
-65.91796875
-65.91796875
-64.0869140625
-62.255859375
-56.7626953125
-60.4248046875
-54.931640625
-49.4384765625
-48.52294921875
-55.84716796875
-47.607421875
-43.9453125
-43.9453125
-28.38134765625
-31.1279296875
-32.04345703125
-24.71923828125
-14.6484375
-18.310546875
-20.1416015625
-9.1552734375
-17.39501953125
-5.4931640625
-11.90185546875
-8.23974609375
10.986328125
17.39501953125
17.39501953125
29.296875
33.87451171875
32.04345703125
29.296875
43.02978515625
44.86083984375
62.255859375
68.66455078125
69.580078125
63.17138671875
77.81982421875
91.552734375
89.7216796875
94.29931640625
99.79248046875
100.7080078125
104.3701171875
111.6943359375
110.77880859375
120.849609375
124.51171875
120.849609375
129.08935546875
138.24462890625
139.16015625
144.6533203125
149.23095703125
154.72412109375
154.72412109375
151.9775390625
153.80859375
151.9775390625
143.73779296875
154.72412109375
159.3017578125
151.06201171875
133.6669921875
133.6669921875
129.08935546875
119.0185546875
111.6943359375
91.552734375
69.580078125
58.59375
45.7763671875
31.1279296875
17.39501953125
13.73291015625
-9.1552734375
-22.88818359375
-27.4658203125
-37.53662109375
-50.35400390625
-62.255859375
-66.83349609375
-84.228515625
-84.228515625
-80.56640625
-87.890625
-96.13037109375
-107.11669921875
-105.28564453125
-113.525390625
-111.6943359375
-120.849609375
-122.6806640625
-128.173828125
-130.92041015625
-124.51171875
-122.6806640625
-129.08935546875
-129.08935546875
-138.24462890625
-139.16015625
-139.16015625
-140.07568359375
-140.07568359375
-139.16015625
-142.822265625
-137.3291015625
-148.3154296875
-138.24462890625
-140.07568359375
-151.9775390625
-145.56884765625
-130.0048828125
-138.24462890625
-140.07568359375
-142.822265625
-143.73779296875
-134.58251953125
-141.90673828125
-139.16015625
-150.146484375
-148.3154296875
-148.3154296875
-148.3154296875
-141.90673828125
-140.9912109375
-139.16015625
-140.9912109375
-141.90673828125
-140.9912109375
-138.24462890625
-146.484375
-141.90673828125
-144.6533203125
-133.6669921875
-134.58251953125
-133.6669921875
-133.6669921875
-131.8359375
-133.6669921875
-134.58251953125
-132.75146484375
-134.58251953125
-131.8359375
-130.92041015625
-123.59619140625
-134.58251953125
-136.41357421875
-124.51171875
-136.41357421875
-127.25830078125
-128.173828125
-124.51171875
-123.59619140625
-114.44091796875
-117.1875
-114.44091796875
-111.6943359375
-118.10302734375
-117.1875
-121.76513671875
-125.42724609375
-117.1875
-122.6806640625
-115.3564453125
-113.525390625
-119.93408203125
-114.44091796875
-121.76513671875
-126.3427734375
-128.173828125
-122.6806640625
-117.1875
-121.76513671875
-125.42724609375
-119.93408203125
-121.76513671875
-123.59619140625
-125.42724609375
-119.0185546875
-125.42724609375
-126.3427734375
-118.10302734375
-125.42724609375
-128.173828125
-130.0048828125
-123.59619140625
-128.173828125
-128.173828125
-127.25830078125
-121.76513671875
-130.92041015625
-123.59619140625
-134.58251953125
-128.173828125
-136.41357421875
-129.08935546875
-130.92041015625
-131.8359375
-130.92041015625
-140.07568359375
-139.16015625
-130.92041015625
-131.8359375
-139.16015625
-141.90673828125
-141.90673828125
-138.24462890625
-140.07568359375
-135.498046875
-132.75146484375
-133.6669921875
-136.41357421875
-137.3291015625
-134.58251953125
-136.41357421875
-134.58251953125
-139.16015625
-137.3291015625
-139.16015625
-141.90673828125
-146.484375
-140.07568359375
-135.498046875
-139.16015625
-137.3291015625
-140.07568359375
-134.58251953125
-140.07568359375
-141.90673828125
-149.23095703125
-143.73779296875
-137.3291015625
-136.41357421875
-133.6669921875
-140.07568359375
-142.822265625
-159.3017578125
-151.06201171875
-130.92041015625
-132.75146484375
-133.6669921875
-140.9912109375
-139.16015625
-137.3291015625
-130.92041015625
-137.3291015625
-140.07568359375
-136.41357421875
-138.24462890625
-143.73779296875
-145.56884765625
-133.6669921875
-140.07568359375
-140.07568359375
-135.498046875
-143.73779296875
-138.24462890625
-145.56884765625
-140.9912109375
-142.822265625
-147.39990234375
-140.9912109375
-131.8359375
-132.75146484375
-134.58251953125
-131.8359375
-126.3427734375
-134.58251953125
-149.23095703125
-153.80859375
-155.6396484375
-156.55517578125
-160.21728515625
-161.1328125
-154.72412109375
-153.80859375
-154.72412109375
-161.1328125
-161.1328125
-154.72412109375
-162.9638671875
-151.9775390625
-145.56884765625
-150.146484375
-140.07568359375
-123.59619140625
-123.59619140625
-130.0048828125
-138.24462890625
-137.3291015625
-130.92041015625
-130.0048828125
-127.25830078125
-133.6669921875
-140.9912109375
-146.484375
-128.173828125
-122.6806640625
-135.498046875
-121.76513671875
-124.51171875
-133.6669921875
-131.8359375
-137.3291015625
-132.75146484375
-136.41357421875
-132.75146484375
-134.58251953125
-147.39990234375
-149.23095703125
-145.56884765625
-146.484375
-142.822265625
-140.9912109375
-144.6533203125
-143.73779296875
-141.90673828125
-142.822265625
-149.23095703125
-151.9775390625
-151.06201171875
-152.89306640625
-149.23095703125
-137.3291015625
-138.24462890625
-141.90673828125
-140.9912109375
-137.3291015625
-140.9912109375
-139.16015625
-130.92041015625
-139.16015625
-136.41357421875
-130.0048828125
-133.6669921875
-135.498046875
-137.3291015625
-135.498046875
-133.6669921875
-139.16015625
-148.3154296875
-141.90673828125
-134.58251953125
-119.0185546875
-113.525390625
-117.1875
-107.11669921875
-52.18505859375
32.04345703125
110.77880859375
209.65576171875
305.7861328125
391.845703125
472.412109375
570.37353515625
667.41943359375
747.0703125
833.1298828125
890.80810546875
884.3994140625
806.57958984375
646.3623046875
466.00341796875
323.18115234375
205.99365234375
116.27197265625
43.02978515625
-17.39501953125
-41.19873046875
-37.53662109375
-22.88818359375
-10.07080078125
-10.07080078125
-9.1552734375
-9.1552734375
-17.39501953125
-26.55029296875
-34.7900390625
-43.9453125
-53.1005859375
-53.1005859375
-62.255859375
-65.91796875
-64.0869140625
-59.50927734375
-65.91796875
-70.49560546875
-65.91796875
-62.255859375
-70.49560546875
-76.904296875
-69.580078125
-68.66455078125
-65.00244140625
-65.00244140625
-68.66455078125
-71.4111328125
-69.580078125
-64.0869140625
-69.580078125
-69.580078125
-65.00244140625
-60.4248046875
-59.50927734375
-65.91796875
-66.83349609375
-61.34033203125
-62.255859375
-55.84716796875
-53.1005859375
-48.52294921875
-53.1005859375
-44.86083984375
-37.53662109375
-38.4521484375
-46.69189453125
-43.9453125
-43.9453125
-46.69189453125
-42.1142578125
-45.7763671875
-49.4384765625
-42.1142578125
-39.36767578125
-34.7900390625
-30.21240234375
-31.1279296875
-30.21240234375
-35.70556640625
-40.283203125
-33.87451171875
-28.38134765625
-22.88818359375
-6.40869140625
-10.07080078125
-9.1552734375
-4.57763671875
0
-8.23974609375
-8.23974609375
-3.662109375
-4.57763671875
3.662109375
10.986328125
8.23974609375
10.986328125
15.56396484375
18.310546875
13.73291015625
17.39501953125
21.97265625
24.71923828125
36.62109375
32.958984375
38.4521484375
42.1142578125
41.19873046875
37.53662109375
52.18505859375
54.01611328125
59.50927734375
67.7490234375
66.83349609375
81.48193359375
85.14404296875
90.63720703125
94.29931640625
94.29931640625
105.28564453125
104.3701171875
105.28564453125
112.60986328125
126.3427734375
140.07568359375
148.3154296875
144.6533203125
145.56884765625
155.6396484375
161.1328125
160.21728515625
174.86572265625
171.20361328125
173.03466796875
183.10546875
192.2607421875
193.17626953125
199.5849609375
200.50048828125
203.2470703125
202.33154296875
198.66943359375
205.078125
209.65576171875
212.40234375
216.97998046875
213.31787109375
207.82470703125
202.33154296875
195.00732421875
180.35888671875
170.2880859375
166.6259765625
156.55517578125
138.24462890625
125.42724609375
109.86328125
88.80615234375
88.80615234375
72.32666015625
56.7626953125
46.69189453125
33.87451171875
16.4794921875
3.662109375
3.662109375
-0.91552734375
-13.73291015625
-33.87451171875
-36.62109375
-49.4384765625
-55.84716796875
-61.34033203125
-61.34033203125
-61.34033203125
-64.0869140625
-66.83349609375
-65.00244140625
-75.98876953125
-79.65087890625
-81.48193359375
-88.80615234375
-88.80615234375
-87.890625
-79.65087890625
-85.14404296875
-87.890625
-87.890625
-94.29931640625
-103.45458984375
-93.3837890625
-94.29931640625
-90.63720703125
-73.2421875
-82.3974609375
-94.29931640625
-86.0595703125
-94.29931640625
-92.46826171875
-94.29931640625
-96.13037109375
-92.46826171875
-93.3837890625
-88.80615234375
-92.46826171875
-92.46826171875
-97.96142578125
-95.21484375
-96.13037109375
-97.0458984375
-91.552734375
-86.0595703125
-93.3837890625
-86.97509765625
-86.97509765625
-88.80615234375
-77.81982421875
-88.80615234375
-93.3837890625
-87.890625
-88.80615234375
-96.13037109375
-86.0595703125
-86.0595703125
-86.0595703125
-72.32666015625
-76.904296875
-80.56640625
-77.81982421875
-79.65087890625
-80.56640625
-85.14404296875
-92.46826171875
-86.0595703125
-77.81982421875
-74.15771484375
-79.65087890625
-77.81982421875
-80.56640625
-81.48193359375
-86.0595703125
-85.14404296875
-87.890625
-82.3974609375
-75.0732421875
-72.32666015625
-73.2421875
-72.32666015625
-75.0732421875
-78.7353515625
-68.66455078125
-79.65087890625
-80.56640625
-77.81982421875
-70.49560546875
-67.7490234375
-69.580078125
-71.4111328125
-67.7490234375
-75.0732421875
-78.7353515625
-72.32666015625
-68.66455078125
-73.2421875
-67.7490234375
-68.66455078125
-71.4111328125
-65.91796875
-72.32666015625
-82.3974609375
-85.14404296875
-83.31298828125
-81.48193359375
-78.7353515625
-76.904296875
-75.0732421875
-73.2421875
-68.66455078125
-73.2421875
-79.65087890625
-77.81982421875
-80.56640625
-85.14404296875
-77.81982421875
-80.56640625
-77.81982421875
-80.56640625
-86.97509765625
-83.31298828125
-83.31298828125
-88.80615234375
-81.48193359375
-82.3974609375
-84.228515625
-89.7216796875
-90.63720703125
-81.48193359375
-85.14404296875
-87.890625
-98.876953125
-96.13037109375
-86.97509765625
-93.3837890625
-88.80615234375
-78.7353515625
-83.31298828125
-86.97509765625
-82.3974609375
-88.80615234375
-99.79248046875
-97.96142578125
-88.80615234375
-85.14404296875
-87.890625
-88.80615234375
-93.3837890625
-96.13037109375
-94.29931640625
-93.3837890625
-96.13037109375
-91.552734375
-92.46826171875
-86.0595703125
-87.890625
-93.3837890625
-91.552734375
-91.552734375
-102.5390625
-91.552734375
-94.29931640625
-94.29931640625
-91.552734375
-94.29931640625
-97.96142578125
-95.21484375
-97.0458984375
-86.97509765625
-87.890625
-84.228515625
-92.46826171875
-92.46826171875
-94.29931640625
-97.96142578125
-100.7080078125
-102.5390625
-97.0458984375
-96.13037109375
-95.21484375
-102.5390625
-91.552734375
-88.80615234375
-97.96142578125
-96.13037109375
-97.0458984375
-99.79248046875
-96.13037109375
-100.7080078125
-98.876953125
-110.77880859375
-100.7080078125
-98.876953125
-97.0458984375
-108.94775390625
-99.79248046875
-97.96142578125
-95.21484375
-95.21484375
-101.62353515625
-99.79248046875
-100.7080078125
-101.62353515625
-103.45458984375
-94.29931640625
-97.0458984375
-97.0458984375
-100.7080078125
-94.29931640625
-87.890625
-100.7080078125
-103.45458984375
-97.0458984375
-93.3837890625
-92.46826171875
-91.552734375
-90.63720703125
-91.552734375
-92.46826171875
-106.201171875
-113.525390625
-108.0322265625
-115.3564453125
-112.60986328125
-110.77880859375
-103.45458984375
-116.27197265625
-112.60986328125
-116.27197265625
-118.10302734375
-119.0185546875
-115.3564453125
-107.11669921875
-104.3701171875
-97.96142578125
-101.62353515625
-98.876953125
-97.0458984375
-88.80615234375
-88.80615234375
-93.3837890625
-93.3837890625
-84.228515625
-83.31298828125
-87.890625
-91.552734375
-100.7080078125
-98.876953125
-85.14404296875
-86.97509765625
-88.80615234375
-81.48193359375
-87.890625
-92.46826171875
-95.21484375
-95.21484375
-104.3701171875
-89.7216796875
-91.552734375
-101.62353515625
-100.7080078125
-108.94775390625
-109.86328125
-107.11669921875
-98.876953125
-98.876953125
-115.3564453125
-109.86328125
-107.11669921875
-98.876953125
-97.0458984375
-98.876953125
-105.28564453125
-104.3701171875
-106.201171875
-106.201171875
-104.3701171875
-101.62353515625
-97.96142578125
-98.876953125
-97.0458984375
-104.3701171875
-101.62353515625
-97.96142578125
-99.79248046875
-92.46826171875
-96.13037109375
-99.79248046875
-104.3701171875
-98.876953125
-104.3701171875
-102.5390625
-105.28564453125
-102.5390625
-95.21484375
-90.63720703125
-71.4111328125
-88.80615234375
-78.7353515625
-32.04345703125
42.1142578125
125.42724609375
218.81103515625
314.02587890625
391.845703125
483.3984375
561.21826171875
659.1796875
742.49267578125
828.55224609375
899.0478515625
920.10498046875
859.68017578125
721.435546875
544.73876953125
394.59228515625
280.1513671875
168.45703125
97.96142578125
32.958984375
5.4931640625
0
4.57763671875
10.986328125
15.56396484375
21.05712890625
21.97265625
11.90185546875
2.74658203125
-11.90185546875
-22.88818359375
-25.634765625
-24.71923828125
-34.7900390625
-28.38134765625
-36.62109375
-34.7900390625
-37.53662109375
-45.7763671875
-44.86083984375
-43.02978515625
-49.4384765625
-51.26953125
-48.52294921875
-48.52294921875
-53.1005859375
-45.7763671875
-45.7763671875
-51.26953125
-42.1142578125
-45.7763671875
-49.4384765625
-49.4384765625
-39.36767578125
-42.1142578125
-46.69189453125
-45.7763671875
-43.02978515625
-44.86083984375
-43.9453125
-43.9453125
-34.7900390625
-33.87451171875
-38.4521484375
-35.70556640625
-34.7900390625
-34.7900390625
-27.4658203125
-33.87451171875
-34.7900390625
-30.21240234375
-25.634765625
-27.4658203125
-30.21240234375
-21.05712890625
-24.71923828125
-21.97265625
-23.8037109375
-24.71923828125
-30.21240234375
-21.97265625
-13.73291015625
-15.56396484375
-12.8173828125
-8.23974609375
-5.4931640625
-2.74658203125
-6.40869140625
2.74658203125
-2.74658203125
4.57763671875
6.40869140625
1.8310546875
8.23974609375
7.32421875
8.23974609375
6.40869140625
15.56396484375
21.97265625
15.56396484375
16.4794921875
18.310546875
23.8037109375
34.7900390625
38.4521484375
37.53662109375
44.86083984375
53.1005859375
50.35400390625
59.50927734375
59.50927734375
62.255859375
61.34033203125
75.98876953125
86.0595703125
86.97509765625
87.890625
97.0458984375
91.552734375
93.3837890625
105.28564453125
119.0185546875
121.76513671875
125.42724609375
136.41357421875
141.90673828125
142.822265625
149.23095703125
160.21728515625
162.04833984375
170.2880859375
171.20361328125
184.02099609375
191.34521484375
186.767578125
196.83837890625
202.33154296875
200.50048828125
202.33154296875
218.81103515625
213.31787109375
203.2470703125
212.40234375
208.740234375
221.5576171875
231.62841796875
223.388671875
222.47314453125
235.29052734375
228.8818359375
216.064453125
205.99365234375
191.34521484375
186.767578125
175.78125
159.3017578125
154.72412109375
138.24462890625
120.849609375
111.6943359375
92.46826171875
75.98876953125
70.49560546875
56.7626953125
43.02978515625
22.88818359375
11.90185546875
2.74658203125
1.8310546875
-12.8173828125
-22.88818359375
-28.38134765625
-42.1142578125
-44.86083984375
-46.69189453125
-54.01611328125
-61.34033203125
-63.17138671875
-60.4248046875
-72.32666015625
-71.4111328125
-79.65087890625
-84.228515625
-84.228515625
-78.7353515625
-81.48193359375
-81.48193359375
-81.48193359375
-79.65087890625
-73.2421875
-81.48193359375
-97.0458984375
-90.63720703125
-95.21484375
-93.3837890625
-87.890625
-95.21484375
-90.63720703125
-89.7216796875
-87.890625
-85.14404296875
-91.552734375
-94.29931640625
-96.13037109375
-95.21484375
-95.21484375
-91.552734375
-87.890625
-97.96142578125
-108.0322265625
-108.0322265625
-100.7080078125
-97.96142578125
-97.0458984375
-85.14404296875
-92.46826171875
-95.21484375
-97.96142578125
-97.0458984375
-92.46826171875
-85.14404296875
-86.0595703125
-86.97509765625
-93.3837890625
-97.0458984375
-86.97509765625
-86.0595703125
-94.29931640625
-86.97509765625
-92.46826171875
-90.63720703125
-90.63720703125
-97.0458984375
-85.14404296875
-96.13037109375
-90.63720703125
-86.97509765625
-93.3837890625
-91.552734375
-86.97509765625
-82.3974609375
-80.56640625
-90.63720703125
-90.63720703125
-86.0595703125
-85.14404296875
-79.65087890625
-87.890625
-83.31298828125
-86.0595703125
-82.3974609375
-83.31298828125
-85.14404296875
-86.0595703125
-86.0595703125
-82.3974609375
-81.48193359375
-80.56640625
-80.56640625
-90.63720703125
-86.97509765625
-90.63720703125
-91.552734375
-87.890625
-87.890625
-91.552734375
-86.97509765625
-90.63720703125
-90.63720703125
-85.14404296875
-83.31298828125
-88.80615234375
-83.31298828125
-75.98876953125
-81.48193359375
-83.31298828125
-86.97509765625
-85.14404296875
-78.7353515625
-82.3974609375
-86.0595703125
-94.29931640625
-94.29931640625
-86.0595703125
-84.228515625
-83.31298828125
-93.3837890625
-98.876953125
-96.13037109375
-93.3837890625
-89.7216796875
-99.79248046875
-92.46826171875
-92.46826171875
-100.7080078125
-103.45458984375
-102.5390625
-108.0322265625
-104.3701171875
-101.62353515625
-102.5390625
-99.79248046875
-101.62353515625
-108.0322265625
-106.201171875
-97.0458984375
-98.876953125
-96.13037109375
-101.62353515625
-107.11669921875
-118.10302734375
-97.0458984375
-97.96142578125
-107.11669921875
-114.44091796875
-104.3701171875
-97.0458984375
-114.44091796875
-110.77880859375
-107.11669921875
-99.79248046875
-101.62353515625
-103.45458984375
-100.7080078125
-111.6943359375
-106.201171875
-105.28564453125
-102.5390625
-108.0322265625
-111.6943359375
-109.86328125
-113.525390625
-111.6943359375
-108.94775390625
-106.201171875
-105.28564453125
-110.77880859375
-114.44091796875
-107.11669921875
-106.201171875
-110.77880859375
-107.11669921875
-107.11669921875
-103.45458984375
-109.86328125
-111.6943359375
-110.77880859375
-106.201171875
-106.201171875
-108.0322265625
-108.94775390625
-107.11669921875
-112.60986328125
-106.201171875
-109.86328125
-119.0185546875
-124.51171875
-121.76513671875
-129.08935546875
-127.25830078125
-128.173828125
-120.849609375
-127.25830078125
-138.24462890625
-133.6669921875
-137.3291015625
-133.6669921875
-136.41357421875
-141.90673828125
-137.3291015625
-130.0048828125
-126.3427734375
-131.8359375
-123.59619140625
-108.94775390625
-96.13037109375
-99.79248046875
-109.86328125
-105.28564453125
-100.7080078125
-107.11669921875
-110.77880859375
-125.42724609375
-122.6806640625
-117.1875
-108.0322265625
-111.6943359375
-102.5390625
-98.876953125
-112.60986328125
-120.849609375
-123.59619140625
-117.1875
-116.27197265625
-113.525390625
-118.10302734375
-115.3564453125
-116.27197265625
-119.0185546875
-127.25830078125
-124.51171875
-123.59619140625
-126.3427734375
-127.25830078125
-126.3427734375
-126.3427734375
-122.6806640625
-122.6806640625
-128.173828125
-123.59619140625
-124.51171875
-125.42724609375
-121.76513671875
-119.0185546875
-126.3427734375
-129.08935546875
-127.25830078125
-119.93408203125
-119.0185546875
-123.59619140625
-127.25830078125
-126.3427734375
-123.59619140625
-121.76513671875
-121.76513671875
-122.6806640625
-119.0185546875
-116.27197265625
-124.51171875
-133.6669921875
-138.24462890625
-126.3427734375
-111.6943359375
-114.44091796875
-113.525390625
-99.79248046875
-32.958984375
49.4384765625
147.39990234375
249.93896484375
341.49169921875
426.6357421875
501.708984375
598.7548828125
687.56103515625
764.46533203125
858.7646484375
918.27392578125
878.90625
758.056640625
585.9375
419.3115234375
288.39111328125
182.18994140625
107.11669921875
39.36767578125
-9.1552734375
-23.8037109375
-29.296875
-23.8037109375
-13.73291015625
-21.05712890625
-23.8037109375
-19.22607421875
-20.1416015625
-25.634765625
-34.7900390625
-44.86083984375
-52.18505859375
-49.4384765625
-63.17138671875
-68.66455078125
-63.17138671875
-57.67822265625
-65.00244140625
-66.83349609375
-65.00244140625
-71.4111328125
-75.0732421875
-73.2421875
-66.83349609375
-71.4111328125
-73.2421875
-75.98876953125
-76.904296875
-77.81982421875
-70.49560546875
-75.0732421875
-57.67822265625
-75.0732421875
-74.15771484375
-70.49560546875
-63.17138671875
-65.91796875
-66.83349609375
-68.66455078125
-62.255859375
-65.00244140625
-59.50927734375
-56.7626953125
-65.00244140625
-65.00244140625
-60.4248046875
-52.18505859375
-54.01611328125
-60.4248046875
-46.69189453125
-54.931640625
-54.01611328125
-53.1005859375
-49.4384765625
-48.52294921875
-46.69189453125
-47.607421875
-47.607421875
-46.69189453125
-43.02978515625
-43.9453125
-46.69189453125
-38.4521484375
-32.958984375
-38.4521484375
-39.36767578125
-30.21240234375
-33.87451171875
-23.8037109375
-12.8173828125
-14.6484375
-20.1416015625
-18.310546875
-19.22607421875
-10.986328125
-9.1552734375
-6.40869140625
-7.32421875
-13.73291015625
4.57763671875
10.07080078125
17.39501953125
21.97265625
26.55029296875
0
6.40869140625
18.310546875
29.296875
30.21240234375
34.7900390625
31.1279296875
43.9453125
50.35400390625
49.4384765625
59.50927734375
62.255859375
61.34033203125
68.66455078125
75.98876953125
86.97509765625
97.0458984375
96.13037109375
104.3701171875
116.27197265625
118.10302734375
119.0185546875
124.51171875
132.75146484375
131.8359375
140.9912109375
147.39990234375
141.90673828125
148.3154296875
151.9775390625
159.3017578125
164.794921875
170.2880859375
179.443359375
186.767578125
184.9365234375
193.17626953125
195.9228515625
193.17626953125
200.50048828125
196.83837890625
193.17626953125
194.091796875
186.767578125
184.9365234375
183.10546875
174.86572265625
170.2880859375
154.72412109375
144.6533203125
129.08935546875
114.44091796875
104.3701171875
86.0595703125
75.0732421875
69.580078125
50.35400390625
37.53662109375
16.4794921875
1.8310546875
-1.8310546875
-10.986328125
-26.55029296875
-38.4521484375
-43.9453125
-49.4384765625
-50.35400390625
-60.4248046875
-66.83349609375
-77.81982421875
-81.48193359375
-78.7353515625
-86.0595703125
-88.80615234375
-92.46826171875
-98.876953125
-93.3837890625
-101.62353515625
-108.0322265625
-99.79248046875
-106.201171875
-108.0322265625
-112.60986328125
-116.27197265625
-110.77880859375
-117.1875
-109.86328125
-102.5390625
-113.525390625
-107.11669921875
-106.201171875
-117.1875
-115.3564453125
-117.1875
-112.60986328125
-109.86328125
-109.86328125
-107.11669921875
-117.1875
-116.27197265625
-108.94775390625
-110.77880859375
-119.0185546875
-122.6806640625
-115.3564453125
-108.94775390625
-110.77880859375
-111.6943359375
-118.10302734375
-116.27197265625
-118.10302734375
-117.1875
-119.0185546875
-126.3427734375
-118.10302734375
-117.1875
-118.10302734375
-107.11669921875
-104.3701171875
-105.28564453125
-101.62353515625
-110.77880859375
-114.44091796875
-107.11669921875
-106.201171875
-107.11669921875
-96.13037109375
-99.79248046875
-108.0322265625
-114.44091796875
-104.3701171875
-99.79248046875
-111.6943359375
-108.94775390625
-103.45458984375
-97.0458984375
-103.45458984375
-99.79248046875
-90.63720703125
-98.876953125
-97.96142578125
-93.3837890625
-97.0458984375
-95.21484375
-96.13037109375
-101.62353515625
-97.0458984375
-98.876953125
-106.201171875
-95.21484375
-100.7080078125
-99.79248046875
-99.79248046875
-98.876953125
-90.63720703125
-92.46826171875
-99.79248046875
-97.0458984375
-97.96142578125
-97.96142578125
-95.21484375
-107.11669921875
-107.11669921875
-107.11669921875
-107.11669921875
-98.876953125
-100.7080078125
-96.13037109375
-92.46826171875
-97.96142578125
-97.96142578125
-100.7080078125
-107.11669921875
-101.62353515625
-106.201171875
-100.7080078125
-106.201171875
-108.94775390625
-106.201171875
-109.86328125
-111.6943359375
-104.3701171875
-109.86328125
-113.525390625
-112.60986328125
-113.525390625
-119.0185546875
-107.11669921875
-119.0185546875
-108.0322265625
-107.11669921875
-119.93408203125
-126.3427734375
-120.849609375
-123.59619140625
-119.93408203125
-119.0185546875
-109.86328125
-116.27197265625
-123.59619140625
-121.76513671875
-117.1875
-117.1875
-122.6806640625
-122.6806640625
-125.42724609375
-118.10302734375
-117.1875
-128.173828125
-121.76513671875
-120.849609375
-127.25830078125
-128.173828125
-120.849609375
-118.10302734375
-126.3427734375
-121.76513671875
-123.59619140625
-126.3427734375
-131.8359375
-126.3427734375
-133.6669921875
-124.51171875
-129.08935546875
-125.42724609375
-124.51171875
-124.51171875
-117.1875
-120.849609375
-126.3427734375
-123.59619140625
-132.75146484375
-141.90673828125
-151.9775390625
-144.6533203125
-140.9912109375
-134.58251953125
-140.9912109375
-146.484375
-150.146484375
-142.822265625
-152.89306640625
-151.06201171875
-153.80859375
-148.3154296875
-143.73779296875
-139.16015625
-128.173828125
-130.0048828125
-123.59619140625
-123.59619140625
-127.25830078125
-124.51171875
-117.1875
-117.1875
-113.525390625
-120.849609375
-124.51171875
-130.0048828125
-125.42724609375
-121.76513671875
-119.93408203125
-117.1875
-114.44091796875
-119.0185546875
-118.10302734375
-123.59619140625
-123.59619140625
-124.51171875
-130.92041015625
-128.173828125
-137.3291015625
-140.9912109375
-134.58251953125
-136.41357421875
-133.6669921875
-136.41357421875
-135.498046875
-132.75146484375
-134.58251953125
-132.75146484375
-139.16015625
-147.39990234375
-134.58251953125
-131.8359375
-129.08935546875
-130.0048828125
-137.3291015625
-148.3154296875
-142.822265625
-130.0048828125
-126.3427734375
-135.498046875
-134.58251953125
-127.25830078125
-128.173828125
-129.08935546875
-130.92041015625
-123.59619140625
-119.0185546875
-121.76513671875
-135.498046875
-135.498046875
-140.9912109375
-137.3291015625
-132.75146484375
-125.42724609375
-126.3427734375
-122.6806640625
-126.3427734375
-112.60986328125
-46.69189453125
32.958984375
122.6806640625
235.29052734375
329.58984375
414.73388671875
489.80712890625
588.68408203125
682.9833984375
765.380859375
854.18701171875
909.11865234375
879.82177734375
764.46533203125
593.26171875
424.8046875
291.1376953125
177.6123046875
96.13037109375
30.21240234375
-19.22607421875
-35.70556640625
-34.7900390625
-26.55029296875
-32.04345703125
-26.55029296875
-24.71923828125
-22.88818359375
-26.55029296875
-35.70556640625
-42.1142578125
-52.18505859375
-55.84716796875
-48.52294921875
-65.91796875
-69.580078125
-61.34033203125
-73.2421875
-79.65087890625
-76.904296875
-66.83349609375
-69.580078125
-65.91796875
-70.49560546875
-63.17138671875
-72.32666015625
-69.580078125
-70.49560546875
-74.15771484375
-77.81982421875
-75.98876953125
-71.4111328125
-81.48193359375
-73.2421875
-65.00244140625
-75.98876953125
-75.0732421875
-64.0869140625
-65.00244140625
-72.32666015625
-72.32666015625
-72.32666015625
-65.00244140625
-65.00244140625
-57.67822265625
-61.34033203125
-63.17138671875
-61.34033203125
-71.4111328125
-57.67822265625
-54.931640625
-62.255859375
-60.4248046875
-61.34033203125
-62.255859375
-48.52294921875
-41.19873046875
-43.02978515625
-43.02978515625
-42.1142578125
-52.18505859375
-38.4521484375
-38.4521484375
-40.283203125
-43.02978515625
-29.296875
-35.70556640625
-32.958984375
-35.70556640625
-27.4658203125
-38.4521484375
-27.4658203125
-24.71923828125
-19.22607421875
-12.8173828125
-18.310546875
-13.73291015625
-12.8173828125
-12.8173828125
-1.8310546875
-1.8310546875
5.4931640625
6.40869140625
4.57763671875
11.90185546875
10.986328125
17.39501953125
24.71923828125
21.05712890625
21.97265625
29.296875
35.70556640625
43.9453125
45.7763671875
54.931640625
65.00244140625
63.17138671875
65.00244140625
65.00244140625
76.904296875
87.890625
94.29931640625
93.3837890625
101.62353515625
102.5390625
100.7080078125
118.10302734375
120.849609375
129.08935546875
125.42724609375
134.58251953125
151.06201171875
156.55517578125
155.6396484375
161.1328125
172.119140625
165.71044921875
170.2880859375
174.86572265625
186.767578125
191.34521484375
193.17626953125
195.00732421875
192.2607421875
202.33154296875
202.33154296875
200.50048828125
192.2607421875
190.4296875
189.51416015625
186.767578125
175.78125
155.6396484375
151.06201171875
140.9912109375
123.59619140625
108.0322265625
95.21484375
86.0595703125
65.00244140625
50.35400390625
43.02978515625
24.71923828125
13.73291015625
0
-8.23974609375
-19.22607421875
-23.8037109375
-34.7900390625
-49.4384765625
-55.84716796875
-54.931640625
-62.255859375
-67.7490234375
-77.81982421875
-93.3837890625
-90.63720703125
-93.3837890625
-88.80615234375
-96.13037109375
-100.7080078125
-101.62353515625
-102.5390625
-98.876953125
-105.28564453125
-118.10302734375
-115.3564453125
-116.27197265625
-109.86328125
-103.45458984375
-115.3564453125
-116.27197265625
-112.60986328125
-120.849609375
-113.525390625
-118.10302734375
-121.76513671875
-121.76513671875
-106.201171875
-120.849609375
-117.1875
-105.28564453125
-108.94775390625
-121.76513671875
-121.76513671875
-109.86328125
-117.1875
-119.0185546875
-115.3564453125
-114.44091796875
-119.0185546875
-120.849609375
-118.10302734375
-125.42724609375
-123.59619140625
-118.10302734375
-119.93408203125
-108.0322265625
-109.86328125
-119.93408203125
-108.0322265625
-115.3564453125
-110.77880859375
-108.94775390625
-109.86328125
-109.86328125
-111.6943359375
-119.93408203125
-116.27197265625
-105.28564453125
-103.45458984375
-98.876953125
-100.7080078125
-106.201171875
-100.7080078125
-99.79248046875
-100.7080078125
-104.3701171875
-104.3701171875
-106.201171875
-112.60986328125
-102.5390625
-91.552734375
-97.0458984375
-96.13037109375
-96.13037109375
-94.29931640625
-97.96142578125
-103.45458984375
-102.5390625
-95.21484375
-100.7080078125
-97.96142578125
-93.3837890625
-89.7216796875
-98.876953125
-98.876953125
-97.96142578125
-97.96142578125
-97.96142578125
-96.13037109375
-92.46826171875
-95.21484375
-94.29931640625
-98.876953125
-97.0458984375
-88.80615234375
-97.96142578125
-96.13037109375
-94.29931640625
-99.79248046875
-97.96142578125
-96.13037109375
-96.13037109375
-98.876953125
-100.7080078125
-100.7080078125
-100.7080078125
-99.79248046875
-105.28564453125
-107.11669921875
-106.201171875
-106.201171875
-99.79248046875
-98.876953125
-108.0322265625
-101.62353515625
-105.28564453125
-119.93408203125
-122.6806640625
-120.849609375
-104.3701171875
-100.7080078125
-112.60986328125
-109.86328125
-106.201171875
-110.77880859375
-112.60986328125
-115.3564453125
-114.44091796875
-122.6806640625
-116.27197265625
-109.86328125
-121.76513671875
-119.0185546875
-123.59619140625
-119.0185546875
-115.3564453125
-118.10302734375
-115.3564453125
-115.3564453125
-117.1875
-117.1875
-117.1875
-118.10302734375
-123.59619140625
-122.6806640625
-119.0185546875
-119.93408203125
-111.6943359375
-117.1875
-110.77880859375
-112.60986328125
-119.0185546875
-122.6806640625
-119.93408203125
-113.525390625
-122.6806640625
-125.42724609375
-124.51171875
-120.849609375
-120.849609375
-126.3427734375
-115.3564453125
-113.525390625
-113.525390625
-119.93408203125
-123.59619140625
-126.3427734375
-122.6806640625
-122.6806640625
-126.3427734375
-123.59619140625
-123.59619140625
-124.51171875
-118.10302734375
-119.93408203125
-118.10302734375
-120.849609375
-128.173828125
-125.42724609375
-130.92041015625
-127.25830078125
-129.08935546875
-119.0185546875
-130.0048828125
-125.42724609375
-123.59619140625
-122.6806640625
-122.6806640625
-122.6806640625
-119.0185546875
-119.93408203125
-120.849609375
-119.93408203125
-116.27197265625
-109.86328125
-116.27197265625
-119.0185546875
-129.08935546875
-133.6669921875
-132.75146484375
-135.498046875
-137.3291015625
-141.90673828125
-137.3291015625
-136.41357421875
-139.16015625
-148.3154296875
-147.39990234375
-140.07568359375
-142.822265625
-138.24462890625
-133.6669921875
-129.08935546875
-119.93408203125
-130.0048828125
-125.42724609375
-115.3564453125
-117.1875
-122.6806640625
-119.0185546875
-113.525390625
-109.86328125
-115.3564453125
-118.10302734375
-115.3564453125
-125.42724609375
-122.6806640625
-119.0185546875
-115.3564453125
-110.77880859375
-115.3564453125
-111.6943359375
-112.60986328125
-119.93408203125
-124.51171875
-126.3427734375
-126.3427734375
-120.849609375
-130.92041015625
-125.42724609375
-128.173828125
-127.25830078125
-135.498046875
-134.58251953125
-130.92041015625
-134.58251953125
-136.41357421875
-130.0048828125
-130.0048828125
-140.07568359375
-138.24462890625
-134.58251953125
-132.75146484375
-137.3291015625
-132.75146484375
-131.8359375
-132.75146484375
-136.41357421875
-136.41357421875
-130.0048828125
-136.41357421875
-138.24462890625
-125.42724609375
-129.08935546875
-129.08935546875
-130.92041015625
-132.75146484375
-120.849609375
-128.173828125
-130.92041015625
-131.8359375
-133.6669921875
-130.92041015625
-121.76513671875
-115.3564453125
-120.849609375
-107.11669921875
-56.7626953125
3.662109375
88.80615234375
176.69677734375
280.1513671875
372.61962890625
464.17236328125
537.41455078125
636.29150390625
723.2666015625
806.57958984375
877.99072265625
902.7099609375
857.84912109375
730.5908203125
537.41455078125
373.53515625
250.8544921875
146.484375
67.7490234375
6.40869140625
-32.958984375
-34.7900390625
-31.1279296875
-17.39501953125
-21.05712890625
-16.4794921875
-8.23974609375
-21.97265625
-31.1279296875
-37.53662109375
-44.86083984375
-55.84716796875
-63.17138671875
-65.91796875
-65.00244140625
-70.49560546875
-71.4111328125
-72.32666015625
-81.48193359375
-86.0595703125
-86.97509765625
-78.7353515625
-82.3974609375
-78.7353515625
-71.4111328125
-75.98876953125
-76.904296875
-76.904296875
-70.49560546875
-83.31298828125
-74.15771484375
-75.98876953125
-67.7490234375
-67.7490234375
-80.56640625
-74.15771484375
-75.98876953125
-78.7353515625
-68.66455078125
-72.32666015625
-72.32666015625
-64.0869140625
-68.66455078125
-62.255859375
-69.580078125
-71.4111328125
-66.83349609375
-58.59375
-53.1005859375
-58.59375
-64.0869140625
-59.50927734375
-56.7626953125
-53.1005859375
-49.4384765625
-47.607421875
-54.01611328125
-52.18505859375
-51.26953125
-47.607421875
-44.86083984375
-52.18505859375
-43.02978515625
-44.86083984375
-32.04345703125
-35.70556640625
-37.53662109375
-35.70556640625
-36.62109375
-36.62109375
-35.70556640625
-21.05712890625
-30.21240234375
-27.4658203125
-19.22607421875
-21.05712890625
-21.97265625
-16.4794921875
-10.986328125
-4.57763671875
-6.40869140625
0
2.74658203125
0.91552734375
0.91552734375
14.6484375
16.4794921875
16.4794921875
16.4794921875
17.39501953125
32.04345703125
32.04345703125
29.296875
47.607421875
54.931640625
55.84716796875
66.83349609375
59.50927734375
61.34033203125
75.98876953125
78.7353515625
82.3974609375
86.97509765625
92.46826171875
104.3701171875
114.44091796875
118.10302734375
124.51171875
117.1875
127.25830078125
139.16015625
138.24462890625
133.6669921875
150.146484375
158.38623046875
155.6396484375
157.470703125
168.45703125
176.69677734375
176.69677734375
187.68310546875
188.5986328125
189.51416015625
195.00732421875
195.00732421875
196.83837890625
196.83837890625
194.091796875
191.34521484375
179.443359375
173.9501953125
167.54150390625
152.89306640625
151.06201171875
145.56884765625
129.08935546875
113.525390625
95.21484375
83.31298828125
72.32666015625
53.1005859375
41.19873046875
27.4658203125
17.39501953125
2.74658203125
-21.05712890625
-21.05712890625
-34.7900390625
-43.02978515625
-44.86083984375
-53.1005859375
-67.7490234375
-79.65087890625
-82.3974609375
-81.48193359375
-86.0595703125
-93.3837890625
-100.7080078125
-113.525390625
-113.525390625
-104.3701171875
-110.77880859375
-114.44091796875
-112.60986328125
-111.6943359375
-113.525390625
-119.0185546875
-119.0185546875
-124.51171875
-130.0048828125
-119.0185546875
-118.10302734375
-112.60986328125
-118.10302734375
-119.93408203125
-119.93408203125
-123.59619140625
-124.51171875
-123.59619140625
-121.76513671875
-123.59619140625
-124.51171875
-127.25830078125
-126.3427734375
-119.93408203125
-116.27197265625
-118.10302734375
-119.0185546875
-130.0048828125
-128.173828125
-127.25830078125
-132.75146484375
-120.849609375
-121.76513671875
-119.93408203125
-119.0185546875
-128.173828125
-123.59619140625
-130.0048828125
-130.92041015625
-117.1875
-124.51171875
-122.6806640625
-124.51171875
-119.0185546875
-119.93408203125
-122.6806640625
-122.6806640625
-119.93408203125
-124.51171875
-118.10302734375
-120.849609375
-122.6806640625
-123.59619140625
-120.849609375
-117.1875
-117.1875
-119.93408203125
-118.10302734375
-119.0185546875
-126.3427734375
-114.44091796875
-112.60986328125
-112.60986328125
-113.525390625
-125.42724609375
-117.1875
-108.94775390625
-115.3564453125
-117.1875
-114.44091796875
-109.86328125
-114.44091796875
-112.60986328125
-115.3564453125
-113.525390625
-108.0322265625
-108.0322265625
-118.10302734375
-112.60986328125
-118.10302734375
-111.6943359375
-118.10302734375
-123.59619140625
-122.6806640625
-113.525390625
-114.44091796875
-115.3564453125
-119.0185546875
-115.3564453125
-110.77880859375
-118.10302734375
-118.10302734375
-119.93408203125
-119.93408203125
-120.849609375
-121.76513671875
-127.25830078125
-116.27197265625
-125.42724609375
-124.51171875
-120.849609375
-119.93408203125
-115.3564453125
-128.173828125
-126.3427734375
-121.76513671875
-121.76513671875
-128.173828125
-127.25830078125
-127.25830078125
-130.92041015625
-130.92041015625
-126.3427734375
-130.0048828125
-133.6669921875
-129.08935546875
-127.25830078125
-132.75146484375
-136.41357421875
-129.08935546875
-139.16015625
-133.6669921875
-133.6669921875
-132.75146484375
-131.8359375
-130.0048828125
-135.498046875
-135.498046875
-136.41357421875
-141.90673828125
-138.24462890625
-140.9912109375
-140.9912109375
-140.9912109375
-140.07568359375
-134.58251953125
-130.92041015625
-134.58251953125
-137.3291015625
-141.90673828125
-129.08935546875
-130.0048828125
-131.8359375
-132.75146484375
-136.41357421875
-140.07568359375
-139.16015625
-143.73779296875
-137.3291015625
-144.6533203125
-146.484375
-149.23095703125
-144.6533203125
-135.498046875
-145.56884765625
-142.822265625
-130.92041015625
-139.16015625
-140.07568359375
-138.24462890625
-141.90673828125
-130.0048828125
-134.58251953125
-130.0048828125
-128.173828125
-131.8359375
-138.24462890625
-142.822265625
-151.06201171875
-150.146484375
-151.9775390625
-151.06201171875
-140.07568359375
-154.72412109375
-156.55517578125
-154.72412109375
-159.3017578125
-159.3017578125
-163.87939453125
-161.1328125
-162.9638671875
-151.9775390625
-147.39990234375
-140.9912109375
-139.16015625
-131.8359375
-122.6806640625
-127.25830078125
-142.822265625
-130.92041015625
-121.76513671875
-119.93408203125
-124.51171875
-134.58251953125
-136.41357421875
-138.24462890625
-131.8359375
-123.59619140625
-122.6806640625
-117.1875
-119.0185546875
-119.0185546875
-125.42724609375
-138.24462890625
-140.07568359375
-133.6669921875
-131.8359375
-142.822265625
-147.39990234375
-150.146484375
-147.39990234375
-145.56884765625
-140.9912109375
-134.58251953125
-138.24462890625
-147.39990234375
-142.822265625
-149.23095703125
-149.23095703125
-145.56884765625
-138.24462890625
-150.146484375
-142.822265625
-139.16015625
-143.73779296875
-138.24462890625
-137.3291015625
-140.9912109375
-140.9912109375
-140.07568359375
-132.75146484375
-135.498046875
-140.07568359375
-142.822265625
-140.07568359375
-140.9912109375
-133.6669921875
-132.75146484375
-132.75146484375
-128.173828125
-135.498046875
-138.24462890625
-137.3291015625
-138.24462890625
-122.6806640625
-119.0185546875
-123.59619140625
-109.86328125
-45.7763671875
39.36767578125
123.59619140625
227.05078125
325.01220703125
405.57861328125
478.82080078125
574.03564453125
676.57470703125
757.14111328125
842.28515625
899.96337890625
888.97705078125
783.69140625
624.3896484375
452.2705078125
311.279296875
191.34521484375
101.62353515625
28.38134765625
-20.1416015625
-34.7900390625
-34.7900390625
-29.296875
-26.55029296875
-22.88818359375
-14.6484375
-15.56396484375
-22.88818359375
-34.7900390625
-45.7763671875
-47.607421875
-49.4384765625
-51.26953125
-54.931640625
-64.0869140625
-65.91796875
-77.81982421875
-72.32666015625
-75.0732421875
-76.904296875
-72.32666015625
-80.56640625
-75.98876953125
-75.0732421875
-78.7353515625
-74.15771484375
-70.49560546875
-79.65087890625
-78.7353515625
-74.15771484375
-77.81982421875
-75.0732421875
-71.4111328125
-74.15771484375
-67.7490234375
-68.66455078125
-72.32666015625
-66.83349609375
-66.83349609375
-70.49560546875
-74.15771484375
-72.32666015625
-62.255859375
-60.4248046875
-67.7490234375
-55.84716796875
-56.7626953125
-60.4248046875
-63.17138671875
-60.4248046875
-68.66455078125
-61.34033203125
-52.18505859375
-53.1005859375
-54.01611328125
-49.4384765625
-49.4384765625
-43.9453125
-49.4384765625
-53.1005859375
-46.69189453125
-47.607421875
-41.19873046875
-31.1279296875
-31.1279296875
-28.38134765625
-28.38134765625
-32.958984375
-28.38134765625
-25.634765625
-30.21240234375
-27.4658203125
-21.97265625
-19.22607421875
-15.56396484375
-21.05712890625
-17.39501953125
-10.986328125
-3.662109375
-5.4931640625
7.32421875
0
3.662109375
7.32421875
19.22607421875
25.634765625
27.4658203125
27.4658203125
29.296875
28.38134765625
24.71923828125
32.958984375
46.69189453125
52.18505859375
54.931640625
71.4111328125
79.65087890625
77.81982421875
83.31298828125
65.91796875
71.4111328125
82.3974609375
88.80615234375
108.94775390625
122.6806640625
134.58251953125
138.24462890625
144.6533203125
138.24462890625
129.08935546875
136.41357421875
144.6533203125
154.72412109375
164.794921875
170.2880859375
180.35888671875
184.02099609375
186.767578125
184.9365234375
173.9501953125
179.443359375
184.02099609375
200.50048828125
200.50048828125
207.82470703125
211.48681640625
205.99365234375
197.75390625
193.17626953125
170.2880859375
162.04833984375
161.1328125
150.146484375
142.822265625
131.8359375
120.849609375
119.0185546875
97.0458984375
78.7353515625
51.26953125
38.4521484375
30.21240234375
24.71923828125
15.56396484375
9.1552734375
5.4931640625
-17.39501953125
-22.88818359375
-45.7763671875
-64.0869140625
-71.4111328125
-69.580078125
-75.0732421875
-73.2421875
-75.98876953125
-70.49560546875
-78.7353515625
-77.81982421875
-87.890625
-102.5390625
-111.6943359375
-109.86328125
-111.6943359375
-107.11669921875
-103.45458984375
-97.0458984375
-90.63720703125
-94.29931640625
-106.201171875
-119.93408203125
-129.08935546875
-116.27197265625
-117.1875
-103.45458984375
-91.552734375
-97.0458984375
-98.876953125
-98.876953125
-116.27197265625
-115.3564453125
-119.93408203125
-118.10302734375
-115.3564453125
-112.60986328125
-102.5390625
-94.29931640625
-90.63720703125
-90.63720703125
-108.94775390625
-119.0185546875
-115.3564453125
-120.849609375
-119.93408203125
-103.45458984375
-101.62353515625
-101.62353515625
-90.63720703125
-93.3837890625
-108.0322265625
-112.60986328125
-118.10302734375
-108.0322265625
-100.7080078125
-95.21484375
-88.80615234375
-75.98876953125
-78.7353515625
-89.7216796875
-97.96142578125
-109.86328125
-108.94775390625
-103.45458984375
-94.29931640625
-90.63720703125
-83.31298828125
-78.7353515625
-73.2421875
-80.56640625
-97.0458984375
-94.29931640625
-108.0322265625
-99.79248046875
-85.14404296875
-81.48193359375
-72.32666015625
-61.34033203125
-70.49560546875
-77.81982421875
-86.0595703125
-93.3837890625
-101.62353515625
-96.13037109375
-86.97509765625
-71.4111328125
-64.0869140625
-64.0869140625
-71.4111328125
-76.904296875
-84.228515625
-89.7216796875
-99.79248046875
-90.63720703125
-74.15771484375
-75.0732421875
-70.49560546875
-68.66455078125
-74.15771484375
-75.0732421875
-87.890625
-107.11669921875
-96.13037109375
-91.552734375
-88.80615234375
-79.65087890625
-69.580078125
-66.83349609375
-71.4111328125
-81.48193359375
-88.80615234375
-96.13037109375
-103.45458984375
-101.62353515625
-98.876953125
-88.80615234375
-75.98876953125
-75.0732421875
-79.65087890625
-81.48193359375
-89.7216796875
-100.7080078125
-108.94775390625
-109.86328125
-99.79248046875
-94.29931640625
-80.56640625
-77.81982421875
-81.48193359375
-84.228515625
-92.46826171875
-109.86328125
-109.86328125
-102.5390625
-97.0458984375
-93.3837890625
-80.56640625
-70.49560546875
-80.56640625
-91.552734375
-103.45458984375
-113.525390625
-109.86328125
-107.11669921875
-105.28564453125
-95.21484375
-90.63720703125
-83.31298828125
-77.81982421875
-89.7216796875
-104.3701171875
-110.77880859375
-119.0185546875
-120.849609375
-106.201171875
-91.552734375
-90.63720703125
-86.0595703125
-82.3974609375
-97.0458984375
-103.45458984375
-109.86328125
-119.0185546875
-110.77880859375
-101.62353515625
-100.7080078125
-97.0458984375
-93.3837890625
-84.228515625
-96.13037109375
-115.3564453125
-118.10302734375
-120.849609375
-105.28564453125
-102.5390625
-101.62353515625
-87.890625
-79.65087890625
-75.98876953125
-89.7216796875
-108.0322265625
-110.77880859375
-115.3564453125
-108.0322265625
-93.3837890625
-92.46826171875
-81.48193359375
-78.7353515625
-88.80615234375
-94.29931640625
-102.5390625
-113.525390625
-120.849609375
-113.525390625
-108.94775390625
-98.876953125
-90.63720703125
-85.14404296875
-81.48193359375
-86.0595703125
-110.77880859375
-112.60986328125
-115.3564453125
-113.525390625
-107.11669921875
-88.80615234375
-77.81982421875
-86.0595703125
-93.3837890625
-96.13037109375
-103.45458984375
-116.27197265625
-111.6943359375
-107.11669921875
-107.11669921875
-97.96142578125
-89.7216796875
-75.98876953125
-83.31298828125
-93.3837890625
-99.79248046875
-99.79248046875
-103.45458984375
-109.86328125
-105.28564453125
-91.552734375
-86.97509765625
-91.552734375
-86.97509765625
-98.876953125
-119.0185546875
-136.41357421875
-132.75146484375
-130.92041015625
-130.0048828125
-108.0322265625
-100.7080078125
-94.29931640625
-96.13037109375
-92.46826171875
-99.79248046875
-107.11669921875
-100.7080078125
-92.46826171875
-88.80615234375
-82.3974609375
-85.14404296875
-75.0732421875
-71.4111328125
-79.65087890625
-85.14404296875
-98.876953125
-119.0185546875
-109.86328125
-91.552734375
-86.0595703125
-75.0732421875
-68.66455078125
-71.4111328125
-75.98876953125
-96.13037109375
-109.86328125
-110.77880859375
-98.876953125
-98.876953125
-91.552734375
-86.97509765625
-79.65087890625
-85.14404296875
-97.0458984375
-116.27197265625
-128.173828125
-114.44091796875
-105.28564453125
-105.28564453125
-99.79248046875
-93.3837890625
-93.3837890625
-94.29931640625
-104.3701171875
-105.28564453125
-109.86328125
-115.3564453125
-106.201171875
-106.201171875
-99.79248046875
-88.80615234375
-86.0595703125
-91.552734375
-106.201171875
-118.10302734375
-111.6943359375
-117.1875
-112.60986328125
-105.28564453125
-100.7080078125
-92.46826171875
-86.0595703125
-91.552734375
-101.62353515625
-106.201171875
-102.5390625
-96.13037109375
-89.7216796875
-75.0732421875
-21.05712890625
75.98876953125
166.6259765625
257.26318359375
344.23828125
411.07177734375
487.060546875
574.03564453125
671.9970703125
762.63427734375
856.93359375
922.8515625
944.82421875
872.49755859375
698.54736328125
498.046875
345.15380859375
228.8818359375
136.41357421875
68.66455078125
27.4658203125
6.40869140625
6.40869140625
13.73291015625
6.40869140625
4.57763671875
3.662109375
1.8310546875
-7.32421875
-9.1552734375
-9.1552734375
-2.74658203125
-9.1552734375
-18.310546875
-25.634765625
-31.1279296875
-43.9453125
-51.26953125
-43.02978515625
-38.4521484375
-35.70556640625
-39.36767578125
-23.8037109375
-25.634765625
-38.4521484375
-52.18505859375
-61.34033203125
-67.7490234375
-56.7626953125
-45.7763671875
-38.4521484375
-26.55029296875
-30.21240234375
-32.958984375
-27.4658203125
-38.4521484375
-50.35400390625
-42.1142578125
-49.4384765625
-43.02978515625
-30.21240234375
-24.71923828125
-19.22607421875
-18.310546875
-24.71923828125
-36.62109375
-45.7763671875
-38.4521484375
-22.88818359375
-21.05712890625
-23.8037109375
-12.8173828125
-9.1552734375
-5.4931640625
-13.73291015625
-32.04345703125
-32.958984375
-30.21240234375
-26.55029296875
-21.97265625
-16.4794921875
-2.74658203125
5.4931640625
0.91552734375
-5.4931640625
-15.56396484375
-16.4794921875
-7.32421875
-12.8173828125
2.74658203125
6.40869140625
12.8173828125
20.1416015625
26.55029296875
24.71923828125
7.32421875
2.74658203125
1.8310546875
7.32421875
25.634765625
42.1142578125
43.02978515625
51.26953125
47.607421875
40.283203125
34.7900390625
24.71923828125
33.87451171875
36.62109375
42.1142578125
68.66455078125
79.65087890625
87.890625
92.46826171875
78.7353515625
78.7353515625
79.65087890625
81.48193359375
90.63720703125
101.62353515625
114.44091796875
125.42724609375
133.6669921875
132.75146484375
140.9912109375
143.73779296875
144.6533203125
145.56884765625
145.56884765625
166.6259765625
178.52783203125
188.5986328125
195.9228515625
199.5849609375
192.2607421875
190.4296875
186.767578125
192.2607421875
197.75390625
205.078125
222.47314453125
233.45947265625
247.1923828125
242.61474609375
242.61474609375
234.375
227.05078125
220.64208984375
227.05078125
229.79736328125
230.712890625
233.45947265625
224.30419921875
221.5576171875
201.416015625
178.52783203125
155.6396484375
144.6533203125
135.498046875
123.59619140625
121.76513671875
111.6943359375
103.45458984375
77.81982421875
65.00244140625
36.62109375
10.07080078125
3.662109375
-4.57763671875
-10.07080078125
0.91552734375
3.662109375
-1.8310546875
-14.6484375
-28.38134765625
-50.35400390625
-67.7490234375
-68.66455078125
-64.0869140625
-54.01611328125
-56.7626953125
-59.50927734375
-53.1005859375
-64.0869140625
-75.98876953125
-85.14404296875
-92.46826171875
-87.890625
-85.14404296875
-76.904296875
-73.2421875
-67.7490234375
-62.255859375
-63.17138671875
-67.7490234375
-83.31298828125
-94.29931640625
-95.21484375
-81.48193359375
-74.15771484375
-72.32666015625
-68.66455078125
-60.4248046875
-65.00244140625
-73.2421875
-80.56640625
-86.0595703125
-96.13037109375
-86.0595703125
-80.56640625
-75.98876953125
-68.66455078125
-54.01611328125
-65.00244140625
-74.15771484375
-82.3974609375
-90.63720703125
-105.28564453125
-90.63720703125
-79.65087890625
-74.15771484375
-69.580078125
-59.50927734375
-56.7626953125
-66.83349609375
-75.98876953125
-89.7216796875
-79.65087890625
-71.4111328125
-72.32666015625
-70.49560546875
-58.59375
-53.1005859375
-50.35400390625
-65.00244140625
-78.7353515625
-84.228515625
-86.97509765625
-78.7353515625
-66.83349609375
-58.59375
-56.7626953125
-56.7626953125
-53.1005859375
-64.0869140625
-65.91796875
-75.98876953125
-82.3974609375
-76.904296875
-65.00244140625
-61.34033203125
-52.18505859375
-43.9453125
-41.19873046875
-51.26953125
-65.00244140625
-75.98876953125
-82.3974609375
-67.7490234375
-56.7626953125
-52.18505859375
-48.52294921875
-45.7763671875
-52.18505859375
-59.50927734375
-67.7490234375
-73.2421875
-69.580078125
-68.66455078125
-69.580078125
-54.01611328125
-50.35400390625
-46.69189453125
-49.4384765625
-50.35400390625
-61.34033203125
-75.0732421875
-75.0732421875
-67.7490234375
-64.0869140625
-61.34033203125
-54.931640625
-55.84716796875
-49.4384765625
-50.35400390625
-73.2421875
-88.80615234375
-82.3974609375
-79.65087890625
-81.48193359375
-65.00244140625
-56.7626953125
-59.50927734375
-48.52294921875
-64.0869140625
-80.56640625
-93.3837890625
-92.46826171875
-86.0595703125
-79.65087890625
-80.56640625
-64.0869140625
-66.83349609375
-65.91796875
-77.81982421875
-75.0732421875
-92.46826171875
-98.876953125
-87.890625
-81.48193359375
-74.15771484375
-71.4111328125
-65.00244140625
-64.0869140625
-69.580078125
-91.552734375
-100.7080078125
-99.79248046875
-92.46826171875
-95.21484375
-87.890625
-65.91796875
-61.34033203125
-70.49560546875
-78.7353515625
-90.63720703125
-97.0458984375
-96.13037109375
-97.96142578125
-89.7216796875
-85.14404296875
-76.904296875
-76.904296875
-77.81982421875
-71.4111328125
-89.7216796875
-106.201171875
-100.7080078125
-102.5390625
-90.63720703125
-90.63720703125
-66.83349609375
-65.91796875
-78.7353515625
-80.56640625
-88.80615234375
-107.11669921875
-107.11669921875
-102.5390625
-92.46826171875
-81.48193359375
-73.2421875
-73.2421875
-71.4111328125
-88.80615234375
-100.7080078125
-106.201171875
-107.11669921875
-96.13037109375
-90.63720703125
-81.48193359375
-70.49560546875
-77.81982421875
-85.14404296875
-86.97509765625
-96.13037109375
-110.77880859375
-108.0322265625
-103.45458984375
-97.0458984375
-85.14404296875
-79.65087890625
-74.15771484375
-82.3974609375
-89.7216796875
-100.7080078125
-105.28564453125
-100.7080078125
-86.0595703125
-82.3974609375
-70.49560546875
-73.2421875
-71.4111328125
-75.98876953125
-88.80615234375
-108.0322265625
-121.76513671875
-124.51171875
-115.3564453125
-108.94775390625
-94.29931640625
-97.0458984375
-105.28564453125
-101.62353515625
-97.96142578125
-108.0322265625
-117.1875
-108.94775390625
-108.0322265625
-96.13037109375
-81.48193359375
-65.91796875
-65.91796875
-68.66455078125
-80.56640625
-88.80615234375
-95.21484375
-84.228515625
-90.63720703125
-97.0458984375
-89.7216796875
-90.63720703125
-73.2421875
-75.0732421875
-82.3974609375
-89.7216796875
-100.7080078125
-97.0458984375
-98.876953125
-97.0458984375
-87.890625
-74.15771484375
-71.4111328125
-86.97509765625
-90.63720703125
-99.79248046875
-118.10302734375
-107.11669921875
-110.77880859375
-97.96142578125
-97.0458984375
-92.46826171875
-89.7216796875
-97.0458984375
-94.29931640625
-103.45458984375
-122.6806640625
-119.0185546875
-107.11669921875
-106.201171875
-99.79248046875
-97.96142578125
-87.890625
-80.56640625
-86.97509765625
-100.7080078125
-111.6943359375
-110.77880859375
-97.96142578125
-91.552734375
-86.0595703125
-86.0595703125
-79.65087890625
-78.7353515625
-88.80615234375
-111.6943359375
-117.1875
-113.525390625
-108.0322265625
-91.552734375
-75.98876953125
-71.4111328125
-56.7626953125
-4.57763671875
65.91796875
128.173828125
218.81103515625
319.51904296875
411.07177734375
487.97607421875
585.9375
697.6318359375
783.69140625
864.2578125
913.6962890625
915.52734375
836.7919921875
687.56103515625
504.45556640625
355.224609375
248.10791015625
171.20361328125
106.201171875
48.52294921875
12.8173828125
-4.57763671875
-3.662109375
-4.57763671875
11.90185546875
26.55029296875
29.296875
14.6484375
11.90185546875
3.662109375
-10.07080078125
-25.634765625
-35.70556640625
-37.53662109375
-43.9453125
-36.62109375
-24.71923828125
-21.05712890625
-20.1416015625
-21.97265625
-29.296875
-41.19873046875
-57.67822265625
-45.7763671875
-43.9453125
-33.87451171875
-32.958984375
-23.8037109375
-20.1416015625
-17.39501953125
-31.1279296875
-40.283203125
-50.35400390625
-47.607421875
-42.1142578125
-35.70556640625
-22.88818359375
-21.97265625
-10.986328125
-15.56396484375
-18.310546875
-34.7900390625
-46.69189453125
-43.02978515625
-31.1279296875
-26.55029296875
-13.73291015625
-18.310546875
-12.8173828125
-7.32421875
-11.90185546875
-22.88818359375
-25.634765625
-30.21240234375
-21.05712890625
-15.56396484375
-0.91552734375
3.662109375
10.986328125
5.4931640625
-1.8310546875
-17.39501953125
-14.6484375
-20.1416015625
-2.74658203125
2.74658203125
5.4931640625
11.90185546875
21.05712890625
16.4794921875
15.56396484375
10.986328125
4.57763671875
4.57763671875
12.8173828125
10.07080078125
32.04345703125
41.19873046875
43.02978515625
51.26953125
32.958984375
23.8037109375
26.55029296875
32.958984375
42.1142578125
45.7763671875
61.34033203125
70.49560546875
85.14404296875
79.65087890625
78.7353515625
75.0732421875
65.00244140625
53.1005859375
78.7353515625
86.0595703125
100.7080078125
116.27197265625
124.51171875
122.6806640625
120.849609375
115.3564453125
99.79248046875
115.3564453125
122.6806640625
139.16015625
155.6396484375
164.794921875
182.18994140625
185.85205078125
184.02099609375
166.6259765625
162.9638671875
174.86572265625
187.68310546875
195.9228515625
216.064453125
216.064453125
232.5439453125
245.361328125
235.29052734375
221.5576171875
218.81103515625
225.2197265625
229.79736328125
241.69921875
240.78369140625
244.44580078125
247.1923828125
238.037109375
218.81103515625
211.48681640625
186.767578125
177.6123046875
166.6259765625
167.54150390625
163.87939453125
159.3017578125
142.822265625
132.75146484375
104.3701171875
76.904296875
55.84716796875
43.02978515625
34.7900390625
32.04345703125
23.8037109375
14.6484375
12.8173828125
0
-17.39501953125
-39.36767578125
-43.02978515625
-57.67822265625
-67.7490234375
-47.607421875
-49.4384765625
-57.67822265625
-53.1005859375
-54.931640625
-74.15771484375
-86.0595703125
-90.63720703125
-91.552734375
-85.14404296875
-77.81982421875
-85.14404296875
-65.00244140625
-61.34033203125
-63.17138671875
-77.81982421875
-96.13037109375
-99.79248046875
-98.876953125
-94.29931640625
-84.228515625
-80.56640625
-76.904296875
-75.98876953125
-81.48193359375
-90.63720703125
-95.21484375
-96.13037109375
-107.11669921875
-106.201171875
-99.79248046875
-82.3974609375
-75.0732421875
-73.2421875
-67.7490234375
-84.228515625
-92.46826171875
-104.3701171875
-102.5390625
-96.13037109375
-90.63720703125
-87.890625
-76.904296875
-70.49560546875
-72.32666015625
-76.904296875
-98.876953125
-105.28564453125
-95.21484375
-91.552734375
-86.0595703125
-83.31298828125
-73.2421875
-70.49560546875
-77.81982421875
-81.48193359375
-93.3837890625
-95.21484375
-96.13037109375
-93.3837890625
-77.81982421875
-73.2421875
-70.49560546875
-63.17138671875
-73.2421875
-85.14404296875
-82.3974609375
-96.13037109375
-97.0458984375
-92.46826171875
-86.0595703125
-73.2421875
-75.98876953125
-65.91796875
-64.0869140625
-75.0732421875
-87.890625
-97.0458984375
-104.3701171875
-86.0595703125
-79.65087890625
-72.32666015625
-64.0869140625
-63.17138671875
-65.91796875
-74.15771484375
-84.228515625
-95.21484375
-92.46826171875
-81.48193359375
-77.81982421875
-75.0732421875
-71.4111328125
-62.255859375
-71.4111328125
-78.7353515625
-86.0595703125
-95.21484375
-97.0458984375
-94.29931640625
-89.7216796875
-85.14404296875
-75.98876953125
