ECG
-30.21240234375
-29.296875
-19.22607421875
-23.8037109375
-32.04345703125
-36.62109375
-41.19873046875
-37.53662109375
-39.36767578125
-35.70556640625
-33.87451171875
-39.36767578125
-32.958984375
-40.283203125
-35.70556640625
-34.7900390625
-41.19873046875
-39.36767578125
-37.53662109375
-32.958984375
-30.21240234375
-21.97265625
-25.634765625
-38.4521484375
-43.9453125
-42.1142578125
-42.1142578125
-38.4521484375
-34.7900390625
-31.1279296875
-39.36767578125
-33.87451171875
-38.4521484375
-34.7900390625
-41.19873046875
-36.62109375
-43.02978515625
-51.26953125
-46.69189453125
-24.71923828125
-30.21240234375
-38.4521484375
-34.7900390625
-30.21240234375
-31.1279296875
-28.38134765625
-46.69189453125
-50.35400390625
-48.52294921875
-49.4384765625
-50.35400390625
-50.35400390625
-39.36767578125
-44.86083984375
-52.18505859375
-52.18505859375
-63.17138671875
-65.91796875
-54.931640625
-51.26953125
-41.19873046875
-30.21240234375
-35.70556640625
-35.70556640625
-43.9453125
-32.958984375
-31.1279296875
-28.38134765625
-25.634765625
-25.634765625
-16.4794921875
-15.56396484375
-26.55029296875
-43.9453125
-43.9453125
-43.02978515625
-44.86083984375
-40.283203125
-31.1279296875
-32.04345703125
-32.04345703125
-19.22607421875
-27.4658203125
-36.62109375
-37.53662109375
-34.7900390625
-43.02978515625
-54.01611328125
-49.4384765625
-48.52294921875
-52.18505859375
-49.4384765625
-42.1142578125
-38.4521484375
-43.9453125
-46.69189453125
-55.84716796875
-55.84716796875
-51.26953125
-56.7626953125
-54.01611328125
-51.26953125
-50.35400390625
-53.1005859375
-51.26953125
-46.69189453125
-53.1005859375
-57.67822265625
-53.1005859375
-38.4521484375
-43.9453125
-46.69189453125
-37.53662109375
-51.26953125
-45.7763671875
-48.52294921875
-55.84716796875
-65.00244140625
-51.26953125
-40.283203125
-43.9453125
-45.7763671875
-47.607421875
-44.86083984375
-43.02978515625
-33.87451171875
-40.283203125
-30.21240234375
2.74658203125
81.48193359375
157.470703125
262.75634765625
361.63330078125
459.5947265625
550.23193359375
631.7138671875
726.01318359375
809.326171875
891.7236328125
968.6279296875
1010.7421875
988.76953125
868.83544921875
682.06787109375
490.72265625
349.7314453125
238.95263671875
154.72412109375
93.3837890625
54.931640625
47.607421875
55.84716796875
56.7626953125
62.255859375
70.49560546875
65.00244140625
59.50927734375
55.84716796875
52.18505859375
43.9453125
35.70556640625
34.7900390625
31.1279296875
24.71923828125
21.05712890625
15.56396484375
11.90185546875
7.32421875
8.23974609375
5.4931640625
5.4931640625
13.73291015625
12.8173828125
9.1552734375
6.40869140625
10.07080078125
0.91552734375
2.74658203125
14.6484375
19.22607421875
16.4794921875
23.8037109375
20.1416015625
12.8173828125
15.56396484375
13.73291015625
10.07080078125
10.986328125
19.22607421875
26.55029296875
19.22607421875
21.97265625
23.8037109375
21.97265625
21.97265625
31.1279296875
13.73291015625
13.73291015625
23.8037109375
32.04345703125
28.38134765625
26.55029296875
28.38134765625
22.88818359375
27.4658203125
42.1142578125
32.958984375
28.38134765625
38.4521484375
43.02978515625
36.62109375
36.62109375
50.35400390625
44.86083984375
32.958984375
36.62109375
40.283203125
43.02978515625
61.34033203125
61.34033203125
63.17138671875
68.66455078125
72.32666015625
66.83349609375
57.67822265625
61.34033203125
67.7490234375
65.00244140625
68.66455078125
80.56640625
86.97509765625
91.552734375
97.0458984375
90.63720703125
92.46826171875
96.13037109375
92.46826171875
98.876953125
104.3701171875
100.7080078125
112.60986328125
131.8359375
130.92041015625
130.0048828125
134.58251953125
140.9912109375
135.498046875
143.73779296875
150.146484375
154.72412109375
163.87939453125
173.9501953125
177.6123046875
195.9228515625
200.50048828125
194.091796875
193.17626953125
198.66943359375
205.99365234375
223.388671875
225.2197265625
236.2060546875
243.5302734375
246.27685546875
250.8544921875
256.34765625
248.10791015625
251.77001953125
267.333984375
266.41845703125
274.658203125
282.89794921875
279.23583984375
281.982421875
288.39111328125
292.96875
292.05322265625
292.05322265625
296.630859375
295.71533203125
297.54638671875
295.71533203125
295.71533203125
280.1513671875
271.91162109375
269.1650390625
247.1923828125
224.30419921875
217.8955078125
206.9091796875
192.2607421875
174.86572265625
169.37255859375
148.3154296875
132.75146484375
114.44091796875
93.3837890625
83.31298828125
73.2421875
61.34033203125
51.26953125
52.18505859375
40.283203125
30.21240234375
14.6484375
12.8173828125
5.4931640625
-3.662109375
-7.32421875
-7.32421875
-11.90185546875
-11.90185546875
-20.1416015625
-27.4658203125
-23.8037109375
-12.8173828125
-24.71923828125
-38.4521484375
-37.53662109375
-34.7900390625
-33.87451171875
-28.38134765625
-29.296875
-36.62109375
-37.53662109375
-29.296875
-38.4521484375
-43.02978515625
-33.87451171875
-21.97265625
-31.1279296875
-32.958984375
-30.21240234375
-38.4521484375
-42.1142578125
-46.69189453125
-43.02978515625
-51.26953125
-51.26953125
-46.69189453125
-40.283203125
-34.7900390625
-32.958984375
-27.4658203125
-32.958984375
-34.7900390625
-32.958984375
-41.19873046875
-44.86083984375
-33.87451171875
-37.53662109375
-32.958984375
-30.21240234375
-36.62109375
-37.53662109375
-38.4521484375
-46.69189453125
-44.86083984375
-38.4521484375
-39.36767578125
-32.04345703125
-35.70556640625
-29.296875
-35.70556640625
-36.62109375
-24.71923828125
-28.38134765625
-36.62109375
-35.70556640625
-34.7900390625
-32.958984375
-32.958984375
-25.634765625
-32.958984375
-32.958984375
-25.634765625
-32.958984375
-33.87451171875
-26.55029296875
-16.4794921875
-22.88818359375
-19.22607421875
-26.55029296875
-23.8037109375
-25.634765625
-28.38134765625
-24.71923828125
-31.1279296875
-25.634765625
-33.87451171875
-35.70556640625
-20.1416015625
-10.07080078125
-13.73291015625
-23.8037109375
-24.71923828125
-32.04345703125
-39.36767578125
-23.8037109375
-22.88818359375
-27.4658203125
-18.310546875
-11.90185546875
-21.97265625
-25.634765625
-21.97265625
-26.55029296875
-32.958984375
-35.70556640625
-21.05712890625
-27.4658203125
-31.1279296875
-18.310546875
-26.55029296875
-31.1279296875
-26.55029296875
-42.1142578125
-54.931640625
-43.02978515625
-35.70556640625
-43.02978515625
-33.87451171875
-32.04345703125
-38.4521484375
-41.19873046875
-37.53662109375
-46.69189453125
-39.36767578125
-32.04345703125
-38.4521484375
-43.02978515625
-43.02978515625
-40.283203125
-44.86083984375
-46.69189453125
-43.9453125
-48.52294921875
-59.50927734375
-57.67822265625
-44.86083984375
-50.35400390625
-41.19873046875
-42.1142578125
-47.607421875
-45.7763671875
-43.9453125
-50.35400390625
-54.931640625
-49.4384765625
-52.18505859375
-55.84716796875
-55.84716796875
-45.7763671875
-52.18505859375
-50.35400390625
-53.1005859375
-51.26953125
-56.7626953125
-54.931640625
-50.35400390625
-50.35400390625
-47.607421875
-50.35400390625
-54.931640625
-52.18505859375
-47.607421875
-54.931640625
-63.17138671875
-60.4248046875
-61.34033203125
-58.59375
-57.67822265625
-49.4384765625
-57.67822265625
-57.67822265625
-55.84716796875
-57.67822265625
-57.67822265625
-53.1005859375
-53.1005859375
-59.50927734375
-57.67822265625
-61.34033203125
-61.34033203125
-60.4248046875
-65.00244140625
-60.4248046875
-67.7490234375
-62.255859375
-67.7490234375
-62.255859375
-56.7626953125
-48.52294921875
-58.59375
-68.66455078125
-61.34033203125
-66.83349609375
-67.7490234375
-75.0732421875
-63.17138671875
-62.255859375
-54.931640625
-52.18505859375
-50.35400390625
-61.34033203125
-58.59375
-61.34033203125
-73.2421875
-68.66455078125
-60.4248046875
-63.17138671875
-60.4248046875
-60.4248046875
-65.00244140625
-66.83349609375
-63.17138671875
-60.4248046875
-65.00244140625
-59.50927734375
-57.67822265625
-56.7626953125
-59.50927734375
-51.26953125
-56.7626953125
-54.931640625
-53.1005859375
-58.59375
-69.580078125
-65.91796875
-66.83349609375
-69.580078125
-73.2421875
-70.49560546875
-78.7353515625
-77.81982421875
-79.65087890625
-84.228515625
-84.228515625
-80.56640625
-82.3974609375
-84.228515625
-72.32666015625
-52.18505859375
-55.84716796875
-57.67822265625
-62.255859375
-57.67822265625
-52.18505859375
-61.34033203125
-61.34033203125
-55.84716796875
-43.02978515625
-38.4521484375
-54.01611328125
-55.84716796875
-60.4248046875
-70.49560546875
-65.91796875
-55.84716796875
-54.931640625
-52.18505859375
-43.02978515625
-51.26953125
-64.0869140625
-64.0869140625
-54.931640625
-64.0869140625
-67.7490234375
-74.15771484375
-75.98876953125
-69.580078125
-64.0869140625
-71.4111328125
-76.904296875
-73.2421875
-77.81982421875
-75.0732421875
-87.890625
-76.904296875
-69.580078125
-77.81982421875
-75.0732421875
-77.81982421875
-71.4111328125
-72.32666015625
-70.49560546875
-75.0732421875
-79.65087890625
-77.81982421875
-73.2421875
-75.0732421875
-64.0869140625
-62.255859375
-65.00244140625
-67.7490234375
-63.17138671875
-66.83349609375
-73.2421875
-67.7490234375
-61.34033203125
-70.49560546875
-75.0732421875
-63.17138671875
-72.32666015625
-65.91796875
-54.01611328125
-57.67822265625
-59.50927734375
-21.97265625
40.283203125
130.92041015625
224.30419921875
323.18115234375
418.39599609375
507.2021484375
595.0927734375
684.814453125
772.705078125
862.4267578125
948.486328125
991.51611328125
971.37451171875
878.90625
701.2939453125
519.10400390625
367.12646484375
242.61474609375
148.3154296875
81.48193359375
26.55029296875
19.22607421875
27.4658203125
44.86083984375
43.02978515625
54.01611328125
57.67822265625
43.9453125
21.05712890625
11.90185546875
9.1552734375
17.39501953125
17.39501953125
10.986328125
0.91552734375
-10.07080078125
-7.32421875
-10.986328125
-21.97265625
-21.97265625
-18.310546875
-19.22607421875
-11.90185546875
-11.90185546875
-14.6484375
-17.39501953125
-10.986328125
-21.05712890625
-25.634765625
-19.22607421875
-14.6484375
-20.1416015625
-10.986328125
-7.32421875
-8.23974609375
-13.73291015625
-8.23974609375
-15.56396484375
-19.22607421875
-19.22607421875
-13.73291015625
-9.1552734375
-6.40869140625
0.91552734375
-0.91552734375
-10.986328125
-10.986328125
-3.662109375
-6.40869140625
3.662109375
-10.986328125
0
10.07080078125
7.32421875
1.8310546875
6.40869140625
8.23974609375
0
-6.40869140625
-2.74658203125
3.662109375
5.4931640625
9.1552734375
24.71923828125
20.1416015625
19.22607421875
25.634765625
18.310546875
17.39501953125
25.634765625
30.21240234375
30.21240234375
30.21240234375
36.62109375
37.53662109375
33.87451171875
39.36767578125
50.35400390625
43.02978515625
45.7763671875
42.1142578125
48.52294921875
45.7763671875
59.50927734375
64.0869140625
68.66455078125
76.904296875
76.904296875
76.904296875
73.2421875
81.48193359375
87.890625
94.29931640625
100.7080078125
89.7216796875
94.29931640625
108.0322265625
117.1875
113.525390625
123.59619140625
140.07568359375
136.41357421875
140.9912109375
160.21728515625
156.55517578125
162.9638671875
160.21728515625
162.04833984375
158.38623046875
177.6123046875
185.85205078125
191.34521484375
193.17626953125
205.99365234375
203.2470703125
209.65576171875
217.8955078125
222.47314453125
221.5576171875
234.375
243.5302734375
244.44580078125
247.1923828125
259.09423828125
260.92529296875
260.009765625
265.5029296875
267.333984375
270.08056640625
270.08056640625
274.658203125
270.08056640625
273.74267578125
268.24951171875
247.1923828125
246.27685546875
234.375
220.64208984375
201.416015625
194.091796875
184.9365234375
172.119140625
158.38623046875
152.89306640625
136.41357421875
108.0322265625
94.29931640625
79.65087890625
54.01611328125
54.931640625
54.01611328125
38.4521484375
28.38134765625
18.310546875
13.73291015625
-11.90185546875
-19.22607421875
-22.88818359375
-38.4521484375
-37.53662109375
-32.04345703125
-32.958984375
-33.87451171875
-36.62109375
-45.7763671875
-49.4384765625
-49.4384765625
-62.255859375
-69.580078125
-65.00244140625
-45.7763671875
-48.52294921875
-54.931640625
-47.607421875
-55.84716796875
-56.7626953125
-56.7626953125
-69.580078125
-75.0732421875
-65.91796875
-60.4248046875
-63.17138671875
-55.84716796875
-53.1005859375
-58.59375
-64.0869140625
-61.34033203125
-49.4384765625
-59.50927734375
-63.17138671875
-62.255859375
-62.255859375
-66.83349609375
-61.34033203125
-62.255859375
-64.0869140625
-55.84716796875
-62.255859375
-61.34033203125
-54.01611328125
-59.50927734375
-54.931640625
-61.34033203125
-54.931640625
-60.4248046875
-73.2421875
-69.580078125
-61.34033203125
-67.7490234375
-74.15771484375
-68.66455078125
-55.84716796875
-58.59375
-51.26953125
-59.50927734375
-61.34033203125
-55.84716796875
-53.1005859375
-62.255859375
-57.67822265625
-52.18505859375
-52.18505859375
-54.01611328125
-56.7626953125
-52.18505859375
-54.931640625
-54.01611328125
-46.69189453125
-60.4248046875
-53.1005859375
-46.69189453125
-48.52294921875
-47.607421875
-43.02978515625
-53.1005859375
-54.01611328125
-49.4384765625
-50.35400390625
-51.26953125
-54.01611328125
-53.1005859375
-51.26953125
-52.18505859375
-39.36767578125
-43.02978515625
-40.283203125
-47.607421875
-45.7763671875
-50.35400390625
-51.26953125
-54.931640625
-48.52294921875
-52.18505859375
-43.9453125
-52.18505859375
-54.01611328125
-54.01611328125
-54.01611328125
-63.17138671875
-63.17138671875
-55.84716796875
-61.34033203125
-65.91796875
-58.59375
-50.35400390625
-54.01611328125
-54.01611328125
-60.4248046875
-69.580078125
-71.4111328125
-56.7626953125
-54.931640625
-63.17138671875
-56.7626953125
-54.01611328125
-67.7490234375
-58.59375
-70.49560546875
-63.17138671875
-59.50927734375
-62.255859375
-60.4248046875
-59.50927734375
-63.17138671875
-65.91796875
-72.32666015625
-75.0732421875
-73.2421875
-84.228515625
-72.32666015625
-74.15771484375
-71.4111328125
-72.32666015625
-70.49560546875
-67.7490234375
-62.255859375
-67.7490234375
-75.0732421875
-81.48193359375
-69.580078125
-65.91796875
-68.66455078125
-64.0869140625
-66.83349609375
-86.0595703125
-81.48193359375
-75.0732421875
-76.904296875
-83.31298828125
-70.49560546875
-68.66455078125
-75.0732421875
-77.81982421875
-75.98876953125
-75.0732421875
-74.15771484375
-81.48193359375
-86.0595703125
-84.228515625
-87.890625
-87.890625
-86.97509765625
-86.0595703125
-74.15771484375
-75.98876953125
-85.14404296875
-86.0595703125
-81.48193359375
-85.14404296875
-90.63720703125
-80.56640625
-70.49560546875
-76.904296875
-67.7490234375
-69.580078125
-70.49560546875
-85.14404296875
-75.0732421875
-86.0595703125
-86.0595703125
-83.31298828125
-93.3837890625
-86.0595703125
-79.65087890625
-94.29931640625
-98.876953125
-98.876953125
-103.45458984375
-104.3701171875
-98.876953125
-95.21484375
-95.21484375
-95.21484375
-96.13037109375
-111.6943359375
-118.10302734375
-93.3837890625
-79.65087890625
-81.48193359375
-89.7216796875
-71.4111328125
-69.580078125
-71.4111328125
-69.580078125
-75.0732421875
-66.83349609375
-59.50927734375
-68.66455078125
-80.56640625
-80.56640625
-78.7353515625
-71.4111328125
-65.00244140625
-55.84716796875
-64.0869140625
-71.4111328125
-75.98876953125
-82.3974609375
-86.0595703125
-90.63720703125
-86.0595703125
-76.904296875
-89.7216796875
-86.97509765625
-91.552734375
-101.62353515625
-94.29931640625
-91.552734375
-99.79248046875
-98.876953125
-97.0458984375
-92.46826171875
-88.80615234375
-88.80615234375
-94.29931640625
-97.0458984375
-100.7080078125
-100.7080078125
-100.7080078125
-99.79248046875
-95.21484375
-89.7216796875
-92.46826171875
-86.0595703125
-88.80615234375
-99.79248046875
-91.552734375
-84.228515625
-102.5390625
-89.7216796875
-85.14404296875
-92.46826171875
-86.0595703125
-85.14404296875
-86.0595703125
-93.3837890625
-90.63720703125
-92.46826171875
-101.62353515625
-81.48193359375
-81.48193359375
-85.14404296875
-70.49560546875
-21.05712890625
58.59375
143.73779296875
246.27685546875
359.80224609375
444.9462890625
521.8505859375
605.16357421875
707.70263671875
791.93115234375
888.0615234375
972.2900390625
980.52978515625
897.216796875
742.49267578125
553.89404296875
400.08544921875
280.1513671875
193.17626953125
122.6806640625
72.32666015625
25.634765625
0
4.57763671875
8.23974609375
10.986328125
16.4794921875
17.39501953125
21.97265625
10.986328125
3.662109375
-0.91552734375
-13.73291015625
-17.39501953125
-20.1416015625
-33.87451171875
-35.70556640625
-21.97265625
-21.05712890625
-21.05712890625
-20.1416015625
-28.38134765625
-31.1279296875
-34.7900390625
-32.958984375
-35.70556640625
-34.7900390625
-31.1279296875
-27.4658203125
-31.1279296875
-43.9453125
-34.7900390625
-30.21240234375
-31.1279296875
-31.1279296875
-34.7900390625
-34.7900390625
-30.21240234375
-18.310546875
-25.634765625
-13.73291015625
-19.22607421875
-24.71923828125
-20.1416015625
-19.22607421875
-26.55029296875
-26.55029296875
-19.22607421875
-17.39501953125
-12.8173828125
-6.40869140625
-3.662109375
-10.07080078125
-19.22607421875
-17.39501953125
-18.310546875
-11.90185546875
-11.90185546875
-12.8173828125
-10.986328125
2.74658203125
-4.57763671875
-2.74658203125
1.8310546875
-3.662109375
-3.662109375
0.91552734375
4.57763671875
8.23974609375
11.90185546875
16.4794921875
21.97265625
21.97265625
23.8037109375
25.634765625
21.05712890625
21.05712890625
22.88818359375
22.88818359375
31.1279296875
41.19873046875
43.9453125
43.02978515625
51.26953125
50.35400390625
50.35400390625
54.931640625
62.255859375
65.91796875
75.0732421875
82.3974609375
85.14404296875
83.31298828125
81.48193359375
86.97509765625
86.0595703125
90.63720703125
108.0322265625
112.60986328125
121.76513671875
130.0048828125
125.42724609375
127.25830078125
146.484375
142.822265625
147.39990234375
151.06201171875
163.87939453125
171.20361328125
176.69677734375
191.34521484375
193.17626953125
192.2607421875
194.091796875
205.99365234375
202.33154296875
205.078125
219.7265625
225.2197265625
227.96630859375
241.69921875
244.44580078125
242.61474609375
255.43212890625
259.09423828125
256.34765625
260.92529296875
269.1650390625
266.41845703125
267.333984375
278.3203125
269.1650390625
257.26318359375
253.60107421875
247.1923828125
229.79736328125
212.40234375
216.97998046875
205.078125
193.17626953125
184.02099609375
162.04833984375
148.3154296875
132.75146484375
124.51171875
88.80615234375
78.7353515625
71.4111328125
64.0869140625
52.18505859375
49.4384765625
34.7900390625
19.22607421875
14.6484375
-1.8310546875
-11.90185546875
-11.90185546875
-12.8173828125
-18.310546875
-33.87451171875
-31.1279296875
-29.296875
-45.7763671875
-47.607421875
-43.02978515625
-65.00244140625
-56.7626953125
-48.52294921875
-56.7626953125
-59.50927734375
-51.26953125
-47.607421875
-54.01611328125
-54.931640625
-54.01611328125
-64.0869140625
-66.83349609375
-64.0869140625
-65.00244140625
-65.91796875
-56.7626953125
-60.4248046875
-65.91796875
-64.0869140625
-63.17138671875
-61.34033203125
-65.00244140625
-66.83349609375
-64.0869140625
-65.00244140625
-53.1005859375
-62.255859375
-63.17138671875
-63.17138671875
-71.4111328125
-62.255859375
-63.17138671875
-67.7490234375
-68.66455078125
-62.255859375
-51.26953125
-61.34033203125
-65.91796875
-57.67822265625
-58.59375
-62.255859375
-56.7626953125
-55.84716796875
-54.931640625
-54.01611328125
-50.35400390625
-56.7626953125
-58.59375
-47.607421875
-48.52294921875
-54.931640625
-56.7626953125
-44.86083984375
-45.7763671875
-47.607421875
-43.9453125
-39.36767578125
-38.4521484375
-49.4384765625
-43.9453125
-48.52294921875
-52.18505859375
-49.4384765625
-42.1142578125
-31.1279296875
-38.4521484375
-42.1142578125
-43.02978515625
-38.4521484375
-35.70556640625
-36.62109375
-39.36767578125
-38.4521484375
-40.283203125
-43.02978515625
-32.958984375
-37.53662109375
-48.52294921875
-42.1142578125
-40.283203125
-44.86083984375
-51.26953125
-48.52294921875
-45.7763671875
-48.52294921875
-40.283203125
-37.53662109375
-37.53662109375
-40.283203125
-46.69189453125
-46.69189453125
-53.1005859375
-53.1005859375
-47.607421875
-43.02978515625
-43.02978515625
-41.19873046875
-47.607421875
-43.9453125
-41.19873046875
-50.35400390625
-57.67822265625
-53.1005859375
-46.69189453125
-49.4384765625
-54.01611328125
-51.26953125
-55.84716796875
-58.59375
-48.52294921875
-54.931640625
-61.34033203125
-53.1005859375
-48.52294921875
-50.35400390625
-60.4248046875
-59.50927734375
-51.26953125
-46.69189453125
-61.34033203125
-67.7490234375
-60.4248046875
-57.67822265625
-56.7626953125
-54.931640625
-44.86083984375
-52.18505859375
-56.7626953125
-61.34033203125
-55.84716796875
-65.00244140625
-58.59375
-62.255859375
-63.17138671875
-61.34033203125
-53.1005859375
-48.52294921875
-59.50927734375
-61.34033203125
-60.4248046875
-65.91796875
-59.50927734375
-61.34033203125
-54.931640625
-61.34033203125
-53.1005859375
-50.35400390625
-63.17138671875
-71.4111328125
-55.84716796875
-66.83349609375
-62.255859375
-57.67822265625
-56.7626953125
-54.01611328125
-53.1005859375
-54.931640625
-69.580078125
-65.00244140625
-60.4248046875
-70.49560546875
-66.83349609375
-64.0869140625
-54.01611328125
-59.50927734375
-54.01611328125
-53.1005859375
-58.59375
-60.4248046875
-63.17138671875
-72.32666015625
-72.32666015625
-68.66455078125
-65.91796875
-65.91796875
-58.59375
-56.7626953125
-64.0869140625
-65.91796875
-58.59375
-63.17138671875
-62.255859375
-55.84716796875
-54.931640625
-55.84716796875
-44.86083984375
-44.86083984375
-51.26953125
-48.52294921875
-61.34033203125
-66.83349609375
-72.32666015625
-75.0732421875
-71.4111328125
-68.66455078125
-69.580078125
-72.32666015625
-70.49560546875
-75.0732421875
-77.81982421875
-77.81982421875
-81.48193359375
-69.580078125
-59.50927734375
-54.931640625
-49.4384765625
-48.52294921875
-46.69189453125
-43.02978515625
-43.9453125
-55.84716796875
-50.35400390625
-43.02978515625
-39.36767578125
-48.52294921875
-52.18505859375
-58.59375
-59.50927734375
-56.7626953125
-43.02978515625
-44.86083984375
-43.9453125
-42.1142578125
-43.02978515625
-46.69189453125
-43.02978515625
-52.18505859375
-54.931640625
-56.7626953125
-64.0869140625
-72.32666015625
-65.91796875
-71.4111328125
-77.81982421875
-72.32666015625
-70.49560546875
-70.49560546875
-77.81982421875
-59.50927734375
-53.1005859375
-67.7490234375
-65.00244140625
-60.4248046875
-65.00244140625
-55.84716796875
-55.84716796875
-54.931640625
-63.17138671875
-65.00244140625
-57.67822265625
-65.00244140625
-69.580078125
-61.34033203125
-55.84716796875
-54.01611328125
-54.931640625
-55.84716796875
-58.59375
-65.91796875
-55.84716796875
-53.1005859375
-65.00244140625
-71.4111328125
-67.7490234375
-63.17138671875
-56.7626953125
-42.1142578125
-38.4521484375
-40.283203125
-25.634765625
18.310546875
100.7080078125
184.9365234375
289.306640625
386.3525390625
483.3984375
572.20458984375
642.7001953125
734.2529296875
830.38330078125
911.865234375
982.36083984375
1007.99560546875
954.89501953125
806.57958984375
613.4033203125
444.9462890625
314.94140625
201.416015625
131.8359375
66.83349609375
32.04345703125
33.87451171875
43.02978515625
47.607421875
58.59375
64.0869140625
67.7490234375
51.26953125
39.36767578125
27.4658203125
19.22607421875
19.22607421875
24.71923828125
21.97265625
16.4794921875
14.6484375
16.4794921875
5.4931640625
-4.57763671875
-1.8310546875
-3.662109375
-6.40869140625
-7.32421875
-2.74658203125
0
6.40869140625
7.32421875
-1.8310546875
-5.4931640625
-11.90185546875
-2.74658203125
11.90185546875
2.74658203125
3.662109375
7.32421875
6.40869140625
5.4931640625
6.40869140625
4.57763671875
0.91552734375
4.57763671875
-0.91552734375
12.8173828125
15.56396484375
29.296875
21.97265625
18.310546875
18.310546875
17.39501953125
12.8173828125
12.8173828125
22.88818359375
25.634765625
27.4658203125
30.21240234375
27.4658203125
27.4658203125
36.62109375
32.04345703125
30.21240234375
25.634765625
25.634765625
28.38134765625
32.04345703125
41.19873046875
45.7763671875
47.607421875
44.86083984375
44.86083984375
38.4521484375
45.7763671875
59.50927734375
56.7626953125
54.01611328125
65.00244140625
67.7490234375
62.255859375
65.00244140625
74.15771484375
67.7490234375
72.32666015625
74.15771484375
75.0732421875
80.56640625
90.63720703125
97.0458984375
94.29931640625
97.0458984375
96.13037109375
92.46826171875
103.45458984375
119.93408203125
122.6806640625
119.93408203125
124.51171875
130.0048828125
138.24462890625
148.3154296875
160.21728515625
147.39990234375
153.80859375
170.2880859375
173.9501953125
181.2744140625
190.4296875
187.68310546875
186.767578125
199.5849609375
210.5712890625
202.33154296875
201.416015625
216.97998046875
233.45947265625
239.8681640625
248.10791015625
257.26318359375
260.009765625
260.92529296875
261.8408203125
257.26318359375
262.75634765625
263.671875
284.72900390625
284.72900390625
294.7998046875
294.7998046875
291.1376953125
299.37744140625
303.03955078125
288.39111328125
289.306640625
292.96875
288.39111328125
273.74267578125
277.40478515625
266.41845703125
254.5166015625
240.78369140625
231.62841796875
208.740234375
189.51416015625
184.02099609375
171.20361328125
148.3154296875
148.3154296875
132.75146484375
108.94775390625
95.21484375
86.0595703125
68.66455078125
48.52294921875
36.62109375
45.7763671875
31.1279296875
27.4658203125
26.55029296875
21.97265625
14.6484375
1.8310546875
-6.40869140625
-13.73291015625
-16.4794921875
-20.1416015625
-10.986328125
-14.6484375
-12.8173828125
-11.90185546875
-21.97265625
-28.38134765625
-36.62109375
-42.1142578125
-33.87451171875
-24.71923828125
-28.38134765625
-29.296875
-33.87451171875
-37.53662109375
-37.53662109375
-30.21240234375
-41.19873046875
-45.7763671875
-43.9453125
-38.4521484375
-32.958984375
-31.1279296875
-30.21240234375
-35.70556640625
-41.19873046875
-36.62109375
-33.87451171875
-44.86083984375
-42.1142578125
-41.19873046875
-32.958984375
-29.296875
-34.7900390625
-34.7900390625
-32.04345703125
-48.52294921875
-43.9453125
-35.70556640625
-31.1279296875
-29.296875
-34.7900390625
-24.71923828125
-36.62109375
-45.7763671875
-35.70556640625
-27.4658203125
-33.87451171875
-32.04345703125
-28.38134765625
-24.71923828125
-25.634765625
-28.38134765625
-21.97265625
-29.296875
-21.05712890625
-28.38134765625
-25.634765625
-29.296875
-32.04345703125
-22.88818359375
-23.8037109375
-15.56396484375
-17.39501953125
-17.39501953125
-23.8037109375
-18.310546875
-24.71923828125
-23.8037109375
-16.4794921875
-16.4794921875
-12.8173828125
-12.8173828125
-14.6484375
-21.97265625
-20.1416015625
-11.90185546875
-21.05712890625
-33.87451171875
-34.7900390625
-23.8037109375
-21.05712890625
-16.4794921875
-14.6484375
-13.73291015625
-25.634765625
-13.73291015625
-14.6484375
-32.04345703125
-21.05712890625
-22.88818359375
-21.97265625
-17.39501953125
-13.73291015625
-20.1416015625
-16.4794921875
-18.310546875
-30.21240234375
-31.1279296875
-25.634765625
-19.22607421875
-26.55029296875
-31.1279296875
-26.55029296875
-21.97265625
-22.88818359375
-21.97265625
-31.1279296875
-32.958984375
-34.7900390625
-28.38134765625
-32.958984375
-32.04345703125
-30.21240234375
-33.87451171875
-35.70556640625
-34.7900390625
-33.87451171875
-45.7763671875
-42.1142578125
-38.4521484375
-36.62109375
-34.7900390625
-24.71923828125
-32.04345703125
-31.1279296875
-35.70556640625
-35.70556640625
-46.69189453125
-43.02978515625
-35.70556640625
-46.69189453125
-40.283203125
-43.02978515625
-32.04345703125
-35.70556640625
-45.7763671875
-45.7763671875
-47.607421875
-38.4521484375
-34.7900390625
-34.7900390625
-36.62109375
-40.283203125
-39.36767578125
-44.86083984375
-43.02978515625
-48.52294921875
-51.26953125
-47.607421875
-33.87451171875
-39.36767578125
-38.4521484375
-39.36767578125
-40.283203125
-48.52294921875
-43.9453125
-43.9453125
-51.26953125
-55.84716796875
-52.18505859375
-51.26953125
-41.19873046875
-47.607421875
-43.9453125
-45.7763671875
-32.958984375
-38.4521484375
-38.4521484375
-40.283203125
-49.4384765625
-43.9453125
-35.70556640625
-43.02978515625
-54.01611328125
-41.19873046875
-39.36767578125
-47.607421875
-56.7626953125
-54.931640625
-47.607421875
-49.4384765625
-38.4521484375
-39.36767578125
-43.9453125
-33.87451171875
-34.7900390625
-54.01611328125
-54.931640625
-46.69189453125
-36.62109375
-46.69189453125
-44.86083984375
-43.9453125
-42.1142578125
-48.52294921875
-50.35400390625
-51.26953125
-55.84716796875
-50.35400390625
-44.86083984375
-44.86083984375
-49.4384765625
-40.283203125
-46.69189453125
-49.4384765625
-51.26953125
-52.18505859375
-54.931640625
-49.4384765625
-44.86083984375
-41.19873046875
-39.36767578125
-42.1142578125
-43.02978515625
-43.9453125
-40.283203125
-43.9453125
-56.7626953125
-60.4248046875
-61.34033203125
-56.7626953125
-59.50927734375
-52.18505859375
-57.67822265625
-59.50927734375
-61.34033203125
-70.49560546875
-78.7353515625
-71.4111328125
-72.32666015625
-68.66455078125
-60.4248046875
-50.35400390625
-43.02978515625
-49.4384765625
-43.02978515625
-41.19873046875
-45.7763671875
-41.19873046875
-40.283203125
-44.86083984375
-34.7900390625
-32.04345703125
-34.7900390625
-41.19873046875
-51.26953125
-55.84716796875
-44.86083984375
-42.1142578125
-29.296875
-24.71923828125
-28.38134765625
-32.958984375
-39.36767578125
-47.607421875
-40.283203125
-43.02978515625
-56.7626953125
-59.50927734375
-54.931640625
-51.26953125
-46.69189453125
-56.7626953125
-57.67822265625
-54.931640625
-46.69189453125
-63.17138671875
-68.66455078125
-63.17138671875
-56.7626953125
-61.34033203125
-54.931640625
-51.26953125
-54.01611328125
-60.4248046875
-54.01611328125
-53.1005859375
-61.34033203125
-57.67822265625
-45.7763671875
-44.86083984375
-50.35400390625
-49.4384765625
-57.67822265625
-57.67822265625
-52.18505859375
-54.931640625
-56.7626953125
-54.01611328125
-54.931640625
-60.4248046875
-56.7626953125
-51.26953125
-45.7763671875
-42.1142578125
-25.634765625
-33.87451171875
-40.283203125
-3.662109375
68.66455078125
150.146484375
240.78369140625
336.9140625
432.12890625
530.09033203125
603.33251953125
693.05419921875
791.015625
861.51123046875
953.06396484375
1004.33349609375
992.431640625
878.90625
694.88525390625
524.59716796875
383.60595703125
259.09423828125
157.470703125
97.96142578125
51.26953125
41.19873046875
39.36767578125
43.9453125
55.84716796875
75.0732421875
74.15771484375
56.7626953125
48.52294921875
39.36767578125
35.70556640625
29.296875
29.296875
32.04345703125
20.1416015625
8.23974609375
9.1552734375
15.56396484375
8.23974609375
5.4931640625
2.74658203125
0
7.32421875
13.73291015625
13.73291015625
10.07080078125
8.23974609375
9.1552734375
-2.74658203125
-6.40869140625
6.40869140625
3.662109375
4.57763671875
13.73291015625
15.56396484375
11.90185546875
11.90185546875
11.90185546875
1.8310546875
10.07080078125
16.4794921875
26.55029296875
18.310546875
20.1416015625
18.310546875
20.1416015625
22.88818359375
24.71923828125
19.22607421875
20.1416015625
17.39501953125
22.88818359375
32.04345703125
35.70556640625
32.04345703125
28.38134765625
32.958984375
31.1279296875
32.958984375
29.296875
29.296875
36.62109375
36.62109375
37.53662109375
42.1142578125
43.02978515625
49.4384765625
57.67822265625
43.9453125
51.26953125
47.607421875
53.1005859375
54.01611328125
56.7626953125
67.7490234375
65.91796875
71.4111328125
65.91796875
65.91796875
79.65087890625
75.0732421875
77.81982421875
82.3974609375
78.7353515625
83.31298828125
95.21484375
92.46826171875
88.80615234375
92.46826171875
99.79248046875
112.60986328125
121.76513671875
130.0048828125
131.8359375
128.173828125
131.8359375
140.07568359375
139.16015625
140.07568359375
148.3154296875
157.470703125
170.2880859375
175.78125
180.35888671875
181.2744140625
180.35888671875
192.2607421875
199.5849609375
201.416015625
205.078125
216.064453125
222.47314453125
223.388671875
232.5439453125
239.8681640625
238.037109375
242.61474609375
250.8544921875
246.27685546875
246.27685546875
256.34765625
272.8271484375
280.1513671875
292.05322265625
288.39111328125
293.88427734375
297.54638671875
303.03955078125
293.88427734375
298.4619140625
301.20849609375
298.4619140625
295.71533203125
296.630859375
281.06689453125
268.24951171875
264.58740234375
250.8544921875
229.79736328125
224.30419921875
210.5712890625
203.2470703125
191.34521484375
181.2744140625
164.794921875
140.07568359375
126.3427734375
108.94775390625
92.46826171875
86.0595703125
79.65087890625
59.50927734375
49.4384765625
43.02978515625
34.7900390625
27.4658203125
23.8037109375
14.6484375
-2.74658203125
-3.662109375
-4.57763671875
-12.8173828125
-12.8173828125
-9.1552734375
-14.6484375
-18.310546875
-20.1416015625
-26.55029296875
-32.958984375
-36.62109375
-40.283203125
-35.70556640625
-27.4658203125
-22.88818359375
-28.38134765625
-41.19873046875
-42.1142578125
-36.62109375
-42.1142578125
-42.1142578125
-36.62109375
-37.53662109375
-37.53662109375
-32.04345703125
-37.53662109375
-37.53662109375
-32.04345703125
-42.1142578125
-46.69189453125
-45.7763671875
-47.607421875
-43.02978515625
-33.87451171875
-30.21240234375
-27.4658203125
-32.04345703125
-41.19873046875
-46.69189453125
-51.26953125
-42.1142578125
-33.87451171875
-29.296875
-28.38134765625
-25.634765625
-28.38134765625
-32.04345703125
-31.1279296875
-32.04345703125
-42.1142578125
-40.283203125
-31.1279296875
-32.958984375
-32.04345703125
-17.39501953125
-21.97265625
-32.04345703125
-38.4521484375
-34.7900390625
-38.4521484375
-34.7900390625
-33.87451171875
-31.1279296875
-33.87451171875
-23.8037109375
-29.296875
-31.1279296875
-31.1279296875
-43.9453125
-46.69189453125
-41.19873046875
-32.04345703125
-22.88818359375
-21.97265625
-17.39501953125
-24.71923828125
-32.04345703125
-25.634765625
-25.634765625
-34.7900390625
-38.4521484375
-28.38134765625
-24.71923828125
-26.55029296875
-21.97265625
-26.55029296875
-35.70556640625
-37.53662109375
-35.70556640625
-41.19873046875
-38.4521484375
-33.87451171875
-26.55029296875
-23.8037109375
-25.634765625
-33.87451171875
-41.19873046875
-34.7900390625
-30.21240234375
-43.9453125
-39.36767578125
-32.04345703125
-33.87451171875
-32.04345703125
-28.38134765625
-35.70556640625
-32.958984375
-36.62109375
-38.4521484375
-47.607421875
-49.4384765625
-42.1142578125
-30.21240234375
-44.86083984375
-41.19873046875
-36.62109375
-45.7763671875
-42.1142578125
-42.1142578125
-53.1005859375
-54.931640625
-46.69189453125
-38.4521484375
-43.02978515625
-46.69189453125
-44.86083984375
-58.59375
-55.84716796875
-55.84716796875
-61.34033203125
-62.255859375
-49.4384765625
-51.26953125
-52.18505859375
-46.69189453125
-55.84716796875
-62.255859375
-63.17138671875
-63.17138671875
-69.580078125
-62.255859375
-61.34033203125
-68.66455078125
-56.7626953125
-59.50927734375
-60.4248046875
-61.34033203125
-65.91796875
-76.904296875
-80.56640625
-76.904296875
-74.15771484375
-71.4111328125
-62.255859375
-54.931640625
-65.00244140625
-76.904296875
-74.15771484375
-71.4111328125
-78.7353515625
-76.904296875
-74.15771484375
-70.49560546875
-79.65087890625
-65.91796875
-68.66455078125
-67.7490234375
-64.0869140625
-63.17138671875
-84.228515625
-77.81982421875
-72.32666015625
-73.2421875
-77.81982421875
-61.34033203125
-55.84716796875
-64.0869140625
-68.66455078125
-70.49560546875
-84.228515625
-75.98876953125
-75.0732421875
-68.66455078125
-75.0732421875
-67.7490234375
-69.580078125
-76.904296875
-71.4111328125
-75.98876953125
-83.31298828125
-81.48193359375
-77.81982421875
-75.0732421875
-65.91796875
-61.34033203125
-65.91796875
-68.66455078125
-72.32666015625
-66.83349609375
-68.66455078125
-76.904296875
-82.3974609375
-79.65087890625
-81.48193359375
-69.580078125
-65.91796875
-71.4111328125
-66.83349609375
-72.32666015625
-79.65087890625
-78.7353515625
-72.32666015625
-68.66455078125
-64.0869140625
-62.255859375
-63.17138671875
-84.228515625
-74.15771484375
-67.7490234375
-77.81982421875
-73.2421875
-66.83349609375
-71.4111328125
-55.84716796875
-66.83349609375
-80.56640625
-84.228515625
-77.81982421875
-86.0595703125
-95.21484375
-93.3837890625
-94.29931640625
-93.3837890625
-95.21484375
-87.890625
-93.3837890625
-96.13037109375
-94.29931640625
-86.0595703125
-85.14404296875
-76.904296875
-83.31298828125
-72.32666015625
-68.66455078125
-62.255859375
-58.59375
-63.17138671875
-60.4248046875
-54.01611328125
-67.7490234375
-78.7353515625
-81.48193359375
-70.49560546875
-63.17138671875
-58.59375
-65.00244140625
-68.66455078125
-70.49560546875
-72.32666015625
-76.904296875
-77.81982421875
-69.580078125
-72.32666015625
-72.32666015625
-75.98876953125
-83.31298828125
-95.21484375
-101.62353515625
-92.46826171875
-86.97509765625
-93.3837890625
-95.21484375
-94.29931640625
-91.552734375
-82.3974609375
-89.7216796875
-88.80615234375
-86.97509765625
-86.0595703125
-96.13037109375
-99.79248046875
-94.29931640625
-78.7353515625
-91.552734375
-87.890625
-79.65087890625
-84.228515625
-92.46826171875
-97.0458984375
-95.21484375
-89.7216796875
-84.228515625
-89.7216796875
-85.14404296875
-85.14404296875
-88.80615234375
-95.21484375
-90.63720703125
-90.63720703125
-96.13037109375
-92.46826171875
-77.81982421875
-72.32666015625
-65.00244140625
-21.05712890625
58.59375
137.3291015625
232.5439453125
328.67431640625
418.39599609375
501.708984375
583.19091796875
690.3076171875
775.45166015625
867.00439453125
942.9931640625
975.9521484375
935.6689453125
805.6640625
617.98095703125
453.18603515625
315.85693359375
212.40234375
125.42724609375
71.4111328125
21.05712890625
4.57763671875
10.986328125
10.986328125
4.57763671875
8.23974609375
13.73291015625
16.4794921875
14.6484375
13.73291015625
4.57763671875
-8.23974609375
-19.22607421875
-18.310546875
-29.296875
-38.4521484375
-32.04345703125
-24.71923828125
-24.71923828125
-27.4658203125
-34.7900390625
-32.958984375
-37.53662109375
-41.19873046875
-45.7763671875
-49.4384765625
-38.4521484375
-37.53662109375
-48.52294921875
-41.19873046875
-34.7900390625
-39.36767578125
-35.70556640625
-28.38134765625
-36.62109375
-43.02978515625
-32.958984375
-32.04345703125
-30.21240234375
-25.634765625
-32.958984375
-32.04345703125
-30.21240234375
-35.70556640625
-41.19873046875
-44.86083984375
-32.958984375
-28.38134765625
-24.71923828125
-19.22607421875
-21.05712890625
-29.296875
-28.38134765625
-14.6484375
-18.310546875
-23.8037109375
-20.1416015625
-16.4794921875
-14.6484375
-5.4931640625
-10.986328125
-15.56396484375
-15.56396484375
-15.56396484375
-23.8037109375
-23.8037109375
-17.39501953125
-10.986328125
-4.57763671875
-3.662109375
3.662109375
-0.91552734375
18.310546875
20.1416015625
3.662109375
1.8310546875
16.4794921875
19.22607421875
15.56396484375
24.71923828125
25.634765625
27.4658203125
31.1279296875
26.55029296875
20.1416015625
32.958984375
39.36767578125
43.9453125
51.26953125
44.86083984375
45.7763671875
56.7626953125
60.4248046875
70.49560546875
67.7490234375
72.32666015625
81.48193359375
83.31298828125
84.228515625
84.228515625
92.46826171875
106.201171875
121.76513671875
123.59619140625
111.6943359375
113.525390625
128.173828125
140.9912109375
142.822265625
152.89306640625
159.3017578125
163.87939453125
173.03466796875
177.6123046875
174.86572265625
178.52783203125
192.2607421875
188.5986328125
199.5849609375
211.48681640625
216.97998046875
216.064453125
225.2197265625
223.388671875
217.8955078125
217.8955078125
229.79736328125
233.45947265625
238.037109375
238.95263671875
246.27685546875
235.29052734375
227.96630859375
226.13525390625
220.64208984375
204.16259765625
195.00732421875
183.10546875
173.03466796875
164.794921875
168.45703125
149.23095703125
127.25830078125
107.11669921875
88.80615234375
82.3974609375
70.49560546875
57.67822265625
43.9453125
32.958984375
25.634765625
5.4931640625
-2.74658203125
-10.986328125
-25.634765625
-41.19873046875
-41.19873046875
-45.7763671875
-46.69189453125
-50.35400390625
-57.67822265625
-64.0869140625
-66.83349609375
-74.15771484375
-79.65087890625
-93.3837890625
-89.7216796875
-79.65087890625
-81.48193359375
-77.81982421875
-83.31298828125
-83.31298828125
-82.3974609375
-86.0595703125
-83.31298828125
-85.14404296875
-85.14404296875
-91.552734375
-97.0458984375
-88.80615234375
-88.80615234375
-92.46826171875
-89.7216796875
-94.29931640625
-98.876953125
-97.0458984375
-102.5390625
-102.5390625
-98.876953125
-90.63720703125
-87.890625
-96.13037109375
-94.29931640625
-92.46826171875
-102.5390625
-102.5390625
-94.29931640625
-90.63720703125
-99.79248046875
-93.3837890625
-92.46826171875
-85.14404296875
-86.97509765625
-86.0595703125
-92.46826171875
-99.79248046875
-94.29931640625
-86.97509765625
-89.7216796875
-86.97509765625
-86.0595703125
-85.14404296875
-89.7216796875
-87.890625
-93.3837890625
-100.7080078125
-96.13037109375
-89.7216796875
-86.0595703125
-76.904296875
-68.66455078125
-81.48193359375
-86.0595703125
-87.890625
-89.7216796875
-93.3837890625
-83.31298828125
-75.98876953125
-79.65087890625
-69.580078125
-70.49560546875
-80.56640625
-85.14404296875
-88.80615234375
-92.46826171875
-92.46826171875
-86.97509765625
-80.56640625
-80.56640625
-80.56640625
-80.56640625
-83.31298828125
-79.65087890625
-83.31298828125
-82.3974609375
-85.14404296875
-87.890625
-80.56640625
-76.904296875
-70.49560546875
-84.228515625
-93.3837890625
-91.552734375
-84.228515625
-83.31298828125
-93.3837890625
-92.46826171875
-83.31298828125
-81.48193359375
-87.890625
-81.48193359375
-79.65087890625
-81.48193359375
-86.97509765625
-96.13037109375
-94.29931640625
-90.63720703125
-90.63720703125
-96.13037109375
-87.890625
-95.21484375
-93.3837890625
-93.3837890625
-93.3837890625
-93.3837890625
-101.62353515625
-103.45458984375
-95.21484375
-98.876953125
-94.29931640625
-95.21484375
-98.876953125
-101.62353515625
-104.3701171875
-96.13037109375
-103.45458984375
-100.7080078125
-98.876953125
-100.7080078125
-93.3837890625
-102.5390625
-113.525390625
-104.3701171875
-99.79248046875
-103.45458984375
-107.11669921875
-109.86328125
-111.6943359375
-108.0322265625
-98.876953125
-91.552734375
-99.79248046875
-103.45458984375
-109.86328125
-114.44091796875
-117.1875
-107.11669921875
-108.94775390625
-111.6943359375
-97.96142578125
-97.96142578125
-108.94775390625
-106.201171875
-101.62353515625
-105.28564453125
-101.62353515625
-102.5390625
-105.28564453125
-105.28564453125
-109.86328125
-115.3564453125
-121.76513671875
-122.6806640625
-117.1875
-122.6806640625
-129.08935546875
-123.59619140625
-118.10302734375
-121.76513671875
-121.76513671875
-122.6806640625
-130.0048828125
-129.08935546875
-119.93408203125
-125.42724609375
-128.173828125
-113.525390625
-97.96142578125
-95.21484375
-95.21484375
-95.21484375
-94.29931640625
-94.29931640625
-90.63720703125
-97.0458984375
-113.525390625
-114.44091796875
-108.94775390625
-97.96142578125
-91.552734375
-91.552734375
-97.0458984375
-96.13037109375
-99.79248046875
-106.201171875
-111.6943359375
-103.45458984375
-99.79248046875
-111.6943359375
-118.10302734375
-109.86328125
-117.1875
-128.173828125
-110.77880859375
-119.93408203125
-124.51171875
-125.42724609375
-119.0185546875
-116.27197265625
-112.60986328125
-113.525390625
-118.10302734375
-115.3564453125
-116.27197265625
-120.849609375
-130.92041015625
-128.173828125
-123.59619140625
-121.76513671875
-117.1875
-109.86328125
-116.27197265625
-115.3564453125
-115.3564453125
-117.1875
-117.1875
-120.849609375
-123.59619140625
-119.0185546875
-112.60986328125
-111.6943359375
-114.44091796875
-130.92041015625
-123.59619140625
-128.173828125
-121.76513671875
-108.0322265625
-102.5390625
-101.62353515625
-69.580078125
10.07080078125
87.890625
175.78125
277.40478515625
373.53515625
457.763671875
551.1474609375
651.85546875
739.74609375
820.3125
922.8515625
962.21923828125
904.541015625
771.78955078125
591.4306640625
411.07177734375
273.74267578125
181.2744140625
116.27197265625
39.36767578125
-7.32421875
-26.55029296875
-31.1279296875
-24.71923828125
-14.6484375
-15.56396484375
-15.56396484375
-4.57763671875
-12.8173828125
-23.8037109375
-33.87451171875
-45.7763671875
-42.1142578125
-43.9453125
-54.931640625
-59.50927734375
-59.50927734375
-63.17138671875
-66.83349609375
-65.91796875
-60.4248046875
-66.83349609375
-69.580078125
-73.2421875
-69.580078125
-73.2421875
-67.7490234375
-65.00244140625
-66.83349609375
-69.580078125
-61.34033203125
-66.83349609375
-60.4248046875
-55.84716796875
-58.59375
-70.49560546875
-67.7490234375
-57.67822265625
-57.67822265625
-59.50927734375
-58.59375
-53.1005859375
-59.50927734375
-60.4248046875
-63.17138671875
-69.580078125
-60.4248046875
-52.18505859375
-49.4384765625
-44.86083984375
-49.4384765625
-40.283203125
-34.7900390625
-34.7900390625
-34.7900390625
-39.36767578125
-35.70556640625
-27.4658203125
-23.8037109375
-30.21240234375
-29.296875
-35.70556640625
-37.53662109375
-30.21240234375
-19.22607421875
-29.296875
-26.55029296875
-14.6484375
-11.90185546875
-11.90185546875
-10.986328125
-8.23974609375
-7.32421875
-7.32421875
-3.662109375
-3.662109375
-1.8310546875
-3.662109375
-0.91552734375
4.57763671875
20.1416015625
21.05712890625
23.8037109375
19.22607421875
22.88818359375
19.22607421875
31.1279296875
36.62109375
43.9453125
44.86083984375
43.02978515625
45.7763671875
54.01611328125
57.67822265625
71.4111328125
64.0869140625
72.32666015625
87.890625
86.97509765625
97.96142578125
119.93408203125
109.86328125
108.0322265625
116.27197265625
115.3564453125
115.3564453125
125.42724609375
150.146484375
150.146484375
157.470703125
165.71044921875
172.119140625
182.18994140625
180.35888671875
185.85205078125
184.9365234375
191.34521484375
200.50048828125
202.33154296875
214.2333984375
218.81103515625
218.81103515625
224.30419921875
222.47314453125
229.79736328125
231.62841796875
232.5439453125
233.45947265625
243.5302734375
248.10791015625
242.61474609375
233.45947265625
234.375
226.13525390625
207.82470703125
194.091796875
185.85205078125
177.6123046875
162.9638671875
153.80859375
138.24462890625
122.6806640625
102.5390625
92.46826171875
67.7490234375
46.69189453125
41.19873046875
32.958984375
18.310546875
11.90185546875
11.90185546875
-8.23974609375
-22.88818359375
-26.55029296875
-43.02978515625
-51.26953125
-50.35400390625
-57.67822265625
-57.67822265625
-65.91796875
-68.66455078125
-80.56640625
-80.56640625
-73.2421875
-80.56640625
-87.890625
-93.3837890625
-90.63720703125
-83.31298828125
-85.14404296875
-84.228515625
-92.46826171875
-97.0458984375
-94.29931640625
-92.46826171875
-108.0322265625
-106.201171875
-92.46826171875
-89.7216796875
-94.29931640625
-87.890625
-84.228515625
-92.46826171875
-96.13037109375
-90.63720703125
-102.5390625
-102.5390625
-90.63720703125
-98.876953125
-93.3837890625
-83.31298828125
-90.63720703125
-95.21484375
-91.552734375
-98.876953125
-108.94775390625
-105.28564453125
-95.21484375
-92.46826171875
-96.13037109375
-97.96142578125
-91.552734375
-105.28564453125
-98.876953125
-97.96142578125
-116.27197265625
-98.876953125
-86.0595703125
-91.552734375
-89.7216796875
-93.3837890625
-94.29931640625
-86.97509765625
-84.228515625
-91.552734375
-100.7080078125
-88.80615234375
-80.56640625
-89.7216796875
-88.80615234375
-86.97509765625
-84.228515625
-87.890625
-84.228515625
-83.31298828125
-95.21484375
-89.7216796875
-88.80615234375
-77.81982421875
-77.81982421875
-80.56640625
-75.0732421875
-84.228515625
-86.0595703125
-82.3974609375
-88.80615234375
-97.96142578125
-89.7216796875
-76.904296875
-76.904296875
-71.4111328125
-70.49560546875
-80.56640625
-86.97509765625
-101.62353515625
-102.5390625
-92.46826171875
-74.15771484375
-76.904296875
-83.31298828125
-84.228515625
-80.56640625
-87.890625
-83.31298828125
-91.552734375
-93.3837890625
-87.890625
-81.48193359375
-82.3974609375
-81.48193359375
-81.48193359375
-86.0595703125
-93.3837890625
-95.21484375
-100.7080078125
-95.21484375
-95.21484375
-97.96142578125
-100.7080078125
-100.7080078125
-84.228515625
-97.0458984375
-100.7080078125
-101.62353515625
-97.0458984375
-107.11669921875
-105.28564453125
-105.28564453125
-109.86328125
-98.876953125
-97.0458984375
-104.3701171875
-108.94775390625
-107.11669921875
-107.11669921875
-113.525390625
-103.45458984375
-106.201171875
-112.60986328125
-103.45458984375
-95.21484375
-106.201171875
-109.86328125
-102.5390625
-104.3701171875
-111.6943359375
-107.11669921875
-101.62353515625
-104.3701171875
-108.94775390625
-108.94775390625
-112.60986328125
-119.93408203125
-119.0185546875
-117.1875
-113.525390625
-114.44091796875
-111.6943359375
-104.3701171875
-99.79248046875
-104.3701171875
-103.45458984375
-108.94775390625
-105.28564453125
-104.3701171875
-106.201171875
-115.3564453125
-112.60986328125
-108.0322265625
-104.3701171875
-93.3837890625
-97.96142578125
-105.28564453125
-95.21484375
-102.5390625
-109.86328125
-108.0322265625
-100.7080078125
-97.96142578125
-107.11669921875
-103.45458984375
-105.28564453125
-112.60986328125
-107.11669921875
-97.96142578125
-106.201171875
-101.62353515625
-94.29931640625
-91.552734375
-97.96142578125
-97.0458984375
-91.552734375
-96.13037109375
-97.0458984375
-102.5390625
-100.7080078125
-97.0458984375
-98.876953125
-97.96142578125
-90.63720703125
-90.63720703125
-95.21484375
-98.876953125
-91.552734375
-94.29931640625
-97.0458984375
-97.0458984375
-88.80615234375
-88.80615234375
-89.7216796875
-82.3974609375
-82.3974609375
-89.7216796875
-83.31298828125
-90.63720703125
-94.29931640625
-80.56640625
-72.32666015625
-83.31298828125
-86.97509765625
-88.80615234375
-91.552734375
-92.46826171875
-97.0458984375
-105.28564453125
-103.45458984375
-99.79248046875
-96.13037109375
-103.45458984375
-107.11669921875
-98.876953125
-98.876953125
-109.86328125
-104.3701171875
-95.21484375
-89.7216796875
-84.228515625
-85.14404296875
-75.98876953125
-72.32666015625
-75.0732421875
-78.7353515625
-83.31298828125
-72.32666015625
-76.904296875
-91.552734375
-86.97509765625
-91.552734375
-98.876953125
-87.890625
-75.0732421875
-75.0732421875
-73.2421875
-75.98876953125
-77.81982421875
-87.890625
-92.46826171875
-89.7216796875
-93.3837890625
-94.29931640625
-92.46826171875
-89.7216796875
-99.79248046875
-97.0458984375
-96.13037109375
-101.62353515625
-104.3701171875
-99.79248046875
-100.7080078125
-100.7080078125
-89.7216796875
-97.0458984375
-112.60986328125
-117.1875
-113.525390625
-117.1875
-102.5390625
-95.21484375
-92.46826171875
-88.80615234375
-90.63720703125
-95.21484375
-99.79248046875
-103.45458984375
-95.21484375
-98.876953125
-88.80615234375
-93.3837890625
-92.46826171875
-88.80615234375
-88.80615234375
-92.46826171875
-95.21484375
-98.876953125
-93.3837890625
-97.0458984375
-89.7216796875
-75.0732421875
-75.0732421875
-69.580078125
-32.958984375
25.634765625
107.11669921875
190.4296875
299.37744140625
391.845703125
469.66552734375
548.40087890625
642.7001953125
751.64794921875
830.38330078125
913.6962890625
958.55712890625
953.9794921875
854.18701171875
677.490234375
492.5537109375
339.66064453125
215.14892578125
137.3291015625
86.0595703125
18.310546875
-4.57763671875
3.662109375
24.71923828125
10.07080078125
21.97265625
23.8037109375
27.4658203125
10.07080078125
4.57763671875
-1.8310546875
-15.56396484375
-9.1552734375
-15.56396484375
-27.4658203125
-26.55029296875
-24.71923828125
-31.1279296875
-32.04345703125
-25.634765625
-34.7900390625
-36.62109375
-27.4658203125
-32.958984375
-40.283203125
-41.19873046875
-32.958984375
-33.87451171875
-36.62109375
-26.55029296875
-30.21240234375
-31.1279296875
-33.87451171875
-33.87451171875
-43.9453125
-39.36767578125
-36.62109375
-24.71923828125
-23.8037109375
-21.97265625
-24.71923828125
-25.634765625
-21.97265625
-15.56396484375
-25.634765625
-21.05712890625
-16.4794921875
-19.22607421875
-20.1416015625
-15.56396484375
-11.90185546875
-12.8173828125
-10.986328125
-9.1552734375
-12.8173828125
-14.6484375
-9.1552734375
-13.73291015625
-12.8173828125
-1.8310546875
-3.662109375
1.8310546875
7.32421875
4.57763671875
3.662109375
-3.662109375
1.8310546875
13.73291015625
9.1552734375
21.97265625
20.1416015625
13.73291015625
11.90185546875
12.8173828125
18.310546875
17.39501953125
21.05712890625
36.62109375
39.36767578125
45.7763671875
50.35400390625
40.283203125
47.607421875
50.35400390625
40.283203125
55.84716796875
64.0869140625
61.34033203125
65.91796875
70.49560546875
75.98876953125
69.580078125
75.0732421875
79.65087890625
75.98876953125
87.890625
99.79248046875
97.0458984375
104.3701171875
116.27197265625
121.76513671875
124.51171875
120.849609375
128.173828125
128.173828125
141.90673828125
154.72412109375
163.87939453125
170.2880859375
170.2880859375
176.69677734375
184.9365234375
190.4296875
192.2607421875
194.091796875
204.16259765625
204.16259765625
215.14892578125
227.05078125
245.361328125
239.8681640625
244.44580078125
243.5302734375
247.1923828125
249.93896484375
246.27685546875
249.93896484375
262.75634765625
267.333984375
275.57373046875
266.41845703125
267.333984375
268.24951171875
251.77001953125
249.0234375
241.69921875
231.62841796875
212.40234375
210.5712890625
210.5712890625
182.18994140625
166.6259765625
155.6396484375
148.3154296875
123.59619140625
103.45458984375
94.29931640625
84.228515625
71.4111328125
62.255859375
51.26953125
31.1279296875
17.39501953125
10.986328125
-3.662109375
-10.07080078125
-21.05712890625
-27.4658203125
-38.4521484375
-26.55029296875
-26.55029296875
-39.36767578125
-40.283203125
-43.02978515625
-53.1005859375
-58.59375
-50.35400390625
-45.7763671875
-54.931640625
-57.67822265625
-54.01611328125
-59.50927734375
-66.83349609375
-66.83349609375
-68.66455078125
-68.66455078125
-67.7490234375
-60.4248046875
-61.34033203125
-61.34033203125
-63.17138671875
-74.15771484375
-67.7490234375
-75.0732421875
-75.98876953125
-72.32666015625
-77.81982421875
-63.17138671875
-60.4248046875
-66.83349609375
-56.7626953125
-62.255859375
-72.32666015625
-68.66455078125
-73.2421875
-72.32666015625
-72.32666015625
-78.7353515625
-65.00244140625
-65.91796875
-54.931640625
-62.255859375
-66.83349609375
-64.0869140625
-62.255859375
-67.7490234375
-62.255859375
-60.4248046875
-67.7490234375
-56.7626953125
-64.0869140625
-71.4111328125
-68.66455078125
-64.0869140625
-74.15771484375
-73.2421875
-74.15771484375
-69.580078125
-65.00244140625
-65.00244140625
-57.67822265625
-61.34033203125
-65.00244140625
-59.50927734375
-65.00244140625
-72.32666015625
-62.255859375
-59.50927734375
-66.83349609375
-54.01611328125
-55.84716796875
-64.0869140625
-54.931640625
-54.01611328125
-64.0869140625
-70.49560546875
-65.00244140625
-58.59375
-63.17138671875
-57.67822265625
-53.1005859375
-65.91796875
-66.83349609375
-64.0869140625
-67.7490234375
-63.17138671875
-60.4248046875
-60.4248046875
-59.50927734375
-50.35400390625
-50.35400390625
-58.59375
-61.34033203125
-56.7626953125
-60.4248046875
-59.50927734375
-56.7626953125
-65.91796875
-57.67822265625
-54.931640625
-50.35400390625
-48.52294921875
-60.4248046875
-53.1005859375
-61.34033203125
-72.32666015625
-59.50927734375
-63.17138671875
-68.66455078125
-69.580078125
-69.580078125
-62.255859375
-65.00244140625
-68.66455078125
-75.0732421875
-72.32666015625
-72.32666015625
-70.49560546875
-59.50927734375
-70.49560546875
-72.32666015625
-70.49560546875
-70.49560546875
-74.15771484375
-62.255859375
-68.66455078125
-72.32666015625
-80.56640625
-80.56640625
-71.4111328125
-71.4111328125
-79.65087890625
-82.3974609375
-82.3974609375
-83.31298828125
-85.14404296875
-82.3974609375
-77.81982421875
-71.4111328125
-75.98876953125
-70.49560546875
-82.3974609375
-83.31298828125
-81.48193359375
-84.228515625
-86.0595703125
-76.904296875
-73.2421875
-75.98876953125
-75.98876953125
-72.32666015625
-75.98876953125
-72.32666015625
-77.81982421875
-93.3837890625
-99.79248046875
-81.48193359375
-81.48193359375
-82.3974609375
-72.32666015625
-75.98876953125
-79.65087890625
-86.0595703125
-90.63720703125
-89.7216796875
-90.63720703125
-80.56640625
-74.15771484375
-85.14404296875
-76.904296875
-69.580078125
-72.32666015625
-81.48193359375
-84.228515625
-90.63720703125
-86.0595703125
-82.3974609375
-81.48193359375
-77.81982421875
-78.7353515625
-81.48193359375
-86.0595703125
-89.7216796875
-83.31298828125
-86.97509765625
-89.7216796875
-84.228515625
-83.31298828125
-82.3974609375
-83.31298828125
-79.65087890625
-80.56640625
-86.97509765625
-93.3837890625
-88.80615234375
-86.97509765625
-81.48193359375
-85.14404296875
-81.48193359375
-79.65087890625
-79.65087890625
-84.228515625
-87.890625
-68.66455078125
-75.0732421875
-85.14404296875
-79.65087890625
-83.31298828125
-80.56640625
-84.228515625
-92.46826171875
-90.63720703125
-97.0458984375
-86.97509765625
-90.63720703125
-97.96142578125
-97.0458984375
-89.7216796875
-95.21484375
-94.29931640625
-97.0458984375
-90.63720703125
-84.228515625
-76.904296875
-86.97509765625
-87.890625
-77.81982421875
-69.580078125
-72.32666015625
-65.91796875
-67.7490234375
-58.59375
-55.84716796875
-64.0869140625
-81.48193359375
-86.97509765625
-88.80615234375
-73.2421875
-65.91796875
-61.34033203125
-59.50927734375
-59.50927734375
-74.15771484375
-84.228515625
-89.7216796875
-94.29931640625
-80.56640625
-79.65087890625
-88.80615234375
-87.890625
-85.14404296875
-79.65087890625
-88.80615234375
-80.56640625
-86.0595703125
-92.46826171875
-90.63720703125
-90.63720703125
-89.7216796875
-86.0595703125
-82.3974609375
-84.228515625
-83.31298828125
-75.98876953125
-92.46826171875
-93.3837890625
-83.31298828125
-79.65087890625
-81.48193359375
-75.0732421875
-79.65087890625
-83.31298828125
-85.14404296875
-76.904296875
-85.14404296875
-84.228515625
-89.7216796875
-89.7216796875
-86.0595703125
-86.0595703125
-77.81982421875
-75.98876953125
-74.15771484375
-74.15771484375
-86.0595703125
-84.228515625
-69.580078125
-71.4111328125
-68.66455078125
-40.283203125
30.21240234375
108.94775390625
209.65576171875
305.7861328125
404.6630859375
497.13134765625
582.275390625
682.06787109375
771.78955078125
856.93359375
942.07763671875
998.84033203125
970.458984375
858.7646484375
683.89892578125
498.96240234375
347.900390625
238.95263671875
157.470703125
93.3837890625
43.02978515625
15.56396484375
17.39501953125
18.310546875
18.310546875
17.39501953125
27.4658203125
43.02978515625
40.283203125
26.55029296875
18.310546875
11.90185546875
-0.91552734375
-6.40869140625
-15.56396484375
-22.88818359375
-18.310546875
-12.8173828125
-15.56396484375
-21.97265625
-23.8037109375
-13.73291015625
-19.22607421875
-21.97265625
-27.4658203125
-29.296875
-29.296875
-23.8037109375
-24.71923828125
-21.97265625
-26.55029296875
-28.38134765625
-14.6484375
-11.90185546875
-17.39501953125
-25.634765625
-22.88818359375
-16.4794921875
-10.986328125
-7.32421875
-13.73291015625
-16.4794921875
-7.32421875
-6.40869140625
-11.90185546875
-12.8173828125
-8.23974609375
-10.07080078125
-6.40869140625
-1.8310546875
-0.91552734375
0.91552734375
-13.73291015625
-3.662109375
-4.57763671875
0
3.662109375
2.74658203125
5.4931640625
16.4794921875
16.4794921875
13.73291015625
12.8173828125
12.8173828125
8.23974609375
12.8173828125
14.6484375
21.05712890625
22.88818359375
33.87451171875
30.21240234375
25.634765625
31.1279296875
34.7900390625
32.958984375
38.4521484375
50.35400390625
50.35400390625
49.4384765625
52.18505859375
66.83349609375
63.17138671875
62.255859375
68.66455078125
68.66455078125
70.49560546875
69.580078125
71.4111328125
84.228515625
83.31298828125
91.552734375
89.7216796875
95.21484375
101.62353515625
98.876953125
103.45458984375
110.77880859375
118.10302734375
127.25830078125
136.41357421875
140.9912109375
141.90673828125
147.39990234375
150.146484375
147.39990234375
158.38623046875
173.9501953125
187.68310546875
189.51416015625
187.68310546875
197.75390625
194.091796875
208.740234375
210.5712890625
209.65576171875
216.064453125
216.97998046875
235.29052734375
243.5302734375
246.27685546875
262.75634765625
263.671875
262.75634765625
270.99609375
263.671875
260.009765625
265.5029296875
283.8134765625
290.22216796875
297.54638671875
294.7998046875
291.1376953125
284.72900390625
275.57373046875
268.24951171875
249.0234375
243.5302734375
239.8681640625
229.79736328125
218.81103515625
206.9091796875
190.4296875
174.86572265625
151.9775390625
128.173828125
120.849609375
107.11669921875
102.5390625
86.97509765625
78.7353515625
73.2421875
56.7626953125
40.283203125
26.55029296875
19.22607421875
10.07080078125
9.1552734375
7.32421875
4.57763671875
0
-3.662109375
-15.56396484375
-15.56396484375
-10.986328125
-24.71923828125
-29.296875
-32.958984375
-35.70556640625
-30.21240234375
-21.05712890625
-27.4658203125
-27.4658203125
-32.958984375
-31.1279296875
-35.70556640625
-43.02978515625
-41.19873046875
-33.87451171875
-39.36767578125
-38.4521484375
-36.62109375
-33.87451171875
-32.04345703125
-37.53662109375
-42.1142578125
-48.52294921875
-39.36767578125
-34.7900390625
-31.1279296875
-24.71923828125
-36.62109375
-37.53662109375
-40.283203125
-39.36767578125
-37.53662109375
-40.283203125
-43.9453125
-41.19873046875
-38.4521484375
-32.04345703125
-35.70556640625
-33.87451171875
-32.04345703125
-38.4521484375
-39.36767578125
-41.19873046875
-32.958984375
-33.87451171875
-26.55029296875
-26.55029296875
-28.38134765625
-29.296875
-25.634765625
-23.8037109375
-33.87451171875
-38.4521484375
-28.38134765625
-22.88818359375
-16.4794921875
-25.634765625
-23.8037109375
-26.55029296875
-36.62109375
-38.4521484375
-44.86083984375
-34.7900390625
-36.62109375
-27.4658203125
-32.958984375
-28.38134765625
-26.55029296875
-19.22607421875
-11.90185546875
-24.71923828125
-21.97265625
-23.8037109375
-20.1416015625
-21.05712890625
-18.310546875
-14.6484375
-9.1552734375
-20.1416015625
-26.55029296875
-23.8037109375
-27.4658203125
-28.38134765625
-21.05712890625
-17.39501953125
-20.1416015625
-16.4794921875
-13.73291015625
-20.1416015625
-22.88818359375
-23.8037109375
-29.296875
-34.7900390625
-29.296875
-23.8037109375
-19.22607421875
-16.4794921875
-21.05712890625
-27.4658203125
-32.04345703125
-31.1279296875
-32.958984375
-35.70556640625
-32.04345703125
-29.296875
-34.7900390625
-29.296875
-33.87451171875
-33.87451171875
-45.7763671875
-39.36767578125
-43.9453125
-45.7763671875
-41.19873046875
-38.4521484375
-38.4521484375
-36.62109375
-32.958984375
-43.02978515625
-42.1142578125
-45.7763671875
-57.67822265625
-52.18505859375
-56.7626953125
-52.18505859375
-46.69189453125
-44.86083984375
-38.4521484375
-50.35400390625
-50.35400390625
-53.1005859375
-61.34033203125
-59.50927734375
-55.84716796875
-52.18505859375
-53.1005859375
-51.26953125
-42.1142578125
-38.4521484375
-50.35400390625
-53.1005859375
-54.01611328125
-54.931640625
-56.7626953125
-47.607421875
-49.4384765625
-57.67822265625
-57.67822265625
-55.84716796875
-53.1005859375
-49.4384765625
-55.84716796875
-56.7626953125
-49.4384765625
-55.84716796875
-59.50927734375
-50.35400390625
-51.26953125
-54.931640625
-56.7626953125
-58.59375
-61.34033203125
-64.0869140625
-64.0869140625
-59.50927734375
-49.4384765625
-46.69189453125
-42.1142578125
-44.86083984375
-52.18505859375
-45.7763671875
-61.34033203125
-69.580078125
-66.83349609375
-72.32666015625
-82.3974609375
-72.32666015625
-58.59375
-67.7490234375
-71.4111328125
-75.98876953125
-83.31298828125
-83.31298828125
-76.904296875
-75.98876953125
-80.56640625
-80.56640625
-61.34033203125
-59.50927734375
-62.255859375
-56.7626953125
-54.931640625
-57.67822265625
-56.7626953125
-59.50927734375
-55.84716796875
-35.70556640625
-35.70556640625
-44.86083984375
-57.67822265625
-66.83349609375
-58.59375
-62.255859375
-50.35400390625
-47.607421875
-45.7763671875
-43.02978515625
-48.52294921875
-50.35400390625
-59.50927734375
-63.17138671875
-62.255859375
-74.15771484375
-80.56640625
-76.904296875
-71.4111328125
-70.49560546875
-57.67822265625
-66.83349609375
-78.7353515625
-82.3974609375
-79.65087890625
-85.14404296875
-83.31298828125
-77.81982421875
-74.15771484375
-63.17138671875
-63.17138671875
-66.83349609375
-70.49560546875
-72.32666015625
-76.904296875
-86.97509765625
-73.2421875
-75.0732421875
-69.580078125
-59.50927734375
-63.17138671875
-72.32666015625
-73.2421875
-68.66455078125
-65.91796875
-79.65087890625
-80.56640625
-76.904296875
-69.580078125
-73.2421875
-64.0869140625
-68.66455078125
-76.904296875
-76.904296875
-71.4111328125
-68.66455078125
-65.91796875
-45.7763671875
16.4794921875
101.62353515625
191.34521484375
301.20849609375
405.57861328125
487.97607421875
562.1337890625
640.869140625
752.5634765625
839.53857421875
928.3447265625
988.76953125
999.755859375
910.0341796875
735.16845703125
538.330078125
379.94384765625
250.8544921875
162.9638671875
106.201171875
43.9453125
19.22607421875
22.88818359375
30.21240234375
28.38134765625
29.296875
39.36767578125
37.53662109375
35.70556640625
16.4794921875
10.07080078125
9.1552734375
1.8310546875
-5.4931640625
-12.8173828125
-10.986328125
-20.1416015625
-17.39501953125
-26.55029296875
-22.88818359375
-23.8037109375
-20.1416015625
-20.1416015625
-25.634765625
-24.71923828125
-18.310546875
-23.8037109375
-23.8037109375
-25.634765625
-21.05712890625
-19.22607421875
-23.8037109375
-24.71923828125
-16.4794921875
-20.1416015625
-18.310546875
-19.22607421875
-26.55029296875
-24.71923828125
-19.22607421875
-13.73291015625
-16.4794921875
-12.8173828125
-7.32421875
-9.1552734375
-5.4931640625
-3.662109375
-12.8173828125
-9.1552734375
-11.90185546875
-1.8310546875
-3.662109375
-7.32421875
-1.8310546875
-0.91552734375
1.8310546875
-1.8310546875
-7.32421875
-8.23974609375
-3.662109375
5.4931640625
3.662109375
5.4931640625
13.73291015625
7.32421875
11.90185546875
14.6484375
17.39501953125
14.6484375
22.88818359375
21.97265625
18.310546875
20.1416015625
28.38134765625
26.55029296875
27.4658203125
24.71923828125
33.87451171875
43.02978515625
45.7763671875
49.4384765625
45.7763671875
54.01611328125
60.4248046875
59.50927734375
59.50927734375
54.931640625
59.50927734375
69.580078125
70.49560546875
81.48193359375
83.31298828125
87.890625
93.3837890625
102.5390625
108.94775390625
105.28564453125
105.28564453125
113.525390625
121.76513671875
127.25830078125
136.41357421875
148.3154296875
151.9775390625
155.6396484375
164.794921875
164.794921875
167.54150390625
178.52783203125
194.091796875
193.17626953125
200.50048828125
206.9091796875
213.31787109375
214.2333984375
221.5576171875
224.30419921875
219.7265625
227.05078125
244.44580078125
249.0234375
250.8544921875
263.671875
270.99609375
266.41845703125
274.658203125
273.74267578125
275.57373046875
276.4892578125
280.1513671875
268.24951171875
270.99609375
272.8271484375
271.91162109375
255.43212890625
241.69921875
230.712890625
210.5712890625
199.5849609375
186.767578125
176.69677734375
162.04833984375
157.470703125
135.498046875
114.44091796875
100.7080078125
81.48193359375
70.49560546875
56.7626953125
41.19873046875
33.87451171875
29.296875
19.22607421875
8.23974609375
-5.4931640625
-17.39501953125
-19.22607421875
-27.4658203125
-26.55029296875
-22.88818359375
-30.21240234375
-41.19873046875
-43.02978515625
-47.607421875
-61.34033203125
-63.17138671875
-50.35400390625
-60.4248046875
-58.59375
-46.69189453125
-53.1005859375
-61.34033203125
-61.34033203125
-61.34033203125
-58.59375
-64.0869140625
-62.255859375
-69.580078125
-65.00244140625
-63.17138671875
-66.83349609375
-67.7490234375
-66.83349609375
-70.49560546875
-64.0869140625
-61.34033203125
-61.34033203125
-66.83349609375
-71.4111328125
-65.00244140625
-64.0869140625
-65.00244140625
-60.4248046875
-65.00244140625
-60.4248046875
-59.50927734375
-65.00244140625
-74.15771484375
-68.66455078125
-59.50927734375
-64.0869140625
-66.83349609375
-55.84716796875
-58.59375
-66.83349609375
-71.4111328125
-65.00244140625
-65.91796875
-66.83349609375
-59.50927734375
-62.255859375
-61.34033203125
-55.84716796875
-60.4248046875
-61.34033203125
-58.59375
-56.7626953125
-58.59375
-65.00244140625
-56.7626953125
-48.52294921875
-51.26953125
-47.607421875
-53.1005859375
-48.52294921875
-54.01611328125
-55.84716796875
-62.255859375
-53.1005859375
-54.931640625
-57.67822265625
-54.01611328125
-45.7763671875
-40.283203125
-51.26953125
-36.62109375
-50.35400390625
-51.26953125
-56.7626953125
-50.35400390625
-45.7763671875
-47.607421875
-43.02978515625
-43.9453125
-47.607421875
-44.86083984375
-47.607421875
-53.1005859375
-43.9453125
-46.69189453125
-46.69189453125
-42.1142578125
-38.4521484375
-36.62109375
-41.19873046875
-43.9453125
-47.607421875
-54.01611328125
-49.4384765625
-47.607421875
-38.4521484375
-38.4521484375
-42.1142578125
-51.26953125
-59.50927734375
-48.52294921875
-54.01611328125
-62.255859375
-63.17138671875
-59.50927734375
-44.86083984375
-45.7763671875
-48.52294921875
-47.607421875
-54.01611328125
-47.607421875
-53.1005859375
-68.66455078125
-62.255859375
-64.0869140625
-65.91796875
-58.59375
-51.26953125
-58.59375
-59.50927734375
-70.49560546875
-76.904296875
-77.81982421875
-73.2421875
-61.34033203125
-61.34033203125
-60.4248046875
-57.67822265625
-59.50927734375
-54.01611328125
-63.17138671875
-65.91796875
-69.580078125
-65.00244140625
-67.7490234375
-68.66455078125
-65.00244140625
-65.91796875
-65.00244140625
-71.4111328125
-69.580078125
-63.17138671875
-74.15771484375
-67.7490234375
-65.91796875
-59.50927734375
-62.255859375
-66.83349609375
-64.0869140625
-71.4111328125
-86.97509765625
-75.0732421875
-78.7353515625
-74.15771484375
-67.7490234375
-62.255859375
-66.83349609375
-65.91796875
-66.83349609375
-68.66455078125
-69.580078125
-74.15771484375
-77.81982421875
-65.91796875
-68.66455078125
-76.904296875
-74.15771484375
-61.34033203125
-65.00244140625
-69.580078125
-65.91796875
-75.0732421875
-75.98876953125
-67.7490234375
-71.4111328125
-75.98876953125
-70.49560546875
-67.7490234375
-71.4111328125
-68.66455078125
-72.32666015625
-75.98876953125
-72.32666015625
-75.98876953125
-82.3974609375
-81.48193359375
-81.48193359375
-71.4111328125
-76.904296875
-76.904296875
-61.34033203125
-77.81982421875
-84.228515625
-83.31298828125
-81.48193359375
-73.2421875
-75.0732421875
-80.56640625
-82.3974609375
-88.80615234375
-74.15771484375
-70.49560546875
-86.0595703125
-88.80615234375
-85.14404296875
-81.48193359375
-86.97509765625
-84.228515625
-80.56640625
-78.7353515625
-86.97509765625
-81.48193359375
-86.0595703125
-87.890625
-86.97509765625
-79.65087890625
-71.4111328125
-73.2421875
-82.3974609375
-72.32666015625
-70.49560546875
-73.2421875
-86.97509765625
-84.228515625
-87.890625
-89.7216796875
-91.552734375
-98.876953125
-98.876953125
-95.21484375
-92.46826171875
-102.5390625
-108.94775390625
-100.7080078125
-97.0458984375
-108.94775390625
-102.5390625
-83.31298828125
-79.65087890625
-73.2421875
-86.97509765625
-86.0595703125
-89.7216796875
-82.3974609375
-67.7490234375
-71.4111328125
-75.98876953125
-65.00244140625
-62.255859375
-77.81982421875
-77.81982421875
-86.97509765625
-97.96142578125
-87.890625
-75.98876953125
-65.91796875
-75.98876953125
-62.255859375
-78.7353515625
-79.65087890625
-80.56640625
-79.65087890625
-93.3837890625
-95.21484375
-96.13037109375
-95.21484375
-88.80615234375
-91.552734375
-91.552734375
-102.5390625
-100.7080078125
-103.45458984375
-104.3701171875
-100.7080078125
-94.29931640625
-88.80615234375
-86.97509765625
-90.63720703125
-98.876953125
-96.13037109375
-98.876953125
-89.7216796875
-103.45458984375
-97.96142578125
-98.876953125
-100.7080078125
-100.7080078125
-95.21484375
-90.63720703125
-93.3837890625
-93.3837890625
-97.96142578125
-95.21484375
-98.876953125
-107.11669921875
-97.0458984375
-93.3837890625
-87.890625
-87.890625
-97.0458984375
-109.86328125
-85.14404296875
-70.49560546875
-80.56640625
-73.2421875
-43.9453125
12.8173828125
101.62353515625
195.00732421875
286.56005859375
382.6904296875
472.412109375
538.330078125
635.3759765625
740.66162109375
824.89013671875
902.7099609375
972.2900390625
980.52978515625
879.82177734375
712.2802734375
519.10400390625
363.46435546875
236.2060546875
151.9775390625
76.904296875
26.55029296875
10.07080078125
4.57763671875
12.8173828125
19.22607421875
25.634765625
22.88818359375
16.4794921875
9.1552734375
-1.8310546875
-7.32421875
-2.74658203125
-11.90185546875
-20.1416015625
-29.296875
-24.71923828125
-27.4658203125
-35.70556640625
-30.21240234375
-29.296875
-30.21240234375
-21.97265625
-32.04345703125
-43.02978515625
-34.7900390625
-32.958984375
-40.283203125
-39.36767578125
-42.1142578125
-35.70556640625
-41.19873046875
-35.70556640625
-32.958984375
-29.296875
-33.87451171875
-34.7900390625
-43.02978515625
-43.02978515625
-46.69189453125
-34.7900390625
-26.55029296875
-30.21240234375
-28.38134765625
-32.04345703125
-22.88818359375
-24.71923828125
-24.71923828125
-28.38134765625
-26.55029296875
-20.1416015625
-19.22607421875
-8.23974609375
-12.8173828125
-13.73291015625
-16.4794921875
-18.310546875
-11.90185546875
-12.8173828125
-12.8173828125
-11.90185546875
-10.07080078125
-1.8310546875
1.8310546875
0.91552734375
4.57763671875
-3.662109375
-9.1552734375
-5.4931640625
-10.07080078125
0
5.4931640625
22.88818359375
17.39501953125
12.8173828125
17.39501953125
23.8037109375
15.56396484375
12.8173828125
24.71923828125
24.71923828125
23.8037109375
30.21240234375
44.86083984375
45.7763671875
47.607421875
48.52294921875
46.69189453125
36.62109375
46.69189453125
56.7626953125
61.34033203125
65.91796875
76.904296875
82.3974609375
86.97509765625
86.97509765625
86.0595703125
86.0595703125
97.96142578125
103.45458984375
106.201171875
115.3564453125
123.59619140625
129.08935546875
134.58251953125
150.146484375
145.56884765625
149.23095703125
160.21728515625
164.794921875
174.86572265625
182.18994140625
185.85205078125
189.51416015625
189.51416015625
198.66943359375
196.83837890625
201.416015625
216.97998046875
225.2197265625
230.712890625
241.69921875
238.95263671875
241.69921875
251.77001953125
252.685546875
255.43212890625
255.43212890625
264.58740234375
263.671875
256.34765625
258.1787109375
270.99609375
261.8408203125
242.61474609375
238.95263671875
231.62841796875
212.40234375
199.5849609375
189.51416015625
184.02099609375
171.20361328125
151.9775390625
126.3427734375
117.1875
111.6943359375
88.80615234375
69.580078125
61.34033203125
54.931640625
37.53662109375
24.71923828125
10.986328125
-3.662109375
-10.986328125
-14.6484375
-31.1279296875
-34.7900390625
-33.87451171875
-39.36767578125
-50.35400390625
-43.9453125
-43.02978515625
-54.931640625
-68.66455078125
-69.580078125
-72.32666015625
-66.83349609375
-62.255859375
-64.0869140625
-58.59375
-63.17138671875
-60.4248046875
-69.580078125
-66.83349609375
-71.4111328125
-75.98876953125
-78.7353515625
-76.904296875
-82.3974609375
-74.15771484375
-73.2421875
-68.66455078125
-67.7490234375
-69.580078125
-76.904296875
-83.31298828125
-85.14404296875
-74.15771484375
-75.0732421875
-82.3974609375
-72.32666015625
-69.580078125
-75.98876953125
-77.81982421875
-72.32666015625
-82.3974609375
-94.29931640625
-80.56640625
-83.31298828125
-82.3974609375
-78.7353515625
-73.2421875
-80.56640625
-78.7353515625
-76.904296875
-77.81982421875
-71.4111328125
-70.49560546875
-68.66455078125
-75.98876953125
-74.15771484375
-65.00244140625
-78.7353515625
-80.56640625
-76.904296875
-76.904296875
-77.81982421875
-76.904296875
-74.15771484375
-73.2421875
-74.15771484375
-61.34033203125
-70.49560546875
-75.98876953125
-77.81982421875
-78.7353515625
-81.48193359375
-71.4111328125
-68.66455078125
-74.15771484375
-65.00244140625
-62.255859375
-74.15771484375
-70.49560546875
-68.66455078125
-64.0869140625
-72.32666015625
-58.59375
-61.34033203125
-70.49560546875
-55.84716796875
-63.17138671875
-64.0869140625
-66.83349609375
-72.32666015625
-67.7490234375
-71.4111328125
-63.17138671875
-68.66455078125
-75.0732421875
-68.66455078125
-57.67822265625
-59.50927734375
-63.17138671875
-59.50927734375
-68.66455078125
-75.98876953125
-74.15771484375
-67.7490234375
-66.83349609375
-64.0869140625
-62.255859375
-74.15771484375
-73.2421875
-72.32666015625
-74.15771484375
-70.49560546875
-72.32666015625
-70.49560546875
-73.2421875
-72.32666015625
-72.32666015625
-81.48193359375
-77.81982421875
-74.15771484375
-86.0595703125
-80.56640625
-86.97509765625
-85.14404296875
-76.904296875
-82.3974609375
-83.31298828125
-84.228515625
-79.65087890625
-80.56640625
-83.31298828125
-86.97509765625
-86.0595703125
-83.31298828125
-73.2421875
-76.904296875
-88.80615234375
-89.7216796875
-82.3974609375
-71.4111328125
-93.3837890625
-99.79248046875
-82.3974609375
-85.14404296875
-88.80615234375
-80.56640625
-85.14404296875
-88.80615234375
-86.0595703125
-88.80615234375
-93.3837890625
-91.552734375
-94.29931640625
-88.80615234375
-86.97509765625
-88.80615234375
-86.97509765625
-91.552734375
-92.46826171875
-88.80615234375
-96.13037109375
-99.79248046875
-88.80615234375
-85.14404296875
-89.7216796875
-97.96142578125
-94.29931640625
-86.0595703125
-91.552734375
-99.79248046875
-101.62353515625
-95.21484375
-86.97509765625
-85.14404296875
-82.3974609375
-88.80615234375
-90.63720703125
-94.29931640625
-99.79248046875
-93.3837890625
-96.13037109375
-96.13037109375
-88.80615234375
-93.3837890625
-100.7080078125
-91.552734375
-92.46826171875
-91.552734375
-94.29931640625
-94.29931640625
-107.11669921875
-97.96142578125
-95.21484375
-96.13037109375
-90.63720703125
-90.63720703125
-92.46826171875
-93.3837890625
-93.3837890625
-94.29931640625
-100.7080078125
-104.3701171875
-86.97509765625
-94.29931640625
-94.29931640625
-95.21484375
-93.3837890625
-88.80615234375
-89.7216796875
-86.97509765625
-95.21484375
-94.29931640625
-96.13037109375
-91.552734375
-87.890625
-86.97509765625
-86.97509765625
-85.14404296875
-90.63720703125
-92.46826171875
-101.62353515625
-104.3701171875
-97.0458984375
-100.7080078125
-111.6943359375
-102.5390625
-93.3837890625
-100.7080078125
-108.0322265625
-99.79248046875
-110.77880859375
-116.27197265625
-115.3564453125
-110.77880859375
-105.28564453125
-101.62353515625
-97.96142578125
-109.86328125
-96.13037109375
-86.0595703125
-86.97509765625
-93.3837890625
-96.13037109375
-86.0595703125
-72.32666015625
-79.65087890625
-73.2421875
-83.31298828125
-88.80615234375
-98.876953125
-99.79248046875
-89.7216796875
-79.65087890625
-78.7353515625
-75.0732421875
-76.904296875
-75.98876953125
-83.31298828125
-86.0595703125
-93.3837890625
-104.3701171875
-104.3701171875
-116.27197265625
-112.60986328125
-102.5390625
-95.21484375
-91.552734375
-100.7080078125
-107.11669921875
-110.77880859375
-102.5390625
-101.62353515625
-108.94775390625
-101.62353515625
-103.45458984375
-103.45458984375
-103.45458984375
-105.28564453125
-105.28564453125
-96.13037109375
-106.201171875
-110.77880859375
-108.94775390625
-108.0322265625
-97.0458984375
-97.96142578125
-101.62353515625
-93.3837890625
-94.29931640625
-86.0595703125
-101.62353515625
-103.45458984375
-108.94775390625
-106.201171875
-106.201171875
-109.86328125
-104.3701171875
-101.62353515625
-109.86328125
-93.3837890625
-89.7216796875
-101.62353515625
-78.7353515625
-10.07080078125
69.580078125
168.45703125
272.8271484375
367.12646484375
455.9326171875
531.92138671875
627.13623046875
722.35107421875
808.41064453125
899.96337890625
966.796875
964.9658203125
874.32861328125
714.111328125
525.5126953125
369.873046875
233.45947265625
140.07568359375
78.7353515625
22.88818359375
-8.23974609375
-15.56396484375
-0.91552734375
-8.23974609375
-6.40869140625
-6.40869140625
-10.07080078125
-12.8173828125
-18.310546875
-30.21240234375
-28.38134765625
-35.70556640625
-36.62109375
-46.69189453125
-52.18505859375
-49.4384765625
-61.34033203125
-65.00244140625
-72.32666015625
-70.49560546875
-69.580078125
-60.4248046875
-61.34033203125
-69.580078125
-74.15771484375
-75.98876953125
-78.7353515625
-83.31298828125
-78.7353515625
-78.7353515625
-69.580078125
-59.50927734375
-54.931640625
-64.0869140625
-58.59375
-62.255859375
-66.83349609375
-74.15771484375
-71.4111328125
-69.580078125
-67.7490234375
-65.00244140625
-59.50927734375
-65.91796875
-67.7490234375
-62.255859375
-59.50927734375
-61.34033203125
-55.84716796875
-46.69189453125
-53.1005859375
-54.01611328125
-48.52294921875
-46.69189453125
-54.931640625
-60.4248046875
-58.59375
-62.255859375
-53.1005859375
-51.26953125
-57.67822265625
-46.69189453125
-46.69189453125
-52.18505859375
-39.36767578125
-36.62109375
-41.19873046875
-45.7763671875
-34.7900390625
-29.296875
-25.634765625
-27.4658203125
-21.05712890625
-30.21240234375
-32.04345703125
-26.55029296875
-24.71923828125
-21.97265625
-15.56396484375
-1.8310546875
-16.4794921875
-2.74658203125
-3.662109375
-1.8310546875
-2.74658203125
-2.74658203125
10.07080078125
4.57763671875
18.310546875
30.21240234375
26.55029296875
25.634765625
31.1279296875
33.87451171875
32.04345703125
43.9453125
52.18505859375
43.9453125
55.84716796875
70.49560546875
78.7353515625
84.228515625
87.890625
89.7216796875
97.96142578125
100.7080078125
98.876953125
106.201171875
117.1875
126.3427734375
127.25830078125
130.92041015625
144.6533203125
158.38623046875
153.80859375
159.3017578125
153.80859375
152.89306640625
170.2880859375
176.69677734375
184.9365234375
194.091796875
196.83837890625
202.33154296875
192.2607421875
203.2470703125
201.416015625
199.5849609375
208.740234375
204.16259765625
196.83837890625
208.740234375
214.2333984375
191.34521484375
194.091796875
175.78125
157.470703125
140.9912109375
135.498046875
121.76513671875
97.96142578125
91.552734375
86.97509765625
66.83349609375
54.931640625
42.1142578125
20.1416015625
0.91552734375
-11.90185546875
-21.05712890625
-32.958984375
-37.53662109375
-38.4521484375
-60.4248046875
-66.83349609375
-71.4111328125
-86.0595703125
-99.79248046875
-99.79248046875
-102.5390625
-102.5390625
-113.525390625
-111.6943359375
-107.11669921875
-105.28564453125
-117.1875
-119.0185546875
-124.51171875
-122.6806640625
-120.849609375
-121.76513671875
-119.0185546875
-123.59619140625
-126.3427734375
-129.08935546875
-132.75146484375
-131.8359375
-139.16015625
-128.173828125
-125.42724609375
-138.24462890625
-136.41357421875
-136.41357421875
-130.0048828125
-139.16015625
-139.16015625
-140.9912109375
-140.9912109375
-139.16015625
-130.0048828125
-131.8359375
-133.6669921875
-130.92041015625
-137.3291015625
-143.73779296875
-134.58251953125
-145.56884765625
-147.39990234375
-146.484375
-140.9912109375
-128.173828125
-140.9912109375
-138.24462890625
-139.16015625
-135.498046875
-140.07568359375
-143.73779296875
-143.73779296875
-138.24462890625
-136.41357421875
-129.08935546875
-130.92041015625
-130.92041015625
-130.0048828125
-125.42724609375
-130.0048828125
-138.24462890625
-136.41357421875
-135.498046875
-139.16015625
-132.75146484375
-123.59619140625
-121.76513671875
-125.42724609375
-127.25830078125
-122.6806640625
-130.92041015625
-137.3291015625
-132.75146484375
-125.42724609375
-119.93408203125
-113.525390625
-118.10302734375
-124.51171875
-121.76513671875
-112.60986328125
-126.3427734375
-134.58251953125
-123.59619140625
-110.77880859375
-116.27197265625
-119.0185546875
-118.10302734375
-118.10302734375
-126.3427734375
-129.08935546875
-131.8359375
-132.75146484375
-120.849609375
-114.44091796875
-112.60986328125
-118.10302734375
-112.60986328125
-118.10302734375
-118.10302734375
-120.849609375
-117.1875
-125.42724609375
-129.08935546875
-124.51171875
-131.8359375
-139.16015625
-138.24462890625
-134.58251953125
-126.3427734375
-119.0185546875
-125.42724609375
-131.8359375
-134.58251953125
-130.92041015625
-128.173828125
-124.51171875
-129.08935546875
-135.498046875
-141.90673828125
-133.6669921875
-138.24462890625
-146.484375
-138.24462890625
-134.58251953125
-134.58251953125
-134.58251953125
-131.8359375
-136.41357421875
-146.484375
-140.9912109375
-140.07568359375
-142.822265625
-145.56884765625
-145.56884765625
-148.3154296875
-139.16015625
-130.92041015625
-127.25830078125
-130.92041015625
-133.6669921875
-138.24462890625
-154.72412109375
-145.56884765625
-145.56884765625
-147.39990234375
-139.16015625
-132.75146484375
-132.75146484375
-136.41357421875
-140.07568359375
-139.16015625
-152.89306640625
-149.23095703125
-135.498046875
-141.90673828125
-142.822265625
-133.6669921875
-141.90673828125
-148.3154296875
-142.822265625
-145.56884765625
-149.23095703125
-147.39990234375
-141.90673828125
-152.89306640625
-149.23095703125
-143.73779296875
-142.822265625
-142.822265625
-140.07568359375
-137.3291015625
-152.89306640625
-138.24462890625
-139.16015625
-140.07568359375
-133.6669921875
-137.3291015625
-144.6533203125
-157.470703125
-157.470703125
-157.470703125
-166.6259765625
-164.794921875
-161.1328125
-162.9638671875
-162.04833984375
-162.9638671875
-167.54150390625
-168.45703125
-165.71044921875
-173.9501953125
-165.71044921875
-151.9775390625
-149.23095703125
-146.484375
-140.07568359375
-135.498046875
-135.498046875
-137.3291015625
-140.9912109375
-134.58251953125
-132.75146484375
-132.75146484375
-136.41357421875
-148.3154296875
-144.6533203125
-135.498046875
-127.25830078125
-131.8359375
-123.59619140625
-133.6669921875
-150.146484375
-149.23095703125
-145.56884765625
-152.89306640625
-145.56884765625
-141.90673828125
-149.23095703125
-158.38623046875
-157.470703125
-168.45703125
-170.2880859375
-157.470703125
-156.55517578125
-151.9775390625
-145.56884765625
-150.146484375
-154.72412109375
-152.89306640625
-154.72412109375
-158.38623046875
-161.1328125
-160.21728515625
-154.72412109375
-161.1328125
-153.80859375
-145.56884765625
-151.9775390625
-152.89306640625
-160.21728515625
-165.71044921875
-165.71044921875
-158.38623046875
-151.06201171875
-152.89306640625
-151.9775390625
-151.9775390625
-153.80859375
-148.3154296875
-156.55517578125
-163.87939453125
-166.6259765625
-157.470703125
-162.04833984375
-142.822265625
-135.498046875
-129.08935546875
-135.498046875
-103.45458984375
-11.90185546875
75.98876953125
163.87939453125
269.1650390625
374.45068359375
462.34130859375
537.41455078125
646.3623046875
732.421875
817.56591796875
892.63916015625
925.59814453125
881.65283203125
747.98583984375
565.7958984375
395.5078125
253.60107421875
139.16015625
56.7626953125
-8.23974609375
-44.86083984375
-58.59375
-59.50927734375
-45.7763671875
-34.7900390625
-32.04345703125
-23.8037109375
-25.634765625
-39.36767578125
-53.1005859375
-52.18505859375
-66.83349609375
-78.7353515625
-79.65087890625
-78.7353515625
-74.15771484375
-74.15771484375
-78.7353515625
-86.0595703125
-86.97509765625
-98.876953125
-90.63720703125
-84.228515625
-86.97509765625
-88.80615234375
-85.14404296875
-75.98876953125
-76.904296875
-87.890625
-89.7216796875
-85.14404296875
-82.3974609375
-87.890625
-92.46826171875
-83.31298828125
-71.4111328125
-77.81982421875
-77.81982421875
-75.98876953125
-78.7353515625
-79.65087890625
-74.15771484375
-78.7353515625
-72.32666015625
-80.56640625
-75.0732421875
-66.83349609375
-64.0869140625
-65.91796875
-71.4111328125
-75.0732421875
-64.0869140625
-62.255859375
-50.35400390625
-51.26953125
-59.50927734375
-59.50927734375
-58.59375
-60.4248046875
-53.1005859375
-51.26953125
-45.7763671875
-48.52294921875
-46.69189453125
-42.1142578125
-43.9453125
-43.02978515625
-32.958984375
-31.1279296875
-37.53662109375
-32.04345703125
-29.296875
-37.53662109375
-39.36767578125
-25.634765625
-24.71923828125
-14.6484375
-5.4931640625
-2.74658203125
-7.32421875
-6.40869140625
-6.40869140625
-8.23974609375
-3.662109375
8.23974609375
17.39501953125
20.1416015625
20.1416015625
24.71923828125
23.8037109375
29.296875
37.53662109375
36.62109375
41.19873046875
55.84716796875
48.52294921875
49.4384765625
64.0869140625
80.56640625
80.56640625
79.65087890625
91.552734375
86.0595703125
85.14404296875
102.5390625
119.93408203125
119.0185546875
128.173828125
135.498046875
140.07568359375
151.9775390625
152.89306640625
152.89306640625
159.3017578125
170.2880859375
177.6123046875
193.17626953125
196.83837890625
195.00732421875
197.75390625
202.33154296875
207.82470703125
205.99365234375
220.64208984375
228.8818359375
224.30419921875
234.375
243.5302734375
238.037109375
228.8818359375
232.5439453125
232.5439453125
214.2333984375
211.48681640625
205.99365234375
203.2470703125
184.9365234375
177.6123046875
155.6396484375
139.16015625
131.8359375
113.525390625
90.63720703125
73.2421875
71.4111328125
55.84716796875
34.7900390625
31.1279296875
9.1552734375
0
-8.23974609375
-21.97265625
-43.02978515625
-45.7763671875
-45.7763671875
-57.67822265625
-63.17138671875
-61.34033203125
-67.7490234375
-86.97509765625
-90.63720703125
-84.228515625
-106.201171875
-103.45458984375
-100.7080078125
-96.13037109375
-97.96142578125
-102.5390625
-110.77880859375
-107.11669921875
-111.6943359375
-110.77880859375
-110.77880859375
-111.6943359375
-119.0185546875
-122.6806640625
-116.27197265625
-107.11669921875
-106.201171875
-113.525390625
-110.77880859375
-109.86328125
-113.525390625
-118.10302734375
-110.77880859375
-117.1875
-120.849609375
-109.86328125
-114.44091796875
-119.0185546875
-121.76513671875
-116.27197265625
-120.849609375
-123.59619140625
-122.6806640625
-119.0185546875
-115.3564453125
-116.27197265625
-130.0048828125
-125.42724609375
-124.51171875
-116.27197265625
-123.59619140625
-131.8359375
-125.42724609375
-115.3564453125
-119.93408203125
-115.3564453125
-117.1875
-128.173828125
-130.0048828125
-125.42724609375
-128.173828125
-133.6669921875
-136.41357421875
-133.6669921875
-127.25830078125
-116.27197265625
-108.0322265625
-115.3564453125
-108.94775390625
-111.6943359375
-124.51171875
-127.25830078125
-120.849609375
-122.6806640625
-126.3427734375
-129.08935546875
-125.42724609375
-125.42724609375
-115.3564453125
-116.27197265625
-128.173828125
-119.93408203125
-116.27197265625
-116.27197265625
-109.86328125
-107.11669921875
-108.94775390625
-119.93408203125
-117.1875
-119.0185546875
-123.59619140625
-125.42724609375
-119.0185546875
-119.0185546875
-117.1875
-125.42724609375
-118.10302734375
-108.94775390625
-110.77880859375
-115.3564453125
-135.498046875
-142.822265625
-130.92041015625
-127.25830078125
-127.25830078125
-111.6943359375
-110.77880859375
-125.42724609375
-126.3427734375
-130.0048828125
-141.90673828125
-136.41357421875
-127.25830078125
-125.42724609375
-119.0185546875
-119.93408203125
-128.173828125
-132.75146484375
-139.16015625
-141.90673828125
-142.822265625
-132.75146484375
-131.8359375
-135.498046875
-135.498046875
-135.498046875
-134.58251953125
-143.73779296875
-146.484375
-136.41357421875
-148.3154296875
-143.73779296875
-146.484375
-150.146484375
-143.73779296875
-143.73779296875
-144.6533203125
-146.484375
-141.90673828125
-147.39990234375
-162.9638671875
-161.1328125
-153.80859375
-145.56884765625
-149.23095703125
-142.822265625
-149.23095703125
-161.1328125
-154.72412109375
-151.9775390625
-162.04833984375
-153.80859375
-155.6396484375
-151.9775390625
-160.21728515625
-158.38623046875
-157.470703125
-165.71044921875
-167.54150390625
-159.3017578125
-154.72412109375
-158.38623046875
-158.38623046875
-158.38623046875
-161.1328125
-159.3017578125
-156.55517578125
-162.9638671875
-155.6396484375
-155.6396484375
-176.69677734375
-181.2744140625
-162.9638671875
-152.89306640625
-168.45703125
-164.794921875
-151.06201171875
-157.470703125
-152.89306640625
-147.39990234375
-160.21728515625
-168.45703125
-165.71044921875
-158.38623046875
-161.1328125
-161.1328125
-158.38623046875
-162.04833984375
-166.6259765625
-164.794921875
-175.78125
-165.71044921875
-153.80859375
-157.470703125
-150.146484375
-156.55517578125
-163.87939453125
-161.1328125
-162.04833984375
-162.04833984375
-168.45703125
-170.2880859375
-166.6259765625
-148.3154296875
-155.6396484375
-160.21728515625
-156.55517578125
-155.6396484375
-164.794921875
-154.72412109375
-171.20361328125
-170.2880859375
-161.1328125
-159.3017578125
-152.89306640625
-154.72412109375
-152.89306640625
-156.55517578125
-151.06201171875
-151.06201171875
-162.04833984375
-165.71044921875
-159.3017578125
-149.23095703125
-159.3017578125
-155.6396484375
-153.80859375
-164.794921875
-151.06201171875
-151.9775390625
-154.72412109375
-155.6396484375
-152.89306640625
-152.89306640625
-140.9912109375
-138.24462890625
-142.822265625
-151.9775390625
-158.38623046875
-162.9638671875
-168.45703125
-175.78125
-174.86572265625
-171.20361328125
-167.54150390625
-163.87939453125
-167.54150390625
-163.87939453125
-165.71044921875
-163.87939453125
-174.86572265625
-162.04833984375
-158.38623046875
-154.72412109375
-144.6533203125
-140.9912109375
-140.07568359375
-143.73779296875
-148.3154296875
-147.39990234375
-137.3291015625
-132.75146484375
-135.498046875
-142.822265625
-145.56884765625
-140.07568359375
-140.07568359375
-134.58251953125
-127.25830078125
-125.42724609375
-134.58251953125
-144.6533203125
-136.41357421875
-140.07568359375
-135.498046875
-134.58251953125
-139.16015625
-147.39990234375
-156.55517578125
-151.9775390625
-160.21728515625
-156.55517578125
-148.3154296875
-144.6533203125
-146.484375
-152.89306640625
-150.146484375
-143.73779296875
-148.3154296875
-147.39990234375
-156.55517578125
-158.38623046875
-140.9912109375
-136.41357421875
-140.9912109375
-136.41357421875
-132.75146484375
-140.9912109375
-143.73779296875
-136.41357421875
-148.3154296875
-143.73779296875
-148.3154296875
-140.9912109375
-141.90673828125
-134.58251953125
-131.8359375
-138.24462890625
-129.08935546875
-130.92041015625
-140.07568359375
-138.24462890625
-135.498046875
-129.08935546875
-125.42724609375
-113.525390625
-107.11669921875
-111.6943359375
-90.63720703125
-23.8037109375
51.26953125
133.6669921875
244.44580078125
346.98486328125
439.453125
526.42822265625
621.64306640625
715.9423828125
796.5087890625
878.90625
934.75341796875
946.6552734375
856.93359375
691.22314453125
499.8779296875
347.900390625
219.7265625
118.10302734375
55.84716796875
-0.91552734375
-44.86083984375
-38.4521484375
-20.1416015625
-24.71923828125
-26.55029296875
-6.40869140625
-1.8310546875
-14.6484375
-21.05712890625
-25.634765625
-37.53662109375
-45.7763671875
-43.9453125
-58.59375
-56.7626953125
-50.35400390625
-57.67822265625
-67.7490234375
-65.00244140625
-61.34033203125
-62.255859375
-57.67822265625
-53.1005859375
-55.84716796875
-58.59375
-49.4384765625
-51.26953125
-64.0869140625
-67.7490234375
-63.17138671875
-60.4248046875
-65.00244140625
-60.4248046875
-51.26953125
-48.52294921875
-45.7763671875
-44.86083984375
-50.35400390625
-43.02978515625
-54.931640625
-58.59375
-54.01611328125
-40.283203125
-48.52294921875
-43.02978515625
-33.87451171875
-39.36767578125
-42.1142578125
-34.7900390625
-32.04345703125
-43.9453125
-44.86083984375
-37.53662109375
-25.634765625
-31.1279296875
-28.38134765625
-28.38134765625
-24.71923828125
-29.296875
-33.87451171875
-30.21240234375
-23.8037109375
-26.55029296875
-17.39501953125
-17.39501953125
-16.4794921875
-13.73291015625
-10.07080078125
-10.986328125
-11.90185546875
-9.1552734375
-2.74658203125
12.8173828125
8.23974609375
9.1552734375
17.39501953125
16.4794921875
10.07080078125
14.6484375
16.4794921875
15.56396484375
14.6484375
29.296875
40.283203125
43.02978515625
42.1142578125
47.607421875
52.18505859375
54.931640625
52.18505859375
46.69189453125
59.50927734375
65.00244140625
68.66455078125
85.14404296875
92.46826171875
94.29931640625
89.7216796875
86.0595703125
107.11669921875
103.45458984375
110.77880859375
125.42724609375
130.92041015625
144.6533203125
148.3154296875
151.06201171875
151.06201171875
151.9775390625
160.21728515625
165.71044921875
171.20361328125
181.2744140625
186.767578125
198.66943359375
212.40234375
214.2333984375
212.40234375
223.388671875
229.79736328125
223.388671875
228.8818359375
248.10791015625
259.09423828125
261.8408203125
254.5166015625
249.0234375
249.0234375
256.34765625
268.24951171875
251.77001953125
249.93896484375
247.1923828125
252.685546875
248.10791015625
241.69921875
227.05078125
205.99365234375
190.4296875
178.52783203125
167.54150390625
151.9775390625
130.92041015625
115.3564453125
106.201171875
92.46826171875
79.65087890625
60.4248046875
58.59375
46.69189453125
21.97265625
12.8173828125
5.4931640625
2.74658203125
-4.57763671875
-18.310546875
-12.8173828125
-21.05712890625
-29.296875
-37.53662109375
-46.69189453125
-54.01611328125
-58.59375
-54.01611328125
-56.7626953125
-54.931640625
-58.59375
-62.255859375
-67.7490234375
-61.34033203125
-64.0869140625
-71.4111328125
-68.66455078125
-74.15771484375
-69.580078125
-67.7490234375
-60.4248046875
-67.7490234375
-72.32666015625
-65.91796875
-71.4111328125
-75.98876953125
-74.15771484375
-77.81982421875
-70.49560546875
-63.17138671875
-61.34033203125
-62.255859375
-65.91796875
-61.34033203125
-75.98876953125
-75.0732421875
-66.83349609375
-65.91796875
-66.83349609375
-66.83349609375
-61.34033203125
-63.17138671875
-72.32666015625
-73.2421875
-72.32666015625
-69.580078125
-56.7626953125
-58.59375
-54.01611328125
-47.607421875
-53.1005859375
-56.7626953125
-63.17138671875
-61.34033203125
-68.66455078125
-70.49560546875
-58.59375
-47.607421875
-54.01611328125
-52.18505859375
-49.4384765625
-55.84716796875
-56.7626953125
-56.7626953125
-67.7490234375
-58.59375
-54.01611328125
-60.4248046875
-54.01611328125
-50.35400390625
-46.69189453125
-43.9453125
-45.7763671875
-45.7763671875
-51.26953125
-54.931640625
-50.35400390625
-46.69189453125
-53.1005859375
-48.52294921875
-46.69189453125
-46.69189453125
-50.35400390625
-51.26953125
-61.34033203125
-62.255859375
-60.4248046875
-45.7763671875
-43.02978515625
-54.01611328125
-54.931640625
-57.67822265625
-54.931640625
-51.26953125
-54.931640625
-54.01611328125
-44.86083984375
-43.02978515625
-48.52294921875
-53.1005859375
-46.69189453125
-43.02978515625
-50.35400390625
-49.4384765625
-50.35400390625
-58.59375
-53.1005859375
-44.86083984375
-48.52294921875
-43.9453125
-41.19873046875
-53.1005859375
-59.50927734375
-52.18505859375
-57.67822265625
-58.59375
-57.67822265625
-58.59375
-54.931640625
-61.34033203125
-61.34033203125
-59.50927734375
-55.84716796875
-58.59375
-65.91796875
-69.580078125
-59.50927734375
-59.50927734375
-61.34033203125
-59.50927734375
-64.0869140625
-68.66455078125
-66.83349609375
-65.00244140625
-69.580078125
-74.15771484375
-77.81982421875
-73.2421875
-62.255859375
-59.50927734375
-56.7626953125
-62.255859375
-66.83349609375
-66.83349609375
-76.904296875
-84.228515625
-80.56640625
-68.66455078125
-65.91796875
-71.4111328125
-63.17138671875
-61.34033203125
-65.00244140625
-61.34033203125
-72.32666015625
-75.98876953125
-68.66455078125
-70.49560546875
-69.580078125
-57.67822265625
-62.255859375
-61.34033203125
-69.580078125
-66.83349609375
-68.66455078125
-69.580078125
-63.17138671875
-64.0869140625
-73.2421875
-73.2421875
-72.32666015625
-81.48193359375
-77.81982421875
-74.15771484375
-83.31298828125
-80.56640625
-67.7490234375
-64.0869140625
-61.34033203125
-59.50927734375
-63.17138671875
-66.83349609375
-67.7490234375
-65.91796875
-77.81982421875
-78.7353515625
-67.7490234375
-67.7490234375
-72.32666015625
-65.00244140625
-60.4248046875
-67.7490234375
-67.7490234375
-71.4111328125
-76.904296875
-75.98876953125
-60.4248046875
-65.91796875
-65.91796875
-68.66455078125
-65.00244140625
-68.66455078125
-69.580078125
-68.66455078125
-71.4111328125
-76.904296875
-74.15771484375
-75.0732421875
-70.49560546875
-63.17138671875
-75.0732421875
-65.00244140625
-60.4248046875
-63.17138671875
-69.580078125
-74.15771484375
-66.83349609375
-75.0732421875
-70.49560546875
-54.01611328125
-58.59375
-69.580078125
-66.83349609375
-64.0869140625
-72.32666015625
-79.65087890625
-81.48193359375
-71.4111328125
-61.34033203125
-63.17138671875
-69.580078125
-70.49560546875
-63.17138671875
-64.0869140625
-68.66455078125
-73.2421875
-68.66455078125
-65.91796875
-56.7626953125
-51.26953125
-60.4248046875
-65.00244140625
-55.84716796875
-45.7763671875
-58.59375
-78.7353515625
-77.81982421875
-71.4111328125
-83.31298828125
-79.65087890625
-67.7490234375
-72.32666015625
-74.15771484375
-72.32666015625
-83.31298828125
-95.21484375
-83.31298828125
-75.0732421875
-73.2421875
-69.580078125
-60.4248046875
-58.59375
-63.17138671875
-51.26953125
-58.59375
-69.580078125
-55.84716796875
-51.26953125
-46.69189453125
-44.86083984375
-42.1142578125
-49.4384765625
-54.01611328125
-71.4111328125
-67.7490234375
-61.34033203125
-54.01611328125
-44.86083984375
-45.7763671875
-43.9453125
-42.1142578125
-61.34033203125
-67.7490234375
-61.34033203125
-67.7490234375
-72.32666015625
-79.65087890625
-65.91796875
-70.49560546875
-65.00244140625
-64.0869140625
-67.7490234375
-78.7353515625
-67.7490234375
-70.49560546875
-74.15771484375
-79.65087890625
-72.32666015625
-76.904296875
-70.49560546875
-69.580078125
-67.7490234375
-65.91796875
-66.83349609375
-71.4111328125
-73.2421875
-68.66455078125
-65.00244140625
-69.580078125
-62.255859375
-62.255859375
-67.7490234375
-71.4111328125
-62.255859375
-72.32666015625
-72.32666015625
-67.7490234375
-60.4248046875
-67.7490234375
-67.7490234375
-61.34033203125
-65.91796875
-60.4248046875
-53.1005859375
-60.4248046875
-55.84716796875
-4.57763671875
76.904296875
163.87939453125
255.43212890625
358.88671875
445.86181640625
533.75244140625
616.14990234375
717.7734375
801.08642578125
895.3857421875
977.783203125
1023.5595703125
987.85400390625
863.34228515625
666.50390625
487.060546875
350.64697265625
244.44580078125
159.3017578125
93.3837890625
48.52294921875
32.04345703125
29.296875
34.7900390625
38.4521484375
41.19873046875
47.607421875
43.02978515625
35.70556640625
23.8037109375
20.1416015625
11.90185546875
21.97265625
17.39501953125
6.40869140625
1.8310546875
-1.8310546875
-16.4794921875
-16.4794921875
-6.40869140625
-14.6484375
-11.90185546875
-8.23974609375
-5.4931640625
-10.986328125
-7.32421875
-8.23974609375
-28.38134765625
-30.21240234375
-18.310546875
-11.90185546875
-4.57763671875
1.8310546875
-2.74658203125
-4.57763671875
-8.23974609375
-6.40869140625
-6.40869140625
-10.07080078125
-3.662109375
4.57763671875
-4.57763671875
5.4931640625
3.662109375
6.40869140625
8.23974609375
-4.57763671875
-3.662109375
3.662109375
8.23974609375
-0.91552734375
0.91552734375
5.4931640625
10.986328125
2.74658203125
-3.662109375
-3.662109375
5.4931640625
0
-2.74658203125
2.74658203125
16.4794921875
19.22607421875
20.1416015625
12.8173828125
7.32421875
12.8173828125
20.1416015625
15.56396484375
22.88818359375
24.71923828125
30.21240234375
32.04345703125
33.87451171875
38.4521484375
29.296875
39.36767578125
29.296875
30.21240234375
43.02978515625
45.7763671875
51.26953125
57.67822265625
59.50927734375
56.7626953125
58.59375
61.34033203125
63.17138671875
66.83349609375
75.0732421875
75.0732421875
75.0732421875
79.65087890625
94.29931640625
98.876953125
100.7080078125
102.5390625
98.876953125
97.96142578125
109.86328125
127.25830078125
127.25830078125
134.58251953125
158.38623046875
150.146484375
153.80859375
158.38623046875
152.89306640625
153.80859375
173.03466796875
178.52783203125
185.85205078125
202.33154296875
211.48681640625
213.31787109375
206.9091796875
216.064453125
218.81103515625
225.2197265625
235.29052734375
243.5302734375
240.78369140625
249.93896484375
258.1787109375
253.60107421875
260.009765625
262.75634765625
259.09423828125
265.5029296875
265.5029296875
267.333984375
272.8271484375
273.74267578125
270.08056640625
256.34765625
247.1923828125
235.29052734375
220.64208984375
210.5712890625
204.16259765625
196.83837890625
173.9501953125
161.1328125
148.3154296875
133.6669921875
125.42724609375
106.201171875
86.0595703125
68.66455078125
63.17138671875
56.7626953125
44.86083984375
33.87451171875
23.8037109375
10.07080078125
0
1.8310546875
-12.8173828125
-27.4658203125
-27.4658203125
-28.38134765625
-36.62109375
-41.19873046875
-35.70556640625
-42.1142578125
-45.7763671875
-33.87451171875
-55.84716796875
-62.255859375
-54.931640625
-57.67822265625
-65.00244140625
-51.26953125
-52.18505859375
-59.50927734375
-61.34033203125
-56.7626953125
-61.34033203125
-74.15771484375
-64.0869140625
-55.84716796875
-58.59375
-57.67822265625
-52.18505859375
-58.59375
-72.32666015625
-63.17138671875
-65.00244140625
-69.580078125
-62.255859375
-54.931640625
-58.59375
-61.34033203125
-58.59375
-71.4111328125
-71.4111328125
-69.580078125
-66.83349609375
-71.4111328125
-59.50927734375
-52.18505859375
-58.59375
-62.255859375
-51.26953125
-55.84716796875
-55.84716796875
-63.17138671875
-65.00244140625
-77.81982421875
-61.34033203125
-51.26953125
-45.7763671875
-46.69189453125
-46.69189453125
-54.931640625
-53.1005859375
-54.931640625
-58.59375
-62.255859375
-54.01611328125
-46.69189453125
-47.607421875
-48.52294921875
-38.4521484375
-42.1142578125
-54.01611328125
-54.01611328125
-57.67822265625
-65.00244140625
-50.35400390625
-43.02978515625
-37.53662109375
-32.04345703125
-41.19873046875
-43.02978515625
-47.607421875
-45.7763671875
-50.35400390625
-53.1005859375
-46.69189453125
-37.53662109375
-39.36767578125
-37.53662109375
-33.87451171875
-47.607421875
-47.607421875
-46.69189453125
-43.02978515625
-47.607421875
-39.36767578125
-37.53662109375
-39.36767578125
-33.87451171875
-34.7900390625
-34.7900390625
-43.02978515625
-50.35400390625
-54.931640625
-61.34033203125
-53.1005859375
-32.04345703125
-42.1142578125
-42.1142578125
-42.1142578125
-43.02978515625
-56.7626953125
-59.50927734375
-56.7626953125
-62.255859375
-63.17138671875
-54.01611328125
-52.18505859375
-44.86083984375
-49.4384765625
-54.931640625
-65.00244140625
-52.18505859375
-58.59375
-67.7490234375
-70.49560546875
-67.7490234375
-63.17138671875
-59.50927734375
-51.26953125
-56.7626953125
-66.83349609375
-61.34033203125
-65.00244140625
-77.81982421875
-65.91796875
-59.50927734375
-57.67822265625
-66.83349609375
-67.7490234375
-64.0869140625
-61.34033203125
-60.4248046875
-65.91796875
-72.32666015625
-71.4111328125
-63.17138671875
-68.66455078125
-65.00244140625
-58.59375
-61.34033203125
-67.7490234375
-70.49560546875
-74.15771484375
-74.15771484375
-66.83349609375
-57.67822265625
-65.00244140625
-64.0869140625
-56.7626953125
-56.7626953125
-69.580078125
-75.0732421875
-72.32666015625
-75.98876953125
-65.00244140625
-65.00244140625
-68.66455078125
-72.32666015625
-72.32666015625
-71.4111328125
-70.49560546875
-64.0869140625
-68.66455078125
-73.2421875
-77.81982421875
-69.580078125
-71.4111328125
-71.4111328125
-60.4248046875
-64.0869140625
-58.59375
-55.84716796875
-65.00244140625
-71.4111328125
-69.580078125
-71.4111328125
-75.0732421875
-77.81982421875
-70.49560546875
-78.7353515625
-85.14404296875
-81.48193359375
-89.7216796875
-92.46826171875
-99.79248046875
-101.62353515625
-86.0595703125
-85.14404296875
-84.228515625
-75.98876953125
-72.32666015625
-76.904296875
-78.7353515625
-71.4111328125
-66.83349609375
-61.34033203125
-62.255859375
-59.50927734375
-44.86083984375
-46.69189453125
-54.931640625
-57.67822265625
-68.66455078125
-77.81982421875
-68.66455078125
-65.00244140625
-56.7626953125
-51.26953125
-60.4248046875
-55.84716796875
-62.255859375
-69.580078125
-79.65087890625
-75.98876953125
-74.15771484375
-76.904296875
-84.228515625
-84.228515625
-85.14404296875
-83.31298828125
-82.3974609375
-86.97509765625
-87.890625
-93.3837890625
-82.3974609375
-84.228515625
-82.3974609375
-75.0732421875
-75.98876953125
-75.0732421875
-80.56640625
-85.14404296875
-85.14404296875
-92.46826171875
-80.56640625
-83.31298828125
-75.98876953125
-75.0732421875
-65.00244140625
-79.65087890625
-82.3974609375
-68.66455078125
-78.7353515625
-78.7353515625
-74.15771484375
-70.49560546875
-70.49560546875
-73.2421875
-67.7490234375
-73.2421875
-75.98876953125
-75.98876953125
-74.15771484375
-72.32666015625
-56.7626953125
-59.50927734375
-53.1005859375
-0.91552734375
90.63720703125
178.52783203125
271.91162109375
374.45068359375
465.087890625
534.66796875
621.64306640625
731.50634765625
818.4814453125
908.203125
991.51611328125
1012.5732421875
929.26025390625
776.3671875
585.9375
418.39599609375
283.8134765625
191.34521484375
114.44091796875
45.7763671875
22.88818359375
17.39501953125
18.310546875
25.634765625
23.8037109375
26.55029296875
40.283203125
43.9453125
32.958984375
24.71923828125
19.22607421875
7.32421875
-3.662109375
-10.986328125
-4.57763671875
-21.97265625
-28.38134765625
-21.05712890625
-25.634765625
-11.90185546875
-9.1552734375
-16.4794921875
-15.56396484375
-17.39501953125
-21.05712890625
-29.296875
-22.88818359375
-20.1416015625
-19.22607421875
-21.97265625
-19.22607421875
-19.22607421875
-17.39501953125
-12.8173828125
-11.90185546875
-14.6484375
-19.22607421875
-17.39501953125
-3.662109375
0
0
-1.8310546875
-11.90185546875
-6.40869140625
-7.32421875
-15.56396484375
-6.40869140625
-0.91552734375
-0.91552734375
2.74658203125
5.4931640625
1.8310546875
0
6.40869140625
2.74658203125
-3.662109375
0.91552734375
0.91552734375
-2.74658203125
8.23974609375
11.90185546875
20.1416015625
23.8037109375
26.55029296875
21.97265625
10.986328125
18.310546875
24.71923828125
21.05712890625
24.71923828125
36.62109375
38.4521484375
32.04345703125
38.4521484375
32.04345703125
21.05712890625
28.38134765625
48.52294921875
53.1005859375
57.67822265625
59.50927734375
57.67822265625
52.18505859375
65.00244140625
58.59375
54.931640625
65.00244140625
73.2421875
76.904296875
86.97509765625
99.79248046875
91.552734375
93.3837890625
102.5390625
103.45458984375
110.77880859375
118.10302734375
126.3427734375
132.75146484375
137.3291015625
140.07568359375
145.56884765625
152.89306640625
152.89306640625
155.6396484375
157.470703125
164.794921875
173.9501953125
179.443359375
195.9228515625
209.65576171875
211.48681640625
207.82470703125
212.40234375
217.8955078125
216.97998046875
231.62841796875
242.61474609375
247.1923828125
249.93896484375
267.333984375
273.74267578125
271.91162109375
263.671875
270.08056640625
271.91162109375
279.23583984375
283.8134765625
282.89794921875
288.39111328125
288.39111328125
280.1513671875
273.74267578125
266.41845703125
257.26318359375
238.95263671875
230.712890625
224.30419921875
208.740234375
202.33154296875
189.51416015625
169.37255859375
140.9912109375
133.6669921875
120.849609375
90.63720703125
78.7353515625
78.7353515625
75.0732421875
59.50927734375
58.59375
38.4521484375
22.88818359375
15.56396484375
6.40869140625
-3.662109375
-11.90185546875
-17.39501953125
-17.39501953125
-23.8037109375
-31.1279296875
-36.62109375
-35.70556640625
-30.21240234375
-45.7763671875
-51.26953125
-51.26953125
-45.7763671875
-45.7763671875
-44.86083984375
-36.62109375
-38.4521484375
-53.1005859375
-55.84716796875
-57.67822265625
-58.59375
-58.59375
-51.26953125
-45.7763671875
-55.84716796875
-49.4384765625
-47.607421875
-64.0869140625
-64.0869140625
-55.84716796875
-63.17138671875
-53.1005859375
-53.1005859375
-63.17138671875
-60.4248046875
-43.9453125
-42.1142578125
-54.931640625
-58.59375
-52.18505859375
-60.4248046875
-66.83349609375
-71.4111328125
-66.83349609375
-54.931640625
-54.01611328125
-54.931640625
-50.35400390625
-51.26953125
-49.4384765625
-55.84716796875
-54.01611328125
-63.17138671875
-55.84716796875
-46.69189453125
-43.02978515625
-39.36767578125
-50.35400390625
-43.9453125
-48.52294921875
-57.67822265625
-61.34033203125
-60.4248046875
-49.4384765625
-43.02978515625
-43.9453125
-38.4521484375
-32.958984375
-43.9453125
-48.52294921875
-50.35400390625
-45.7763671875
-39.36767578125
-38.4521484375
-33.87451171875
-35.70556640625
-47.607421875
-48.52294921875
-37.53662109375
-37.53662109375
-46.69189453125
-43.02978515625
-34.7900390625
-38.4521484375
-35.70556640625
-29.296875
-37.53662109375
-48.52294921875
-46.69189453125
-40.283203125
-35.70556640625
-42.1142578125
-39.36767578125
-39.36767578125
-35.70556640625
-25.634765625
-30.21240234375
-35.70556640625
-43.9453125
-44.86083984375
-50.35400390625
-46.69189453125
-47.607421875
-43.02978515625
-34.7900390625
-36.62109375
-43.9453125
-48.52294921875
-53.1005859375
-53.1005859375
-49.4384765625
-52.18505859375
-43.02978515625
-49.4384765625
-46.69189453125
-36.62109375
-48.52294921875
-55.84716796875
-50.35400390625
-52.18505859375
-56.7626953125
-63.17138671875
-54.01611328125
-55.84716796875
-52.18505859375
-43.02978515625
-55.84716796875
-58.59375
-62.255859375
-65.91796875
-67.7490234375
-65.91796875
-57.67822265625
-50.35400390625
-53.1005859375
-49.4384765625
-58.59375
-65.91796875
-65.91796875
-68.66455078125
-78.7353515625
-73.2421875
-58.59375
-47.607421875
-58.59375
-66.83349609375
-64.0869140625
-64.0869140625
-65.91796875
-62.255859375
-65.91796875
-65.00244140625
-65.00244140625
-69.580078125
-65.00244140625
-61.34033203125
-58.59375
-63.17138671875
-65.00244140625
-67.7490234375
-71.4111328125
-64.0869140625
-60.4248046875
-57.67822265625
-61.34033203125
-56.7626953125
-63.17138671875
-60.4248046875
-66.83349609375
-64.0869140625
-65.91796875
-60.4248046875
-65.00244140625
-61.34033203125
-72.32666015625
-62.255859375
-62.255859375
-64.0869140625
-67.7490234375
-69.580078125
-74.15771484375
-73.2421875
-66.83349609375
-67.7490234375
-68.66455078125
-64.0869140625
-63.17138671875
-60.4248046875
-61.34033203125
-59.50927734375
-70.49560546875
-64.0869140625
-60.4248046875
-56.7626953125
-60.4248046875
-59.50927734375
-62.255859375
-70.49560546875
-62.255859375
-61.34033203125
-72.32666015625
-74.15771484375
-62.255859375
-62.255859375
-54.01611328125
-60.4248046875
-56.7626953125
-66.83349609375
-72.32666015625
-68.66455078125
-82.3974609375
-70.49560546875
-54.931640625
-60.4248046875
-63.17138671875
-52.18505859375
-60.4248046875
-60.4248046875
-54.931640625
-56.7626953125
-61.34033203125
-65.91796875
-62.255859375
-57.67822265625
-56.7626953125
-54.01611328125
-65.00244140625
-71.4111328125
-58.59375
-43.9453125
-57.67822265625
-56.7626953125
-66.83349609375
-62.255859375
-61.34033203125
-50.35400390625
-55.84716796875
-59.50927734375
-53.1005859375
-52.18505859375
-50.35400390625
-53.1005859375
-45.7763671875
-46.69189453125
-56.7626953125
-63.17138671875
-79.65087890625
-63.17138671875
-68.66455078125
-70.49560546875
-75.98876953125
-70.49560546875
-66.83349609375
-74.15771484375
-68.66455078125
-67.7490234375
-71.4111328125
-70.49560546875
-55.84716796875
-48.52294921875
-51.26953125
-50.35400390625
-43.02978515625
-35.70556640625
-39.36767578125
-36.62109375
-32.04345703125
-38.4521484375
-35.70556640625
-30.21240234375
-50.35400390625
-69.580078125
-64.0869140625
-54.01611328125
-46.69189453125
-35.70556640625
-34.7900390625
-38.4521484375
-31.1279296875
-32.04345703125
-46.69189453125
-52.18505859375
-49.4384765625
-45.7763671875
-48.52294921875
-54.01611328125
-55.84716796875
-49.4384765625
-67.7490234375
-58.59375
-61.34033203125
-64.0869140625
-63.17138671875
-57.67822265625
-56.7626953125
-48.52294921875
-54.01611328125
-63.17138671875
-62.255859375
-55.84716796875
-63.17138671875
-61.34033203125
-52.18505859375
-54.01611328125
-55.84716796875
-54.931640625
-53.1005859375
-54.931640625
-60.4248046875
-55.84716796875
-65.91796875
-65.00244140625
-47.607421875
-41.19873046875
-44.86083984375
-52.18505859375
-53.1005859375
-59.50927734375
-56.7626953125
-48.52294921875
-48.52294921875
-47.607421875
-34.7900390625
-37.53662109375
-20.1416015625
28.38134765625
101.62353515625
182.18994140625
284.72900390625
374.45068359375
455.01708984375
541.9921875
632.62939453125
738.83056640625
825.8056640625
910.94970703125
980.52978515625
1008.9111328125
979.6142578125
836.7919921875
651.85546875
475.15869140625
342.4072265625
229.79736328125
158.38623046875
92.46826171875
54.931640625
36.62109375
37.53662109375
54.931640625
53.1005859375
65.00244140625
68.66455078125
62.255859375
52.18505859375
48.52294921875
46.69189453125
34.7900390625
26.55029296875
19.22607421875
9.1552734375
-3.662109375
12.8173828125
8.23974609375
6.40869140625
13.73291015625
13.73291015625
1.8310546875
10.07080078125
10.07080078125
7.32421875
11.90185546875
10.07080078125
8.23974609375
8.23974609375
16.4794921875
14.6484375
6.40869140625
15.56396484375
7.32421875
-10.986328125
-6.40869140625
5.4931640625
8.23974609375
17.39501953125
28.38134765625
25.634765625
24.71923828125
24.71923828125
12.8173828125
9.1552734375
12.8173828125
13.73291015625
23.8037109375
25.634765625
35.70556640625
29.296875
25.634765625
24.71923828125
30.21240234375
24.71923828125
23.8037109375
27.4658203125
29.296875
41.19873046875
39.36767578125
35.70556640625
30.21240234375
33.87451171875
42.1142578125
40.283203125
34.7900390625
35.70556640625
47.607421875
57.67822265625
64.0869140625
53.1005859375
55.84716796875
56.7626953125
59.50927734375
53.1005859375
61.34033203125
65.00244140625
73.2421875
78.7353515625
80.56640625
83.31298828125
75.98876953125
79.65087890625
84.228515625
84.228515625
91.552734375
97.96142578125
97.0458984375
97.96142578125
97.96142578125
105.28564453125
105.28564453125
108.0322265625
120.849609375
119.0185546875
122.6806640625
128.173828125
137.3291015625
151.06201171875
162.9638671875
167.54150390625
158.38623046875
162.9638671875
174.86572265625
168.45703125
173.9501953125
177.6123046875
192.2607421875
187.68310546875
199.5849609375
204.16259765625
205.99365234375
212.40234375
227.05078125
222.47314453125
229.79736328125
236.2060546875
244.44580078125
248.10791015625
257.26318359375
264.58740234375
256.34765625
263.671875
268.24951171875
263.671875
269.1650390625
277.40478515625
282.89794921875
286.56005859375
292.96875
297.54638671875
287.4755859375
281.982421875
280.1513671875
266.41845703125
259.09423828125
254.5166015625
246.27685546875
232.5439453125
224.30419921875
208.740234375
185.85205078125
175.78125
167.54150390625
139.16015625
130.0048828125
120.849609375
102.5390625
89.7216796875
78.7353515625
65.91796875
57.67822265625
47.607421875
34.7900390625
11.90185546875
0.91552734375
2.74658203125
1.8310546875
-8.23974609375
-7.32421875
-10.986328125
-24.71923828125
-32.958984375
-27.4658203125
-39.36767578125
-49.4384765625
-39.36767578125
-38.4521484375
-43.02978515625
-43.02978515625
-45.7763671875
-50.35400390625
-52.18505859375
-45.7763671875
-52.18505859375
-62.255859375
-59.50927734375
-43.02978515625
-43.9453125
-44.86083984375
-48.52294921875
-52.18505859375
-50.35400390625
-46.69189453125
-54.931640625
-57.67822265625
-60.4248046875
-59.50927734375
-48.52294921875
-41.19873046875
-36.62109375
-50.35400390625
-56.7626953125
-56.7626953125
-65.91796875
-59.50927734375
-51.26953125
-50.35400390625
-43.02978515625
-38.4521484375
-52.18505859375
-54.01611328125
-53.1005859375
-54.01611328125
-53.1005859375
-54.931640625
-51.26953125
-43.9453125
-44.86083984375
-35.70556640625
-40.283203125
-45.7763671875
-44.86083984375
-38.4521484375
-51.26953125
-54.01611328125
-41.19873046875
-44.86083984375
-40.283203125
-34.7900390625
-38.4521484375
-51.26953125
-43.9453125
-37.53662109375
-43.02978515625
-43.02978515625
-39.36767578125
-35.70556640625
-38.4521484375
-31.1279296875
-35.70556640625
-43.9453125
-42.1142578125
-42.1142578125
-50.35400390625
-45.7763671875
-36.62109375
-35.70556640625
-40.283203125
-40.283203125
-40.283203125
-44.86083984375
-42.1142578125
-35.70556640625
-43.9453125
-43.02978515625
-41.19873046875
-44.86083984375
-39.36767578125
-33.87451171875
-41.19873046875
-44.86083984375
-44.86083984375
-41.19873046875
-44.86083984375
-42.1142578125
-42.1142578125
-38.4521484375
-42.1142578125
-38.4521484375
-32.04345703125
-35.70556640625
-38.4521484375
-45.7763671875
-43.02978515625
-45.7763671875
-50.35400390625
-49.4384765625
-47.607421875
-44.86083984375
-41.19873046875
-50.35400390625
-51.26953125
-43.9453125
-51.26953125
-54.01611328125
-59.50927734375
-46.69189453125
-50.35400390625
-50.35400390625
-49.4384765625
-58.59375
-49.4384765625
-43.02978515625
-58.59375
-62.255859375
-58.59375
-55.84716796875
-54.931640625
-52.18505859375
-51.26953125
-59.50927734375
-64.0869140625
-60.4248046875
-65.91796875
-68.66455078125
-55.84716796875
-55.84716796875
-50.35400390625
-53.1005859375
-54.931640625
-57.67822265625
-50.35400390625
-49.4384765625
-50.35400390625
-59.50927734375
-70.49560546875
-71.4111328125
-64.0869140625
-57.67822265625
-56.7626953125
-64.0869140625
-61.34033203125
-66.83349609375
-62.255859375
-63.17138671875
-68.66455078125
-54.931640625
-60.4248046875
-58.59375
-51.26953125
-65.00244140625
-56.7626953125
-65.00244140625
-57.67822265625
-65.00244140625
-73.2421875
-69.580078125
-63.17138671875
-67.7490234375
-63.17138671875
-59.50927734375
-54.931640625
-61.34033203125
-63.17138671875
-66.83349609375
-71.4111328125
-69.580078125
-64.0869140625
-60.4248046875
-51.26953125
-62.255859375
-56.7626953125
-64.0869140625
-76.904296875
-78.7353515625
-71.4111328125
-61.34033203125
-68.66455078125
-65.91796875
-65.00244140625
-69.580078125
-67.7490234375
-65.00244140625
-81.48193359375
-75.98876953125
-74.15771484375
-73.2421875
-66.83349609375
-67.7490234375
-66.83349609375
-66.83349609375
-74.15771484375
-74.15771484375
-70.49560546875
-76.904296875
-71.4111328125
-69.580078125
-66.83349609375
-65.91796875
-63.17138671875
-61.34033203125
-67.7490234375
-65.00244140625
-69.580078125
-79.65087890625
-75.98876953125
-79.65087890625
-90.63720703125
-84.228515625
-80.56640625
-80.56640625
-75.98876953125
-81.48193359375
-83.31298828125
-90.63720703125
-96.13037109375
-96.13037109375
-88.80615234375
