ECG
-47.607421875
-51.26953125
-53.1005859375
-55.84716796875
-66.83349609375
-58.59375
-47.607421875
-51.26953125
-50.35400390625
-52.18505859375
-49.4384765625
-53.1005859375
-59.50927734375
-66.83349609375
-79.65087890625
-72.32666015625
-60.4248046875
-56.7626953125
-61.34033203125
-54.01611328125
-61.34033203125
-65.00244140625
-66.83349609375
-74.15771484375
-71.4111328125
-72.32666015625
-71.4111328125
-67.7490234375
-62.255859375
-58.59375
-59.50927734375
-73.2421875
-71.4111328125
-71.4111328125
-78.7353515625
-80.56640625
-75.0732421875
-69.580078125
-62.255859375
-58.59375
-61.34033203125
-65.00244140625
-66.83349609375
-73.2421875
-78.7353515625
-77.81982421875
-78.7353515625
-77.81982421875
-74.15771484375
-57.67822265625
-64.0869140625
-62.255859375
-69.580078125
-68.66455078125
-75.98876953125
-72.32666015625
-73.2421875
-70.49560546875
-68.66455078125
-58.59375
-65.91796875
-68.66455078125
-70.49560546875
-78.7353515625
-85.14404296875
-79.65087890625
-75.98876953125
-76.904296875
-75.98876953125
-72.32666015625
-74.15771484375
-73.2421875
-67.7490234375
-76.904296875
-77.81982421875
-75.0732421875
-75.98876953125
-75.0732421875
-73.2421875
-67.7490234375
-64.0869140625
-65.91796875
-72.32666015625
-75.98876953125
-81.48193359375
-78.7353515625
-70.49560546875
-78.7353515625
-64.0869140625
-67.7490234375
-69.580078125
-68.66455078125
-73.2421875
-72.32666015625
-81.48193359375
-84.228515625
-75.98876953125
-70.49560546875
-68.66455078125
-64.0869140625
-67.7490234375
-68.66455078125
-67.7490234375
-79.65087890625
-85.14404296875
-84.228515625
-79.65087890625
-74.15771484375
-76.904296875
-78.7353515625
-67.7490234375
-74.15771484375
-84.228515625
-83.31298828125
-98.876953125
-100.7080078125
-75.98876953125
-75.0732421875
-74.15771484375
-67.7490234375
-68.66455078125
-75.0732421875
-76.904296875
-78.7353515625
-82.3974609375
-86.0595703125
-81.48193359375
-75.0732421875
-69.580078125
-69.580078125
-74.15771484375
-78.7353515625
-79.65087890625
-72.32666015625
-75.0732421875
-73.2421875
-67.7490234375
-63.17138671875
-54.931640625
-54.01611328125
-49.4384765625
-57.67822265625
-65.91796875
-79.65087890625
-72.32666015625
-59.50927734375
-47.607421875
-27.4658203125
-7.32421875
11.90185546875
-1.8310546875
-12.8173828125
-18.310546875
-34.7900390625
-52.18505859375
-54.01611328125
-60.4248046875
-57.67822265625
-51.26953125
-50.35400390625
-52.18505859375
-70.49560546875
-81.48193359375
-88.80615234375
-78.7353515625
-75.98876953125
-80.56640625
-75.98876953125
-72.32666015625
-65.00244140625
-65.91796875
-79.65087890625
-84.228515625
-86.0595703125
-94.29931640625
-89.7216796875
-83.31298828125
-76.904296875
-82.3974609375
-75.98876953125
-79.65087890625
-77.81982421875
-82.3974609375
-86.97509765625
-90.63720703125
-92.46826171875
-87.890625
-86.97509765625
-83.31298828125
-72.32666015625
-75.0732421875
-74.15771484375
-73.2421875
-78.7353515625
-83.31298828125
-81.48193359375
-77.81982421875
-77.81982421875
-86.97509765625
-102.5390625
-130.92041015625
-152.89306640625
-158.38623046875
-144.6533203125
-120.849609375
-83.31298828125
-27.4658203125
31.1279296875
133.6669921875
282.89794921875
446.77734375
591.4306640625
705.87158203125
814.8193359375
941.162109375
1047.36328125
1133.4228515625
1138.00048828125
1105.04150390625
1061.09619140625
989.68505859375
794.677734375
487.060546875
200.50048828125
-36.62109375
-103.45458984375
-95.21484375
-75.0732421875
-44.86083984375
-21.97265625
-11.90185546875
-13.73291015625
-15.56396484375
-27.4658203125
-42.1142578125
-46.69189453125
-54.01611328125
-52.18505859375
-51.26953125
-50.35400390625
-54.931640625
-61.34033203125
-65.00244140625
-66.83349609375
-79.65087890625
-76.904296875
-72.32666015625
-74.15771484375
-65.00244140625
-57.67822265625
-61.34033203125
-66.83349609375
-68.66455078125
-73.2421875
-80.56640625
-80.56640625
-75.0732421875
-69.580078125
-63.17138671875
-61.34033203125
-61.34033203125
-65.00244140625
-65.91796875
-67.7490234375
-80.56640625
-80.56640625
-65.91796875
-65.00244140625
-55.84716796875
-63.17138671875
-59.50927734375
-59.50927734375
-67.7490234375
-65.00244140625
-74.15771484375
-75.0732421875
-70.49560546875
-69.580078125
-64.0869140625
-53.1005859375
-53.1005859375
-51.26953125
-68.66455078125
-75.0732421875
-79.65087890625
-71.4111328125
-65.91796875
-62.255859375
-60.4248046875
-60.4248046875
-58.59375
-62.255859375
-67.7490234375
-66.83349609375
-77.81982421875
-73.2421875
-73.2421875
-73.2421875
-70.49560546875
-60.4248046875
-62.255859375
-61.34033203125
-70.49560546875
-75.0732421875
-80.56640625
-77.81982421875
-70.49560546875
-64.0869140625
-60.4248046875
-54.01611328125
-57.67822265625
-58.59375
-62.255859375
-65.91796875
-75.0732421875
-71.4111328125
-65.00244140625
-58.59375
-54.01611328125
-47.607421875
-47.607421875
-52.18505859375
-51.26953125
-55.84716796875
-63.17138671875
-58.59375
-54.931640625
-48.52294921875
-50.35400390625
-41.19873046875
-50.35400390625
-53.1005859375
-48.52294921875
-53.1005859375
-56.7626953125
-55.84716796875
-44.86083984375
-38.4521484375
-33.87451171875
-38.4521484375
-40.283203125
-40.283203125
-39.36767578125
-49.4384765625
-52.18505859375
-48.52294921875
-54.931640625
-43.02978515625
-32.04345703125
-29.296875
-33.87451171875
-36.62109375
-32.04345703125
-40.283203125
-48.52294921875
-40.283203125
-34.7900390625
-29.296875
-21.97265625
-12.8173828125
-10.07080078125
-16.4794921875
-15.56396484375
-8.23974609375
-14.6484375
-13.73291015625
-4.57763671875
-3.662109375
0.91552734375
17.39501953125
16.4794921875
12.8173828125
15.56396484375
11.90185546875
8.23974609375
18.310546875
21.97265625
29.296875
38.4521484375
44.86083984375
39.36767578125
30.21240234375
32.04345703125
29.296875
18.310546875
20.1416015625
20.1416015625
22.88818359375
27.4658203125
32.04345703125
26.55029296875
17.39501953125
10.07080078125
3.662109375
-9.1552734375
-12.8173828125
-7.32421875
-5.4931640625
-0.91552734375
-8.23974609375
-10.07080078125
-14.6484375
-18.310546875
-26.55029296875
-37.53662109375
-35.70556640625
-30.21240234375
-39.36767578125
-30.21240234375
-23.8037109375
-28.38134765625
-29.296875
-34.7900390625
-44.86083984375
-46.69189453125
-46.69189453125
-41.19873046875
-40.283203125
-39.36767578125
-26.55029296875
-27.4658203125
-32.958984375
-32.958984375
-40.283203125
-49.4384765625
-46.69189453125
-42.1142578125
-42.1142578125
-39.36767578125
-28.38134765625
-29.296875
-30.21240234375
-28.38134765625
-34.7900390625
-47.607421875
-40.283203125
-39.36767578125
-39.36767578125
-36.62109375
-26.55029296875
-30.21240234375
-32.958984375
-32.04345703125
-36.62109375
-47.607421875
-43.02978515625
-33.87451171875
-25.634765625
-16.4794921875
-18.310546875
-25.634765625
-22.88818359375
-27.4658203125
-33.87451171875
-33.87451171875
-34.7900390625
-27.4658203125
-20.1416015625
-26.55029296875
-16.4794921875
-18.310546875
-21.97265625
-18.310546875
-21.97265625
-37.53662109375
-36.62109375
-32.04345703125
-27.4658203125
-13.73291015625
-7.32421875
-16.4794921875
-29.296875
-32.04345703125
-28.38134765625
-40.283203125
-41.19873046875
-36.62109375
-32.958984375
-33.87451171875
-33.87451171875
-29.296875
-27.4658203125
-34.7900390625
-35.70556640625
-45.7763671875
-49.4384765625
-37.53662109375
-32.958984375
-33.87451171875
-32.04345703125
-37.53662109375
-36.62109375
-37.53662109375
-43.9453125
-53.1005859375
-48.52294921875
-43.02978515625
-43.9453125
-41.19873046875
-34.7900390625
-38.4521484375
-45.7763671875
-38.4521484375
-49.4384765625
-56.7626953125
-52.18505859375
-50.35400390625
-46.69189453125
-43.9453125
-32.958984375
-27.4658203125
-37.53662109375
-41.19873046875
-47.607421875
-55.84716796875
-65.91796875
-57.67822265625
-50.35400390625
-50.35400390625
-43.02978515625
-41.19873046875
-43.02978515625
-54.931640625
-56.7626953125
-55.84716796875
-60.4248046875
-55.84716796875
-52.18505859375
-39.36767578125
-32.04345703125
-38.4521484375
-46.69189453125
-43.9453125
-49.4384765625
-58.59375
-64.0869140625
-56.7626953125
-49.4384765625
-53.1005859375
-41.19873046875
-43.02978515625
-44.86083984375
-43.9453125
-59.50927734375
-56.7626953125
-57.67822265625
-54.931640625
-51.26953125
-51.26953125
-45.7763671875
-43.9453125
-39.36767578125
-54.01611328125
-55.84716796875
-62.255859375
-54.01611328125
-46.69189453125
-55.84716796875
-54.01611328125
-45.7763671875
-54.931640625
-60.4248046875
-54.931640625
-55.84716796875
-63.17138671875
-63.17138671875
-61.34033203125
-61.34033203125
-49.4384765625
-36.62109375
-44.86083984375
-56.7626953125
-56.7626953125
-54.01611328125
-61.34033203125
-54.931640625
-57.67822265625
-51.26953125
-45.7763671875
-42.1142578125
-45.7763671875
-53.1005859375
-54.01611328125
-50.35400390625
-63.17138671875
-63.17138671875
-57.67822265625
-53.1005859375
-48.52294921875
-50.35400390625
-54.931640625
-50.35400390625
-50.35400390625
-56.7626953125
-61.34033203125
-62.255859375
-59.50927734375
-60.4248046875
-53.1005859375
-43.02978515625
-44.86083984375
-52.18505859375
-43.02978515625
-58.59375
-72.32666015625
-68.66455078125
-62.255859375
-50.35400390625
-51.26953125
-43.02978515625
-42.1142578125
-50.35400390625
-57.67822265625
-55.84716796875
-60.4248046875
-59.50927734375
-62.255859375
-61.34033203125
-57.67822265625
-44.86083984375
-44.86083984375
-49.4384765625
-42.1142578125
-39.36767578125
-54.931640625
-49.4384765625
-46.69189453125
-33.87451171875
-40.283203125
-42.1142578125
-42.1142578125
-44.86083984375
-47.607421875
-43.9453125
-32.04345703125
-16.4794921875
-4.57763671875
13.73291015625
14.6484375
15.56396484375
1.8310546875
-12.8173828125
-20.1416015625
-30.21240234375
-37.53662109375
-43.02978515625
-36.62109375
-32.04345703125
-36.62109375
-43.9453125
-54.01611328125
-53.1005859375
-54.931640625
-60.4248046875
-63.17138671875
-70.49560546875
-62.255859375
-55.84716796875
-56.7626953125
-51.26953125
-52.18505859375
-55.84716796875
-57.67822265625
-61.34033203125
-65.91796875
-63.17138671875
-65.91796875
-65.91796875
-64.0869140625
-59.50927734375
-62.255859375
-56.7626953125
-67.7490234375
-70.49560546875
-77.81982421875
-69.580078125
-67.7490234375
-52.18505859375
-52.18505859375
-43.02978515625
-53.1005859375
-55.84716796875
-64.0869140625
-61.34033203125
-68.66455078125
-64.0869140625
-73.2421875
-92.46826171875
-100.7080078125
-117.1875
-112.60986328125
-97.96142578125
-75.0732421875
-27.4658203125
21.97265625
93.3837890625
222.47314453125
390.93017578125
547.4853515625
672.91259765625
778.1982421875
903.62548828125
1018.06640625
1091.30859375
1152.64892578125
1141.66259765625
1109.619140625
1062.01171875
959.47265625
710.44921875
421.142578125
159.3017578125
-22.88818359375
-60.4248046875
-75.98876953125
-73.2421875
-50.35400390625
-29.296875
-14.6484375
-0.91552734375
9.1552734375
-1.8310546875
-7.32421875
-14.6484375
-24.71923828125
-38.4521484375
-35.70556640625
-32.958984375
-30.21240234375
-30.21240234375
-36.62109375
-47.607421875
-49.4384765625
-48.52294921875
-52.18505859375
-55.84716796875
-49.4384765625
-43.02978515625
-42.1142578125
-36.62109375
-39.36767578125
-36.62109375
-42.1142578125
-49.4384765625
-62.255859375
-55.84716796875
-56.7626953125
-49.4384765625
-42.1142578125
-35.70556640625
-37.53662109375
-43.02978515625
-40.283203125
-43.9453125
-51.26953125
-43.02978515625
-41.19873046875
-49.4384765625
-44.86083984375
-36.62109375
-34.7900390625
-37.53662109375
-42.1142578125
-45.7763671875
-49.4384765625
-53.1005859375
-44.86083984375
-48.52294921875
-43.9453125
-37.53662109375
-40.283203125
-41.19873046875
-46.69189453125
-49.4384765625
-57.67822265625
-51.26953125
-47.607421875
-46.69189453125
-43.9453125
-35.70556640625
-40.283203125
-42.1142578125
-49.4384765625
-43.9453125
-51.26953125
-57.67822265625
-54.931640625
-46.69189453125
-42.1142578125
-36.62109375
-39.36767578125
-42.1142578125
-47.607421875
-52.18505859375
-54.931640625
-51.26953125
-54.01611328125
-50.35400390625
-42.1142578125
-33.87451171875
-44.86083984375
-41.19873046875
-43.02978515625
-37.53662109375
-45.7763671875
-54.01611328125
-46.69189453125
-46.69189453125
-35.70556640625
-32.04345703125
-36.62109375
-37.53662109375
-32.04345703125
-34.7900390625
-44.86083984375
-45.7763671875
-42.1142578125
-45.7763671875
-33.87451171875
-16.4794921875
-25.634765625
-32.04345703125
-38.4521484375
-44.86083984375
-46.69189453125
-47.607421875
-41.19873046875
-35.70556640625
-27.4658203125
-22.88818359375
-25.634765625
-29.296875
-32.958984375
-36.62109375
-37.53662109375
-38.4521484375
-29.296875
-29.296875
-22.88818359375
-16.4794921875
-15.56396484375
-21.05712890625
-21.97265625
-23.8037109375
-29.296875
-26.55029296875
-22.88818359375
-17.39501953125
-8.23974609375
-4.57763671875
0
-7.32421875
-10.986328125
-10.986328125
-18.310546875
-5.4931640625
-0.91552734375
9.1552734375
17.39501953125
22.88818359375
21.05712890625
23.8037109375
24.71923828125
13.73291015625
10.07080078125
21.97265625
28.38134765625
29.296875
29.296875
35.70556640625
33.87451171875
37.53662109375
30.21240234375
21.97265625
15.56396484375
18.310546875
19.22607421875
12.8173828125
17.39501953125
24.71923828125
18.310546875
16.4794921875
3.662109375
-0.91552734375
-11.90185546875
-14.6484375
-10.986328125
-11.90185546875
-11.90185546875
-9.1552734375
-10.986328125
-12.8173828125
-21.97265625
-22.88818359375
-34.7900390625
-35.70556640625
-30.21240234375
-32.04345703125
-27.4658203125
-25.634765625
-28.38134765625
-30.21240234375
-33.87451171875
-37.53662109375
-44.86083984375
-43.02978515625
-37.53662109375
-36.62109375
-33.87451171875
-30.21240234375
-27.4658203125
-26.55029296875
-21.97265625
-34.7900390625
-43.02978515625
-39.36767578125
-35.70556640625
-26.55029296875
-28.38134765625
-19.22607421875
-25.634765625
-32.04345703125
-32.04345703125
-38.4521484375
-48.52294921875
-38.4521484375
-21.97265625
-29.296875
-28.38134765625
-18.310546875
-21.05712890625
-21.05712890625
-17.39501953125
-32.958984375
-40.283203125
-41.19873046875
-38.4521484375
-32.04345703125
-23.8037109375
-13.73291015625
-14.6484375
-27.4658203125
-29.296875
-26.55029296875
-32.04345703125
-34.7900390625
-32.04345703125
-30.21240234375
-27.4658203125
-14.6484375
-17.39501953125
-24.71923828125
-29.296875
-34.7900390625
-44.86083984375
-41.19873046875
-29.296875
-28.38134765625
-26.55029296875
-15.56396484375
-31.1279296875
-35.70556640625
-33.87451171875
-42.1142578125
-42.1142578125
-50.35400390625
-45.7763671875
-37.53662109375
-35.70556640625
-28.38134765625
-32.04345703125
-33.87451171875
-36.62109375
-42.1142578125
-61.34033203125
-57.67822265625
-53.1005859375
-51.26953125
-44.86083984375
-37.53662109375
-41.19873046875
-44.86083984375
-54.01611328125
-54.931640625
-58.59375
-55.84716796875
-56.7626953125
-54.01611328125
-52.18505859375
-48.52294921875
-51.26953125
-55.84716796875
-56.7626953125
-62.255859375
-70.49560546875
-65.91796875
-58.59375
-63.17138671875
-63.17138671875
-57.67822265625
-57.67822265625
-64.0869140625
-63.17138671875
-64.0869140625
-67.7490234375
-70.49560546875
-68.66455078125
-65.00244140625
-61.34033203125
-53.1005859375
-62.255859375
-65.00244140625
-66.83349609375
-74.15771484375
-80.56640625
-71.4111328125
-62.255859375
-64.0869140625
-54.931640625
-48.52294921875
-58.59375
-54.931640625
-56.7626953125
-65.91796875
-73.2421875
-67.7490234375
-68.66455078125
-66.83349609375
-61.34033203125
-58.59375
-60.4248046875
-63.17138671875
-64.0869140625
-67.7490234375
-77.81982421875
-75.98876953125
-68.66455078125
-67.7490234375
-64.0869140625
-58.59375
-59.50927734375
-64.0869140625
-66.83349609375
-69.580078125
-77.81982421875
-76.904296875
-70.49560546875
-60.4248046875
-62.255859375
-60.4248046875
-54.931640625
-57.67822265625
-60.4248046875
-62.255859375
-72.32666015625
-75.0732421875
-69.580078125
-65.00244140625
-59.50927734375
-55.84716796875
-62.255859375
-62.255859375
-60.4248046875
-65.91796875
-74.15771484375
-75.98876953125
-73.2421875
-69.580078125
-60.4248046875
-54.931640625
-55.84716796875
-64.0869140625
-65.91796875
-62.255859375
-72.32666015625
-79.65087890625
-72.32666015625
-61.34033203125
-60.4248046875
-54.01611328125
-61.34033203125
-61.34033203125
-60.4248046875
-67.7490234375
-77.81982421875
-79.65087890625
-75.98876953125
-68.66455078125
-59.50927734375
-47.607421875
-55.84716796875
-58.59375
-54.01611328125
-58.59375
-70.49560546875
-63.17138671875
-54.01611328125
-53.1005859375
-53.1005859375
-51.26953125
-43.9453125
-43.9453125
-35.70556640625
-26.55029296875
-15.56396484375
-4.57763671875
-6.40869140625
-14.6484375
-10.986328125
-12.8173828125
-22.88818359375
-31.1279296875
-43.02978515625
-47.607421875
-54.01611328125
-54.01611328125
-54.931640625
-65.00244140625
-68.66455078125
-68.66455078125
-62.255859375
-66.83349609375
-59.50927734375
-65.00244140625
-78.7353515625
-78.7353515625
-76.904296875
-77.81982421875
-75.0732421875
-67.7490234375
-71.4111328125
-72.32666015625
-83.31298828125
-84.228515625
-89.7216796875
-89.7216796875
-84.228515625
-76.904296875
-75.98876953125
-65.91796875
-65.91796875
-68.66455078125
-69.580078125
-74.15771484375
-88.80615234375
-82.3974609375
-80.56640625
-80.56640625
-72.32666015625
-63.17138671875
-57.67822265625
-65.91796875
-64.0869140625
-74.15771484375
-89.7216796875
-108.0322265625
-132.75146484375
-151.06201171875
-150.146484375
-132.75146484375
-108.94775390625
-71.4111328125
-25.634765625
33.87451171875
121.76513671875
261.8408203125
421.142578125
574.03564453125
695.80078125
822.1435546875
955.810546875
1048.27880859375
1115.1123046875
1130.67626953125
1093.1396484375
1054.6875
991.51611328125
826.72119140625
529.1748046875
243.5302734375
10.07080078125
-84.228515625
-83.31298828125
-77.81982421875
-64.0869140625
-42.1142578125
-25.634765625
-13.73291015625
-10.07080078125
-8.23974609375
-15.56396484375
-27.4658203125
-35.70556640625
-43.9453125
-58.59375
-58.59375
-61.34033203125
-58.59375
-57.67822265625
-53.1005859375
-55.84716796875
-59.50927734375
-65.91796875
-66.83349609375
-76.904296875
-81.48193359375
-73.2421875
-69.580078125
-68.66455078125
-62.255859375
-61.34033203125
-69.580078125
-68.66455078125
-70.49560546875
-76.904296875
-75.98876953125
-71.4111328125
-70.49560546875
-65.00244140625
-56.7626953125
-55.84716796875
-64.0869140625
-67.7490234375
-69.580078125
-74.15771484375
-73.2421875
-71.4111328125
-65.00244140625
-63.17138671875
-59.50927734375
-59.50927734375
-59.50927734375
-56.7626953125
-65.91796875
-77.81982421875
-75.0732421875
-69.580078125
-61.34033203125
-59.50927734375
-55.84716796875
-56.7626953125
-61.34033203125
-65.00244140625
-73.2421875
-79.65087890625
-74.15771484375
-74.15771484375
-70.49560546875
-64.0869140625
-61.34033203125
-61.34033203125
-65.00244140625
-69.580078125
-68.66455078125
-75.98876953125
-75.98876953125
-65.91796875
-65.00244140625
-57.67822265625
-57.67822265625
-60.4248046875
-64.0869140625
-66.83349609375
-69.580078125
-76.904296875
-77.81982421875
-72.32666015625
-68.66455078125
-67.7490234375
-61.34033203125
-65.91796875
-64.0869140625
-60.4248046875
-67.7490234375
-70.49560546875
-66.83349609375
-62.255859375
-59.50927734375
-55.84716796875
-45.7763671875
-53.1005859375
-54.01611328125
-53.1005859375
-59.50927734375
-67.7490234375
-67.7490234375
-65.91796875
-66.83349609375
-60.4248046875
-46.69189453125
-44.86083984375
-53.1005859375
-52.18505859375
-53.1005859375
-61.34033203125
-58.59375
-45.7763671875
-51.26953125
-48.52294921875
-40.283203125
-38.4521484375
-39.36767578125
-43.02978515625
-47.607421875
-49.4384765625
-51.26953125
-44.86083984375
-38.4521484375
-36.62109375
-26.55029296875
-32.958984375
-36.62109375
-32.04345703125
-32.04345703125
-41.19873046875
-31.1279296875
-21.97265625
-21.05712890625
-17.39501953125
-10.986328125
-6.40869140625
-9.1552734375
-12.8173828125
-10.986328125
-18.310546875
-13.73291015625
-5.4931640625
-2.74658203125
-1.8310546875
8.23974609375
17.39501953125
12.8173828125
15.56396484375
18.310546875
3.662109375
7.32421875
12.8173828125
10.986328125
14.6484375
22.88818359375
20.1416015625
12.8173828125
10.07080078125
5.4931640625
-5.4931640625
-7.32421875
-10.07080078125
-8.23974609375
-7.32421875
-6.40869140625
-10.986328125
-13.73291015625
-20.1416015625
-28.38134765625
-40.283203125
-40.283203125
-40.283203125
-40.283203125
-39.36767578125
-36.62109375
-36.62109375
-41.19873046875
-45.7763671875
-51.26953125
-60.4248046875
-60.4248046875
-58.59375
-54.01611328125
-49.4384765625
-48.52294921875
-51.26953125
-61.34033203125
-58.59375
-60.4248046875
-68.66455078125
-69.580078125
-63.17138671875
-57.67822265625
-55.84716796875
-43.9453125
-45.7763671875
-57.67822265625
-54.931640625
-60.4248046875
-65.00244140625
-63.17138671875
-58.59375
-55.84716796875
-56.7626953125
-45.7763671875
-40.283203125
-45.7763671875
-50.35400390625
-48.52294921875
-60.4248046875
-66.83349609375
-59.50927734375
-54.931640625
-52.18505859375
-44.86083984375
-43.9453125
-46.69189453125
-51.26953125
-54.931640625
-58.59375
-49.4384765625
-50.35400390625
-51.26953125
-48.52294921875
-39.36767578125
-43.9453125
-46.69189453125
-45.7763671875
-55.84716796875
-58.59375
-56.7626953125
-54.931640625
-54.01611328125
-46.69189453125
-43.9453125
-46.69189453125
-48.52294921875
-46.69189453125
-54.01611328125
-66.83349609375
-69.580078125
-61.34033203125
-57.67822265625
-54.931640625
-47.607421875
-49.4384765625
-54.931640625
-59.50927734375
-59.50927734375
-65.00244140625
-65.91796875
-60.4248046875
-54.01611328125
-61.34033203125
-49.4384765625
-48.52294921875
-57.67822265625
-62.255859375
-67.7490234375
-75.98876953125
-71.4111328125
-66.83349609375
-66.83349609375
-66.83349609375
-59.50927734375
-58.59375
-63.17138671875
-65.91796875
-73.2421875
-75.98876953125
-75.0732421875
-68.66455078125
-61.34033203125
-63.17138671875
-63.17138671875
-62.255859375
-65.00244140625
-64.0869140625
-66.83349609375
-75.0732421875
-73.2421875
-70.49560546875
-74.15771484375
-76.904296875
-57.67822265625
-62.255859375
-73.2421875
-77.81982421875
-75.0732421875
-83.31298828125
-89.7216796875
-81.48193359375
-77.81982421875
-71.4111328125
-71.4111328125
-69.580078125
-73.2421875
-74.15771484375
-85.14404296875
-83.31298828125
-86.97509765625
-80.56640625
-76.904296875
-75.98876953125
-68.66455078125
-74.15771484375
-77.81982421875
-80.56640625
-76.904296875
-86.97509765625
-88.80615234375
-76.904296875
-75.0732421875
-72.32666015625
-66.83349609375
-66.83349609375
-74.15771484375
-73.2421875
-77.81982421875
-84.228515625
-84.228515625
-78.7353515625
-79.65087890625
-70.49560546875
-65.91796875
-68.66455078125
-70.49560546875
-67.7490234375
-72.32666015625
-86.0595703125
-91.552734375
-76.904296875
-74.15771484375
-70.49560546875
-68.66455078125
-64.0869140625
-71.4111328125
-75.0732421875
-80.56640625
-85.14404296875
-86.0595703125
-79.65087890625
-75.0732421875
-71.4111328125
-65.91796875
-67.7490234375
-75.0732421875
-82.3974609375
-83.31298828125
-94.29931640625
-93.3837890625
-86.97509765625
-84.228515625
-79.65087890625
-69.580078125
-74.15771484375
-77.81982421875
-83.31298828125
-88.80615234375
-96.13037109375
-85.14404296875
-86.0595703125
-85.14404296875
-75.0732421875
-67.7490234375
-72.32666015625
-73.2421875
-74.15771484375
-80.56640625
-89.7216796875
-86.0595703125
-83.31298828125
-78.7353515625
-82.3974609375
-75.98876953125
-78.7353515625
-77.81982421875
-81.48193359375
-78.7353515625
-89.7216796875
-87.890625
-89.7216796875
-86.0595703125
-83.31298828125
-66.83349609375
-58.59375
-65.00244140625
-67.7490234375
-72.32666015625
-81.48193359375
-78.7353515625
-75.0732421875
-75.98876953125
-75.0732421875
-70.49560546875
-62.255859375
-65.00244140625
-52.18505859375
-38.4521484375
-31.1279296875
-27.4658203125
-32.958984375
-34.7900390625
-37.53662109375
-42.1142578125
-48.52294921875
-65.00244140625
-66.83349609375
-66.83349609375
-74.15771484375
-75.0732421875
-81.48193359375
-90.63720703125
-97.96142578125
-89.7216796875
-78.7353515625
-82.3974609375
-90.63720703125
-85.14404296875
-97.0458984375
-106.201171875
-102.5390625
-94.29931640625
-93.3837890625
-88.80615234375
-93.3837890625
-86.97509765625
-92.46826171875
-98.876953125
-104.3701171875
-103.45458984375
-100.7080078125
-103.45458984375
-96.13037109375
-89.7216796875
-87.890625
-86.97509765625
-86.0595703125
-94.29931640625
-101.62353515625
-97.0458984375
-84.228515625
-83.31298828125
-80.56640625
-77.81982421875
-79.65087890625
-82.3974609375
-82.3974609375
-86.97509765625
-96.13037109375
-123.59619140625
-140.9912109375
-153.80859375
-166.6259765625
-142.822265625
-114.44091796875
-85.14404296875
-43.02978515625
23.8037109375
115.3564453125
251.77001953125
411.07177734375
562.1337890625
684.814453125
810.24169921875
944.82421875
1050.10986328125
1119.68994140625
1134.33837890625
1083.06884765625
1039.12353515625
976.86767578125
809.326171875
511.77978515625
218.81103515625
-21.97265625
-106.201171875
-97.96142578125
-88.80615234375
-75.0732421875
-54.931640625
-34.7900390625
-26.55029296875
-21.97265625
-21.05712890625
-32.04345703125
-48.52294921875
-53.1005859375
-62.255859375
-75.98876953125
-72.32666015625
-72.32666015625
-70.49560546875
-71.4111328125
-67.7490234375
-72.32666015625
-77.81982421875
-79.65087890625
-80.56640625
-86.97509765625
-82.3974609375
-76.904296875
-73.2421875
-68.66455078125
-64.0869140625
-69.580078125
-78.7353515625
-77.81982421875
-84.228515625
-86.97509765625
-90.63720703125
-80.56640625
-80.56640625
-76.904296875
-65.91796875
-70.49560546875
-71.4111328125
-77.81982421875
-75.0732421875
-84.228515625
-83.31298828125
-80.56640625
-75.98876953125
-70.49560546875
-65.91796875
-66.83349609375
-72.32666015625
-77.81982421875
-74.15771484375
-84.228515625
-83.31298828125
-77.81982421875
-69.580078125
-65.91796875
-62.255859375
-65.00244140625
-67.7490234375
-69.580078125
-80.56640625
-84.228515625
-88.80615234375
-81.48193359375
-76.904296875
-75.0732421875
-66.83349609375
-67.7490234375
-73.2421875
-74.15771484375
-78.7353515625
-85.14404296875
-82.3974609375
-80.56640625
-80.56640625
-69.580078125
-64.0869140625
-65.00244140625
-69.580078125
-75.0732421875
-76.904296875
-78.7353515625
-79.65087890625
-72.32666015625
-71.4111328125
-69.580078125
-63.17138671875
-65.00244140625
-70.49560546875
-73.2421875
-68.66455078125
-72.32666015625
-71.4111328125
-68.66455078125
-69.580078125
-58.59375
-54.01611328125
-54.931640625
-56.7626953125
-56.7626953125
-60.4248046875
-70.49560546875
-78.7353515625
-74.15771484375
-61.34033203125
-55.84716796875
-50.35400390625
-47.607421875
-47.607421875
-50.35400390625
-53.1005859375
-54.931640625
-66.83349609375
-64.0869140625
-51.26953125
-46.69189453125
-38.4521484375
-44.86083984375
-49.4384765625
-53.1005859375
-45.7763671875
-46.69189453125
-46.69189453125
-43.9453125
-38.4521484375
-33.87451171875
-17.39501953125
-24.71923828125
-33.87451171875
-31.1279296875
-32.958984375
-44.86083984375
-42.1142578125
-32.958984375
-27.4658203125
-21.97265625
-14.6484375
-9.1552734375
-12.8173828125
-11.90185546875
-13.73291015625
-19.22607421875
-20.1416015625
-7.32421875
-0.91552734375
3.662109375
7.32421875
14.6484375
16.4794921875
11.90185546875
8.23974609375
14.6484375
9.1552734375
15.56396484375
21.05712890625
23.8037109375
29.296875
21.05712890625
19.22607421875
18.310546875
11.90185546875
-6.40869140625
-5.4931640625
-4.57763671875
-4.57763671875
-7.32421875
-3.662109375
-12.8173828125
-21.97265625
-25.634765625
-26.55029296875
-35.70556640625
-42.1142578125
-32.958984375
-42.1142578125
-43.02978515625
-37.53662109375
-40.283203125
-47.607421875
-48.52294921875
-53.1005859375
-65.91796875
-68.66455078125
-58.59375
-63.17138671875
-61.34033203125
-49.4384765625
-52.18505859375
-54.01611328125
-57.67822265625
-60.4248046875
-61.34033203125
-65.00244140625
-64.0869140625
-65.00244140625
-57.67822265625
-48.52294921875
-46.69189453125
-47.607421875
-49.4384765625
-58.59375
-72.32666015625
-73.2421875
-62.255859375
-60.4248046875
-55.84716796875
-46.69189453125
-47.607421875
-51.26953125
-59.50927734375
-57.67822265625
-64.0869140625
-63.17138671875
-55.84716796875
-53.1005859375
-49.4384765625
-43.02978515625
-45.7763671875
-47.607421875
-50.35400390625
-52.18505859375
-59.50927734375
-57.67822265625
-60.4248046875
-54.01611328125
-54.931640625
-43.02978515625
-50.35400390625
-52.18505859375
-54.01611328125
-57.67822265625
-62.255859375
-65.91796875
-63.17138671875
-58.59375
-53.1005859375
-47.607421875
-43.9453125
-46.69189453125
-42.1142578125
-55.84716796875
-67.7490234375
-71.4111328125
-61.34033203125
-57.67822265625
-54.931640625
-49.4384765625
-53.1005859375
-57.67822265625
-56.7626953125
-59.50927734375
-69.580078125
-65.00244140625
-65.00244140625
-59.50927734375
-57.67822265625
-48.52294921875
-56.7626953125
-59.50927734375
-63.17138671875
-65.00244140625
-67.7490234375
-71.4111328125
-70.49560546875
-70.49560546875
-69.580078125
-62.255859375
-56.7626953125
-66.83349609375
-60.4248046875
-65.91796875
-70.49560546875
-74.15771484375
-80.56640625
-71.4111328125
-64.0869140625
-54.931640625
-63.17138671875
-70.49560546875
-69.580078125
-72.32666015625
-78.7353515625
-83.31298828125
-79.65087890625
-76.904296875
-73.2421875
-65.00244140625
-72.32666015625
-70.49560546875
-69.580078125
-71.4111328125
-84.228515625
-80.56640625
-79.65087890625
-77.81982421875
-73.2421875
-61.34033203125
-72.32666015625
-73.2421875
-76.904296875
-78.7353515625
-86.0595703125
-83.31298828125
-79.65087890625
-75.98876953125
-73.2421875
-71.4111328125
-69.580078125
-75.0732421875
-81.48193359375
-82.3974609375
-88.80615234375
-92.46826171875
-78.7353515625
-69.580078125
-67.7490234375
-71.4111328125
-66.83349609375
-71.4111328125
-74.15771484375
-75.98876953125
-78.7353515625
-76.904296875
-86.97509765625
-85.14404296875
-73.2421875
-64.0869140625
-65.91796875
-78.7353515625
-78.7353515625
-80.56640625
-79.65087890625
-84.228515625
-83.31298828125
-78.7353515625
-80.56640625
-70.49560546875
-74.15771484375
-75.98876953125
-75.98876953125
-79.65087890625
-95.21484375
-84.228515625
-79.65087890625
-77.81982421875
-80.56640625
-72.32666015625
-74.15771484375
-78.7353515625
-74.15771484375
-77.81982421875
-94.29931640625
-96.13037109375
-90.63720703125
-89.7216796875
-86.97509765625
-75.0732421875
-76.904296875
-81.48193359375
-84.228515625
-89.7216796875
-94.29931640625
-97.96142578125
-96.13037109375
-89.7216796875
-81.48193359375
-81.48193359375
-76.904296875
-82.3974609375
-83.31298828125
-92.46826171875
-97.0458984375
-95.21484375
-96.13037109375
-94.29931640625
-89.7216796875
-81.48193359375
-76.904296875
-84.228515625
-91.552734375
-100.7080078125
-108.0322265625
-104.3701171875
-100.7080078125
-93.3837890625
-92.46826171875
-85.14404296875
-75.98876953125
-78.7353515625
-79.65087890625
-86.0595703125
-86.0595703125
-85.14404296875
-85.14404296875
-83.31298828125
-86.0595703125
-83.31298828125
-74.15771484375
-55.84716796875
-43.02978515625
-26.55029296875
-31.1279296875
-40.283203125
-38.4521484375
-45.7763671875
-45.7763671875
-52.18505859375
-54.01611328125
-69.580078125
-74.15771484375
-67.7490234375
-76.904296875
-89.7216796875
-92.46826171875
-99.79248046875
-91.552734375
-79.65087890625
-84.228515625
-86.0595703125
-89.7216796875
-96.13037109375
-98.876953125
-98.876953125
-102.5390625
-97.96142578125
-94.29931640625
-91.552734375
-97.96142578125
-93.3837890625
-83.31298828125
-96.13037109375
-101.62353515625
-97.0458984375
-95.21484375
-98.876953125
-95.21484375
-86.97509765625
-90.63720703125
-87.890625
-87.890625
-90.63720703125
-88.80615234375
-86.97509765625
-90.63720703125
-94.29931640625
-77.81982421875
-77.81982421875
-77.81982421875
-73.2421875
-82.3974609375
-102.5390625
-127.25830078125
-151.9775390625
-165.71044921875
-161.1328125
-137.3291015625
-100.7080078125
-64.0869140625
-18.310546875
43.9453125
151.06201171875
294.7998046875
449.52392578125
591.4306640625
704.04052734375
821.22802734375
958.55712890625
1058.349609375
1119.68994140625
1111.4501953125
1075.74462890625
1021.728515625
949.40185546875
747.0703125
443.115234375
173.03466796875
-30.21240234375
-90.63720703125
-83.31298828125
-80.56640625
-61.34033203125
-55.84716796875
-43.02978515625
-27.4658203125
-28.38134765625
-29.296875
-20.1416015625
-31.1279296875
-44.86083984375
-51.26953125
-61.34033203125
-69.580078125
-68.66455078125
-68.66455078125
-65.00244140625
-65.00244140625
-58.59375
-66.83349609375
-68.66455078125
-75.0732421875
-78.7353515625
-86.97509765625
-84.228515625
-82.3974609375
-84.228515625
-70.49560546875
-59.50927734375
-73.2421875
-72.32666015625
-74.15771484375
-75.0732421875
-71.4111328125
-77.81982421875
-77.81982421875
-76.904296875
-67.7490234375
-57.67822265625
-69.580078125
-75.98876953125
-70.49560546875
-77.81982421875
-81.48193359375
-71.4111328125
-69.580078125
-65.91796875
-68.66455078125
-57.67822265625
-61.34033203125
-68.66455078125
-74.15771484375
-75.98876953125
-78.7353515625
-75.0732421875
-70.49560546875
-68.66455078125
-64.0869140625
-62.255859375
-62.255859375
-65.00244140625
-72.32666015625
-72.32666015625
-71.4111328125
-66.83349609375
-72.32666015625
-71.4111328125
-60.4248046875
-58.59375
-57.67822265625
-63.17138671875
-77.81982421875
-83.31298828125
-86.97509765625
-83.31298828125
-76.904296875
-71.4111328125
-68.66455078125
-64.0869140625
-65.00244140625
-70.49560546875
-65.91796875
-62.255859375
-71.4111328125
-75.98876953125
-76.904296875
-72.32666015625
-66.83349609375
-50.35400390625
-51.26953125
-66.83349609375
-69.580078125
-69.580078125
-76.904296875
-85.14404296875
-77.81982421875
-72.32666015625
-59.50927734375
-54.01611328125
-52.18505859375
-56.7626953125
-54.01611328125
-65.91796875
-71.4111328125
-70.49560546875
-65.91796875
-54.01611328125
-51.26953125
-41.19873046875
-48.52294921875
-48.52294921875
-56.7626953125
-61.34033203125
-63.17138671875
-64.0869140625
-66.83349609375
-64.0869140625
-49.4384765625
-50.35400390625
-51.26953125
-59.50927734375
-50.35400390625
-54.931640625
-65.00244140625
-60.4248046875
-54.01611328125
-50.35400390625
-46.69189453125
-37.53662109375
-31.1279296875
-36.62109375
-40.283203125
-45.7763671875
-54.01611328125
-48.52294921875
-36.62109375
-23.8037109375
-34.7900390625
-23.8037109375
-28.38134765625
-24.71923828125
-21.97265625
-24.71923828125
-31.1279296875
-23.8037109375
-22.88818359375
-14.6484375
-6.40869140625
0.91552734375
10.07080078125
1.8310546875
0
6.40869140625
2.74658203125
-2.74658203125
-3.662109375
1.8310546875
10.07080078125
22.88818359375
16.4794921875
-2.74658203125
-5.4931640625
-3.662109375
-5.4931640625
-18.310546875
-15.56396484375
-18.310546875
-16.4794921875
-10.986328125
-11.90185546875
-23.8037109375
-32.04345703125
-29.296875
-40.283203125
-51.26953125
-57.67822265625
-49.4384765625
-41.19873046875
-40.283203125
-48.52294921875
-47.607421875
-51.26953125
-53.1005859375
-58.59375
-56.7626953125
-63.17138671875
-66.83349609375
-58.59375
-57.67822265625
-54.01611328125
-55.84716796875
-62.255859375
-71.4111328125
-74.15771484375
-69.580078125
-65.00244140625
-70.49560546875
-65.00244140625
-52.18505859375
-52.18505859375
-53.1005859375
-64.0869140625
-69.580078125
-74.15771484375
-72.32666015625
-75.0732421875
-75.98876953125
-67.7490234375
-54.01611328125
-52.18505859375
-65.91796875
-61.34033203125
-67.7490234375
-71.4111328125
-75.0732421875
-78.7353515625
-70.49560546875
-65.91796875
-52.18505859375
-54.931640625
-61.34033203125
-63.17138671875
-62.255859375
-74.15771484375
-77.81982421875
-69.580078125
-66.83349609375
-56.7626953125
-48.52294921875
-51.26953125
-55.84716796875
-58.59375
-54.931640625
-67.7490234375
-68.66455078125
-59.50927734375
-58.59375
-55.84716796875
-43.02978515625
-43.02978515625
-54.931640625
-59.50927734375
-52.18505859375
-63.17138671875
-72.32666015625
-65.00244140625
-60.4248046875
-60.4248046875
-54.01611328125
-54.931640625
-55.84716796875
-58.59375
-59.50927734375
-64.0869140625
-70.49560546875
-67.7490234375
-62.255859375
-57.67822265625
-53.1005859375
-54.931640625
-54.931640625
-66.83349609375
-72.32666015625
-76.904296875
-77.81982421875
-68.66455078125
-66.83349609375
-65.91796875
-57.67822265625
-57.67822265625
-64.0869140625
-66.83349609375
-75.98876953125
-77.81982421875
-85.14404296875
-77.81982421875
-68.66455078125
-65.00244140625
-60.4248046875
-61.34033203125
-62.255859375
-70.49560546875
-75.0732421875
-79.65087890625
-82.3974609375
-80.56640625
-72.32666015625
-68.66455078125
-64.0869140625
-65.91796875
-75.0732421875
-77.81982421875
-75.0732421875
-83.31298828125
-84.228515625
-77.81982421875
-75.98876953125
-70.49560546875
-71.4111328125
-65.91796875
-70.49560546875
-74.15771484375
-75.98876953125
-86.97509765625
-81.48193359375
-79.65087890625
-76.904296875
-75.98876953125
-65.91796875
-70.49560546875
-69.580078125
-74.15771484375
-77.81982421875
-85.14404296875
-79.65087890625
-80.56640625
-75.98876953125
-76.904296875
-67.7490234375
-66.83349609375
-69.580078125
-75.0732421875
-76.904296875
-82.3974609375
-81.48193359375
-83.31298828125
-75.98876953125
-75.0732421875
-67.7490234375
-70.49560546875
-72.32666015625
-74.15771484375
-74.15771484375
-78.7353515625
-87.890625
-81.48193359375
-76.904296875
-69.580078125
-71.4111328125
-67.7490234375
-70.49560546875
-73.2421875
-75.0732421875
-81.48193359375
-75.98876953125
-81.48193359375
-76.904296875
-75.0732421875
-61.34033203125
-55.84716796875
-71.4111328125
-69.580078125
-71.4111328125
-79.65087890625
-86.97509765625
-87.890625
-90.63720703125
-75.98876953125
-64.0869140625
-64.0869140625
-60.4248046875
-61.34033203125
-65.00244140625
-75.0732421875
-76.904296875
-68.66455078125
-69.580078125
-74.15771484375
-63.17138671875
-58.59375
-54.01611328125
-58.59375
-51.26953125
-46.69189453125
-27.4658203125
-9.1552734375
-11.90185546875
-25.634765625
-25.634765625
-34.7900390625
-41.19873046875
-45.7763671875
-49.4384765625
-60.4248046875
-60.4248046875
-50.35400390625
-49.4384765625
-71.4111328125
-81.48193359375
-85.14404296875
-75.98876953125
-75.0732421875
-77.81982421875
-82.3974609375
-88.80615234375
-91.552734375
-87.890625
-75.0732421875
-69.580078125
-69.580078125
-76.904296875
-80.56640625
-82.3974609375
-95.21484375
-87.890625
-86.97509765625
-85.14404296875
-86.0595703125
-72.32666015625
-76.904296875
-76.904296875
-81.48193359375
-86.0595703125
-89.7216796875
-90.63720703125
-78.7353515625
-75.0732421875
-74.15771484375
-67.7490234375
-67.7490234375
-65.00244140625
-68.66455078125
-72.32666015625
-83.31298828125
-92.46826171875
-98.876953125
-122.6806640625
-137.3291015625
-142.822265625
-124.51171875
-106.201171875
-70.49560546875
-13.73291015625
39.36767578125
133.6669921875
286.56005859375
449.52392578125
595.0927734375
700.37841796875
809.326171875
942.9931640625
1036.376953125
1098.6328125
1111.4501953125
1072.998046875
1041.8701171875
973.20556640625
780.94482421875
484.31396484375
220.64208984375
0
-75.0732421875
-75.98876953125
-91.552734375
-89.7216796875
-55.84716796875
-35.70556640625
-22.88818359375
-15.56396484375
-16.4794921875
-21.05712890625
-29.296875
-38.4521484375
-52.18505859375
-58.59375
-56.7626953125
-58.59375
-60.4248046875
-59.50927734375
-64.0869140625
-64.0869140625
-58.59375
-65.91796875
-77.81982421875
-74.15771484375
-70.49560546875
-70.49560546875
-69.580078125
-58.59375
-53.1005859375
-65.91796875
-71.4111328125
-70.49560546875
-74.15771484375
-75.0732421875
-72.32666015625
-67.7490234375
-67.7490234375
-66.83349609375
-59.50927734375
-63.17138671875
-64.0869140625
-66.83349609375
-73.2421875
-73.2421875
-73.2421875
-69.580078125
-63.17138671875
-58.59375
-51.26953125
-60.4248046875
-69.580078125
-67.7490234375
-77.81982421875
-83.31298828125
-69.580078125
-69.580078125
-68.66455078125
-62.255859375
-63.17138671875
-64.0869140625
-63.17138671875
-65.91796875
-76.904296875
-81.48193359375
-77.81982421875
-74.15771484375
-70.49560546875
-61.34033203125
-58.59375
-59.50927734375
-64.0869140625
-64.0869140625
-66.83349609375
-79.65087890625
-84.228515625
-75.98876953125
-68.66455078125
-57.67822265625
-58.59375
-66.83349609375
-65.00244140625
-59.50927734375
-71.4111328125
-73.2421875
-65.00244140625
-72.32666015625
-68.66455078125
-57.67822265625
-53.1005859375
-60.4248046875
-64.0869140625
-67.7490234375
-75.98876953125
-76.904296875
-68.66455078125
-64.0869140625
-60.4248046875
-54.931640625
-52.18505859375
-51.26953125
-53.1005859375
-51.26953125
-61.34033203125
-66.83349609375
-67.7490234375
-61.34033203125
-57.67822265625
-54.931640625
-43.9453125
-49.4384765625
-52.18505859375
-61.34033203125
-65.00244140625
-61.34033203125
-57.67822265625
-53.1005859375
-49.4384765625
-49.4384765625
-46.69189453125
-48.52294921875
-47.607421875
-45.7763671875
-53.1005859375
-57.67822265625
-49.4384765625
-46.69189453125
-45.7763671875
-38.4521484375
-36.62109375
-41.19873046875
-42.1142578125
-39.36767578125
-53.1005859375
-54.931640625
-47.607421875
-37.53662109375
-32.04345703125
-24.71923828125
-19.22607421875
-25.634765625
-23.8037109375
-24.71923828125
-33.87451171875
-35.70556640625
-22.88818359375
-10.07080078125
-9.1552734375
-4.57763671875
-6.40869140625
-1.8310546875
4.57763671875
-0.91552734375
-10.07080078125
-12.8173828125
0
10.07080078125
7.32421875
4.57763671875
3.662109375
9.1552734375
0.91552734375
-5.4931640625
-5.4931640625
-13.73291015625
-12.8173828125
-9.1552734375
-10.07080078125
-8.23974609375
-11.90185546875
-23.8037109375
-23.8037109375
-24.71923828125
-41.19873046875
-48.52294921875
-41.19873046875
-41.19873046875
-43.9453125
-36.62109375
-35.70556640625
-37.53662109375
-46.69189453125
-54.01611328125
-62.255859375
-63.17138671875
-64.0869140625
-57.67822265625
-57.67822265625
-55.84716796875
-56.7626953125
-60.4248046875
-60.4248046875
-63.17138671875
-72.32666015625
-71.4111328125
-64.0869140625
-62.255859375
-61.34033203125
-54.01611328125
-53.1005859375
-57.67822265625
-54.01611328125
-60.4248046875
-65.00244140625
-67.7490234375
-67.7490234375
-67.7490234375
-58.59375
-52.18505859375
-51.26953125
-54.931640625
-57.67822265625
-61.34033203125
-65.91796875
-63.17138671875
-65.91796875
-60.4248046875
-57.67822265625
-44.86083984375
-46.69189453125
-53.1005859375
-56.7626953125
-57.67822265625
-60.4248046875
-63.17138671875
-57.67822265625
-56.7626953125
-51.26953125
-52.18505859375
-54.01611328125
-58.59375
-54.931640625
-54.931640625
-59.50927734375
-63.17138671875
-58.59375
-60.4248046875
-54.931640625
-49.4384765625
-51.26953125
-54.01611328125
-53.1005859375
-56.7626953125
-62.255859375
-64.0869140625
-57.67822265625
-61.34033203125
-56.7626953125
-54.931640625
-54.931640625
-61.34033203125
-69.580078125
-68.66455078125
-73.2421875
-75.98876953125
-69.580078125
-66.83349609375
-66.83349609375
-61.34033203125
-57.67822265625
-57.67822265625
-65.91796875
-65.91796875
-73.2421875
-75.0732421875
-74.15771484375
-77.81982421875
-71.4111328125
-54.931640625
-65.00244140625
-71.4111328125
-68.66455078125
-74.15771484375
-81.48193359375
-75.0732421875
-71.4111328125
-70.49560546875
-67.7490234375
-67.7490234375
-64.0869140625
-65.91796875
-67.7490234375
-73.2421875
-78.7353515625
-84.228515625
-85.14404296875
-77.81982421875
-73.2421875
-65.00244140625
-68.66455078125
-72.32666015625
-75.0732421875
-75.0732421875
-77.81982421875
-84.228515625
-82.3974609375
-75.0732421875
-70.49560546875
-64.0869140625
-66.83349609375
-66.83349609375
-65.91796875
-69.580078125
-78.7353515625
-82.3974609375
-78.7353515625
-76.904296875
-72.32666015625
-68.66455078125
-65.91796875
-67.7490234375
-77.81982421875
-73.2421875
-86.0595703125
-88.80615234375
-86.97509765625
-82.3974609375
-74.15771484375
-74.15771484375
-71.4111328125
-69.580078125
-71.4111328125
-70.49560546875
-83.31298828125
-92.46826171875
-83.31298828125
-79.65087890625
-73.2421875
-67.7490234375
-65.91796875
-76.904296875
-79.65087890625
-80.56640625
-86.97509765625
-90.63720703125
-86.97509765625
-78.7353515625
-80.56640625
-74.15771484375
-73.2421875
-75.0732421875
-75.0732421875
-81.48193359375
-86.97509765625
-84.228515625
-83.31298828125
-81.48193359375
-76.904296875
-67.7490234375
-66.83349609375
-71.4111328125
-76.904296875
-75.98876953125
-79.65087890625
-88.80615234375
-89.7216796875
-86.0595703125
-82.3974609375
-75.0732421875
-73.2421875
-72.32666015625
-77.81982421875
-80.56640625
-92.46826171875
-90.63720703125
-83.31298828125
-76.904296875
-74.15771484375
-71.4111328125
-67.7490234375
-66.83349609375
-69.580078125
-70.49560546875
-77.81982421875
-80.56640625
-76.904296875
-76.904296875
-74.15771484375
-68.66455078125
-65.91796875
-75.98876953125
-75.98876953125
-75.98876953125
-80.56640625
-81.48193359375
-73.2421875
-72.32666015625
-65.91796875
-54.01611328125
-54.01611328125
-63.17138671875
-70.49560546875
-68.66455078125
-77.81982421875
-71.4111328125
-67.7490234375
-52.18505859375
-35.70556640625
-9.1552734375
0
-17.39501953125
-27.4658203125
-32.958984375
-48.52294921875
-58.59375
-60.4248046875
-63.17138671875
-57.67822265625
-52.18505859375
-48.52294921875
-59.50927734375
-75.0732421875
-84.228515625
-87.890625
-80.56640625
-75.98876953125
-75.0732421875
-75.0732421875
-71.4111328125
-72.32666015625
-78.7353515625
-83.31298828125
-86.0595703125
-97.0458984375
-98.876953125
-92.46826171875
-85.14404296875
-87.890625
-76.904296875
-75.98876953125
-82.3974609375
-88.80615234375
-87.890625
-86.97509765625
-88.80615234375
-86.97509765625
-90.63720703125
-84.228515625
-73.2421875
-72.32666015625
-75.0732421875
-71.4111328125
-79.65087890625
-95.21484375
-86.0595703125
-86.0595703125
-77.81982421875
-79.65087890625
-86.0595703125
-109.86328125
-140.07568359375
-156.55517578125
-165.71044921875
-155.6396484375
-129.08935546875
-85.14404296875
-22.88818359375
42.1142578125
151.9775390625
308.53271484375
459.5947265625
597.83935546875
706.787109375
817.56591796875
958.55712890625
1064.75830078125
1130.67626953125
1116.02783203125
1094.970703125
1049.1943359375
961.3037109375
743.408203125
435.791015625
138.24462890625
-70.49560546875
-116.27197265625
-99.79248046875
-83.31298828125
-48.52294921875
-31.1279296875
-18.310546875
-18.310546875
-20.1416015625
-39.36767578125
-52.18505859375
-51.26953125
-58.59375
-57.67822265625
-50.35400390625
-54.01611328125
-64.0869140625
-71.4111328125
-72.32666015625
-81.48193359375
-86.0595703125
-79.65087890625
-74.15771484375
-68.66455078125
-65.00244140625
-63.17138671875
-70.49560546875
-70.49560546875
-73.2421875
-89.7216796875
-87.890625
-82.3974609375
-80.56640625
-73.2421875
-75.98876953125
-67.7490234375
-65.00244140625
-70.49560546875
-79.65087890625
-80.56640625
-80.56640625
-77.81982421875
-78.7353515625
-75.0732421875
-65.91796875
-63.17138671875
-63.17138671875
-67.7490234375
-72.32666015625
-76.904296875
-85.14404296875
-83.31298828125
-76.904296875
-75.98876953125
-66.83349609375
-63.17138671875
-67.7490234375
-67.7490234375
-69.580078125
-74.15771484375
-75.0732421875
-77.81982421875
-75.0732421875
-67.7490234375
-69.580078125
-62.255859375
-62.255859375
-68.66455078125
-71.4111328125
-72.32666015625
-75.98876953125
-75.98876953125
-69.580078125
-61.34033203125
-54.931640625
-64.0869140625
-69.580078125
-66.83349609375
-68.66455078125
-70.49560546875
-75.0732421875
-75.0732421875
-71.4111328125
-63.17138671875
-58.59375
-59.50927734375
-61.34033203125
-65.91796875
-62.255859375
-70.49560546875
-73.2421875
-66.83349609375
-64.0869140625
-64.0869140625
-56.7626953125
-51.26953125
-53.1005859375
-55.84716796875
-54.01611328125
-66.83349609375
-65.91796875
-64.0869140625
-57.67822265625
-52.18505859375
-48.52294921875
-50.35400390625
-50.35400390625
-45.7763671875
-51.26953125
-61.34033203125
-64.0869140625
-58.59375
-52.18505859375
-43.02978515625
-34.7900390625
-35.70556640625
-40.283203125
-48.52294921875
-48.52294921875
-53.1005859375
-54.01611328125
-54.01611328125
-46.69189453125
-33.87451171875
-30.21240234375
-27.4658203125
-34.7900390625
-35.70556640625
-35.70556640625
-41.19873046875
-38.4521484375
-33.87451171875
-29.296875
-22.88818359375
-18.310546875
-19.22607421875
-23.8037109375
-21.05712890625
-14.6484375
-27.4658203125
-25.634765625
-17.39501953125
-9.1552734375
0.91552734375
4.57763671875
6.40869140625
8.23974609375
6.40869140625
6.40869140625
2.74658203125
3.662109375
17.39501953125
17.39501953125
19.22607421875
22.88818359375
30.21240234375
29.296875
21.05712890625
17.39501953125
11.90185546875
10.07080078125
7.32421875
10.986328125
14.6484375
18.310546875
15.56396484375
10.986328125
4.57763671875
-1.8310546875
-12.8173828125
-21.97265625
-21.97265625
-16.4794921875
-16.4794921875
-12.8173828125
-18.310546875
-26.55029296875
-30.21240234375
-32.958984375
-43.02978515625
-47.607421875
-46.69189453125
-37.53662109375
-36.62109375
-32.04345703125
-34.7900390625
-41.19873046875
-46.69189453125
-42.1142578125
-50.35400390625
-54.931640625
-53.1005859375
-45.7763671875
-43.02978515625
-43.02978515625
-40.283203125
-39.36767578125
-44.86083984375
-47.607421875
-51.26953125
-58.59375
-54.01611328125
-47.607421875
-41.19873046875
-39.36767578125
-40.283203125
-37.53662109375
-45.7763671875
-48.52294921875
-59.50927734375
-52.18505859375
-50.35400390625
-40.283203125
-40.283203125
-37.53662109375
-34.7900390625
-42.1142578125
-47.607421875
-46.69189453125
-46.69189453125
-49.4384765625
-45.7763671875
-43.9453125
-40.283203125
-32.04345703125
-34.7900390625
-48.52294921875
-44.86083984375
-38.4521484375
-46.69189453125
-48.52294921875
-43.02978515625
-42.1142578125
-43.9453125
-41.19873046875
-24.71923828125
-32.958984375
-41.19873046875
-40.283203125
-46.69189453125
-50.35400390625
-47.607421875
-39.36767578125
-37.53662109375
-33.87451171875
-32.04345703125
-37.53662109375
-42.1142578125
-39.36767578125
-52.18505859375
-54.931640625
-49.4384765625
-43.9453125
-42.1142578125
-36.62109375
-38.4521484375
-45.7763671875
-45.7763671875
-49.4384765625
-56.7626953125
-62.255859375
-62.255859375
-52.18505859375
-49.4384765625
-45.7763671875
-45.7763671875
-52.18505859375
-60.4248046875
-56.7626953125
-64.0869140625
-69.580078125
-63.17138671875
-61.34033203125
-54.01611328125
-45.7763671875
-46.69189453125
-51.26953125
-59.50927734375
-63.17138671875
-66.83349609375
-75.0732421875
-72.32666015625
-59.50927734375
-54.01611328125
-51.26953125
-54.931640625
-56.7626953125
-63.17138671875
-62.255859375
-71.4111328125
-75.98876953125
-75.0732421875
-69.580078125
-65.91796875
-54.01611328125
-49.4384765625
-57.67822265625
-59.50927734375
-54.01611328125
-67.7490234375
-77.81982421875
-68.66455078125
-73.2421875
-65.00244140625
-56.7626953125
-58.59375
-60.4248046875
-64.0869140625
-64.0869140625
-70.49560546875
-73.2421875
-78.7353515625
-76.904296875
-65.00244140625
-52.18505859375
-57.67822265625
-61.34033203125
-65.91796875
-65.91796875
-72.32666015625
-72.32666015625
-69.580078125
-68.66455078125
-68.66455078125
-61.34033203125
-65.91796875
-65.00244140625
-67.7490234375
-64.0869140625
-65.91796875
-75.98876953125
-79.65087890625
-72.32666015625
-67.7490234375
-63.17138671875
-63.17138671875
-65.91796875
-69.580078125
-75.0732421875
-82.3974609375
-86.97509765625
-85.14404296875
-75.98876953125
-76.904296875
-69.580078125
-63.17138671875
-65.91796875
-69.580078125
-70.49560546875
-81.48193359375
-82.3974609375
-78.7353515625
-68.66455078125
-70.49560546875
-60.4248046875
-67.7490234375
-65.00244140625
-71.4111328125
-67.7490234375
-80.56640625
-85.14404296875
-78.7353515625
-71.4111328125
-68.66455078125
-68.66455078125
-68.66455078125
-65.91796875
-73.2421875
-72.32666015625
-70.49560546875
-80.56640625
-87.890625
-78.7353515625
-76.904296875
-67.7490234375
-67.7490234375
-61.34033203125
-63.17138671875
-61.34033203125
-66.83349609375
-71.4111328125
-74.15771484375
-57.67822265625
-55.84716796875
-62.255859375
-63.17138671875
-52.18505859375
-52.18505859375
-51.26953125
-40.283203125
-31.1279296875
-4.57763671875
-13.73291015625
-23.8037109375
-14.6484375
-21.05712890625
-33.87451171875
-45.7763671875
-53.1005859375
-60.4248046875
-62.255859375
-61.34033203125
-56.7626953125
-71.4111328125
-77.81982421875
-75.98876953125
-68.66455078125
-76.904296875
-86.97509765625
-86.0595703125
-81.48193359375
-87.890625
-85.14404296875
-80.56640625
-64.0869140625
-72.32666015625
-80.56640625
-82.3974609375
-75.98876953125
-94.29931640625
-95.21484375
-89.7216796875
-90.63720703125
-82.3974609375
-81.48193359375
-86.0595703125
-82.3974609375
-83.31298828125
-89.7216796875
-89.7216796875
-76.904296875
-82.3974609375
-73.2421875
-74.15771484375
-69.580078125
-63.17138671875
-65.91796875
-70.49560546875
-71.4111328125
-79.65087890625
-89.7216796875
-102.5390625
-119.93408203125
-131.8359375
-140.07568359375
-129.08935546875
-115.3564453125
-83.31298828125
-32.04345703125
24.71923828125
108.94775390625
257.26318359375
416.56494140625
566.71142578125
689.39208984375
802.001953125
924.6826171875
1046.44775390625
1116.02783203125
1132.50732421875
1095.88623046875
1066.58935546875
993.34716796875
834.9609375
554.8095703125
276.4892578125
33.87451171875
-72.32666015625
-88.80615234375
-88.80615234375
-74.15771484375
-43.02978515625
-32.04345703125
-21.97265625
-9.1552734375
-20.1416015625
-24.71923828125
-33.87451171875
-43.02978515625
-55.84716796875
-63.17138671875
-68.66455078125
-65.91796875
-65.91796875
-55.84716796875
-58.59375
-62.255859375
-68.66455078125
-69.580078125
-73.2421875
-81.48193359375
-83.31298828125
-67.7490234375
-73.2421875
-66.83349609375
-66.83349609375
-63.17138671875
-63.17138671875
-74.15771484375
-75.98876953125
-78.7353515625
-83.31298828125
-70.49560546875
-69.580078125
-61.34033203125
-61.34033203125
-63.17138671875
-66.83349609375
-62.255859375
-73.2421875
-81.48193359375
-72.32666015625
-72.32666015625
-70.49560546875
-69.580078125
-57.67822265625
-74.15771484375
-71.4111328125
-54.931640625
-73.2421875
-76.904296875
-74.15771484375
-79.65087890625
-68.66455078125
-67.7490234375
-61.34033203125
-64.0869140625
-74.15771484375
-71.4111328125
-65.00244140625
-70.49560546875
-73.2421875
-69.580078125
-70.49560546875
-61.34033203125
-65.91796875
-63.17138671875
-69.580078125
-68.66455078125
-76.904296875
-79.65087890625
-71.4111328125
-63.17138671875
-65.00244140625
-68.66455078125
-59.50927734375
-62.255859375
-67.7490234375
-68.66455078125
-75.0732421875
-79.65087890625
-80.56640625
-70.49560546875
-62.255859375
-64.0869140625
-63.17138671875
-60.4248046875
-63.17138671875
-55.84716796875
-67.7490234375
-74.15771484375
-72.32666015625
-61.34033203125
-59.50927734375
-64.0869140625
-61.34033203125
-49.4384765625
-59.50927734375
-56.7626953125
-65.91796875
-69.580078125
-69.580078125
-66.83349609375
-58.59375
-56.7626953125
-50.35400390625
-65.91796875
-51.26953125
-54.01611328125
-55.84716796875
-64.0869140625
-65.00244140625
-57.67822265625
-52.18505859375
-54.01611328125
-43.02978515625
-45.7763671875
-51.26953125
-54.931640625
-64.0869140625
-60.4248046875
-64.0869140625
-50.35400390625
-50.35400390625
-41.19873046875
-34.7900390625
-31.1279296875
-38.4521484375
-46.69189453125
-44.86083984375
-46.69189453125
-41.19873046875
-43.02978515625
-46.69189453125
-29.296875
-26.55029296875
-28.38134765625
-29.296875
-28.38134765625
-28.38134765625
-29.296875
-24.71923828125
-20.1416015625
-19.22607421875
-1.8310546875
8.23974609375
0
-0.91552734375
5.4931640625
-1.8310546875
-5.4931640625
-1.8310546875
3.662109375
-1.8310546875
4.57763671875
13.73291015625
10.986328125
1.8310546875
0
-5.4931640625
-13.73291015625
-11.90185546875
-8.23974609375
-8.23974609375
-9.1552734375
-13.73291015625
-21.97265625
-22.88818359375
-35.70556640625
-41.19873046875
-50.35400390625
-45.7763671875
-47.607421875
-51.26953125
-37.53662109375
-49.4384765625
-49.4384765625
-47.607421875
-54.931640625
-71.4111328125
-69.580078125
-57.67822265625
-58.59375
-60.4248046875
-51.26953125
-53.1005859375
-67.7490234375
-74.15771484375
-70.49560546875
-84.228515625
-86.97509765625
-71.4111328125
-66.83349609375
-60.4248046875
-54.931640625
-51.26953125
-59.50927734375
-65.91796875
-65.00244140625
-72.32666015625
-79.65087890625
-69.580078125
-64.0869140625
-69.580078125
-61.34033203125
-51.26953125
-56.7626953125
-66.83349609375
-67.7490234375
-61.34033203125
-66.83349609375
-65.91796875
-66.83349609375
-68.66455078125
-51.26953125
-54.01611328125
-51.26953125
-51.26953125
-52.18505859375
-67.7490234375
-76.904296875
-61.34033203125
-52.18505859375
-52.18505859375
-45.7763671875
-46.69189453125
-43.02978515625
-46.69189453125
-54.931640625
-63.17138671875
-67.7490234375
-68.66455078125
-61.34033203125
-61.34033203125
-47.607421875
-46.69189453125
-56.7626953125
-54.01611328125
-56.7626953125
-65.91796875
-70.49560546875
-67.7490234375
-56.7626953125
-62.255859375
-57.67822265625
-51.26953125
-54.01611328125
-59.50927734375
-66.83349609375
-74.15771484375
-68.66455078125
-72.32666015625
-69.580078125
-68.66455078125
-64.0869140625
-63.17138671875
-65.91796875
-69.580078125
-66.83349609375
-68.66455078125
-75.0732421875
-70.49560546875
-73.2421875
-69.580078125
-65.91796875
-66.83349609375
-66.83349609375
-75.0732421875
-68.66455078125
-75.98876953125
-81.48193359375
-79.65087890625
-81.48193359375
-76.904296875
-66.83349609375
-61.34033203125
-71.4111328125
-79.65087890625
-83.31298828125
-95.21484375
-92.46826171875
-92.46826171875
-89.7216796875
-78.7353515625
-77.81982421875
-68.66455078125
-72.32666015625
-75.98876953125
-85.14404296875
-90.63720703125
-101.62353515625
-93.3837890625
-91.552734375
-84.228515625
-81.48193359375
-78.7353515625
-73.2421875
-77.81982421875
-81.48193359375
-88.80615234375
-105.28564453125
-104.3701171875
-90.63720703125
-82.3974609375
-85.14404296875
-72.32666015625
-77.81982421875
-87.890625
-82.3974609375
-84.228515625
-106.201171875
-96.13037109375
-86.0595703125
-82.3974609375
-79.65087890625
-76.904296875
-83.31298828125
-87.890625
-96.13037109375
-93.3837890625
-90.63720703125
-91.552734375
-86.97509765625
-85.14404296875
-82.3974609375
-84.228515625
-84.228515625
-85.14404296875
-86.97509765625
-94.29931640625
-97.96142578125
-96.13037109375
-92.46826171875
-89.7216796875
-82.3974609375
-80.56640625
-81.48193359375
-84.228515625
-85.14404296875
-94.29931640625
-97.96142578125
-96.13037109375
-94.29931640625
-89.7216796875
-87.890625
-86.0595703125
-90.63720703125
-90.63720703125
-92.46826171875
-89.7216796875
-94.29931640625
-86.0595703125
-84.228515625
-77.81982421875
-72.32666015625
-75.0732421875
-73.2421875
-77.81982421875
-92.46826171875
-95.21484375
-100.7080078125
-91.552734375
-65.91796875
-54.01611328125
-39.36767578125
-21.97265625
-22.88818359375
-33.87451171875
-46.69189453125
-60.4248046875
-75.98876953125
-76.904296875
-71.4111328125
-63.17138671875
-57.67822265625
-54.931640625
-64.0869140625
-82.3974609375
-97.96142578125
-98.876953125
-107.11669921875
-105.28564453125
-100.7080078125
-97.96142578125
-87.890625
-89.7216796875
-89.7216796875
-94.29931640625
-94.29931640625
-100.7080078125
-108.94775390625
-101.62353515625
-99.79248046875
-97.0458984375
-87.890625
-88.80615234375
-91.552734375
-86.97509765625
-91.552734375
-109.86328125
-112.60986328125
-108.94775390625
-105.28564453125
-103.45458984375
-93.3837890625
-86.0595703125
-94.29931640625
-95.21484375
-92.46826171875
-104.3701171875
-108.94775390625
-95.21484375
-92.46826171875
-91.552734375
-93.3837890625
-104.3701171875
-129.08935546875
-153.80859375
-165.71044921875
-150.146484375
-136.41357421875
-101.62353515625
-42.1142578125
21.97265625
119.93408203125
257.26318359375
421.142578125
569.4580078125
664.6728515625
765.380859375
889.892578125
991.51611328125
1064.75830078125
1107.7880859375
1081.23779296875
1043.701171875
984.19189453125
816.650390625
515.44189453125
240.78369140625
3.662109375
-90.63720703125
-95.21484375
-97.0458984375
-97.96142578125
-80.56640625
-61.34033203125
-54.01611328125
-43.02978515625
-43.02978515625
-49.4384765625
-65.00244140625
-64.0869140625
-66.83349609375
-65.00244140625
-68.66455078125
-71.4111328125
-79.65087890625
-82.3974609375
-90.63720703125
-94.29931640625
-97.96142578125
-97.0458984375
-99.79248046875
-86.0595703125
-74.15771484375
-82.3974609375
-87.890625
-91.552734375
-92.46826171875
-98.876953125
-97.0458984375
-92.46826171875
-91.552734375
-85.14404296875
-78.7353515625
-82.3974609375
-78.7353515625
-79.65087890625
-86.97509765625
-90.63720703125
-86.97509765625
-89.7216796875
-94.29931640625
-88.80615234375
-74.15771484375
-81.48193359375
-82.3974609375
-78.7353515625
-86.97509765625
-92.46826171875
-89.7216796875
-96.13037109375
-85.14404296875
-75.0732421875
-72.32666015625
-73.2421875
-84.228515625
-81.48193359375
-88.80615234375
-88.80615234375
-86.97509765625
-82.3974609375
-79.65087890625
-74.15771484375
-72.32666015625
-81.48193359375
-77.81982421875
-76.904296875
-83.31298828125
-92.46826171875
-91.552734375
-84.228515625
-78.7353515625
-70.49560546875
-74.15771484375
-76.904296875
-79.65087890625
-75.98876953125
-87.890625
-97.0458984375
-89.7216796875
-76.904296875
-76.904296875
-72.32666015625
-66.83349609375
-74.15771484375
-75.98876953125
-81.48193359375
-86.0595703125
-85.14404296875
-84.228515625
-80.56640625
-75.98876953125
-70.49560546875
-65.00244140625
-66.83349609375
-73.2421875
-75.98876953125
-83.31298828125
-89.7216796875
-77.81982421875
-72.32666015625
-72.32666015625
-68.66455078125
-65.00244140625
-68.66455078125
-65.91796875
-72.32666015625
-76.904296875
-80.56640625
-79.65087890625
-73.2421875
-69.580078125
-60.4248046875
-56.7626953125
-61.34033203125
-65.91796875
-62.255859375
-71.4111328125
-77.81982421875
-72.32666015625
-75.0732421875
-59.50927734375
-45.7763671875
-48.52294921875
-53.1005859375
-52.18505859375
-59.50927734375
-63.17138671875
-62.255859375
-61.34033203125
-60.4248046875
-56.7626953125
-53.1005859375
-44.86083984375
-41.19873046875
-47.607421875
-55.84716796875
-44.86083984375
-48.52294921875
-51.26953125
-39.36767578125
-31.1279296875
-32.04345703125
-29.296875
-21.97265625
-20.1416015625
-24.71923828125
-26.55029296875
-31.1279296875
-23.8037109375
-13.73291015625
-14.6484375
-4.57763671875
0.91552734375
-6.40869140625
-12.8173828125
-14.6484375
-19.22607421875
-21.97265625
-20.1416015625
-21.05712890625
-21.97265625
-14.6484375
-16.4794921875
-22.88818359375
-28.38134765625
-28.38134765625
-34.7900390625
-51.26953125
-57.67822265625
-54.931640625
-53.1005859375
-52.18505859375
-43.02978515625
-50.35400390625
-56.7626953125
-50.35400390625
-63.17138671875
-80.56640625
-85.14404296875
-77.81982421875
-71.4111328125
-71.4111328125
-65.91796875
-66.83349609375
-70.49560546875
-75.0732421875
-76.904296875
-77.81982421875
-80.56640625
-76.904296875
-72.32666015625
-68.66455078125
-63.17138671875
-69.580078125
-69.580078125
-72.32666015625
-76.904296875
-78.7353515625
-85.14404296875
-84.228515625
-70.49560546875
-62.255859375
-64.0869140625
-61.34033203125
-65.00244140625
-70.49560546875
-71.4111328125
-77.81982421875
-78.7353515625
-75.0732421875
-67.7490234375
-66.83349609375
-61.34033203125
-59.50927734375
-62.255859375
-64.0869140625
-68.66455078125
-70.49560546875
-69.580078125
-61.34033203125
-61.34033203125
-56.7626953125
-57.67822265625
-56.7626953125
-57.67822265625
-63.17138671875
-56.7626953125
-75.98876953125
-73.2421875
-70.49560546875
-64.0869140625
-65.00244140625
-56.7626953125
-59.50927734375
-61.34033203125
-61.34033203125
-67.7490234375
-77.81982421875
-75.98876953125
-72.32666015625
-65.91796875
-63.17138671875
-54.931640625
-62.255859375
-66.83349609375
-64.0869140625
-71.4111328125
-78.7353515625
-77.81982421875
-69.580078125
-72.32666015625
-71.4111328125
-57.67822265625
-60.4248046875
-59.50927734375
-72.32666015625
-87.890625
-88.80615234375
-89.7216796875
-82.3974609375
-78.7353515625
-74.15771484375
-72.32666015625
-74.15771484375
-79.65087890625
-84.228515625
-83.31298828125
-88.80615234375
-85.14404296875
-80.56640625
-80.56640625
-76.904296875
-73.2421875
-75.0732421875
-80.56640625
-84.228515625
-82.3974609375
-96.13037109375
-91.552734375
-84.228515625
-78.7353515625
-77.81982421875
-74.15771484375
-79.65087890625
-82.3974609375
-87.890625
-97.96142578125
-103.45458984375
-95.21484375
-89.7216796875
-88.80615234375
-81.48193359375
-75.98876953125
-79.65087890625
-88.80615234375
-98.876953125
-106.201171875
-99.79248046875
-92.46826171875
-93.3837890625
-84.228515625
-75.0732421875
-81.48193359375
-76.904296875
-75.98876953125
-85.14404296875
-96.13037109375
-97.96142578125
-92.46826171875
-97.96142578125
-97.0458984375
-80.56640625
-82.3974609375
-86.97509765625
-91.552734375
-94.29931640625
-96.13037109375
-102.5390625
-97.0458984375
-93.3837890625
-94.29931640625
-86.0595703125
-84.228515625
-86.97509765625
-95.21484375
-93.3837890625
-96.13037109375
-104.3701171875
-99.79248046875
-94.29931640625
-92.46826171875
-89.7216796875
-86.0595703125
-84.228515625
-90.63720703125
-95.21484375
-97.0458984375
-95.21484375
-99.79248046875
-96.13037109375
-97.0458984375
-95.21484375
-85.14404296875
-86.97509765625
-93.3837890625
-91.552734375
-92.46826171875
-104.3701171875
-106.201171875
-92.46826171875
-84.228515625
-77.81982421875
-78.7353515625
-84.228515625
-89.7216796875
-90.63720703125
-93.3837890625
-109.86328125
-109.86328125
-100.7080078125
-93.3837890625
-91.552734375
-87.890625
-86.97509765625
-86.97509765625
-92.46826171875
-95.21484375
-107.11669921875
-109.86328125
-100.7080078125
-98.876953125
-91.552734375
-75.0732421875
-76.904296875
-86.97509765625
-88.80615234375
-91.552734375
-91.552734375
-85.14404296875
-83.31298828125
-87.890625
-88.80615234375
-80.56640625
-77.81982421875
-80.56640625
-74.15771484375
-63.17138671875
-47.607421875
-32.04345703125
-37.53662109375
-43.02978515625
-49.4384765625
-46.69189453125
-53.1005859375
-65.00244140625
-76.904296875
-79.65087890625
-79.65087890625
-81.48193359375
-80.56640625
-86.0595703125
-90.63720703125
-99.79248046875
-89.7216796875
-86.97509765625
-90.63720703125
-101.62353515625
-101.62353515625
-100.7080078125
-108.0322265625
-104.3701171875
-106.201171875
-107.11669921875
-93.3837890625
-97.96142578125
-100.7080078125
-102.5390625
-110.77880859375
-108.94775390625
-102.5390625
-100.7080078125
-105.28564453125
-91.552734375
-99.79248046875
-98.876953125
-97.0458984375
-104.3701171875
-110.77880859375
-108.0322265625
-96.13037109375
-99.79248046875
-95.21484375
-86.0595703125
-86.97509765625
-86.0595703125
-91.552734375
-96.13037109375
-113.525390625
-126.3427734375
-138.24462890625
-159.3017578125
-169.37255859375
-170.2880859375
-152.89306640625
-120.849609375
-70.49560546875
-16.4794921875
41.19873046875
154.72412109375
312.19482421875
468.75
607.91015625
722.35107421875
847.7783203125
976.86767578125
1065.673828125
1115.1123046875
1094.05517578125
1064.75830078125
1007.080078125
906.3720703125
672.91259765625
372.61962890625
101.62353515625
-82.3974609375
-117.1875
-108.0322265625
-97.96142578125
-74.15771484375
-54.01611328125
-42.1142578125
-27.4658203125
-24.71923828125
-33.87451171875
-45.7763671875
-56.7626953125
-64.0869140625
-79.65087890625
-86.0595703125
-84.228515625
-82.3974609375
-77.81982421875
-68.66455078125
-74.15771484375
-86.97509765625
-91.552734375
-98.876953125
-100.7080078125
-104.3701171875
-102.5390625
-92.46826171875
-86.0595703125
-80.56640625
-82.3974609375
-94.29931640625
-89.7216796875
-87.890625
-92.46826171875
-94.29931640625
-93.3837890625
-90.63720703125
-80.56640625
-74.15771484375
-76.904296875
-83.31298828125
-84.228515625
-86.97509765625
-90.63720703125
-97.0458984375
-93.3837890625
-88.80615234375
-88.80615234375
-81.48193359375
-81.48193359375
-88.80615234375
-87.890625
-90.63720703125
-101.62353515625
-102.5390625
-96.13037109375
-88.80615234375
-85.14404296875
-75.98876953125
-80.56640625
-88.80615234375
-97.0458984375
-97.0458984375
-108.0322265625
-96.13037109375
-94.29931640625
-87.890625
-84.228515625
-84.228515625
-79.65087890625
-79.65087890625
-93.3837890625
-95.21484375
-99.79248046875
-104.3701171875
-96.13037109375
-86.97509765625
-82.3974609375
-74.15771484375
-82.3974609375
-86.0595703125
-93.3837890625
-89.7216796875
-97.96142578125
-97.0458984375
-90.63720703125
-86.97509765625
-84.228515625
-79.65087890625
-78.7353515625
-84.228515625
-90.63720703125
-94.29931640625
-99.79248046875
-101.62353515625
-91.552734375
-86.97509765625
-82.3974609375
-75.98876953125
-80.56640625
-83.31298828125
-83.31298828125
-86.97509765625
-85.14404296875
-88.80615234375
-86.0595703125
-82.3974609375
-73.2421875
-63.17138671875
-66.83349609375
-69.580078125
-74.15771484375
-75.0732421875
-80.56640625
-80.56640625
-80.56640625
-75.98876953125
-73.2421875
-64.0869140625
-61.34033203125
-63.17138671875
-64.0869140625
-65.00244140625
-77.81982421875
-69.580078125
-64.0869140625
-55.84716796875
-54.01611328125
-46.69189453125
-48.52294921875
-46.69189453125
-47.607421875
-56.7626953125
-58.59375
-46.69189453125
-46.69189453125
-43.02978515625
-34.7900390625
-26.55029296875
-25.634765625
-24.71923828125
-26.55029296875
-29.296875
-35.70556640625
-36.62109375
-28.38134765625
-20.1416015625
-21.05712890625
-1.8310546875
0.91552734375
-2.74658203125
-0.91552734375
0.91552734375
-1.8310546875
-7.32421875
-1.8310546875
-1.8310546875
1.8310546875
9.1552734375
-3.662109375
-4.57763671875
-9.1552734375
-20.1416015625
-28.38134765625
-22.88818359375
-24.71923828125
-28.38134765625
-21.97265625
-21.97265625
-33.87451171875
-40.283203125
-47.607421875
-53.1005859375
-62.255859375
-64.0869140625
-58.59375
-55.84716796875
-54.931640625
-55.84716796875
-56.7626953125
-63.17138671875
-69.580078125
-75.98876953125
-83.31298828125
-81.48193359375
-78.7353515625
-75.0732421875
-72.32666015625
-68.66455078125
-73.2421875
-78.7353515625
-78.7353515625
-84.228515625
-88.80615234375
-91.552734375
-80.56640625
-81.48193359375
-82.3974609375
-78.7353515625
-75.98876953125
-80.56640625
-85.14404296875
-87.890625
-90.63720703125
-91.552734375
-87.890625
-83.31298828125
-79.65087890625
-82.3974609375
-77.81982421875
-79.65087890625
-76.904296875
-76.904296875
-87.890625
-89.7216796875
-75.98876953125
-75.98876953125
-71.4111328125
-62.255859375
-67.7490234375
-71.4111328125
-70.49560546875
-72.32666015625
-75.0732421875
-77.81982421875
-78.7353515625
-73.2421875
-66.83349609375
-65.91796875
-65.00244140625
-66.83349609375
-67.7490234375
-83.31298828125
-83.31298828125
-77.81982421875
-73.2421875
-70.49560546875
-67.7490234375
-60.4248046875
-62.255859375
-69.580078125
-69.580078125
-77.81982421875
-90.63720703125
-85.14404296875
-70.49560546875
-73.2421875
-71.4111328125
-66.83349609375
-66.83349609375
-74.15771484375
-78.7353515625
-79.65087890625
-86.0595703125
-83.31298828125
-79.65087890625
-80.56640625
-76.904296875
-66.83349609375
-72.32666015625
-82.3974609375
-74.15771484375
-78.7353515625
-90.63720703125
-92.46826171875
-82.3974609375
-77.81982421875
-75.0732421875
-73.2421875
-76.904296875
-84.228515625
-86.0595703125
-96.13037109375
-101.62353515625
-90.63720703125
-90.63720703125
-90.63720703125
-85.14404296875
-79.65087890625
-86.0595703125
-84.228515625
-92.46826171875
-91.552734375
-100.7080078125
-99.79248046875
-96.13037109375
-90.63720703125
-84.228515625
-78.7353515625
-84.228515625
-91.552734375
-92.46826171875
-92.46826171875
-97.0458984375
-97.96142578125
-101.62353515625
-96.13037109375
-89.7216796875
-84.228515625
-87.890625
-89.7216796875
-94.29931640625
-97.96142578125
-99.79248046875
-99.79248046875
-105.28564453125
-91.552734375
-87.890625
-83.31298828125
-80.56640625
-84.228515625
-90.63720703125
-98.876953125
-103.45458984375
-101.62353515625
-95.21484375
-97.0458984375
-93.3837890625
-82.3974609375
-87.890625
-89.7216796875
-90.63720703125
-96.13037109375
-103.45458984375
-99.79248046875
-91.552734375
-96.13037109375
-93.3837890625
-84.228515625
-86.0595703125
-93.3837890625
-98.876953125
-98.876953125
-100.7080078125
-105.28564453125
-106.201171875
-97.96142578125
-95.21484375
-87.890625
-88.80615234375
-88.80615234375
-92.46826171875
-100.7080078125
-104.3701171875
-98.876953125
-94.29931640625
-97.0458984375
-101.62353515625
-88.80615234375
-93.3837890625
-90.63720703125
-93.3837890625
-95.21484375
-104.3701171875
-103.45458984375
-101.62353515625
-97.96142578125
-93.3837890625
-89.7216796875
-89.7216796875
-94.29931640625
-94.29931640625
-97.96142578125
-107.11669921875
-110.77880859375
-104.3701171875
-96.13037109375
-92.46826171875
-89.7216796875
-85.14404296875
-88.80615234375
-92.46826171875
-96.13037109375
-110.77880859375
-109.86328125
-105.28564453125
-93.3837890625
-97.0458984375
-92.46826171875
-89.7216796875
-91.552734375
-97.96142578125
-105.28564453125
-106.201171875
-100.7080078125
-101.62353515625
-99.79248046875
-97.0458984375
-87.890625
-85.14404296875
-92.46826171875
-91.552734375
-84.228515625
-93.3837890625
-96.13037109375
-86.97509765625
-86.97509765625
-85.14404296875
-75.0732421875
-76.904296875
-88.80615234375
-98.876953125
-99.79248046875
-99.79248046875
-75.0732421875
-50.35400390625
-35.70556640625
-35.70556640625
-35.70556640625
-37.53662109375
-55.84716796875
-65.00244140625
-65.00244140625
-82.3974609375
-95.21484375
-95.21484375
-86.97509765625
-81.48193359375
-77.81982421875
-98.876953125
-104.3701171875
-103.45458984375
-109.86328125
-116.27197265625
-113.525390625
-102.5390625
-99.79248046875
-100.7080078125
-98.876953125
-101.62353515625
-104.3701171875
-101.62353515625
-113.525390625
-120.849609375
-119.93408203125
-116.27197265625
-107.11669921875
-101.62353515625
-99.79248046875
-101.62353515625
-106.201171875
-105.28564453125
-110.77880859375
-118.10302734375
-118.10302734375
-115.3564453125
-113.525390625
-107.11669921875
-94.29931640625
-95.21484375
-97.96142578125
-93.3837890625
-100.7080078125
-108.94775390625
-115.3564453125
-107.11669921875
-105.28564453125
-117.1875
-131.8359375
-157.470703125
-171.20361328125
-176.69677734375
-161.1328125
-135.498046875
-100.7080078125
-38.4521484375
34.7900390625
152.89306640625
311.279296875
467.83447265625
604.248046875
714.111328125
832.21435546875
964.9658203125
1060.1806640625
1117.85888671875
1104.1259765625
1065.673828125
1017.15087890625
921.0205078125
683.89892578125
374.45068359375
85.14404296875
-108.0322265625
-132.75146484375
-123.59619140625
-92.46826171875
-61.34033203125
-43.9453125
-37.53662109375
-39.36767578125
-47.607421875
-61.34033203125
-76.904296875
-82.3974609375
-81.48193359375
-75.98876953125
-77.81982421875
-79.65087890625
-81.48193359375
-86.0595703125
-88.80615234375
-90.63720703125
-104.3701171875
-102.5390625
-97.96142578125
-99.79248046875
-97.0458984375
-88.80615234375
-89.7216796875
-86.0595703125
-86.0595703125
-98.876953125
-108.0322265625
-104.3701171875
-100.7080078125
-97.96142578125
-89.7216796875
-86.0595703125
-87.890625
-93.3837890625
-96.13037109375
-97.96142578125
-105.28564453125
-103.45458984375
-97.0458984375
-87.890625
-85.14404296875
-85.14404296875
-88.80615234375
-94.29931640625
-90.63720703125
-100.7080078125
-103.45458984375
-103.45458984375
-95.21484375
-92.46826171875
-91.552734375
-83.31298828125
-89.7216796875
-90.63720703125
-91.552734375
-93.3837890625
-102.5390625
-95.21484375
-96.13037109375
-97.0458984375
-92.46826171875
-87.890625
-83.31298828125
-85.14404296875
-86.0595703125
-94.29931640625
-105.28564453125
-103.45458984375
-99.79248046875
-99.79248046875
-96.13037109375
-82.3974609375
-76.904296875
-83.31298828125
-89.7216796875
-94.29931640625
-97.96142578125
-93.3837890625
-83.31298828125
-82.3974609375
-84.228515625
-78.7353515625
-82.3974609375
-86.97509765625
-88.80615234375
-86.97509765625
-89.7216796875
-96.13037109375
-96.13037109375
-87.890625
-78.7353515625
-74.15771484375
-74.15771484375
-80.56640625
-79.65087890625
-88.80615234375
-99.79248046875
-93.3837890625
-76.904296875
-76.904296875
-75.0732421875
-73.2421875
-71.4111328125
-71.4111328125
-76.904296875
-80.56640625
-83.31298828125
-84.228515625
-82.3974609375
-73.2421875
-72.32666015625
-65.00244140625
-65.00244140625
-69.580078125
-65.00244140625
-65.91796875
-80.56640625
-78.7353515625
-78.7353515625
-68.66455078125
-58.59375
-46.69189453125
-49.4384765625
-51.26953125
-48.52294921875
-54.931640625
-60.4248046875
-59.50927734375
-51.26953125
-52.18505859375
-46.69189453125
-39.36767578125
-39.36767578125
-39.36767578125
-39.36767578125
-33.87451171875
-48.52294921875
-43.02978515625
-37.53662109375
-31.1279296875
-28.38134765625
-14.6484375
-9.1552734375
-6.40869140625
-15.56396484375
-16.4794921875
-11.90185546875
-17.39501953125
-2.74658203125
-13.73291015625
-12.8173828125
-0.91552734375
4.57763671875
-4.57763671875
-5.4931640625
-11.90185546875
-20.1416015625
-29.296875
-25.634765625
-20.1416015625
-16.4794921875
-13.73291015625
-20.1416015625
-31.1279296875
-30.21240234375
-34.7900390625
-48.52294921875
-57.67822265625
-51.26953125
-53.1005859375
-51.26953125
-48.52294921875
-52.18505859375
-62.255859375
-67.7490234375
-76.904296875
-83.31298828125
-86.97509765625
-80.56640625
-76.904296875
-80.56640625
-75.98876953125
-75.98876953125
-73.2421875
-81.48193359375
-88.80615234375
-92.46826171875
-94.29931640625
-98.876953125
-87.890625
-85.14404296875
-82.3974609375
-86.97509765625
-87.890625
-86.0595703125
-86.97509765625
-96.13037109375
-99.79248046875
-90.63720703125
-83.31298828125
-81.48193359375
-75.0732421875
-84.228515625
-83.31298828125
-83.31298828125
-89.7216796875
-97.0458984375
-90.63720703125
-85.14404296875
-77.81982421875
-76.904296875
-71.4111328125
-74.15771484375
-71.4111328125
-76.904296875
-84.228515625
-93.3837890625
-94.29931640625
-88.80615234375
-82.3974609375
-79.65087890625
-70.49560546875
-72.32666015625
-75.0732421875
-71.4111328125
-75.0732421875
-79.65087890625
-82.3974609375
-77.81982421875
-76.904296875
-73.2421875
-71.4111328125
-69.580078125
-69.580078125
-72.32666015625
-73.2421875
-86.97509765625
-90.63720703125
-85.14404296875
-81.48193359375
-79.65087890625
-65.00244140625
-65.91796875
-71.4111328125
-67.7490234375
-75.0732421875
-78.7353515625
-78.7353515625
-76.904296875
-75.0732421875
-77.81982421875
-71.4111328125
-75.0732421875
-78.7353515625
-75.98876953125
-79.65087890625
-87.890625
-90.63720703125
-83.31298828125
-80.56640625
-80.56640625
-76.904296875
-80.56640625
-87.890625
-85.14404296875
-86.97509765625
-93.3837890625
-88.80615234375
-87.890625
-87.890625
-86.97509765625
-78.7353515625
-74.15771484375
-85.14404296875
-97.0458984375
-95.21484375
-101.62353515625
-103.45458984375
-92.46826171875
-89.7216796875
-80.56640625
-79.65087890625
-78.7353515625
-88.80615234375
-96.13037109375
-97.96142578125
-106.201171875
-111.6943359375
-106.201171875
-102.5390625
-104.3701171875
-90.63720703125
-85.14404296875
-89.7216796875
-92.46826171875
-95.21484375
-104.3701171875
-107.11669921875
-105.28564453125
-100.7080078125
-96.13037109375
-89.7216796875
-89.7216796875
-94.29931640625
-91.552734375
-92.46826171875
-103.45458984375
-107.11669921875
-97.96142578125
-99.79248046875
-97.0458984375
-87.890625
-91.552734375
-97.96142578125
-97.96142578125
-102.5390625
-111.6943359375
-116.27197265625
-109.86328125
-95.21484375
-99.79248046875
-93.3837890625
-93.3837890625
-97.0458984375
-97.96142578125
-97.96142578125
-103.45458984375
-107.11669921875
-96.13037109375
-97.96142578125
-94.29931640625
-81.48193359375
-96.13037109375
-102.5390625
-95.21484375
-92.46826171875
-111.6943359375
-109.86328125
-108.94775390625
-106.201171875
-97.0458984375
-84.228515625
-87.890625
-97.0458984375
-98.876953125
-108.94775390625
-115.3564453125
-108.94775390625
-99.79248046875
-97.0458984375
-97.0458984375
-88.80615234375
-93.3837890625
-95.21484375
-102.5390625
-100.7080078125
-108.94775390625
-106.201171875
-100.7080078125
-98.876953125
-92.46826171875
-80.56640625
-81.48193359375
-93.3837890625
-96.13037109375
-95.21484375
-108.0322265625
-108.94775390625
-107.11669921875
-103.45458984375
-103.45458984375
-86.0595703125
-77.81982421875
-88.80615234375
-106.201171875
-107.11669921875
-109.86328125
-110.77880859375
-102.5390625
-97.96142578125
-95.21484375
-90.63720703125
-86.97509765625
-89.7216796875
-88.80615234375
-89.7216796875
-103.45458984375
-104.3701171875
-101.62353515625
-105.28564453125
-101.62353515625
-92.46826171875
-96.13037109375
-97.0458984375
-97.0458984375
-93.3837890625
-97.96142578125
-99.79248046875
-97.96142578125
-89.7216796875
-83.31298828125
-82.3974609375
-86.97509765625
-91.552734375
-97.96142578125
-91.552734375
-89.7216796875
-76.904296875
-54.931640625
-29.296875
-29.296875
-29.296875
-39.36767578125
-49.4384765625
-65.00244140625
-70.49560546875
-82.3974609375
-86.0595703125
-81.48193359375
-77.81982421875
-76.904296875
-75.0732421875
-104.3701171875
-108.0322265625
-94.29931640625
-93.3837890625
-107.11669921875
-108.94775390625
-112.60986328125
-103.45458984375
-98.876953125
-102.5390625
-100.7080078125
-101.62353515625
-106.201171875
-108.94775390625
-121.76513671875
-116.27197265625
-111.6943359375
-111.6943359375
-104.3701171875
-97.96142578125
-90.63720703125
-102.5390625
-104.3701171875
-97.0458984375
-106.201171875
-120.849609375
-114.44091796875
-104.3701171875
-101.62353515625
-92.46826171875
-87.890625
-98.876953125
-91.552734375
-97.96142578125
-102.5390625
-104.3701171875
-104.3701171875
-109.86328125
-119.93408203125
-139.16015625
-160.21728515625
-173.03466796875
-151.9775390625
-134.58251953125
-108.0322265625
-58.59375
5.4931640625
106.201171875
249.93896484375
412.90283203125
556.640625
662.841796875
769.95849609375
892.63916015625
996.09375
1072.08251953125
1098.6328125
1073.91357421875
1038.2080078125
977.783203125
824.89013671875
526.42822265625
246.27685546875
4.57763671875
-114.44091796875
-119.93408203125
-119.0185546875
-101.62353515625
-65.91796875
-41.19873046875
-36.62109375
-37.53662109375
-40.283203125
-51.26953125
-68.66455078125
-77.81982421875
-80.56640625
-79.65087890625
-76.904296875
-73.2421875
-83.31298828125
-91.552734375
-96.13037109375
-100.7080078125
-108.94775390625
-110.77880859375
-104.3701171875
-97.96142578125
-93.3837890625
-87.890625
-85.14404296875
-93.3837890625
-91.552734375
-92.46826171875
-99.79248046875
-107.11669921875
-109.86328125
-95.21484375
-99.79248046875
-87.890625
-87.890625
-96.13037109375
-97.0458984375
-97.96142578125
-98.876953125
-97.96142578125
-98.876953125
-95.21484375
-90.63720703125
-92.46826171875
-92.46826171875
-94.29931640625
-92.46826171875
-97.0458984375
-103.45458984375
-104.3701171875
-96.13037109375
-94.29931640625
-92.46826171875
-85.14404296875
-84.228515625
-88.80615234375
-89.7216796875
-96.13037109375
-105.28564453125
-106.201171875
-104.3701171875
-97.96142578125
-95.21484375
-87.890625
-88.80615234375
-92.46826171875
-91.552734375
-99.79248046875
-102.5390625
-106.201171875
-102.5390625
-99.79248046875
-99.79248046875
-83.31298828125
-86.0595703125
-97.0458984375
-101.62353515625
-97.96142578125
-108.0322265625
-109.86328125
-100.7080078125
-96.13037109375
-102.5390625
-92.46826171875
-86.0595703125
-87.890625
-96.13037109375
-89.7216796875
-94.29931640625
-95.21484375
-92.46826171875
-89.7216796875
-93.3837890625
-86.0595703125
-86.97509765625
-84.228515625
-91.552734375
-89.7216796875
-97.96142578125
-99.79248046875
-94.29931640625
-87.890625
-81.48193359375
-79.65087890625
-73.2421875
-77.81982421875
-84.228515625
-92.46826171875
-97.96142578125
-89.7216796875
-83.31298828125
-84.228515625
-82.3974609375
-76.904296875
-71.4111328125
-72.32666015625
-78.7353515625
-79.65087890625
-84.228515625
-89.7216796875
-82.3974609375
-76.904296875
-70.49560546875
-68.66455078125
-70.49560546875
-66.83349609375
-67.7490234375
-66.83349609375
-81.48193359375
-83.31298828125
-76.904296875
-72.32666015625
-71.4111328125
-61.34033203125
-61.34033203125
-53.1005859375
-58.59375
-64.0869140625
-65.91796875
-64.0869140625
-50.35400390625
-50.35400390625
-43.02978515625
-32.958984375
-30.21240234375
-32.04345703125
-36.62109375
-34.7900390625
-43.02978515625
-42.1142578125
-39.36767578125
-29.296875
-23.8037109375
-14.6484375
-12.8173828125
-15.56396484375
-18.310546875
-18.310546875
-33.87451171875
-37.53662109375
-30.21240234375
-31.1279296875
-34.7900390625
-30.21240234375
-26.55029296875
-33.87451171875
-41.19873046875
-46.69189453125
-58.59375
-65.91796875
-62.255859375
-67.7490234375
-67.7490234375
-61.34033203125
-63.17138671875
-69.580078125
-72.32666015625
-74.15771484375
-84.228515625
-84.228515625
-84.228515625
-81.48193359375
-87.890625
-79.65087890625
-78.7353515625
-83.31298828125
-87.890625
-88.80615234375
-96.13037109375
-95.21484375
-94.29931640625
-95.21484375
-91.552734375
-82.3974609375
-85.14404296875
-83.31298828125
-86.0595703125
-87.890625
-90.63720703125
-102.5390625
-97.96142578125
-94.29931640625
-87.890625
-85.14404296875
-79.65087890625
-83.31298828125
-87.890625
-86.0595703125
-94.29931640625
-90.63720703125
-86.97509765625
-79.65087890625
-77.81982421875
-77.81982421875
-75.0732421875
-75.98876953125
-78.7353515625
-82.3974609375
-90.63720703125
-94.29931640625
-84.228515625
-80.56640625
-83.31298828125
-73.2421875
-70.49560546875
-75.98876953125
-76.904296875
-78.7353515625
-89.7216796875
-90.63720703125
-79.65087890625
-72.32666015625
-75.98876953125
-65.00244140625
-70.49560546875
-72.32666015625
-75.98876953125
-78.7353515625
-88.80615234375
-92.46826171875
-83.31298828125
-75.0732421875
-68.66455078125
-68.66455078125
-69.580078125
-75.98876953125
-82.3974609375
-83.31298828125
-90.63720703125
-87.890625
-91.552734375
-85.14404296875
-81.48193359375
-70.49560546875
-75.98876953125
-80.56640625
-84.228515625
-86.97509765625
-93.3837890625
-89.7216796875
-91.552734375
-88.80615234375
-86.97509765625
-76.904296875
-80.56640625
-91.552734375
-92.46826171875
-94.29931640625
-102.5390625
-106.201171875
-103.45458984375
-94.29931640625
-94.29931640625
-87.890625
-89.7216796875
-93.3837890625
-94.29931640625
-90.63720703125
-105.28564453125
-113.525390625
-109.86328125
-102.5390625
-95.21484375
-87.890625
-95.21484375
-100.7080078125
-100.7080078125
-108.94775390625
-117.1875
-112.60986328125
-104.3701171875
-97.0458984375
-95.21484375
-95.21484375
-97.0458984375
-97.0458984375
-102.5390625
-105.28564453125
-114.44091796875
-117.1875
-109.86328125
-108.0322265625
-99.79248046875
-95.21484375
-97.96142578125
-104.3701171875
-105.28564453125
-108.94775390625
-115.3564453125
-113.525390625
-115.3564453125
-111.6943359375
-109.86328125
-99.79248046875
-92.46826171875
-97.96142578125
-101.62353515625
-101.62353515625
-101.62353515625
-110.77880859375
-110.77880859375
-109.86328125
-101.62353515625
-90.63720703125
-96.13037109375
-99.79248046875
-94.29931640625
-97.96142578125
-111.6943359375
-116.27197265625
-108.0322265625
-104.3701171875
-107.11669921875
-96.13037109375
-95.21484375
-101.62353515625
-105.28564453125
-108.0322265625
-107.11669921875
-117.1875
-119.93408203125
-113.525390625
-107.11669921875
-102.5390625
-97.0458984375
-98.876953125
-104.3701171875
-109.86328125
-112.60986328125
-115.3564453125
-114.44091796875
-115.3564453125
-111.6943359375
-97.0458984375
-93.3837890625
-103.45458984375
-109.86328125
-109.86328125
-113.525390625
-119.0185546875
-113.525390625
-108.0322265625
-105.28564453125
-92.46826171875
-97.0458984375
-102.5390625
-104.3701171875
-102.5390625
-108.94775390625
-116.27197265625
-112.60986328125
-108.94775390625
-101.62353515625
-97.0458984375
-95.21484375
-100.7080078125
-101.62353515625
-104.3701171875
-117.1875
-116.27197265625
-117.1875
-112.60986328125
-107.11669921875
-100.7080078125
-95.21484375
-105.28564453125
-105.28564453125
-111.6943359375
-119.0185546875
-120.849609375
-115.3564453125
-111.6943359375
-113.525390625
-104.3701171875
-105.28564453125
-109.86328125
-116.27197265625
-114.44091796875
-119.93408203125
-119.93408203125
-116.27197265625
-100.7080078125
-108.0322265625
-97.0458984375
-89.7216796875
-98.876953125
-97.0458984375
-94.29931640625
-106.201171875
-121.76513671875
-111.6943359375
-102.5390625
-97.0458984375
-83.31298828125
-61.34033203125
-50.35400390625
-42.1142578125
-49.4384765625
-60.4248046875
-64.0869140625
-74.15771484375
-85.14404296875
-89.7216796875
-84.228515625
-85.14404296875
-91.552734375
-88.80615234375
-87.890625
-110.77880859375
-130.0048828125
-125.42724609375
-112.60986328125
-113.525390625
-108.94775390625
-105.28564453125
-107.11669921875
-112.60986328125
-117.1875
-129.08935546875
-135.498046875
-127.25830078125
-120.849609375
-121.76513671875
-114.44091796875
-115.3564453125
-116.27197265625
-124.51171875
-122.6806640625
-127.25830078125
-128.173828125
-127.25830078125
-118.10302734375
-115.3564453125
-115.3564453125
-109.86328125
-114.44091796875
-119.93408203125
-122.6806640625
-125.42724609375
-130.0048828125
-119.93408203125
-118.10302734375
-118.10302734375
-101.62353515625
-107.11669921875
-113.525390625
-124.51171875
-151.06201171875
-184.02099609375
-201.416015625
-197.75390625
-171.20361328125
-135.498046875
-90.63720703125
-31.1279296875
38.4521484375
145.56884765625
301.20849609375
438.53759765625
572.20458984375
685.72998046875
812.07275390625
955.810546875
1049.1943359375
1112.36572265625
1088.56201171875
1051.025390625
993.34716796875
888.0615234375
657.3486328125
355.224609375
79.65087890625
-100.7080078125
-129.08935546875
-114.44091796875
-105.28564453125
-77.81982421875
-59.50927734375
-60.4248046875
-59.50927734375
-57.67822265625
-61.34033203125
-72.32666015625
-67.7490234375
-75.0732421875
-77.81982421875
-86.97509765625
-91.552734375
-99.79248046875
-104.3701171875
-103.45458984375
-102.5390625
-101.62353515625
-96.13037109375
-96.13037109375
-101.62353515625
-103.45458984375
-104.3701171875
-110.77880859375
-112.60986328125
-115.3564453125
-110.77880859375
-100.7080078125
-99.79248046875
-97.0458984375
-102.5390625
-103.45458984375
-99.79248046875
-114.44091796875
-119.0185546875
-111.6943359375
-106.201171875
-100.7080078125
-94.29931640625
-91.552734375
-96.13037109375
-103.45458984375
-102.5390625
-109.86328125
-111.6943359375
-110.77880859375
-103.45458984375
-103.45458984375
-96.13037109375
-93.3837890625
-97.0458984375
-100.7080078125
-104.3701171875
-109.86328125
-108.94775390625
-107.11669921875
-106.201171875
-96.13037109375
-96.13037109375
-97.0458984375
-99.79248046875
-104.3701171875
-107.11669921875
-114.44091796875
-112.60986328125
-107.11669921875
-105.28564453125
-108.0322265625
-102.5390625
-91.552734375
-96.13037109375
-89.7216796875
-97.96142578125
-105.28564453125
-109.86328125
-113.525390625
-106.201171875
-99.79248046875
-97.96142578125
-97.0458984375
-96.13037109375
-100.7080078125
-99.79248046875
-104.3701171875
-109.86328125
-103.45458984375
-97.0458984375
-97.0458984375
-93.3837890625
-87.890625
-91.552734375
-97.0458984375
-93.3837890625
-102.5390625
-101.62353515625
-97.0458984375
-98.876953125
-89.7216796875
-83.31298828125
-82.3974609375
-87.890625
-88.80615234375
-90.63720703125
-98.876953125
-101.62353515625
-88.80615234375
-87.890625
-91.552734375
-80.56640625
-74.15771484375
-81.48193359375
-85.14404296875
-85.14404296875
-87.890625
-92.46826171875
-85.14404296875
-86.0595703125
-78.7353515625
-71.4111328125
-65.91796875
-68.66455078125
-68.66455078125
-69.580078125
-77.81982421875
-88.80615234375
-75.98876953125
-65.00244140625
-67.7490234375
-58.59375
-56.7626953125
-59.50927734375
-65.00244140625
-66.83349609375
-65.91796875
-65.00244140625
-60.4248046875
-57.67822265625
-52.18505859375
-40.283203125
-32.958984375
-43.02978515625
-45.7763671875
-34.7900390625
-42.1142578125
-39.36767578125
-37.53662109375
-32.04345703125
-22.88818359375
-12.8173828125
-6.40869140625
-9.1552734375
-6.40869140625
-11.90185546875
-27.4658203125
-25.634765625
-10.986328125
-13.73291015625
-14.6484375
-13.73291015625
-14.6484375
-18.310546875
-22.88818359375
-28.38134765625
-40.283203125
-52.18505859375
-50.35400390625
-44.86083984375
-50.35400390625
-48.52294921875
-43.9453125
-55.84716796875
-56.7626953125
-63.17138671875
-77.81982421875
-78.7353515625
-77.81982421875
-74.15771484375
-75.98876953125
-70.49560546875
-78.7353515625
-81.48193359375
-82.3974609375
-83.31298828125
-91.552734375
-97.96142578125
-95.21484375
-89.7216796875
-90.63720703125
-86.0595703125
-86.0595703125
-86.97509765625
-92.46826171875
-92.46826171875
-99.79248046875
-97.96142578125
-97.0458984375
-97.0458984375
-90.63720703125
-85.14404296875
-84.228515625
-83.31298828125
-93.3837890625
-95.21484375
-105.28564453125
-103.45458984375
-96.13037109375
-87.890625
-86.97509765625
-82.3974609375
-80.56640625
-82.3974609375
-85.14404296875
-86.0595703125
-92.46826171875
-97.0458984375
-95.21484375
-91.552734375
-83.31298828125
-75.0732421875
-71.4111328125
-74.15771484375
-81.48193359375
-84.228515625
-86.97509765625
-94.29931640625
-87.890625
-76.904296875
-82.3974609375
-82.3974609375
-75.98876953125
-75.98876953125
-80.56640625
-78.7353515625
-90.63720703125
-95.21484375
-91.552734375
-85.14404296875
-85.14404296875
-77.81982421875
-76.904296875
-81.48193359375
-86.97509765625
-86.0595703125
-90.63720703125
-95.21484375
-98.876953125
-89.7216796875
-78.7353515625
-77.81982421875
-79.65087890625
-85.14404296875
-83.31298828125
-86.97509765625
-99.79248046875
-102.5390625
-97.0458984375
-99.79248046875
-97.0458984375
-84.228515625
-83.31298828125
-80.56640625
-88.80615234375
-90.63720703125
-100.7080078125
-104.3701171875
-105.28564453125
-102.5390625
-88.80615234375
-86.97509765625
-83.31298828125
-94.29931640625
-98.876953125
-97.0458984375
-102.5390625
-107.11669921875
-107.11669921875
-106.201171875
-108.0322265625
-97.0458984375
-97.0458984375
-98.876953125
-97.96142578125
-101.62353515625
-105.28564453125
-103.45458984375
-106.201171875
-94.29931640625
-98.876953125
-97.96142578125
-94.29931640625
-97.0458984375
-105.28564453125
-104.3701171875
-104.3701171875
-103.45458984375
-109.86328125
-107.11669921875
-105.28564453125
-94.29931640625
-102.5390625
-100.7080078125
-98.876953125
-105.28564453125
-111.6943359375
-111.6943359375
-112.60986328125
-112.60986328125
-108.0322265625
-103.45458984375
-96.13037109375
-98.876953125
-100.7080078125
-105.28564453125
-108.94775390625
-112.60986328125
-114.44091796875
-114.44091796875
-108.94775390625
-101.62353515625
-97.96142578125
-97.0458984375
-108.94775390625
-109.86328125
-113.525390625
-113.525390625
-108.0322265625
-109.86328125
-99.79248046875
-103.45458984375
-100.7080078125
-97.96142578125
-105.28564453125
-99.79248046875
-110.77880859375
-115.3564453125
-115.3564453125
-115.3564453125
-103.45458984375
-97.96142578125
-99.79248046875
-104.3701171875
-95.21484375
-106.201171875
-112.60986328125
-124.51171875
-121.76513671875
-106.201171875
-97.96142578125
-92.46826171875
-94.29931640625
-102.5390625
-109.86328125
-116.27197265625
-114.44091796875
-119.0185546875
-119.0185546875
-115.3564453125
-110.77880859375
-100.7080078125
-97.0458984375
-90.63720703125
-97.96142578125
-101.62353515625
-108.0322265625
-110.77880859375
-110.77880859375
-104.3701171875
-106.201171875
-105.28564453125
-99.79248046875
-100.7080078125
-111.6943359375
-114.44091796875
-115.3564453125
-110.77880859375
-115.3564453125
-108.0322265625
-103.45458984375
-95.21484375
-94.29931640625
-104.3701171875
-114.44091796875
-108.0322265625
-111.6943359375
-119.0185546875
-118.10302734375
-115.3564453125
-109.86328125
-97.96142578125
-94.29931640625
-101.62353515625
-108.94775390625
-107.11669921875
-108.0322265625
-116.27197265625
-114.44091796875
-108.0322265625
-106.201171875
-98.876953125
-94.29931640625
-94.29931640625
-98.876953125
-105.28564453125
-104.3701171875
-116.27197265625
-110.77880859375
-108.0322265625
-109.86328125
-107.11669921875
-108.0322265625
-107.11669921875
-102.5390625
-106.201171875
-108.0322265625
-101.62353515625
-102.5390625
-103.45458984375
-106.201171875
-103.45458984375
-96.13037109375
-97.96142578125
-102.5390625
-103.45458984375
-103.45458984375
-102.5390625
-86.97509765625
-72.32666015625
-55.84716796875
-26.55029296875
-25.634765625
-39.36767578125
-58.59375
-65.00244140625
-78.7353515625
-85.14404296875
-97.0458984375
-89.7216796875
-86.0595703125
-75.0732421875
-69.580078125
-81.48193359375
-100.7080078125
-118.10302734375
-118.10302734375
-117.1875
-112.60986328125
-108.94775390625
-99.79248046875
-97.0458984375
-101.62353515625
-105.28564453125
-105.28564453125
-112.60986328125
-118.10302734375
-122.6806640625
-119.0185546875
-117.1875
-113.525390625
-106.201171875
-104.3701171875
-110.77880859375
-119.93408203125
-113.525390625
-121.76513671875
-119.93408203125
-114.44091796875
-110.77880859375
-106.201171875
-98.876953125
-99.79248046875
-105.28564453125
-104.3701171875
-101.62353515625
-115.3564453125
-115.3564453125
-105.28564453125
-104.3701171875
-105.28564453125
-102.5390625
-128.173828125
-155.6396484375
-173.9501953125
-171.20361328125
-152.89306640625
-124.51171875
-82.3974609375
-17.39501953125
58.59375
183.10546875
332.33642578125
483.3984375
610.65673828125
714.111328125
830.38330078125
956.72607421875
1053.77197265625
1110.53466796875
1086.73095703125
1052.8564453125
1001.5869140625
910.0341796875
675.6591796875
369.873046875
84.228515625
-109.86328125
-139.16015625
-122.6806640625
-106.201171875
-69.580078125
-56.7626953125
-43.02978515625
-43.02978515625
-48.52294921875
-64.0869140625
-74.15771484375
-75.98876953125
-79.65087890625
-73.2421875
-73.2421875
-70.49560546875
-77.81982421875
-83.31298828125
-83.31298828125
-89.7216796875
-113.525390625
-107.11669921875
-95.21484375
-87.890625
-93.3837890625
-92.46826171875
-92.46826171875
-78.7353515625
-92.46826171875
-104.3701171875
-112.60986328125
-113.525390625
-101.62353515625
-97.0458984375
-94.29931640625
-92.46826171875
-90.63720703125
-92.46826171875
-92.46826171875
-99.79248046875
-107.11669921875
-99.79248046875
-96.13037109375
-93.3837890625
-86.0595703125
-79.65087890625
-83.31298828125
-86.0595703125
-89.7216796875
-94.29931640625
-97.96142578125
-96.13037109375
-95.21484375
-90.63720703125
-86.97509765625
-83.31298828125
-85.14404296875
-83.31298828125
-83.31298828125
-90.63720703125
-105.28564453125
-103.45458984375
-99.79248046875
-92.46826171875
-86.97509765625
-80.56640625
-83.31298828125
-84.228515625
-99.79248046875
-99.79248046875
-98.876953125
-98.876953125
-93.3837890625
-88.80615234375
-84.228515625
-80.56640625
-88.80615234375
-85.14404296875
-82.3974609375
-100.7080078125
-98.876953125
-93.3837890625
-91.552734375
-89.7216796875
-87.890625
-84.228515625
-86.97509765625
-89.7216796875
-97.96142578125
-102.5390625
-97.0458984375
-96.13037109375
-93.3837890625
-86.0595703125
-81.48193359375
-77.81982421875
-86.97509765625
-86.0595703125
-76.904296875
-91.552734375
-92.46826171875
-96.13037109375
-86.0595703125
-82.3974609375
-81.48193359375
-77.81982421875
-77.81982421875
-83.31298828125
-79.65087890625
-88.80615234375
-87.890625
-76.904296875
-79.65087890625
-81.48193359375
-74.15771484375
-71.4111328125
-68.66455078125
-73.2421875
-74.15771484375
-75.0732421875
-79.65087890625
-80.56640625
-73.2421875
-62.255859375
-54.931640625
-51.26953125
-62.255859375
-65.00244140625
-68.66455078125
-76.904296875
-78.7353515625
-72.32666015625
-64.0869140625
-69.580078125
-54.01611328125
-54.01611328125
-55.84716796875
-54.931640625
-53.1005859375
-62.255859375
-71.4111328125
-58.59375
-51.26953125
-37.53662109375
-27.4658203125
-30.21240234375
-17.39501953125
-27.4658203125
-31.1279296875
-23.8037109375
-32.958984375
-30.21240234375
-14.6484375
-8.23974609375
-6.40869140625
6.40869140625
3.662109375
-7.32421875
-10.986328125
-10.07080078125
-25.634765625
-17.39501953125
-15.56396484375
-19.22607421875
-13.73291015625
-19.22607421875
-14.6484375
-24.71923828125
-37.53662109375
-47.607421875
-51.26953125
-44.86083984375
-50.35400390625
-51.26953125
-43.9453125
-47.607421875
-50.35400390625
-55.84716796875
-68.66455078125
-76.904296875
-81.48193359375
-79.65087890625
-73.2421875
-73.2421875
-74.15771484375
-71.4111328125
-73.2421875
-75.98876953125
-81.48193359375
-87.890625
-89.7216796875
-87.890625
-88.80615234375
-90.63720703125
-78.7353515625
-73.2421875
-70.49560546875
-75.0732421875
-79.65087890625
-89.7216796875
-95.21484375
-86.0595703125
-90.63720703125
-89.7216796875
-77.81982421875
-75.0732421875
-76.904296875
-77.81982421875
-75.98876953125
-84.228515625
-92.46826171875
-91.552734375
-83.31298828125
-80.56640625
-73.2421875
-71.4111328125
-80.56640625
-85.14404296875
-86.0595703125
-91.552734375
-89.7216796875
-89.7216796875
-84.228515625
-76.904296875
-73.2421875
-71.4111328125
-71.4111328125
-72.32666015625
-75.0732421875
-80.56640625
-84.228515625
-85.14404296875
-82.3974609375
-80.56640625
-65.91796875
-60.4248046875
-66.83349609375
-74.15771484375
-77.81982421875
-81.48193359375
-82.3974609375
-83.31298828125
-76.904296875
-68.66455078125
-66.83349609375
-69.580078125
-71.4111328125
-81.48193359375
-79.65087890625
-83.31298828125
-88.80615234375
-86.97509765625
-83.31298828125
-84.228515625
-73.2421875
-72.32666015625
-75.0732421875
-76.904296875
-77.81982421875
-83.31298828125
-90.63720703125
-88.80615234375
-81.48193359375
-85.14404296875
-78.7353515625
-77.81982421875
-86.0595703125
-91.552734375
-90.63720703125
-101.62353515625
-106.201171875
-101.62353515625
-92.46826171875
-92.46826171875
-86.0595703125
-80.56640625
-86.97509765625
-90.63720703125
-92.46826171875
-97.0458984375
-105.28564453125
-104.3701171875
-97.96142578125
-93.3837890625
-85.14404296875
-85.14404296875
-89.7216796875
-91.552734375
-93.3837890625
-96.13037109375
-108.0322265625
-100.7080078125
-97.0458984375
-93.3837890625
-92.46826171875
-86.0595703125
-89.7216796875
-97.0458984375
-101.62353515625
-99.79248046875
-104.3701171875
-103.45458984375
-102.5390625
-98.876953125
-92.46826171875
-86.97509765625
-96.13037109375
-92.46826171875
-93.3837890625
-103.45458984375
-113.525390625
-102.5390625
-100.7080078125
-104.3701171875
-91.552734375
-91.552734375
-96.13037109375
-99.79248046875
-97.96142578125
-106.201171875
-108.94775390625
-107.11669921875
-101.62353515625
-103.45458984375
-93.3837890625
-86.97509765625
-90.63720703125
-96.13037109375
-98.876953125
-101.62353515625
-108.0322265625
-104.3701171875
-102.5390625
-98.876953125
-90.63720703125
-86.97509765625
-97.0458984375
-101.62353515625
-103.45458984375
-103.45458984375
-112.60986328125
-107.11669921875
-94.29931640625
-97.0458984375
-93.3837890625
-86.97509765625
-86.0595703125
-95.21484375
-100.7080078125
-105.28564453125
-117.1875
-111.6943359375
-103.45458984375
-101.62353515625
-88.80615234375
-84.228515625
-92.46826171875
-95.21484375
-102.5390625
-100.7080078125
-106.201171875
-107.11669921875
-106.201171875
-106.201171875
-97.0458984375
-97.0458984375
-95.21484375
-97.96142578125
-104.3701171875
-110.77880859375
-113.525390625
-108.94775390625
-105.28564453125
-108.94775390625
-95.21484375
-87.890625
-92.46826171875
-105.28564453125
-101.62353515625
-100.7080078125
-107.11669921875
-110.77880859375
-113.525390625
-110.77880859375
-98.876953125
-93.3837890625
-96.13037109375
-100.7080078125
-103.45458984375
-108.0322265625
-116.27197265625
-112.60986328125
-94.29931640625
-97.96142578125
-105.28564453125
-107.11669921875
-104.3701171875
-106.201171875
-104.3701171875
-103.45458984375
-102.5390625
-94.29931640625
-96.13037109375
-90.63720703125
-86.0595703125
-77.81982421875
-85.14404296875
-93.3837890625
-97.96142578125
-99.79248046875
-97.96142578125
-90.63720703125
-75.98876953125
-62.255859375
-43.9453125
-32.958984375
-44.86083984375
-50.35400390625
-60.4248046875
-71.4111328125
-84.228515625
-91.552734375
-96.13037109375
-91.552734375
-77.81982421875
-77.81982421875
-86.97509765625
-106.201171875
-116.27197265625
-111.6943359375
-114.44091796875
-115.3564453125
-111.6943359375
-104.3701171875
-101.62353515625
-102.5390625
-101.62353515625
-106.201171875
-108.0322265625
-112.60986328125
-119.93408203125
-118.10302734375
-114.44091796875
-119.0185546875
-113.525390625
-106.201171875
-109.86328125
-109.86328125
-112.60986328125
-117.1875
-121.76513671875
-119.0185546875
-114.44091796875
-109.86328125
-106.201171875
-99.79248046875
-103.45458984375
-100.7080078125
-104.3701171875
-103.45458984375
-116.27197265625
-116.27197265625
-104.3701171875
-107.11669921875
-121.76513671875
-146.484375
-167.54150390625
-177.6123046875
-157.470703125
-135.498046875
-111.6943359375
-65.00244140625
3.662109375
99.79248046875
241.69921875
401.91650390625
540.1611328125
645.44677734375
757.14111328125
878.90625
987.85400390625
1059.26513671875
1093.1396484375
1060.1806640625
1025.390625
966.796875
810.24169921875
514.5263671875
228.8818359375
-16.4794921875
-131.8359375
-127.25830078125
-110.77880859375
-103.45458984375
-75.98876953125
-50.35400390625
-46.69189453125
-44.86083984375
-49.4384765625
-57.67822265625
-68.66455078125
-79.65087890625
-77.81982421875
-85.14404296875
-90.63720703125
-83.31298828125
-88.80615234375
-91.552734375
-88.80615234375
-89.7216796875
-95.21484375
-100.7080078125
-96.13037109375
-93.3837890625
-91.552734375
-91.552734375
-90.63720703125
-98.876953125
-100.7080078125
-97.96142578125
-106.201171875
-102.5390625
-101.62353515625
-103.45458984375
-95.21484375
-88.80615234375
-87.890625
-90.63720703125
-101.62353515625
-99.79248046875
-102.5390625
-108.0322265625
-105.28564453125
-100.7080078125
-97.96142578125
-90.63720703125
-89.7216796875
-89.7216796875
-96.13037109375
-102.5390625
-106.201171875
-104.3701171875
-104.3701171875
-97.0458984375
-85.14404296875
-85.14404296875
-87.890625
-91.552734375
-97.96142578125
-108.94775390625
-117.1875
-107.11669921875
-96.13037109375
-97.0458984375
-92.46826171875
-90.63720703125
-96.13037109375
-95.21484375
-95.21484375
-102.5390625
-110.77880859375
-107.11669921875
-99.79248046875
-93.3837890625
-90.63720703125
-85.14404296875
-97.96142578125
-99.79248046875
-98.876953125
-106.201171875
-109.86328125
-103.45458984375
-96.13037109375
-96.13037109375
-90.63720703125
-86.0595703125
-86.97509765625
-93.3837890625
-96.13037109375
-101.62353515625
-107.11669921875
-98.876953125
-95.21484375
-94.29931640625
-89.7216796875
-86.0595703125
-84.228515625
-89.7216796875
-90.63720703125
-92.46826171875
-107.11669921875
-99.79248046875
-93.3837890625
-85.14404296875
-84.228515625
-74.15771484375
-73.2421875
-85.14404296875
-90.63720703125
-89.7216796875
-97.0458984375
-90.63720703125
-87.890625
-85.14404296875
-80.56640625
-75.98876953125
-77.81982421875
-77.81982421875
-81.48193359375
-83.31298828125
-88.80615234375
-84.228515625
-80.56640625
-73.2421875
-68.66455078125
-68.66455078125
-70.49560546875
-66.83349609375
-69.580078125
-76.904296875
-73.2421875
-66.83349609375
-68.66455078125
-65.91796875
-58.59375
-57.67822265625
-56.7626953125
-54.931640625
-58.59375
-60.4248046875
-59.50927734375
-56.7626953125
-54.931640625
-45.7763671875
-38.4521484375
-34.7900390625
-33.87451171875
-31.1279296875
-29.296875
-33.87451171875
-36.62109375
-28.38134765625
-19.22607421875
-12.8173828125
-16.4794921875
-7.32421875
-9.1552734375
-14.6484375
-13.73291015625
-17.39501953125
-28.38134765625
-31.1279296875
-28.38134765625
-26.55029296875
-18.310546875
-14.6484375
-25.634765625
-33.87451171875
-34.7900390625
-43.9453125
-55.84716796875
-57.67822265625
-56.7626953125
-54.931640625
-51.26953125
-55.84716796875
-64.0869140625
-65.00244140625
-65.91796875
-71.4111328125
-76.904296875
-80.56640625
-79.65087890625
-78.7353515625
-78.7353515625
-79.65087890625
-80.56640625
-86.97509765625
-89.7216796875
-89.7216796875
-92.46826171875
-94.29931640625
-94.29931640625
-88.80615234375
-74.15771484375
-68.66455078125
-71.4111328125
-84.228515625
-86.97509765625
-88.80615234375
-90.63720703125
-89.7216796875
-85.14404296875
-81.48193359375
-80.56640625
-80.56640625
-73.2421875
-77.81982421875
-82.3974609375
-80.56640625
-86.0595703125
-78.7353515625
-76.904296875
-76.904296875
-74.15771484375
-68.66455078125
-71.4111328125
-73.2421875
-72.32666015625
-75.98876953125
-86.97509765625
-86.97509765625
-84.228515625
-82.3974609375
-76.904296875
-66.83349609375
-67.7490234375
-71.4111328125
-75.98876953125
-79.65087890625
-86.0595703125
-79.65087890625
-75.0732421875
-78.7353515625
-72.32666015625
-65.91796875
-65.00244140625
-71.4111328125
-74.15771484375
-79.65087890625
-90.63720703125
-88.80615234375
-78.7353515625
-78.7353515625
-71.4111328125
-71.4111328125
-73.2421875
-74.15771484375
-81.48193359375
-79.65087890625
-87.890625
-87.890625
-79.65087890625
-76.904296875
-75.98876953125
-76.904296875
-80.56640625
-86.0595703125
-86.97509765625
-95.21484375
-105.28564453125
-95.21484375
-90.63720703125
-88.80615234375
-87.890625
-82.3974609375
-86.0595703125
-86.97509765625
-86.0595703125
-88.80615234375
-101.62353515625
-98.876953125
-97.96142578125
-100.7080078125
-92.46826171875
-82.3974609375
-82.3974609375
-95.21484375
-96.13037109375
-99.79248046875
-104.3701171875
-101.62353515625
-98.876953125
-90.63720703125
-93.3837890625
-88.80615234375
-93.3837890625
-96.13037109375
-103.45458984375
-106.201171875
-110.77880859375
-106.201171875
-106.201171875
-99.79248046875
-86.0595703125
-87.890625
-91.552734375
-96.13037109375
-97.0458984375
-100.7080078125
-111.6943359375
-104.3701171875
-95.21484375
-87.890625
-89.7216796875
-86.97509765625
-89.7216796875
-96.13037109375
-102.5390625
-110.77880859375
-111.6943359375
-108.94775390625
-103.45458984375
-101.62353515625
-94.29931640625
-89.7216796875
-87.890625
-96.13037109375
-105.28564453125
-104.3701171875
-108.0322265625
-108.0322265625
-103.45458984375
-96.13037109375
-92.46826171875
-97.0458984375
-97.0458984375
-99.79248046875
-97.96142578125
-103.45458984375
-112.60986328125
-108.0322265625
-100.7080078125
-98.876953125
-100.7080078125
-94.29931640625
-97.96142578125
-101.62353515625
-97.96142578125
-109.86328125
-112.60986328125
-107.11669921875
-105.28564453125
-105.28564453125
-97.0458984375
-99.79248046875
-100.7080078125
-100.7080078125
-103.45458984375
-109.86328125
-108.0322265625
-103.45458984375
-113.525390625
-102.5390625
-97.0458984375
-87.890625
-97.0458984375
-98.876953125
-102.5390625
-102.5390625
-112.60986328125
-110.77880859375
-108.94775390625
-106.201171875
-107.11669921875
-104.3701171875
-100.7080078125
-101.62353515625
-102.5390625
-105.28564453125
-117.1875
-108.0322265625
-105.28564453125
-99.79248046875
-99.79248046875
-91.552734375
-92.46826171875
-97.96142578125
-102.5390625
-108.0322265625
-111.6943359375
-105.28564453125
-101.62353515625
-95.21484375
-95.21484375
-91.552734375
-94.29931640625
-98.876953125
-101.62353515625
-103.45458984375
-115.3564453125
-114.44091796875
-104.3701171875
-104.3701171875
-96.13037109375
-93.3837890625
-95.21484375
-98.876953125
-103.45458984375
-108.0322265625
-111.6943359375
-108.0322265625
-105.28564453125
-105.28564453125
-102.5390625
-97.0458984375
-96.13037109375
-91.552734375
-97.0458984375
-102.5390625
-105.28564453125
-98.876953125
-96.13037109375
-79.65087890625
-75.98876953125
-68.66455078125
-75.98876953125
-80.56640625
-76.904296875
-87.890625
-77.81982421875
-55.84716796875
-40.283203125
-32.958984375
-36.62109375
-37.53662109375
-44.86083984375
-52.18505859375
-63.17138671875
-70.49560546875
-95.21484375
-96.13037109375
-89.7216796875
-66.83349609375
-74.15771484375
-89.7216796875
-100.7080078125
-102.5390625
-98.876953125
-104.3701171875
-108.0322265625
-108.0322265625
-104.3701171875
-102.5390625
-107.11669921875
-102.5390625
-102.5390625
-99.79248046875
-104.3701171875
-115.3564453125
-121.76513671875
-112.60986328125
-105.28564453125
-108.94775390625
-107.11669921875
-102.5390625
-98.876953125
-94.29931640625
-101.62353515625
-108.0322265625
-110.77880859375
-108.94775390625
-106.201171875
-102.5390625
-96.13037109375
-93.3837890625
-98.876953125
-101.62353515625
-96.13037109375
-98.876953125
-119.0185546875
-118.10302734375
-125.42724609375
-134.58251953125
-155.6396484375
-166.6259765625
-174.86572265625
-157.470703125
-132.75146484375
-103.45458984375
-60.4248046875
13.73291015625
123.59619140625
262.75634765625
412.90283203125
566.71142578125
679.3212890625
788.26904296875
922.8515625
1027.2216796875
1086.73095703125
1092.22412109375
1060.1806640625
1014.404296875
945.73974609375
765.380859375
464.17236328125
168.45703125
-55.84716796875
-127.25830078125
-129.08935546875
-108.94775390625
-71.4111328125
-56.7626953125
-35.70556640625
-28.38134765625
-34.7900390625
-43.02978515625
-54.01611328125
-60.4248046875
-80.56640625
-88.80615234375
-82.3974609375
-82.3974609375
-86.0595703125
-83.31298828125
-84.228515625
-87.890625
-86.97509765625
-93.3837890625
-98.876953125
-97.0458984375
-96.13037109375
-92.46826171875
-86.97509765625
-77.81982421875
-89.7216796875
-94.29931640625
-95.21484375
-97.0458984375
-104.3701171875
-100.7080078125
-93.3837890625
-93.3837890625
-86.0595703125
-85.14404296875
-91.552734375
-90.63720703125
-97.0458984375
-94.29931640625
-100.7080078125
-101.62353515625
-95.21484375
-92.46826171875
-93.3837890625
-92.46826171875
-89.7216796875
-91.552734375
-92.46826171875
-97.0458984375
-98.876953125
-103.45458984375
-98.876953125
-92.46826171875
-88.80615234375
-82.3974609375
-84.228515625
-91.552734375
-90.63720703125
-95.21484375
-98.876953125
-97.96142578125
-97.0458984375
-94.29931640625
-88.80615234375
-79.65087890625
-82.3974609375
-85.14404296875
-89.7216796875
-97.96142578125
-97.96142578125
-94.29931640625
-87.890625
-91.552734375
-89.7216796875
-86.0595703125
-86.0595703125
-81.48193359375
-80.56640625
-95.21484375
-97.96142578125
-98.876953125
-91.552734375
-87.890625
-96.13037109375
-86.97509765625
-88.80615234375
-92.46826171875
-95.21484375
-94.29931640625
-97.0458984375
-95.21484375
-88.80615234375
-88.80615234375
-78.7353515625
-73.2421875
-75.0732421875
-84.228515625
-89.7216796875
-82.3974609375
-91.552734375
-86.0595703125
-86.97509765625
-84.228515625
-78.7353515625
-74.15771484375
-75.0732421875
-72.32666015625
-72.32666015625
-81.48193359375
-82.3974609375
-82.3974609375
-79.65087890625
-72.32666015625
-60.4248046875
-58.59375
-67.7490234375
-64.0869140625
-62.255859375
-66.83349609375
-78.7353515625
-80.56640625
-67.7490234375
-59.50927734375
-58.59375
-51.26953125
-54.931640625
-55.84716796875
-62.255859375
-70.49560546875
-68.66455078125
-66.83349609375
-57.67822265625
-59.50927734375
-51.26953125
-49.4384765625
-45.7763671875
-46.69189453125
-37.53662109375
-37.53662109375
-38.4521484375
-42.1142578125
-32.958984375
-24.71923828125
-16.4794921875
-9.1552734375
-12.8173828125
-11.90185546875
-8.23974609375
-15.56396484375
-16.4794921875
-17.39501953125
-12.8173828125
-2.74658203125
4.57763671875
11.90185546875
10.986328125
0
-4.57763671875
-4.57763671875
-13.73291015625
-14.6484375
-14.6484375
-8.23974609375
-8.23974609375
-0.91552734375
-8.23974609375
-19.22607421875
-21.97265625
-37.53662109375
-52.18505859375
-49.4384765625
-48.52294921875
-48.52294921875
-47.607421875
-54.01611328125
-46.69189453125
-46.69189453125
-60.4248046875
-66.83349609375
-76.904296875
-81.48193359375
-73.2421875
-75.98876953125
-69.580078125
-61.34033203125
-62.255859375
-68.66455078125
-70.49560546875
-78.7353515625
-92.46826171875
-87.890625
-82.3974609375
-75.0732421875
-74.15771484375
-68.66455078125
-71.4111328125
-74.15771484375
-75.98876953125
-79.65087890625
-83.31298828125
-82.3974609375
-78.7353515625
-80.56640625
-67.7490234375
-65.00244140625
-68.66455078125
-68.66455078125
-66.83349609375
-76.904296875
-82.3974609375
-72.32666015625
-76.904296875
-81.48193359375
-77.81982421875
-70.49560546875
-70.49560546875
-70.49560546875
-71.4111328125
-75.0732421875
-81.48193359375
-76.904296875
-76.904296875
-63.17138671875
-59.50927734375
-56.7626953125
-54.931640625
-64.0869140625
-69.580078125
-69.580078125
-79.65087890625
-75.98876953125
-74.15771484375
-69.580078125
-66.83349609375
-56.7626953125
-57.67822265625
-68.66455078125
-67.7490234375
-69.580078125
-74.15771484375
-79.65087890625
-73.2421875
-66.83349609375
-70.49560546875
-65.00244140625
-74.15771484375
-63.17138671875
-63.17138671875
-70.49560546875
-86.97509765625
-79.65087890625
-82.3974609375
-69.580078125
-71.4111328125
-66.83349609375
-63.17138671875
-65.91796875
-77.81982421875
-77.81982421875
-84.228515625
-85.14404296875
-85.14404296875
-77.81982421875
-71.4111328125
-73.2421875
-70.49560546875
-78.7353515625
-81.48193359375
-79.65087890625
-89.7216796875
-86.97509765625
-81.48193359375
-75.0732421875
-73.2421875
-73.2421875
-75.98876953125
-79.65087890625
-79.65087890625
-85.14404296875
-94.29931640625
-88.80615234375
-86.0595703125
-91.552734375
-86.97509765625
-80.56640625
-75.0732421875
-75.0732421875
-79.65087890625
-92.46826171875
-103.45458984375
-94.29931640625
-86.0595703125
-83.31298828125
-88.80615234375
-84.228515625
-84.228515625
-89.7216796875
-95.21484375
-97.96142578125
-97.0458984375
-89.7216796875
-97.0458984375
-96.13037109375
-87.890625
-86.0595703125
-86.0595703125
-90.63720703125
-83.31298828125
-95.21484375
-105.28564453125
-94.29931640625
-92.46826171875
-93.3837890625
-82.3974609375
-82.3974609375
-85.14404296875
-89.7216796875
-89.7216796875
-92.46826171875
-100.7080078125
-96.13037109375
-91.552734375
-86.97509765625
-84.228515625
-70.49560546875
-83.31298828125
-90.63720703125
-84.228515625
-89.7216796875
-103.45458984375
-101.62353515625
-93.3837890625
-94.29931640625
-91.552734375
-89.7216796875
-92.46826171875
-88.80615234375
-84.228515625
-87.890625
-99.79248046875
-101.62353515625
-92.46826171875
-87.890625
-86.97509765625
-82.3974609375
-82.3974609375
-87.890625
-84.228515625
-90.63720703125
-103.45458984375
-103.45458984375
-100.7080078125
-84.228515625
-92.46826171875
-81.48193359375
-85.14404296875
-91.552734375
-93.3837890625
-90.63720703125
-97.96142578125
-88.80615234375
-85.14404296875
-82.3974609375
-80.56640625
-82.3974609375
-86.0595703125
-92.46826171875
-93.3837890625
-94.29931640625
-101.62353515625
-95.21484375
-88.80615234375
-93.3837890625
-89.7216796875
-81.48193359375
-78.7353515625
-87.890625
-86.97509765625
-90.63720703125
-92.46826171875
-98.876953125
-94.29931640625
-97.96142578125
-87.890625
-79.65087890625
-86.97509765625
-93.3837890625
-91.552734375
-97.96142578125
-108.0322265625
-108.0322265625
-100.7080078125
-89.7216796875
-89.7216796875
-92.46826171875
-85.14404296875
-79.65087890625
-82.3974609375
-78.7353515625
-79.65087890625
-80.56640625
-76.904296875
-65.91796875
-71.4111328125
-59.50927734375
-59.50927734375
-68.66455078125
-70.49560546875
-65.00244140625
-63.17138671875
-55.84716796875
-40.283203125
-21.97265625
-18.310546875
-15.56396484375
-29.296875
-38.4521484375
-46.69189453125
-54.01611328125
-66.83349609375
-65.00244140625
-61.34033203125
-59.50927734375
-57.67822265625
-56.7626953125
-80.56640625
-87.890625
-82.3974609375
-88.80615234375
-97.0458984375
-96.13037109375
-97.96142578125
-94.29931640625
-92.46826171875
-82.3974609375
-86.97509765625
-93.3837890625
-97.96142578125
-101.62353515625
-115.3564453125
-109.86328125
-104.3701171875
-97.0458984375
-93.3837890625
-96.13037109375
-93.3837890625
-92.46826171875
-99.79248046875
-99.79248046875
-108.94775390625
-104.3701171875
-100.7080078125
-99.79248046875
-95.21484375
-86.97509765625
-88.80615234375
-90.63720703125
-94.29931640625
-103.45458984375
-115.3564453125
-108.94775390625
-100.7080078125
-97.0458984375
-97.0458984375
-112.60986328125
-139.16015625
-157.470703125
-163.87939453125
-145.56884765625
-133.6669921875
-97.0458984375
-35.70556640625
32.04345703125
134.58251953125
281.06689453125
440.36865234375
568.54248046875
671.08154296875
770.8740234375
899.0478515625
1000.67138671875
1074.8291015625
1107.7880859375
1081.23779296875
1044.61669921875
976.86767578125
808.41064453125
499.8779296875
230.712890625
-10.986328125
-108.94775390625
-102.5390625
-95.21484375
-91.552734375
-67.7490234375
-53.1005859375
-47.607421875
-41.19873046875
-47.607421875
-57.67822265625
-61.34033203125
-65.91796875
-71.4111328125
-60.4248046875
-55.84716796875
-65.00244140625
-77.81982421875
-83.31298828125
-86.0595703125
-93.3837890625
-92.46826171875
-91.552734375
-86.0595703125
-76.904296875
-73.2421875
-83.31298828125
-87.890625
-89.7216796875
-93.3837890625
-107.11669921875
-105.28564453125
-94.29931640625
-86.97509765625
-85.14404296875
-77.81982421875
-83.31298828125
-87.890625
-89.7216796875
-97.96142578125
-100.7080078125
-95.21484375
-91.552734375
-86.97509765625
-86.97509765625
-83.31298828125
-82.3974609375
-82.3974609375
-87.890625
-89.7216796875
-96.13037109375
-97.96142578125
