ECG
-6.40869140625
-5.4931640625
4.57763671875
10.07080078125
11.90185546875
22.88818359375
23.8037109375
20.1416015625
13.73291015625
5.4931640625
0.91552734375
0.91552734375
6.40869140625
9.1552734375
16.4794921875
11.90185546875
9.1552734375
0
-15.56396484375
-16.4794921875
-28.38134765625
-25.634765625
-28.38134765625
-36.62109375
-26.55029296875
-25.634765625
-32.04345703125
-36.62109375
-38.4521484375
-48.52294921875
-51.26953125
-54.01611328125
-47.607421875
-53.1005859375
-54.01611328125
-49.4384765625
-44.86083984375
-50.35400390625
-61.34033203125
-70.49560546875
-83.31298828125
-75.0732421875
-68.66455078125
-63.17138671875
-65.91796875
-57.67822265625
-57.67822265625
-65.00244140625
-67.7490234375
-65.00244140625
-72.32666015625
-72.32666015625
-65.00244140625
-64.0869140625
-57.67822265625
-54.01611328125
-51.26953125
-54.931640625
-57.67822265625
-60.4248046875
-64.0869140625
-65.00244140625
-56.7626953125
-50.35400390625
-49.4384765625
-38.4521484375
-42.1142578125
-47.607421875
-44.86083984375
-58.59375
-62.255859375
-63.17138671875
-54.931640625
-54.931640625
-46.69189453125
-46.69189453125
-49.4384765625
-49.4384765625
-51.26953125
-51.26953125
-58.59375
-55.84716796875
-54.931640625
-50.35400390625
-40.283203125
-36.62109375
-47.607421875
-41.19873046875
-47.607421875
-58.59375
-63.17138671875
-65.00244140625
-65.91796875
-61.34033203125
-54.931640625
-47.607421875
-52.18505859375
-52.18505859375
-50.35400390625
-56.7626953125
-56.7626953125
-72.32666015625
-67.7490234375
-64.0869140625
-64.0869140625
-54.931640625
-56.7626953125
-50.35400390625
-56.7626953125
-59.50927734375
-69.580078125
-75.0732421875
-61.34033203125
-60.4248046875
-62.255859375
-51.26953125
-54.931640625
-56.7626953125
-55.84716796875
-65.00244140625
-65.91796875
-73.2421875
-64.0869140625
-61.34033203125
-56.7626953125
-43.02978515625
-53.1005859375
-58.59375
-64.0869140625
-68.66455078125
-74.15771484375
-76.904296875
-68.66455078125
-68.66455078125
-61.34033203125
-57.67822265625
-54.931640625
-58.59375
-53.1005859375
-67.7490234375
-81.48193359375
-69.580078125
-68.66455078125
-69.580078125
-57.67822265625
-56.7626953125
-63.17138671875
-66.83349609375
-69.580078125
-70.49560546875
-81.48193359375
-75.0732421875
-70.49560546875
-74.15771484375
-64.0869140625
-54.931640625
-60.4248046875
-66.83349609375
-68.66455078125
-69.580078125
-74.15771484375
-75.0732421875
-68.66455078125
-69.580078125
-65.91796875
-57.67822265625
-62.255859375
-70.49560546875
-75.0732421875
-74.15771484375
-81.48193359375
-86.97509765625
-82.3974609375
-67.7490234375
-61.34033203125
-62.255859375
-57.67822265625
-58.59375
-65.00244140625
-65.91796875
-67.7490234375
-69.580078125
-65.00244140625
-55.84716796875
-52.18505859375
-52.18505859375
-58.59375
-61.34033203125
-70.49560546875
-76.904296875
-82.3974609375
-79.65087890625
-69.580078125
-65.91796875
-71.4111328125
-59.50927734375
-54.01611328125
-60.4248046875
-67.7490234375
-69.580078125
-81.48193359375
-81.48193359375
-75.98876953125
-65.91796875
-63.17138671875
-58.59375
-68.66455078125
-74.15771484375
-70.49560546875
-68.66455078125
-74.15771484375
-75.0732421875
-70.49560546875
-65.91796875
-59.50927734375
-55.84716796875
-61.34033203125
-62.255859375
-65.00244140625
-67.7490234375
-74.15771484375
-73.2421875
-72.32666015625
-69.580078125
-65.91796875
-59.50927734375
-50.35400390625
-54.01611328125
-49.4384765625
-44.86083984375
-56.7626953125
-46.69189453125
-43.02978515625
-35.70556640625
-31.1279296875
-31.1279296875
-32.04345703125
-34.7900390625
-29.296875
-24.71923828125
-19.22607421875
-9.1552734375
4.57763671875
6.40869140625
6.40869140625
5.4931640625
-4.57763671875
-20.1416015625
-24.71923828125
-33.87451171875
-36.62109375
-40.283203125
-37.53662109375
-36.62109375
-48.52294921875
-47.607421875
-42.1142578125
-49.4384765625
-57.67822265625
-64.0869140625
-76.904296875
-79.65087890625
-76.904296875
-69.580078125
-66.83349609375
-63.17138671875
-54.01611328125
-53.1005859375
-56.7626953125
-73.2421875
-80.56640625
-78.7353515625
-77.81982421875
-73.2421875
-65.91796875
-61.34033203125
-64.0869140625
-66.83349609375
-74.15771484375
-75.0732421875
-79.65087890625
-75.0732421875
-70.49560546875
-81.48193359375
-71.4111328125
-59.50927734375
-57.67822265625
-62.255859375
-64.0869140625
-73.2421875
-81.48193359375
-78.7353515625
-91.552734375
-107.11669921875
-133.6669921875
-137.3291015625
-137.3291015625
-119.93408203125
-96.13037109375
-60.4248046875
-10.07080078125
55.84716796875
171.20361328125
328.67431640625
489.80712890625
633.544921875
736.99951171875
856.93359375
991.51611328125
1080.322265625
1132.50732421875
1118.7744140625
1094.970703125
1051.025390625
958.55712890625
726.01318359375
409.24072265625
118.10302734375
-54.01611328125
-77.81982421875
-83.31298828125
-72.32666015625
-38.4521484375
-19.22607421875
-11.90185546875
5.4931640625
2.74658203125
-5.4931640625
-22.88818359375
-29.296875
-38.4521484375
-45.7763671875
-45.7763671875
-42.1142578125
-41.19873046875
-34.7900390625
-39.36767578125
-46.69189453125
-53.1005859375
-61.34033203125
-70.49560546875
-74.15771484375
-67.7490234375
-64.0869140625
-60.4248046875
-53.1005859375
-52.18505859375
-54.01611328125
-54.931640625
-55.84716796875
-65.91796875
-65.91796875
-56.7626953125
-56.7626953125
-57.67822265625
-47.607421875
-49.4384765625
-50.35400390625
-56.7626953125
-65.91796875
-71.4111328125
-65.00244140625
-61.34033203125
-57.67822265625
-46.69189453125
-48.52294921875
-43.9453125
-45.7763671875
-51.26953125
-59.50927734375
-68.66455078125
-65.91796875
-67.7490234375
-65.91796875
-59.50927734375
-48.52294921875
-49.4384765625
-60.4248046875
-57.67822265625
-60.4248046875
-71.4111328125
-65.00244140625
-58.59375
-58.59375
-55.84716796875
-48.52294921875
-48.52294921875
-50.35400390625
-50.35400390625
-52.18505859375
-65.91796875
-65.00244140625
-59.50927734375
-59.50927734375
-52.18505859375
-49.4384765625
-53.1005859375
-51.26953125
-54.01611328125
-53.1005859375
-61.34033203125
-69.580078125
-68.66455078125
-63.17138671875
-57.67822265625
-52.18505859375
-44.86083984375
-45.7763671875
-45.7763671875
-56.7626953125
-67.7490234375
-59.50927734375
-54.01611328125
-43.02978515625
-51.26953125
-46.69189453125
-39.36767578125
-33.87451171875
-43.02978515625
-49.4384765625
-52.18505859375
-47.607421875
-46.69189453125
-44.86083984375
-40.283203125
-33.87451171875
-33.87451171875
-34.7900390625
-34.7900390625
-37.53662109375
-46.69189453125
-45.7763671875
-41.19873046875
-35.70556640625
-28.38134765625
-21.97265625
-20.1416015625
-21.05712890625
-26.55029296875
-27.4658203125
-34.7900390625
-37.53662109375
-34.7900390625
-25.634765625
-20.1416015625
-15.56396484375
-10.986328125
-7.32421875
-13.73291015625
-17.39501953125
-21.97265625
-28.38134765625
-10.986328125
-6.40869140625
-4.57763671875
6.40869140625
6.40869140625
8.23974609375
14.6484375
1.8310546875
0
4.57763671875
12.8173828125
14.6484375
21.05712890625
27.4658203125
32.04345703125
31.1279296875
30.21240234375
30.21240234375
28.38134765625
29.296875
29.296875
30.21240234375
33.87451171875
43.9453125
42.1142578125
36.62109375
33.87451171875
31.1279296875
13.73291015625
8.23974609375
13.73291015625
12.8173828125
6.40869140625
10.07080078125
8.23974609375
7.32421875
-2.74658203125
-10.986328125
-24.71923828125
-33.87451171875
-34.7900390625
-34.7900390625
-31.1279296875
-22.88818359375
-32.04345703125
-41.19873046875
-43.9453125
-50.35400390625
-59.50927734375
-54.01611328125
-55.84716796875
-57.67822265625
-61.34033203125
-49.4384765625
-50.35400390625
-57.67822265625
-58.59375
-60.4248046875
-67.7490234375
-75.0732421875
-72.32666015625
-61.34033203125
-64.0869140625
-58.59375
-53.1005859375
-51.26953125
-61.34033203125
-65.91796875
-68.66455078125
-68.66455078125
-68.66455078125
-63.17138671875
-57.67822265625
-43.9453125
-47.607421875
-54.01611328125
-57.67822265625
-62.255859375
-71.4111328125
-71.4111328125
-69.580078125
-63.17138671875
-54.931640625
-50.35400390625
-48.52294921875
-54.01611328125
-54.01611328125
-56.7626953125
-65.00244140625
-63.17138671875
-60.4248046875
-54.931640625
-53.1005859375
-44.86083984375
-44.86083984375
-54.01611328125
-59.50927734375
-59.50927734375
-60.4248046875
-62.255859375
-56.7626953125
-56.7626953125
-54.01611328125
-46.69189453125
-43.9453125
-50.35400390625
-50.35400390625
-54.01611328125
-63.17138671875
-63.17138671875
-63.17138671875
-63.17138671875
-56.7626953125
-51.26953125
-48.52294921875
-53.1005859375
-61.34033203125
-65.91796875
-76.904296875
-65.91796875
-65.91796875
-61.34033203125
-57.67822265625
-49.4384765625
-47.607421875
-61.34033203125
-65.00244140625
-62.255859375
-74.15771484375
-72.32666015625
-74.15771484375
-78.7353515625
-67.7490234375
-54.931640625
-57.67822265625
-69.580078125
-67.7490234375
-71.4111328125
-79.65087890625
-75.0732421875
-72.32666015625
-65.91796875
-72.32666015625
-63.17138671875
-72.32666015625
-65.91796875
-65.00244140625
-70.49560546875
-73.2421875
-84.228515625
-80.56640625
-80.56640625
-79.65087890625
-62.255859375
-68.66455078125
-72.32666015625
-65.91796875
-66.83349609375
-79.65087890625
-84.228515625
-73.2421875
-70.49560546875
-68.66455078125
-65.00244140625
-60.4248046875
-68.66455078125
-75.0732421875
-77.81982421875
-90.63720703125
-95.21484375
-86.97509765625
-87.890625
-79.65087890625
-66.83349609375
-73.2421875
-75.98876953125
-79.65087890625
-84.228515625
-88.80615234375
-91.552734375
-86.0595703125
-82.3974609375
-75.0732421875
-66.83349609375
-69.580078125
-73.2421875
-75.0732421875
-76.904296875
-89.7216796875
-89.7216796875
-83.31298828125
-77.81982421875
-75.98876953125
-64.0869140625
-63.17138671875
-64.0869140625
-73.2421875
-76.904296875
-87.890625
-91.552734375
-86.97509765625
-83.31298828125
-74.15771484375
-70.49560546875
-71.4111328125
-78.7353515625
-77.81982421875
-75.98876953125
-92.46826171875
-87.890625
-79.65087890625
-79.65087890625
-75.0732421875
-66.83349609375
-66.83349609375
-71.4111328125
-76.904296875
-75.0732421875
-85.14404296875
-86.97509765625
-92.46826171875
-86.0595703125
-75.98876953125
-66.83349609375
-57.67822265625
-67.7490234375
-73.2421875
-80.56640625
-86.0595703125
-86.97509765625
-76.904296875
-84.228515625
-71.4111328125
-70.49560546875
-66.83349609375
-66.83349609375
-73.2421875
-76.904296875
-86.97509765625
-88.80615234375
-83.31298828125
-65.91796875
-66.83349609375
-59.50927734375
-49.4384765625
-41.19873046875
-38.4521484375
-38.4521484375
-39.36767578125
-47.607421875
-52.18505859375
-43.02978515625
-41.19873046875
-23.8037109375
-12.8173828125
-11.90185546875
0
1.8310546875
-16.4794921875
-19.22607421875
-12.8173828125
-21.05712890625
-30.21240234375
-32.958984375
-32.958984375
-38.4521484375
-47.607421875
-55.84716796875
-57.67822265625
-75.98876953125
-81.48193359375
-64.0869140625
-64.0869140625
-58.59375
-65.00244140625
-74.15771484375
-78.7353515625
-86.97509765625
-99.79248046875
-100.7080078125
-95.21484375
-89.7216796875
-86.97509765625
-81.48193359375
-73.2421875
-78.7353515625
-84.228515625
-87.890625
-89.7216796875
-92.46826171875
-86.0595703125
-76.904296875
-77.81982421875
-69.580078125
-65.91796875
-70.49560546875
-78.7353515625
-86.97509765625
-95.21484375
-85.14404296875
-83.31298828125
-84.228515625
-77.81982421875
-77.81982421875
-74.15771484375
-65.91796875
-73.2421875
-87.890625
-108.94775390625
-131.8359375
-153.80859375
-160.21728515625
-155.6396484375
-126.3427734375
-94.29931640625
-49.4384765625
4.57763671875
84.228515625
197.75390625
348.81591796875
509.033203125
646.3623046875
748.9013671875
876.15966796875
1007.080078125
1091.30859375
1132.50732421875
1111.4501953125
1065.673828125
1016.2353515625
905.45654296875
650.0244140625
344.23828125
92.46826171875
-67.7490234375
-89.7216796875
-87.890625
-78.7353515625
-55.84716796875
-41.19873046875
-39.36767578125
-29.296875
-22.88818359375
-21.05712890625
-23.8037109375
-34.7900390625
-47.607421875
-58.59375
-67.7490234375
-68.66455078125
-65.00244140625
-74.15771484375
-67.7490234375
-57.67822265625
-54.931640625
-64.0869140625
-71.4111328125
-69.580078125
-77.81982421875
-79.65087890625
-75.98876953125
-75.98876953125
-63.17138671875
-55.84716796875
-55.84716796875
-59.50927734375
-65.00244140625
-67.7490234375
-76.904296875
-69.580078125
-67.7490234375
-67.7490234375
-72.32666015625
-65.00244140625
-58.59375
-65.91796875
-68.66455078125
-66.83349609375
-78.7353515625
-79.65087890625
-71.4111328125
-65.00244140625
-67.7490234375
-55.84716796875
-54.931640625
-58.59375
-64.0869140625
-64.0869140625
-74.15771484375
-84.228515625
-72.32666015625
-69.580078125
-68.66455078125
-65.91796875
-62.255859375
-60.4248046875
-63.17138671875
-58.59375
-76.904296875
-86.0595703125
-77.81982421875
-67.7490234375
-66.83349609375
-61.34033203125
-59.50927734375
-65.91796875
-64.0869140625
-73.2421875
-67.7490234375
-71.4111328125
-73.2421875
-75.0732421875
-66.83349609375
-48.52294921875
-48.52294921875
-53.1005859375
-59.50927734375
-58.59375
-73.2421875
-82.3974609375
-66.83349609375
-59.50927734375
-59.50927734375
-53.1005859375
-58.59375
-58.59375
-56.7626953125
-62.255859375
-63.17138671875
-66.83349609375
-59.50927734375
-62.255859375
-61.34033203125
-52.18505859375
-47.607421875
-48.52294921875
-52.18505859375
-53.1005859375
-63.17138671875
-64.0869140625
-64.0869140625
-48.52294921875
-46.69189453125
-40.283203125
-43.02978515625
-39.36767578125
-35.70556640625
-40.283203125
-46.69189453125
-49.4384765625
-45.7763671875
-40.283203125
-43.02978515625
-36.62109375
-36.62109375
-38.4521484375
-39.36767578125
-35.70556640625
-48.52294921875
-45.7763671875
-29.296875
-31.1279296875
-35.70556640625
-24.71923828125
-19.22607421875
-24.71923828125
-32.958984375
-31.1279296875
-35.70556640625
-36.62109375
-25.634765625
-15.56396484375
-11.90185546875
-10.986328125
0
-4.57763671875
-8.23974609375
-5.4931640625
-7.32421875
-6.40869140625
-9.1552734375
-4.57763671875
3.662109375
10.07080078125
19.22607421875
20.1416015625
19.22607421875
17.39501953125
11.90185546875
10.986328125
17.39501953125
15.56396484375
16.4794921875
21.97265625
31.1279296875
22.88818359375
13.73291015625
9.1552734375
0
-10.07080078125
-4.57763671875
-6.40869140625
-10.07080078125
-4.57763671875
-2.74658203125
-12.8173828125
-22.88818359375
-27.4658203125
-32.958984375
-34.7900390625
-35.70556640625
-41.19873046875
-46.69189453125
-34.7900390625
-36.62109375
-41.19873046875
-41.19873046875
-52.18505859375
-55.84716796875
-62.255859375
-60.4248046875
-54.01611328125
-54.01611328125
-46.69189453125
-35.70556640625
-40.283203125
-49.4384765625
-53.1005859375
-64.0869140625
-64.0869140625
-63.17138671875
-55.84716796875
-52.18505859375
-44.86083984375
-39.36767578125
-46.69189453125
-49.4384765625
-54.931640625
-60.4248046875
-61.34033203125
-62.255859375
-54.931640625
-49.4384765625
-42.1142578125
-40.283203125
-40.283203125
-40.283203125
-44.86083984375
-55.84716796875
-60.4248046875
-57.67822265625
-52.18505859375
-48.52294921875
-39.36767578125
-39.36767578125
-39.36767578125
-44.86083984375
-42.1142578125
-49.4384765625
-56.7626953125
-57.67822265625
-49.4384765625
-42.1142578125
-32.958984375
-28.38134765625
-32.958984375
-32.958984375
-39.36767578125
-53.1005859375
-51.26953125
-48.52294921875
-45.7763671875
-34.7900390625
-33.87451171875
-36.62109375
-41.19873046875
-44.86083984375
-50.35400390625
-52.18505859375
-56.7626953125
-52.18505859375
-55.84716796875
-55.84716796875
-38.4521484375
-40.283203125
-40.283203125
-45.7763671875
-44.86083984375
-48.52294921875
-57.67822265625
-66.83349609375
-54.931640625
-53.1005859375
-48.52294921875
-46.69189453125
-52.18505859375
-55.84716796875
-58.59375
-65.00244140625
-69.580078125
-60.4248046875
-64.0869140625
-59.50927734375
-48.52294921875
-47.607421875
-46.69189453125
-59.50927734375
-64.0869140625
-65.00244140625
-68.66455078125
-65.00244140625
-64.0869140625
-68.66455078125
-54.01611328125
-54.931640625
-63.17138671875
-67.7490234375
-70.49560546875
-75.0732421875
-75.0732421875
-80.56640625
-76.904296875
-69.580078125
-63.17138671875
-56.7626953125
-58.59375
-63.17138671875
-65.00244140625
-73.2421875
-76.904296875
-76.904296875
-70.49560546875
-74.15771484375
-63.17138671875
-56.7626953125
-62.255859375
-70.49560546875
-70.49560546875
-77.81982421875
-81.48193359375
-76.904296875
-75.0732421875
-76.904296875
-67.7490234375
-65.91796875
-67.7490234375
-68.66455078125
-72.32666015625
-82.3974609375
-87.890625
-81.48193359375
-73.2421875
-69.580078125
-68.66455078125
-70.49560546875
-75.98876953125
-79.65087890625
-75.98876953125
-86.97509765625
-91.552734375
-88.80615234375
-87.890625
-81.48193359375
-76.904296875
-74.15771484375
-69.580078125
-69.580078125
-74.15771484375
-88.80615234375
-87.890625
-81.48193359375
-75.98876953125
-71.4111328125
-74.15771484375
-65.00244140625
-65.91796875
-68.66455078125
-68.66455078125
-81.48193359375
-87.890625
-85.14404296875
-82.3974609375
-74.15771484375
-73.2421875
-66.83349609375
-66.83349609375
-75.0732421875
-74.15771484375
-83.31298828125
-87.890625
-88.80615234375
-80.56640625
-68.66455078125
-65.00244140625
-67.7490234375
-65.00244140625
-70.49560546875
-65.00244140625
-67.7490234375
-59.50927734375
-51.26953125
-53.1005859375
-56.7626953125
-64.0869140625
-64.0869140625
-57.67822265625
-53.1005859375
-37.53662109375
-39.36767578125
-30.21240234375
-25.634765625
-28.38134765625
-27.4658203125
-20.1416015625
-26.55029296875
-40.283203125
-47.607421875
-50.35400390625
-64.0869140625
-67.7490234375
-63.17138671875
-62.255859375
-70.49560546875
-72.32666015625
-67.7490234375
-65.00244140625
-67.7490234375
-69.580078125
-76.904296875
-80.56640625
-84.228515625
-76.904296875
-72.32666015625
-72.32666015625
-71.4111328125
-70.49560546875
-77.81982421875
-83.31298828125
-88.80615234375
-97.0458984375
-87.890625
-86.0595703125
-83.31298828125
-76.904296875
-72.32666015625
-77.81982421875
-78.7353515625
-74.15771484375
-84.228515625
-90.63720703125
-79.65087890625
-77.81982421875
-73.2421875
-70.49560546875
-65.00244140625
-65.91796875
-77.81982421875
-77.81982421875
-85.14404296875
-103.45458984375
-123.59619140625
-145.56884765625
-152.89306640625
-139.16015625
-115.3564453125
-94.29931640625
-55.84716796875
-5.4931640625
64.0869140625
171.20361328125
335.99853515625
502.62451171875
634.46044921875
738.83056640625
863.34228515625
991.51611328125
1070.25146484375
1128.84521484375
1114.19677734375
1071.1669921875
1029.96826171875
927.42919921875
681.15234375
387.26806640625
124.51171875
-40.283203125
-80.56640625
-85.14404296875
-85.14404296875
-64.0869140625
-41.19873046875
-23.8037109375
-10.986328125
-9.1552734375
-10.07080078125
-14.6484375
-32.04345703125
-48.52294921875
-52.18505859375
-63.17138671875
-63.17138671875
-53.1005859375
-56.7626953125
-57.67822265625
-49.4384765625
-54.01611328125
-60.4248046875
-74.15771484375
-75.98876953125
-82.3974609375
-76.904296875
-67.7490234375
-67.7490234375
-59.50927734375
-60.4248046875
-64.0869140625
-69.580078125
-67.7490234375
-66.83349609375
-75.0732421875
-69.580078125
-70.49560546875
-75.98876953125
-65.91796875
-56.7626953125
-59.50927734375
-60.4248046875
-54.01611328125
-71.4111328125
-75.98876953125
-73.2421875
-68.66455078125
-67.7490234375
-57.67822265625
-51.26953125
-55.84716796875
-60.4248046875
-60.4248046875
-69.580078125
-75.0732421875
-69.580078125
-65.91796875
-62.255859375
-61.34033203125
-58.59375
-61.34033203125
-59.50927734375
-61.34033203125
-66.83349609375
-73.2421875
-70.49560546875
-62.255859375
-57.67822265625
-53.1005859375
-38.4521484375
-47.607421875
-55.84716796875
-45.7763671875
-54.931640625
-66.83349609375
-63.17138671875
-62.255859375
-59.50927734375
-56.7626953125
-54.931640625
-56.7626953125
-57.67822265625
-57.67822265625
-61.34033203125
-65.91796875
-74.15771484375
-64.0869140625
-53.1005859375
-49.4384765625
-53.1005859375
-65.00244140625
-59.50927734375
-55.84716796875
-65.91796875
-70.49560546875
-55.84716796875
-59.50927734375
-57.67822265625
-49.4384765625
-43.02978515625
-45.7763671875
-56.7626953125
-56.7626953125
-60.4248046875
-64.0869140625
-59.50927734375
-54.01611328125
-50.35400390625
-41.19873046875
-38.4521484375
-38.4521484375
-39.36767578125
-40.283203125
-48.52294921875
-58.59375
-52.18505859375
-47.607421875
-40.283203125
-41.19873046875
-32.04345703125
-32.04345703125
-33.87451171875
-34.7900390625
-42.1142578125
-43.02978515625
-42.1142578125
-41.19873046875
-31.1279296875
-27.4658203125
-24.71923828125
-19.22607421875
-18.310546875
-25.634765625
-35.70556640625
-43.02978515625
-32.958984375
-25.634765625
-22.88818359375
-4.57763671875
-12.8173828125
-4.57763671875
-5.4931640625
-5.4931640625
-10.986328125
-19.22607421875
-9.1552734375
5.4931640625
7.32421875
7.32421875
22.88818359375
21.97265625
10.986328125
14.6484375
6.40869140625
8.23974609375
14.6484375
18.310546875
16.4794921875
24.71923828125
30.21240234375
22.88818359375
13.73291015625
8.23974609375
0
-4.57763671875
-8.23974609375
-8.23974609375
-9.1552734375
-5.4931640625
0.91552734375
-10.07080078125
-21.97265625
-22.88818359375
-27.4658203125
-31.1279296875
-37.53662109375
-38.4521484375
-36.62109375
-32.958984375
-32.958984375
-40.283203125
-42.1142578125
-46.69189453125
-54.01611328125
-65.91796875
-64.0869140625
-57.67822265625
-51.26953125
-47.607421875
-43.02978515625
-43.9453125
-47.607421875
-52.18505859375
-59.50927734375
-65.00244140625
-54.931640625
-54.01611328125
-55.84716796875
-43.9453125
-45.7763671875
-35.70556640625
-41.19873046875
-40.283203125
-55.84716796875
-63.17138671875
-57.67822265625
-56.7626953125
-50.35400390625
-43.9453125
-40.283203125
-40.283203125
-42.1142578125
-41.19873046875
-45.7763671875
-50.35400390625
-43.9453125
-50.35400390625
-40.283203125
-34.7900390625
-35.70556640625
-34.7900390625
-38.4521484375
-41.19873046875
-46.69189453125
-54.931640625
-43.02978515625
-42.1142578125
-37.53662109375
-28.38134765625
-26.55029296875
-24.71923828125
-31.1279296875
-31.1279296875
-35.70556640625
-48.52294921875
-45.7763671875
-49.4384765625
-46.69189453125
-42.1142578125
-32.958984375
-40.283203125
-40.283203125
-41.19873046875
-48.52294921875
-56.7626953125
-55.84716796875
-50.35400390625
-40.283203125
-33.87451171875
-34.7900390625
-33.87451171875
-38.4521484375
-45.7763671875
-52.18505859375
-57.67822265625
-53.1005859375
-47.607421875
-51.26953125
-50.35400390625
-44.86083984375
-43.9453125
-51.26953125
-48.52294921875
-61.34033203125
-68.66455078125
-62.255859375
-55.84716796875
-46.69189453125
-50.35400390625
-44.86083984375
-44.86083984375
-57.67822265625
-56.7626953125
-56.7626953125
-65.91796875
-63.17138671875
-60.4248046875
-58.59375
-54.01611328125
-46.69189453125
-51.26953125
-59.50927734375
-61.34033203125
-59.50927734375
-74.15771484375
-76.904296875
-74.15771484375
-60.4248046875
-60.4248046875
-57.67822265625
-64.0869140625
-58.59375
-61.34033203125
-71.4111328125
-74.15771484375
-69.580078125
-61.34033203125
-56.7626953125
-56.7626953125
-51.26953125
-58.59375
-61.34033203125
-61.34033203125
-64.0869140625
-75.98876953125
-69.580078125
-66.83349609375
-65.00244140625
-53.1005859375
-51.26953125
-59.50927734375
-54.931640625
-60.4248046875
-65.00244140625
-74.15771484375
-71.4111328125
-69.580078125
-65.00244140625
-59.50927734375
-57.67822265625
-65.91796875
-65.00244140625
-68.66455078125
-73.2421875
-80.56640625
-74.15771484375
-70.49560546875
-65.91796875
-65.00244140625
-51.26953125
-51.26953125
-61.34033203125
-68.66455078125
-74.15771484375
-74.15771484375
-73.2421875
-69.580078125
-59.50927734375
-55.84716796875
-52.18505859375
-60.4248046875
-65.91796875
-67.7490234375
-75.0732421875
-85.14404296875
-65.91796875
-70.49560546875
-78.7353515625
-75.0732421875
-65.00244140625
-59.50927734375
-64.0869140625
-68.66455078125
-78.7353515625
-83.31298828125
-87.890625
-86.97509765625
-78.7353515625
-66.83349609375
-63.17138671875
-66.83349609375
-72.32666015625
-69.580078125
-78.7353515625
-92.46826171875
-90.63720703125
-89.7216796875
-82.3974609375
-68.66455078125
-61.34033203125
-58.59375
-63.17138671875
-63.17138671875
-66.83349609375
-61.34033203125
-56.7626953125
-48.52294921875
-36.62109375
-32.04345703125
-29.296875
-22.88818359375
-16.4794921875
-9.1552734375
7.32421875
9.1552734375
10.986328125
7.32421875
9.1552734375
5.4931640625
0
-10.986328125
-35.70556640625
-31.1279296875
-38.4521484375
-46.69189453125
-44.86083984375
-59.50927734375
-62.255859375
-52.18505859375
-35.70556640625
-45.7763671875
-57.67822265625
-58.59375
-67.7490234375
-89.7216796875
-86.0595703125
-90.63720703125
-83.31298828125
-80.56640625
-77.81982421875
-81.48193359375
-85.14404296875
-87.890625
-86.0595703125
-86.97509765625
-102.5390625
-99.79248046875
-96.13037109375
-86.97509765625
-75.0732421875
-84.228515625
-93.3837890625
-93.3837890625
-97.0458984375
-104.3701171875
-105.28564453125
-96.13037109375
-94.29931640625
-90.63720703125
-83.31298828125
-83.31298828125
-86.0595703125
-90.63720703125
-95.21484375
-103.45458984375
-115.3564453125
-121.76513671875
-138.24462890625
-157.470703125
-169.37255859375
-162.9638671875
-150.146484375
-119.93408203125
-86.0595703125
-31.1279296875
47.607421875
171.20361328125
329.58984375
490.72265625
633.544921875
743.408203125
863.34228515625
986.9384765625
1062.92724609375
1097.71728515625
1073.91357421875
1043.701171875
988.76953125
867.919921875
608.82568359375
303.955078125
30.21240234375
-115.3564453125
-127.25830078125
-121.76513671875
-99.79248046875
-72.32666015625
-50.35400390625
-32.958984375
-24.71923828125
-33.87451171875
-46.69189453125
-61.34033203125
-65.91796875
-79.65087890625
-86.0595703125
-83.31298828125
-81.48193359375
-74.15771484375
-75.98876953125
-86.0595703125
-88.80615234375
-89.7216796875
-93.3837890625
-102.5390625
-100.7080078125
-95.21484375
-95.21484375
-81.48193359375
-80.56640625
-90.63720703125
-89.7216796875
-90.63720703125
-97.96142578125
-105.28564453125
-95.21484375
-97.96142578125
-94.29931640625
-91.552734375
-86.97509765625
-84.228515625
-86.0595703125
-89.7216796875
-92.46826171875
-101.62353515625
-93.3837890625
-93.3837890625
-86.0595703125
-81.48193359375
-70.49560546875
-69.580078125
-82.3974609375
-85.14404296875
-86.97509765625
-94.29931640625
-93.3837890625
-84.228515625
-85.14404296875
-75.0732421875
-70.49560546875
-76.904296875
-74.15771484375
-75.0732421875
-82.3974609375
-91.552734375
-87.890625
-85.14404296875
-92.46826171875
-86.0595703125
-78.7353515625
-78.7353515625
-83.31298828125
-89.7216796875
-90.63720703125
-96.13037109375
-97.0458984375
-91.552734375
-86.0595703125
-77.81982421875
-72.32666015625
-70.49560546875
-73.2421875
-75.98876953125
-86.0595703125
-90.63720703125
-87.890625
-78.7353515625
-74.15771484375
-73.2421875
-63.17138671875
-61.34033203125
-68.66455078125
-75.98876953125
-84.228515625
-89.7216796875
-86.97509765625
-75.98876953125
-69.580078125
-70.49560546875
-64.0869140625
-69.580078125
-67.7490234375
-66.83349609375
-77.81982421875
-84.228515625
-79.65087890625
-73.2421875
-65.91796875
-58.59375
-52.18505859375
-55.84716796875
-57.67822265625
-63.17138671875
-61.34033203125
-62.255859375
-67.7490234375
-60.4248046875
-56.7626953125
-46.69189453125
-37.53662109375
-45.7763671875
-48.52294921875
-50.35400390625
-47.607421875
-57.67822265625
-55.84716796875
-49.4384765625
-45.7763671875
-38.4521484375
-32.04345703125
-28.38134765625
-35.70556640625
-41.19873046875
-41.19873046875
-42.1142578125
-42.1142578125
-36.62109375
-31.1279296875
-21.97265625
-16.4794921875
-23.8037109375
-12.8173828125
-18.310546875
-27.4658203125
-23.8037109375
-21.05712890625
-15.56396484375
-11.90185546875
-2.74658203125
10.986328125
10.07080078125
5.4931640625
3.662109375
3.662109375
8.23974609375
1.8310546875
10.07080078125
17.39501953125
21.97265625
23.8037109375
21.05712890625
10.07080078125
2.74658203125
-2.74658203125
-10.986328125
-9.1552734375
-14.6484375
-14.6484375
-17.39501953125
-18.310546875
-22.88818359375
-29.296875
-32.04345703125
-34.7900390625
-49.4384765625
-54.01611328125
-49.4384765625
-51.26953125
-51.26953125
-44.86083984375
-48.52294921875
-57.67822265625
-58.59375
-65.91796875
-73.2421875
-72.32666015625
-63.17138671875
-65.00244140625
-66.83349609375
-63.17138671875
-59.50927734375
-64.0869140625
-73.2421875
-75.98876953125
-78.7353515625
-78.7353515625
-75.98876953125
-71.4111328125
-67.7490234375
-61.34033203125
-63.17138671875
-71.4111328125
-73.2421875
-74.15771484375
-81.48193359375
-76.904296875
-69.580078125
-66.83349609375
-64.0869140625
-58.59375
-61.34033203125
-62.255859375
-58.59375
-60.4248046875
-66.83349609375
-69.580078125
-68.66455078125
-65.91796875
-60.4248046875
-54.931640625
-57.67822265625
-55.84716796875
-63.17138671875
-66.83349609375
-75.98876953125
-66.83349609375
-65.91796875
-63.17138671875
-50.35400390625
-45.7763671875
-47.607421875
-55.84716796875
-59.50927734375
-62.255859375
-69.580078125
-65.91796875
-64.0869140625
-54.931640625
-52.18505859375
-53.1005859375
-56.7626953125
-59.50927734375
-64.0869140625
-57.67822265625
-66.83349609375
-71.4111328125
-69.580078125
-70.49560546875
-66.83349609375
-58.59375
-60.4248046875
-65.00244140625
-66.83349609375
-64.0869140625
-77.81982421875
-77.81982421875
-75.0732421875
-77.81982421875
-62.255859375
-54.931640625
-65.00244140625
-67.7490234375
-69.580078125
-75.98876953125
-88.80615234375
-78.7353515625
-77.81982421875
-76.904296875
-73.2421875
-70.49560546875
-68.66455078125
-75.0732421875
-77.81982421875
-83.31298828125
-89.7216796875
-86.0595703125
-85.14404296875
-82.3974609375
-81.48193359375
-67.7490234375
-67.7490234375
-75.0732421875
-74.15771484375
-74.15771484375
-83.31298828125
-84.228515625
-75.98876953125
-72.32666015625
-71.4111328125
-67.7490234375
-71.4111328125
-77.81982421875
-75.98876953125
-79.65087890625
-95.21484375
-85.14404296875
-79.65087890625
-86.0595703125
-83.31298828125
-75.98876953125
-80.56640625
-85.14404296875
-81.48193359375
-86.0595703125
-94.29931640625
-96.13037109375
-88.80615234375
-84.228515625
-79.65087890625
-77.81982421875
-77.81982421875
-79.65087890625
-84.228515625
-91.552734375
-97.0458984375
-93.3837890625
-85.14404296875
-86.0595703125
-82.3974609375
-73.2421875
-80.56640625
-83.31298828125
-80.56640625
-86.97509765625
-97.96142578125
-91.552734375
-92.46826171875
-90.63720703125
-78.7353515625
-73.2421875
-75.98876953125
-78.7353515625
-81.48193359375
-86.0595703125
-96.13037109375
-94.29931640625
-93.3837890625
-94.29931640625
-84.228515625
-78.7353515625
-83.31298828125
-83.31298828125
-83.31298828125
-87.890625
-91.552734375
-89.7216796875
-89.7216796875
-87.890625
-84.228515625
-84.228515625
-84.228515625
-90.63720703125
-93.3837890625
-97.96142578125
-100.7080078125
-98.876953125
-94.29931640625
-95.21484375
-88.80615234375
-85.14404296875
-88.80615234375
-84.228515625
-86.97509765625
-90.63720703125
-96.13037109375
-99.79248046875
-99.79248046875
-97.0458984375
-86.97509765625
-78.7353515625
-87.890625
-86.0595703125
-92.46826171875
-94.29931640625
-99.79248046875
-97.96142578125
-101.62353515625
-97.0458984375
-89.7216796875
-86.97509765625
-80.56640625
-80.56640625
-91.552734375
-92.46826171875
-101.62353515625
-98.876953125
-96.13037109375
-98.876953125
-97.96142578125
-87.890625
-86.97509765625
-88.80615234375
-91.552734375
-85.14404296875
-93.3837890625
-89.7216796875
-89.7216796875
-87.890625
-80.56640625
-74.15771484375
-73.2421875
-78.7353515625
-76.904296875
-75.0732421875
-70.49560546875
-58.59375
-38.4521484375
-22.88818359375
-19.22607421875
-31.1279296875
-38.4521484375
-55.84716796875
-54.931640625
-68.66455078125
-86.0595703125
-82.3974609375
-76.904296875
-68.66455078125
-72.32666015625
-82.3974609375
-91.552734375
-93.3837890625
-90.63720703125
-93.3837890625
-105.28564453125
-99.79248046875
-95.21484375
-94.29931640625
-97.96142578125
-90.63720703125
-91.552734375
-93.3837890625
-98.876953125
-101.62353515625
-108.94775390625
-108.94775390625
-101.62353515625
-99.79248046875
-95.21484375
-90.63720703125
-88.80615234375
-93.3837890625
-95.21484375
-97.0458984375
-108.0322265625
-102.5390625
-94.29931640625
-96.13037109375
-86.97509765625
-83.31298828125
-85.14404296875
-90.63720703125
-88.80615234375
-91.552734375
-100.7080078125
-101.62353515625
-108.0322265625
-118.10302734375
-149.23095703125
-155.6396484375
-165.71044921875
-153.80859375
-121.76513671875
-83.31298828125
-48.52294921875
17.39501953125
125.42724609375
274.658203125
416.56494140625
574.951171875
693.9697265625
804.74853515625
947.57080078125
1050.10986328125
1111.4501953125
1104.1259765625
1080.322265625
1031.79931640625
953.9794921875
769.95849609375
466.00341796875
172.119140625
-54.931640625
-112.60986328125
-108.94775390625
-91.552734375
-70.49560546875
-42.1142578125
-27.4658203125
-17.39501953125
-15.56396484375
-28.38134765625
-32.04345703125
-45.7763671875
-63.17138671875
-67.7490234375
-65.91796875
-62.255859375
-67.7490234375
-61.34033203125
-62.255859375
-67.7490234375
-73.2421875
-80.56640625
-87.890625
-91.552734375
-90.63720703125
-89.7216796875
-83.31298828125
-80.56640625
-74.15771484375
-75.0732421875
-75.98876953125
-83.31298828125
-97.96142578125
-82.3974609375
-83.31298828125
-77.81982421875
-71.4111328125
-61.34033203125
-70.49560546875
-73.2421875
-68.66455078125
-74.15771484375
-83.31298828125
-86.97509765625
-84.228515625
-77.81982421875
-76.904296875
-68.66455078125
-65.91796875
-71.4111328125
-72.32666015625
-80.56640625
-86.97509765625
-87.890625
-85.14404296875
-79.65087890625
-72.32666015625
-65.91796875
-72.32666015625
-74.15771484375
-75.98876953125
-76.904296875
-79.65087890625
-88.80615234375
-87.890625
-86.0595703125
-77.81982421875
-70.49560546875
-72.32666015625
-78.7353515625
-82.3974609375
-84.228515625
-86.97509765625
-91.552734375
-82.3974609375
-78.7353515625
-75.98876953125
-66.83349609375
-66.83349609375
-65.91796875
-65.91796875
-65.91796875
-86.0595703125
-82.3974609375
-74.15771484375
-72.32666015625
-68.66455078125
-61.34033203125
-65.91796875
-72.32666015625
-70.49560546875
-77.81982421875
-87.890625
-83.31298828125
-77.81982421875
-63.17138671875
-65.91796875
-61.34033203125
-63.17138671875
-59.50927734375
-60.4248046875
-60.4248046875
-67.7490234375
-74.15771484375
-65.91796875
-65.00244140625
-55.84716796875
-53.1005859375
-58.59375
-61.34033203125
-62.255859375
-58.59375
-65.00244140625
-65.00244140625
-61.34033203125
-61.34033203125
-56.7626953125
-40.283203125
-43.9453125
-48.52294921875
-55.84716796875
-51.26953125
-59.50927734375
-59.50927734375
-56.7626953125
-47.607421875
-45.7763671875
-37.53662109375
-32.958984375
-36.62109375
-38.4521484375
-39.36767578125
-50.35400390625
-43.9453125
-42.1142578125
-30.21240234375
-28.38134765625
-23.8037109375
-17.39501953125
-24.71923828125
-21.97265625
-17.39501953125
-22.88818359375
-25.634765625
-17.39501953125
-14.6484375
-10.07080078125
-1.8310546875
4.57763671875
9.1552734375
2.74658203125
-1.8310546875
-2.74658203125
0
3.662109375
10.07080078125
14.6484375
19.22607421875
13.73291015625
9.1552734375
1.8310546875
1.8310546875
-6.40869140625
-8.23974609375
-9.1552734375
-10.07080078125
-7.32421875
-3.662109375
-6.40869140625
-18.310546875
-24.71923828125
-32.958984375
-42.1142578125
-50.35400390625
-49.4384765625
-53.1005859375
-50.35400390625
-51.26953125
-51.26953125
-53.1005859375
-56.7626953125
-68.66455078125
-73.2421875
-69.580078125
-64.0869140625
-59.50927734375
-56.7626953125
-54.931640625
-56.7626953125
-65.91796875
-61.34033203125
-69.580078125
-79.65087890625
-77.81982421875
-71.4111328125
-73.2421875
-71.4111328125
-58.59375
-63.17138671875
-74.15771484375
-67.7490234375
-65.00244140625
-82.3974609375
-73.2421875
-69.580078125
-62.255859375
-61.34033203125
-54.01611328125
-53.1005859375
-57.67822265625
-58.59375
-68.66455078125
-75.0732421875
-76.904296875
-70.49560546875
-62.255859375
-63.17138671875
-61.34033203125
-54.01611328125
-54.01611328125
-54.931640625
-57.67822265625
-67.7490234375
-64.0869140625
-66.83349609375
-59.50927734375
-52.18505859375
-50.35400390625
-45.7763671875
-49.4384765625
-54.931640625
-61.34033203125
-69.580078125
-65.00244140625
-60.4248046875
-57.67822265625
-55.84716796875
-52.18505859375
-55.84716796875
-52.18505859375
-60.4248046875
-53.1005859375
-63.17138671875
-60.4248046875
-60.4248046875
-60.4248046875
-62.255859375
-54.931640625
-61.34033203125
-65.00244140625
-63.17138671875
-64.0869140625
-70.49560546875
-68.66455078125
-70.49560546875
-69.580078125
-62.255859375
-61.34033203125
-61.34033203125
-63.17138671875
-70.49560546875
-65.00244140625
-81.48193359375
-89.7216796875
-76.904296875
-70.49560546875
-68.66455078125
-65.00244140625
-65.91796875
-65.91796875
-70.49560546875
-75.98876953125
-90.63720703125
-89.7216796875
-84.228515625
-79.65087890625
-65.00244140625
-56.7626953125
-63.17138671875
-64.0869140625
-63.17138671875
-71.4111328125
-85.14404296875
-91.552734375
-81.48193359375
-79.65087890625
-81.48193359375
-73.2421875
-71.4111328125
-71.4111328125
-74.15771484375
-78.7353515625
-87.890625
-88.80615234375
-75.98876953125
-71.4111328125
-82.3974609375
-75.98876953125
-73.2421875
-73.2421875
-76.904296875
-78.7353515625
-89.7216796875
-87.890625
-75.0732421875
-77.81982421875
-75.0732421875
-66.83349609375
-64.0869140625
-76.904296875
-83.31298828125
-74.15771484375
-82.3974609375
-85.14404296875
-82.3974609375
-75.0732421875
-76.904296875
-71.4111328125
-67.7490234375
-70.49560546875
-74.15771484375
-70.49560546875
-73.2421875
-83.31298828125
-75.98876953125
-64.0869140625
-74.15771484375
-67.7490234375
-57.67822265625
-67.7490234375
-68.66455078125
-75.98876953125
-95.21484375
-93.3837890625
-92.46826171875
-90.63720703125
-71.4111328125
-69.580078125
-75.98876953125
-72.32666015625
-79.65087890625
-76.904296875
-88.80615234375
-85.14404296875
-79.65087890625
-71.4111328125
-75.0732421875
-61.34033203125
-61.34033203125
-68.66455078125
-71.4111328125
-80.56640625
-87.890625
-91.552734375
-92.46826171875
-81.48193359375
-79.65087890625
-70.49560546875
-73.2421875
-73.2421875
-74.15771484375
-82.3974609375
-89.7216796875
-83.31298828125
-81.48193359375
-79.65087890625
-72.32666015625
-65.00244140625
-73.2421875
-75.98876953125
-72.32666015625
-80.56640625
-83.31298828125
-87.890625
-82.3974609375
-79.65087890625
-76.904296875
-71.4111328125
-71.4111328125
-78.7353515625
-75.0732421875
-75.98876953125
-70.49560546875
-75.0732421875
-72.32666015625
-67.7490234375
-50.35400390625
-47.607421875
-54.01611328125
-57.67822265625
-63.17138671875
-63.17138671875
-67.7490234375
-54.931640625
-42.1142578125
-14.6484375
-6.40869140625
-7.32421875
-13.73291015625
-18.310546875
-27.4658203125
-36.62109375
-52.18505859375
-58.59375
-49.4384765625
-48.52294921875
-46.69189453125
-43.9453125
-62.255859375
-75.0732421875
-81.48193359375
-76.904296875
-87.890625
-86.97509765625
-79.65087890625
-79.65087890625
-69.580078125
-68.66455078125
-73.2421875
-77.81982421875
-79.65087890625
-75.98876953125
-79.65087890625
-89.7216796875
-84.228515625
-79.65087890625
-75.0732421875
-66.83349609375
-68.66455078125
-75.0732421875
-77.81982421875
-82.3974609375
-89.7216796875
-82.3974609375
-75.98876953125
-74.15771484375
-70.49560546875
-61.34033203125
-54.01611328125
-60.4248046875
-63.17138671875
-63.17138671875
-75.0732421875
-75.98876953125
-72.32666015625
-80.56640625
-97.96142578125
-113.525390625
-127.25830078125
-136.41357421875
-117.1875
-96.13037109375
-67.7490234375
-13.73291015625
64.0869140625
170.2880859375
332.33642578125
492.5537109375
625.30517578125
724.18212890625
825.8056640625
951.23291015625
1035.46142578125
1103.21044921875
1122.4365234375
1087.646484375
1049.1943359375
986.9384765625
780.029296875
476.07421875
209.65576171875
-6.40869140625
-85.14404296875
-85.14404296875
-75.0732421875
-57.67822265625
-34.7900390625
-13.73291015625
-5.4931640625
-1.8310546875
-11.90185546875
-19.22607421875
-34.7900390625
-44.86083984375
-47.607421875
-42.1142578125
-39.36767578125
-39.36767578125
-38.4521484375
-46.69189453125
-54.931640625
-58.59375
-57.67822265625
-63.17138671875
-64.0869140625
-52.18505859375
-56.7626953125
-52.18505859375
-52.18505859375
-63.17138671875
-59.50927734375
-63.17138671875
-67.7490234375
-65.91796875
-65.00244140625
-61.34033203125
-55.84716796875
-51.26953125
-48.52294921875
-50.35400390625
-58.59375
-54.931640625
-67.7490234375
-70.49560546875
-64.0869140625
-53.1005859375
-60.4248046875
-54.01611328125
-51.26953125
-55.84716796875
-59.50927734375
-62.255859375
-69.580078125
-71.4111328125
-64.0869140625
-64.0869140625
-56.7626953125
-50.35400390625
-50.35400390625
-49.4384765625
-50.35400390625
-63.17138671875
-66.83349609375
-68.66455078125
-65.00244140625
-60.4248046875
-51.26953125
-46.69189453125
-49.4384765625
-54.01611328125
-54.931640625
-47.607421875
-64.0869140625
-71.4111328125
-71.4111328125
-60.4248046875
-58.59375
-54.01611328125
-50.35400390625
-57.67822265625
-59.50927734375
-65.91796875
-67.7490234375
-65.00244140625
-65.00244140625
-56.7626953125
-47.607421875
-46.69189453125
-42.1142578125
-49.4384765625
-58.59375
-61.34033203125
-66.83349609375
-65.00244140625
-56.7626953125
-56.7626953125
-54.01611328125
-43.02978515625
-43.02978515625
-47.607421875
-50.35400390625
-52.18505859375
-60.4248046875
-61.34033203125
-52.18505859375
-52.18505859375
-45.7763671875
-45.7763671875
-42.1142578125
-38.4521484375
-38.4521484375
-45.7763671875
-52.18505859375
-50.35400390625
-43.9453125
-41.19873046875
-37.53662109375
-30.21240234375
-28.38134765625
-32.958984375
-34.7900390625
-37.53662109375
-42.1142578125
-53.1005859375
-43.9453125
-37.53662109375
-42.1142578125
-39.36767578125
-31.1279296875
-34.7900390625
-37.53662109375
-34.7900390625
-43.02978515625
-44.86083984375
-36.62109375
-32.958984375
-33.87451171875
-24.71923828125
-20.1416015625
-23.8037109375
-19.22607421875
-19.22607421875
-21.05712890625
-26.55029296875
-21.05712890625
-9.1552734375
-10.986328125
2.74658203125
12.8173828125
9.1552734375
4.57763671875
7.32421875
0.91552734375
3.662109375
3.662109375
5.4931640625
17.39501953125
21.97265625
24.71923828125
21.05712890625
14.6484375
10.07080078125
3.662109375
-4.57763671875
-2.74658203125
-3.662109375
2.74658203125
8.23974609375
5.4931640625
-5.4931640625
-11.90185546875
-11.90185546875
-25.634765625
-33.87451171875
-32.958984375
-25.634765625
-31.1279296875
-25.634765625
-26.55029296875
-30.21240234375
-39.36767578125
-43.02978515625
-51.26953125
-64.0869140625
-58.59375
-53.1005859375
-55.84716796875
-49.4384765625
-40.283203125
-47.607421875
-52.18505859375
-56.7626953125
-65.91796875
-69.580078125
-64.0869140625
-55.84716796875
-48.52294921875
-43.02978515625
-36.62109375
-40.283203125
-47.607421875
-48.52294921875
-47.607421875
-56.7626953125
-54.931640625
-47.607421875
-43.9453125
-36.62109375
-28.38134765625
-32.04345703125
-35.70556640625
-36.62109375
-47.607421875
-52.18505859375
-39.36767578125
-32.958984375
-35.70556640625
-25.634765625
-16.4794921875
-26.55029296875
-33.87451171875
-37.53662109375
-39.36767578125
-41.19873046875
-40.283203125
-34.7900390625
-28.38134765625
-27.4658203125
-24.71923828125
-31.1279296875
-32.04345703125
-31.1279296875
-43.9453125
-47.607421875
-40.283203125
-35.70556640625
-32.958984375
-25.634765625
-23.8037109375
-27.4658203125
-32.04345703125
-33.87451171875
-41.19873046875
-36.62109375
-41.19873046875
-39.36767578125
-36.62109375
-28.38134765625
-27.4658203125
-33.87451171875
-29.296875
-30.21240234375
-40.283203125
-41.19873046875
-43.9453125
-34.7900390625
-29.296875
-25.634765625
-31.1279296875
-39.36767578125
-35.70556640625
-41.19873046875
-58.59375
-63.17138671875
-54.931640625
-49.4384765625
-44.86083984375
-39.36767578125
-42.1142578125
-41.19873046875
-43.02978515625
-45.7763671875
-55.84716796875
-60.4248046875
-54.931640625
-48.52294921875
-48.52294921875
-41.19873046875
-42.1142578125
-45.7763671875
-44.86083984375
-50.35400390625
-62.255859375
-61.34033203125
-57.67822265625
-54.01611328125
-53.1005859375
-45.7763671875
-45.7763671875
-49.4384765625
-54.931640625
-53.1005859375
-64.0869140625
-66.83349609375
-57.67822265625
-52.18505859375
-50.35400390625
-47.607421875
-45.7763671875
-54.01611328125
-54.931640625
-57.67822265625
-55.84716796875
-57.67822265625
-54.931640625
-54.931640625
-54.01611328125
-41.19873046875
-42.1142578125
-52.18505859375
-54.931640625
-56.7626953125
-66.83349609375
-67.7490234375
-62.255859375
-54.01611328125
-53.1005859375
-50.35400390625
-50.35400390625
-61.34033203125
-58.59375
-52.18505859375
-63.17138671875
-75.0732421875
-64.0869140625
-54.01611328125
-54.931640625
-56.7626953125
-50.35400390625
-55.84716796875
-62.255859375
-58.59375
-66.83349609375
-65.00244140625
-61.34033203125
-58.59375
-54.01611328125
-52.18505859375
-54.931640625
-55.84716796875
-56.7626953125
-56.7626953125
-63.17138671875
-71.4111328125
-71.4111328125
-58.59375
-55.84716796875
-53.1005859375
-43.9453125
-54.01611328125
-54.01611328125
-62.255859375
-69.580078125
-69.580078125
-62.255859375
-62.255859375
-61.34033203125
-57.67822265625
-46.69189453125
-48.52294921875
-55.84716796875
-62.255859375
-68.66455078125
-69.580078125
-69.580078125
-62.255859375
-58.59375
-51.26953125
-57.67822265625
-55.84716796875
-53.1005859375
-59.50927734375
-71.4111328125
-69.580078125
-67.7490234375
-66.83349609375
-64.0869140625
-50.35400390625
-54.01611328125
-60.4248046875
-66.83349609375
-63.17138671875
-70.49560546875
-77.81982421875
-75.98876953125
-71.4111328125
-62.255859375
-55.84716796875
-43.9453125
-50.35400390625
-46.69189453125
-48.52294921875
-56.7626953125
-57.67822265625
-50.35400390625
-47.607421875
-46.69189453125
-45.7763671875
-47.607421875
-46.69189453125
-37.53662109375
-21.05712890625
-12.8173828125
-4.57763671875
-9.1552734375
-5.4931640625
-11.90185546875
-19.22607421875
-19.22607421875
-28.38134765625
-39.36767578125
-43.9453125
-52.18505859375
-50.35400390625
-46.69189453125
-47.607421875
-63.17138671875
-65.91796875
-49.4384765625
-49.4384765625
-54.01611328125
-55.84716796875
-60.4248046875
-66.83349609375
-65.00244140625
-65.00244140625
-65.91796875
-60.4248046875
-59.50927734375
-61.34033203125
-66.83349609375
-67.7490234375
-79.65087890625
-80.56640625
-73.2421875
-70.49560546875
-66.83349609375
-56.7626953125
-55.84716796875
-61.34033203125
-63.17138671875
-62.255859375
-69.580078125
-74.15771484375
-65.91796875
-61.34033203125
-64.0869140625
-64.0869140625
-52.18505859375
-51.26953125
-54.01611328125
-58.59375
-78.7353515625
-103.45458984375
-126.3427734375
-140.07568359375
-145.56884765625
-116.27197265625
-86.97509765625
-62.255859375
-4.57763671875
58.59375
150.146484375
290.22216796875
445.86181640625
586.85302734375
701.2939453125
825.8056640625
970.458984375
1072.08251953125
1139.83154296875
1143.49365234375
1094.970703125
1051.94091796875
986.9384765625
810.24169921875
509.033203125
229.79736328125
0
-78.7353515625
-75.98876953125
-60.4248046875
-42.1142578125
-26.55029296875
-10.07080078125
2.74658203125
7.32421875
5.4931640625
-1.8310546875
-11.90185546875
-27.4658203125
-32.958984375
-43.02978515625
-50.35400390625
-50.35400390625
-45.7763671875
-45.7763671875
-39.36767578125
-37.53662109375
-46.69189453125
-53.1005859375
-55.84716796875
-64.0869140625
-67.7490234375
-60.4248046875
-58.59375
-62.255859375
-54.01611328125
-48.52294921875
-48.52294921875
-49.4384765625
-54.931640625
-67.7490234375
-62.255859375
-58.59375
-54.01611328125
-50.35400390625
-36.62109375
-36.62109375
-49.4384765625
-50.35400390625
-47.607421875
-54.931640625
-59.50927734375
-59.50927734375
-49.4384765625
-46.69189453125
-38.4521484375
-43.02978515625
-50.35400390625
-43.9453125
-47.607421875
-58.59375
-57.67822265625
-55.84716796875
-54.01611328125
-46.69189453125
-42.1142578125
-39.36767578125
-43.02978515625
-47.607421875
-49.4384765625
-56.7626953125
-57.67822265625
-50.35400390625
-43.02978515625
-46.69189453125
-40.283203125
-40.283203125
-48.52294921875
-58.59375
-54.931640625
-63.17138671875
-65.00244140625
-59.50927734375
-52.18505859375
-53.1005859375
-45.7763671875
-41.19873046875
-45.7763671875
-47.607421875
-48.52294921875
-61.34033203125
-61.34033203125
-53.1005859375
-53.1005859375
-46.69189453125
-42.1142578125
-40.283203125
-40.283203125
-37.53662109375
-37.53662109375
-48.52294921875
-48.52294921875
-43.9453125
-45.7763671875
-40.283203125
-28.38134765625
-32.04345703125
-40.283203125
-43.9453125
-32.958984375
-43.9453125
-58.59375
-47.607421875
-37.53662109375
-40.283203125
-33.87451171875
-30.21240234375
-28.38134765625
-28.38134765625
-34.7900390625
-42.1142578125
-43.02978515625
-36.62109375
-38.4521484375
-28.38134765625
-18.310546875
-18.310546875
-17.39501953125
-24.71923828125
-24.71923828125
-36.62109375
-41.19873046875
-29.296875
-30.21240234375
-19.22607421875
-8.23974609375
-10.986328125
-9.1552734375
-16.4794921875
-13.73291015625
-16.4794921875
-28.38134765625
-20.1416015625
-11.90185546875
-5.4931640625
0.91552734375
3.662109375
2.74658203125
2.74658203125
3.662109375
-2.74658203125
0.91552734375
10.07080078125
18.310546875
20.1416015625
31.1279296875
40.283203125
38.4521484375
31.1279296875
36.62109375
26.55029296875
20.1416015625
24.71923828125
35.70556640625
36.62109375
36.62109375
36.62109375
31.1279296875
21.97265625
21.05712890625
9.1552734375
0
2.74658203125
1.8310546875
4.57763671875
11.90185546875
7.32421875
-3.662109375
-7.32421875
-17.39501953125
-24.71923828125
-28.38134765625
-25.634765625
-30.21240234375
-31.1279296875
-25.634765625
-25.634765625
-29.296875
-38.4521484375
-44.86083984375
-54.01611328125
-59.50927734375
-54.01611328125
-48.52294921875
-47.607421875
-37.53662109375
-38.4521484375
-37.53662109375
-48.52294921875
-51.26953125
-58.59375
-61.34033203125
-60.4248046875
-55.84716796875
-49.4384765625
-43.02978515625
-43.02978515625
-53.1005859375
-49.4384765625
-47.607421875
-50.35400390625
-54.931640625
-58.59375
-56.7626953125
-43.02978515625
-32.958984375
-31.1279296875
-42.1142578125
-44.86083984375
-47.607421875
-54.931640625
-54.931640625
-58.59375
-52.18505859375
-44.86083984375
-45.7763671875
-38.4521484375
-44.86083984375
-43.02978515625
-50.35400390625
-49.4384765625
-50.35400390625
-50.35400390625
-47.607421875
-39.36767578125
-32.958984375
-33.87451171875
-42.1142578125
-46.69189453125
-49.4384765625
-57.67822265625
-57.67822265625
-50.35400390625
-48.52294921875
-43.02978515625
-40.283203125
-33.87451171875
-42.1142578125
-44.86083984375
-47.607421875
-59.50927734375
-57.67822265625
-48.52294921875
-48.52294921875
-47.607421875
-39.36767578125
-33.87451171875
-37.53662109375
-42.1142578125
-46.69189453125
-53.1005859375
-65.00244140625
-57.67822265625
-52.18505859375
-49.4384765625
-40.283203125
-42.1142578125
-41.19873046875
-46.69189453125
-54.01611328125
-59.50927734375
-68.66455078125
-61.34033203125
-56.7626953125
-53.1005859375
-52.18505859375
-48.52294921875
-48.52294921875
-60.4248046875
-55.84716796875
-57.67822265625
-64.0869140625
-56.7626953125
-57.67822265625
-46.69189453125
-49.4384765625
-45.7763671875
-45.7763671875
-53.1005859375
-56.7626953125
-58.59375
-70.49560546875
-73.2421875
-64.0869140625
-66.83349609375
-54.01611328125
-54.01611328125
-58.59375
-61.34033203125
-62.255859375
-75.98876953125
-81.48193359375
-76.904296875
-74.15771484375
-67.7490234375
-55.84716796875
-51.26953125
-56.7626953125
-63.17138671875
-63.17138671875
-68.66455078125
-70.49560546875
-71.4111328125
-70.49560546875
-65.00244140625
-57.67822265625
-63.17138671875
-68.66455078125
-64.0869140625
-60.4248046875
-64.0869140625
-71.4111328125
-68.66455078125
-67.7490234375
-64.0869140625
-55.84716796875
-54.931640625
-63.17138671875
-63.17138671875
-64.0869140625
-68.66455078125
-74.15771484375
-68.66455078125
-67.7490234375
-69.580078125
-63.17138671875
-52.18505859375
-55.84716796875
-63.17138671875
-65.91796875
-67.7490234375
-69.580078125
-65.91796875
-60.4248046875
-57.67822265625
-49.4384765625
-53.1005859375
-56.7626953125
-65.91796875
-65.00244140625
-65.91796875
-75.98876953125
-74.15771484375
-68.66455078125
-65.91796875
-55.84716796875
-54.931640625
-52.18505859375
-55.84716796875
-65.00244140625
-67.7490234375
-68.66455078125
-67.7490234375
-66.83349609375
-64.0869140625
-60.4248046875
-59.50927734375
-56.7626953125
-65.91796875
-65.00244140625
-65.00244140625
-73.2421875
-65.91796875
-72.32666015625
-65.00244140625
-50.35400390625
-48.52294921875
-54.931640625
-55.84716796875
-57.67822265625
-68.66455078125
-75.0732421875
-72.32666015625
-65.91796875
-66.83349609375
-60.4248046875
-60.4248046875
-67.7490234375
-63.17138671875
-67.7490234375
-73.2421875
-71.4111328125
-65.00244140625
-64.0869140625
-57.67822265625
-54.931640625
-58.59375
-57.67822265625
-62.255859375
-73.2421875
-84.228515625
-77.81982421875
-73.2421875
-63.17138671875
-53.1005859375
-52.18505859375
-43.9453125
-42.1142578125
-47.607421875
-47.607421875
-54.01611328125
-67.7490234375
-68.66455078125
-66.83349609375
-56.7626953125
-44.86083984375
-28.38134765625
-9.1552734375
3.662109375
5.4931640625
-6.40869140625
-14.6484375
-14.6484375
-20.1416015625
-34.7900390625
-40.283203125
-40.283203125
-38.4521484375
-40.283203125
-43.02978515625
-59.50927734375
-78.7353515625
-85.14404296875
-68.66455078125
-61.34033203125
-55.84716796875
-48.52294921875
-54.931640625
-56.7626953125
-62.255859375
-71.4111328125
-82.3974609375
-81.48193359375
-74.15771484375
-74.15771484375
-69.580078125
-60.4248046875
-60.4248046875
-65.00244140625
-67.7490234375
-75.98876953125
-83.31298828125
-83.31298828125
-78.7353515625
-73.2421875
-61.34033203125
-57.67822265625
-60.4248046875
-68.66455078125
-66.83349609375
-75.0732421875
-69.580078125
-65.91796875
-67.7490234375
-57.67822265625
-53.1005859375
-55.84716796875
-66.83349609375
-86.0595703125
-108.94775390625
-138.24462890625
-153.80859375
-139.16015625
-109.86328125
-78.7353515625
-33.87451171875
30.21240234375
108.94775390625
225.2197265625
365.29541015625
507.2021484375
633.544921875
747.98583984375
887.14599609375
1016.2353515625
1110.53466796875
1163.63525390625
1128.84521484375
1076.66015625
1022.64404296875
898.13232421875
625.30517578125
326.84326171875
61.34033203125
-72.32666015625
-78.7353515625
-68.66455078125
-50.35400390625
-26.55029296875
-5.4931640625
-6.40869140625
-8.23974609375
-8.23974609375
-18.310546875
-18.310546875
-17.39501953125
-20.1416015625
-30.21240234375
-39.36767578125
-41.19873046875
-53.1005859375
-59.50927734375
-59.50927734375
-54.931640625
-52.18505859375
-46.69189453125
-48.52294921875
-51.26953125
-54.01611328125
-54.01611328125
-64.0869140625
-64.0869140625
-65.91796875
-67.7490234375
-61.34033203125
-54.931640625
-44.86083984375
-44.86083984375
-59.50927734375
-59.50927734375
-58.59375
-60.4248046875
-63.17138671875
-62.255859375
-56.7626953125
-54.931640625
-48.52294921875
-48.52294921875
-51.26953125
-52.18505859375
-58.59375
-60.4248046875
-62.255859375
-60.4248046875
-56.7626953125
-49.4384765625
-43.02978515625
-46.69189453125
-53.1005859375
-52.18505859375
-59.50927734375
-68.66455078125
-65.00244140625
-54.931640625
-48.52294921875
-45.7763671875
-45.7763671875
-48.52294921875
-52.18505859375
-45.7763671875
-59.50927734375
-68.66455078125
-70.49560546875
-58.59375
-53.1005859375
-50.35400390625
-42.1142578125
-45.7763671875
-49.4384765625
-52.18505859375
-58.59375
-65.00244140625
-62.255859375
-57.67822265625
-50.35400390625
-44.86083984375
-43.02978515625
-42.1142578125
-40.283203125
-48.52294921875
-63.17138671875
-71.4111328125
-60.4248046875
-54.931640625
-54.01611328125
-48.52294921875
-42.1142578125
-45.7763671875
-48.52294921875
-55.84716796875
-61.34033203125
-63.17138671875
-60.4248046875
-52.18505859375
-58.59375
-54.01611328125
-40.283203125
-43.02978515625
-51.26953125
-50.35400390625
-58.59375
-67.7490234375
-59.50927734375
-48.52294921875
-51.26953125
-44.86083984375
-38.4521484375
-38.4521484375
-43.02978515625
-51.26953125
-57.67822265625
-54.931640625
-52.18505859375
-45.7763671875
-43.02978515625
-32.958984375
-27.4658203125
-29.296875
-32.04345703125
-35.70556640625
-48.52294921875
-49.4384765625
-43.02978515625
-41.19873046875
-33.87451171875
-28.38134765625
-21.05712890625
-21.05712890625
-24.71923828125
-28.38134765625
-38.4521484375
-36.62109375
-28.38134765625
-29.296875
-21.97265625
-6.40869140625
-9.1552734375
-9.1552734375
-10.07080078125
-11.90185546875
-12.8173828125
-16.4794921875
-10.986328125
-5.4931640625
5.4931640625
11.90185546875
26.55029296875
19.22607421875
17.39501953125
21.97265625
16.4794921875
2.74658203125
2.74658203125
9.1552734375
17.39501953125
15.56396484375
21.05712890625
11.90185546875
2.74658203125
-3.662109375
-16.4794921875
-25.634765625
-22.88818359375
-19.22607421875
-10.986328125
-14.6484375
-11.90185546875
-23.8037109375
-28.38134765625
-32.958984375
-46.69189453125
-60.4248046875
-55.84716796875
-50.35400390625
-53.1005859375
-54.01611328125
-43.02978515625
-49.4384765625
-65.91796875
-70.49560546875
-78.7353515625
-83.31298828125
-78.7353515625
-77.81982421875
-71.4111328125
-59.50927734375
-54.931640625
-66.83349609375
-71.4111328125
-67.7490234375
-76.904296875
-79.65087890625
-78.7353515625
-73.2421875
-68.66455078125
-63.17138671875
-54.931640625
-59.50927734375
-65.91796875
-67.7490234375
-71.4111328125
-72.32666015625
-74.15771484375
-70.49560546875
-65.91796875
-57.67822265625
-54.931640625
-61.34033203125
-65.00244140625
-64.0869140625
-74.15771484375
-71.4111328125
-67.7490234375
-65.91796875
-66.83349609375
-54.01611328125
-48.52294921875
-46.69189453125
-54.01611328125
-54.931640625
-65.00244140625
-75.98876953125
-74.15771484375
-65.91796875
-61.34033203125
-59.50927734375
-54.01611328125
-50.35400390625
-58.59375
-59.50927734375
-61.34033203125
-66.83349609375
-65.00244140625
-57.67822265625
-63.17138671875
-56.7626953125
-48.52294921875
-49.4384765625
-54.01611328125
-57.67822265625
-64.0869140625
-73.2421875
-73.2421875
-65.91796875
-63.17138671875
-62.255859375
-54.931640625
-57.67822265625
-68.66455078125
-61.34033203125
-67.7490234375
-68.66455078125
-69.580078125
-75.0732421875
-73.2421875
-65.00244140625
-62.255859375
-55.84716796875
-56.7626953125
-67.7490234375
-77.81982421875
-85.14404296875
-74.15771484375
-67.7490234375
-65.91796875
-64.0869140625
-56.7626953125
-62.255859375
-65.91796875
-73.2421875
-73.2421875
-80.56640625
-82.3974609375
-78.7353515625
-85.14404296875
-80.56640625
-70.49560546875
-69.580078125
-76.904296875
-78.7353515625
-83.31298828125
-88.80615234375
-87.890625
-80.56640625
-74.15771484375
-73.2421875
-68.66455078125
-66.83349609375
-73.2421875
-71.4111328125
-82.3974609375
-83.31298828125
-75.0732421875
-78.7353515625
-84.228515625
-77.81982421875
-72.32666015625
-79.65087890625
-75.0732421875
-81.48193359375
-88.80615234375
-90.63720703125
-86.97509765625
-85.14404296875
-89.7216796875
-75.98876953125
-72.32666015625
-73.2421875
-71.4111328125
-72.32666015625
-77.81982421875
-86.0595703125
-83.31298828125
-78.7353515625
-81.48193359375
-74.15771484375
-55.84716796875
-59.50927734375
-78.7353515625
-80.56640625
-88.80615234375
-95.21484375
-84.228515625
-75.98876953125
-70.49560546875
-67.7490234375
-65.91796875
-65.91796875
-81.48193359375
-75.98876953125
-86.0595703125
-94.29931640625
-88.80615234375
-88.80615234375
-81.48193359375
-76.904296875
-72.32666015625
-75.0732421875
-75.98876953125
-69.580078125
-86.0595703125
-100.7080078125
-96.13037109375
-83.31298828125
-86.0595703125
-83.31298828125
-74.15771484375
-69.580078125
-76.904296875
-79.65087890625
-87.890625
-86.97509765625
-93.3837890625
-85.14404296875
-82.3974609375
-78.7353515625
-71.4111328125
-74.15771484375
-73.2421875
-81.48193359375
-87.890625
-91.552734375
-87.890625
-77.81982421875
-81.48193359375
-75.98876953125
-70.49560546875
-71.4111328125
-71.4111328125
-80.56640625
-80.56640625
-93.3837890625
-85.14404296875
-81.48193359375
-86.0595703125
-72.32666015625
-68.66455078125
-75.98876953125
-77.81982421875
-82.3974609375
-86.0595703125
-90.63720703125
-88.80615234375
-86.97509765625
-90.63720703125
-75.0732421875
-75.0732421875
-75.0732421875
-76.904296875
-78.7353515625
-91.552734375
-95.21484375
-85.14404296875
-79.65087890625
-79.65087890625
-74.15771484375
-67.7490234375
-66.83349609375
-76.904296875
-80.56640625
-79.65087890625
-86.0595703125
-81.48193359375
-75.98876953125
-72.32666015625
-65.00244140625
-64.0869140625
-60.4248046875
-54.01611328125
-51.26953125
-60.4248046875
-58.59375
-50.35400390625
-50.35400390625
-48.52294921875
-45.7763671875
-42.1142578125
-39.36767578125
-30.21240234375
-26.55029296875
-29.296875
-23.8037109375
-24.71923828125
-24.71923828125
-25.634765625
-24.71923828125
-23.8037109375
-35.70556640625
-41.19873046875
-38.4521484375
-49.4384765625
-66.83349609375
-65.91796875
-63.17138671875
-65.00244140625
-54.931640625
-58.59375
-67.7490234375
-78.7353515625
-76.904296875
-96.13037109375
-103.45458984375
-92.46826171875
-97.0458984375
-96.13037109375
-86.97509765625
-84.228515625
-87.890625
-88.80615234375
-88.80615234375
-89.7216796875
-96.13037109375
-93.3837890625
-90.63720703125
-88.80615234375
-84.228515625
-75.0732421875
-82.3974609375
-93.3837890625
-101.62353515625
-94.29931640625
-100.7080078125
-97.0458984375
-95.21484375
-82.3974609375
-87.890625
-87.890625
-78.7353515625
-81.48193359375
-86.97509765625
-88.80615234375
-91.552734375
-92.46826171875
-108.94775390625
-136.41357421875
-149.23095703125
-150.146484375
-127.25830078125
-106.201171875
-68.66455078125
-28.38134765625
19.22607421875
117.1875
246.27685546875
414.73388671875
564.88037109375
669.25048828125
769.95849609375
901.79443359375
1008.9111328125
1073.91357421875
1110.53466796875
1091.30859375
1059.26513671875
1004.33349609375
868.83544921875
580.4443359375
295.71533203125
43.9453125
-83.31298828125
-97.96142578125
-103.45458984375
-88.80615234375
-59.50927734375
-41.19873046875
-29.296875
-16.4794921875
-19.22607421875
-35.70556640625
-32.04345703125
-52.18505859375
-68.66455078125
-70.49560546875
-67.7490234375
-65.91796875
-68.66455078125
-62.255859375
-71.4111328125
-70.49560546875
-73.2421875
-87.890625
-97.96142578125
-95.21484375
-96.13037109375
-84.228515625
-83.31298828125
-80.56640625
-82.3974609375
-78.7353515625
-85.14404296875
-89.7216796875
-96.13037109375
-93.3837890625
-84.228515625
-76.904296875
-75.0732421875
-67.7490234375
-68.66455078125
-72.32666015625
-79.65087890625
-92.46826171875
-90.63720703125
-95.21484375
-94.29931640625
-83.31298828125
-77.81982421875
-75.0732421875
-75.98876953125
-75.0732421875
-80.56640625
-84.228515625
-92.46826171875
-92.46826171875
-76.904296875
-72.32666015625
-69.580078125
-65.91796875
-68.66455078125
-73.2421875
-80.56640625
-88.80615234375
-92.46826171875
-88.80615234375
-90.63720703125
-80.56640625
-66.83349609375
-65.00244140625
-69.580078125
-77.81982421875
-73.2421875
-82.3974609375
-90.63720703125
-78.7353515625
-77.81982421875
-78.7353515625
-74.15771484375
-68.66455078125
-72.32666015625
-75.98876953125
-77.81982421875
-77.81982421875
-88.80615234375
-87.890625
-79.65087890625
-74.15771484375
-72.32666015625
-70.49560546875
-67.7490234375
-72.32666015625
-73.2421875
-78.7353515625
-84.228515625
-78.7353515625
-73.2421875
-73.2421875
-61.34033203125
-65.00244140625
-69.580078125
-66.83349609375
-63.17138671875
-65.91796875
-82.3974609375
-78.7353515625
-69.580078125
-71.4111328125
-62.255859375
-55.84716796875
-57.67822265625
-61.34033203125
-64.0869140625
-64.0869140625
-72.32666015625
-72.32666015625
-65.91796875
-64.0869140625
-54.931640625
-51.26953125
-57.67822265625
-63.17138671875
-59.50927734375
-66.83349609375
-70.49560546875
-61.34033203125
-56.7626953125
-54.931640625
-49.4384765625
-43.02978515625
-46.69189453125
-47.607421875
-56.7626953125
-63.17138671875
-71.4111328125
-64.0869140625
-61.34033203125
-57.67822265625
-51.26953125
-39.36767578125
-44.86083984375
-47.607421875
-49.4384765625
-48.52294921875
-61.34033203125
-50.35400390625
-44.86083984375
-41.19873046875
-32.958984375
-26.55029296875
-19.22607421875
-16.4794921875
-19.22607421875
-21.97265625
-17.39501953125
-18.310546875
-13.73291015625
-4.57763671875
4.57763671875
3.662109375
1.8310546875
0.91552734375
1.8310546875
-12.8173828125
-23.8037109375
-20.1416015625
-15.56396484375
-13.73291015625
-10.07080078125
-5.4931640625
-13.73291015625
-11.90185546875
-24.71923828125
-32.958984375
-31.1279296875
-40.283203125
-35.70556640625
-34.7900390625
-40.283203125
-35.70556640625
-35.70556640625
-45.7763671875
-51.26953125
-54.01611328125
-69.580078125
-69.580078125
-62.255859375
-56.7626953125
-54.01611328125
-46.69189453125
-52.18505859375
-61.34033203125
-61.34033203125
-61.34033203125
-74.15771484375
-74.15771484375
-68.66455078125
-62.255859375
-55.84716796875
-53.1005859375
-54.01611328125
-60.4248046875
-58.59375
-58.59375
-70.49560546875
-69.580078125
-57.67822265625
-64.0869140625
-57.67822265625
-52.18505859375
-53.1005859375
-56.7626953125
-54.931640625
-55.84716796875
-61.34033203125
-56.7626953125
-47.607421875
-53.1005859375
-44.86083984375
-38.4521484375
-44.86083984375
-46.69189453125
-47.607421875
-54.01611328125
-64.0869140625
-65.00244140625
-54.01611328125
-51.26953125
-54.01611328125
-36.62109375
-35.70556640625
-46.69189453125
-50.35400390625
-58.59375
-64.0869140625
-54.931640625
-52.18505859375
-51.26953125
-50.35400390625
-46.69189453125
-43.02978515625
-52.18505859375
-57.67822265625
-64.0869140625
-70.49560546875
-65.91796875
-67.7490234375
-65.00244140625
-54.01611328125
-51.26953125
-58.59375
-53.1005859375
-61.34033203125
-63.17138671875
-74.15771484375
-72.32666015625
-62.255859375
-62.255859375
-54.931640625
-53.1005859375
-57.67822265625
-61.34033203125
-69.580078125
-72.32666015625
-75.98876953125
-82.3974609375
-79.65087890625
-79.65087890625
-77.81982421875
-68.66455078125
-71.4111328125
-78.7353515625
-74.15771484375
-83.31298828125
-84.228515625
-84.228515625
-82.3974609375
-81.48193359375
-74.15771484375
-63.17138671875
-70.49560546875
-78.7353515625
-72.32666015625
-85.14404296875
-93.3837890625
-85.14404296875
-82.3974609375
-81.48193359375
-73.2421875
-66.83349609375
-69.580078125
-75.0732421875
-87.890625
-91.552734375
-101.62353515625
-96.13037109375
-85.14404296875
-76.904296875
-73.2421875
-67.7490234375
-67.7490234375
-71.4111328125
-77.81982421875
-89.7216796875
-95.21484375
-93.3837890625
-86.0595703125
-85.14404296875
-83.31298828125
-74.15771484375
-77.81982421875
-87.890625
-96.13037109375
-95.21484375
-99.79248046875
-94.29931640625
-88.80615234375
-86.97509765625
-83.31298828125
-73.2421875
-77.81982421875
-86.97509765625
-85.14404296875
-90.63720703125
-98.876953125
-93.3837890625
-95.21484375
-87.890625
-81.48193359375
-80.56640625
-83.31298828125
-86.0595703125
-84.228515625
-93.3837890625
-96.13037109375
-94.29931640625
-93.3837890625
-86.97509765625
-82.3974609375
-75.0732421875
-75.0732421875
-80.56640625
-86.0595703125
-86.97509765625
-95.21484375
-93.3837890625
-89.7216796875
-82.3974609375
-83.31298828125
-76.904296875
-77.81982421875
-80.56640625
-83.31298828125
-91.552734375
-105.28564453125
-100.7080078125
-101.62353515625
-97.96142578125
-86.97509765625
-86.97509765625
-87.890625
-85.14404296875
-91.552734375
-103.45458984375
-108.94775390625
-106.201171875
-97.0458984375
-88.80615234375
-86.0595703125
-78.7353515625
-83.31298828125
-85.14404296875
-94.29931640625
-94.29931640625
-102.5390625
-103.45458984375
-97.0458984375
-96.13037109375
-86.97509765625
-80.56640625
-83.31298828125
-81.48193359375
-85.14404296875
-92.46826171875
-105.28564453125
-95.21484375
-86.97509765625
-78.7353515625
-68.66455078125
-53.1005859375
-54.931640625
-49.4384765625
-54.01611328125
-65.91796875
-76.904296875
-75.98876953125
-76.904296875
-62.255859375
-49.4384765625
-39.36767578125
-32.04345703125
-24.71923828125
-33.87451171875
-46.69189453125
-57.67822265625
-60.4248046875
-61.34033203125
-69.580078125
-67.7490234375
-61.34033203125
-67.7490234375
-73.2421875
-77.81982421875
-86.0595703125
-102.5390625
-108.0322265625
-89.7216796875
-86.97509765625
-88.80615234375
-77.81982421875
-83.31298828125
-92.46826171875
-98.876953125
-107.11669921875
-111.6943359375
-108.0322265625
-99.79248046875
-102.5390625
-94.29931640625
-85.14404296875
-90.63720703125
-96.13037109375
-105.28564453125
-116.27197265625
-116.27197265625
-114.44091796875
-109.86328125
-107.11669921875
-100.7080078125
-94.29931640625
-90.63720703125
-95.21484375
-101.62353515625
-103.45458984375
-112.60986328125
-108.94775390625
-100.7080078125
-92.46826171875
-88.80615234375
-84.228515625
-100.7080078125
-109.86328125
-137.3291015625
-167.54150390625
-191.34521484375
-185.85205078125
-154.72412109375
-123.59619140625
-79.65087890625
-23.8037109375
54.01611328125
167.54150390625
311.279296875
462.34130859375
585.02197265625
693.05419921875
815.73486328125
955.810546875
1051.94091796875
1121.52099609375
1105.04150390625
1062.01171875
1010.7421875
918.27392578125
682.9833984375
391.845703125
121.76513671875
-69.580078125
-108.0322265625
-95.21484375
-84.228515625
-68.66455078125
-56.7626953125
-39.36767578125
-38.4521484375
-38.4521484375
-46.69189453125
-50.35400390625
-51.26953125
-52.18505859375
-53.1005859375
-65.00244140625
-68.66455078125
-79.65087890625
-92.46826171875
-86.97509765625
-81.48193359375
-82.3974609375
-81.48193359375
-79.65087890625
-76.904296875
-77.81982421875
-79.65087890625
-90.63720703125
-96.13037109375
-90.63720703125
-88.80615234375
-84.228515625
-78.7353515625
-68.66455078125
-71.4111328125
-80.56640625
-83.31298828125
-90.63720703125
-97.0458984375
-100.7080078125
-90.63720703125
-90.63720703125
-85.14404296875
-75.0732421875
-75.98876953125
-77.81982421875
-77.81982421875
-83.31298828125
-93.3837890625
-89.7216796875
-84.228515625
-79.65087890625
-78.7353515625
-68.66455078125
-77.81982421875
-75.98876953125
-81.48193359375
-82.3974609375
-91.552734375
-87.890625
-82.3974609375
-78.7353515625
-73.2421875
-66.83349609375
-73.2421875
-81.48193359375
-84.228515625
-91.552734375
-99.79248046875
-95.21484375
-97.0458984375
-89.7216796875
-75.0732421875
-74.15771484375
-75.98876953125
-78.7353515625
-79.65087890625
-83.31298828125
-91.552734375
-87.890625
-91.552734375
-86.0595703125
-75.0732421875
-68.66455078125
-72.32666015625
-75.98876953125
-79.65087890625
-88.80615234375
-95.21484375
-87.890625
-76.904296875
-76.904296875
-75.98876953125
-67.7490234375
-65.91796875
-75.98876953125
-76.904296875
-80.56640625
-85.14404296875
-80.56640625
-77.81982421875
-73.2421875
-69.580078125
-64.0869140625
-63.17138671875
-62.255859375
-71.4111328125
-75.0732421875
-75.0732421875
-78.7353515625
-75.98876953125
-75.0732421875
-68.66455078125
-63.17138671875
-59.50927734375
-60.4248046875
-57.67822265625
-65.91796875
-72.32666015625
-73.2421875
-70.49560546875
-57.67822265625
-50.35400390625
-45.7763671875
-50.35400390625
-54.931640625
-54.01611328125
-58.59375
-54.931640625
-53.1005859375
-52.18505859375
-52.18505859375
-49.4384765625
-43.9453125
-42.1142578125
-51.26953125
-47.607421875
-48.52294921875
-53.1005859375
-50.35400390625
-40.283203125
-38.4521484375
-32.958984375
-25.634765625
-26.55029296875
-28.38134765625
-27.4658203125
-26.55029296875
-32.04345703125
-26.55029296875
-18.310546875
-9.1552734375
-4.57763671875
2.74658203125
5.4931640625
0
-3.662109375
-7.32421875
-10.986328125
-13.73291015625
-8.23974609375
-8.23974609375
-3.662109375
-0.91552734375
-6.40869140625
-10.986328125
-14.6484375
-17.39501953125
-32.04345703125
-42.1142578125
-35.70556640625
-30.21240234375
-30.21240234375
-28.38134765625
-36.62109375
-44.86083984375
-50.35400390625
-54.01611328125
-61.34033203125
-66.83349609375
-65.91796875
-65.00244140625
-59.50927734375
-55.84716796875
-62.255859375
-65.00244140625
-64.0869140625
-79.65087890625
-86.97509765625
-84.228515625
-81.48193359375
-75.98876953125
-73.2421875
-66.83349609375
-66.83349609375
-69.580078125
-75.98876953125
-82.3974609375
-87.890625
-85.14404296875
-82.3974609375
-82.3974609375
-70.49560546875
-61.34033203125
-61.34033203125
-66.83349609375
-68.66455078125
-75.98876953125
-92.46826171875
-89.7216796875
-81.48193359375
-71.4111328125
-62.255859375
-60.4248046875
-63.17138671875
-62.255859375
-74.15771484375
-82.3974609375
-78.7353515625
-71.4111328125
-79.65087890625
-76.904296875
-73.2421875
-65.00244140625
-64.0869140625
-73.2421875
-77.81982421875
-83.31298828125
-80.56640625
-80.56640625
-78.7353515625
-68.66455078125
-62.255859375
-59.50927734375
-61.34033203125
-66.83349609375
-75.0732421875
-79.65087890625
-85.14404296875
-78.7353515625
-76.904296875
-68.66455078125
-67.7490234375
-64.0869140625
-62.255859375
-65.91796875
-72.32666015625
-75.98876953125
-86.97509765625
-86.97509765625
-72.32666015625
-67.7490234375
-75.0732421875
-71.4111328125
-71.4111328125
-79.65087890625
-75.98876953125
-86.0595703125
-90.63720703125
-94.29931640625
-89.7216796875
-82.3974609375
-79.65087890625
-72.32666015625
-71.4111328125
-73.2421875
-78.7353515625
-85.14404296875
-96.13037109375
-96.13037109375
-92.46826171875
-89.7216796875
-85.14404296875
-83.31298828125
-82.3974609375
-86.0595703125
-86.97509765625
-89.7216796875
-102.5390625
-103.45458984375
-97.0458984375
-91.552734375
-86.0595703125
-81.48193359375
-83.31298828125
-85.14404296875
-85.14404296875
-90.63720703125
-100.7080078125
-102.5390625
-96.13037109375
-86.97509765625
-80.56640625
-77.81982421875
-75.0732421875
-83.31298828125
-88.80615234375
-95.21484375
-103.45458984375
-93.3837890625
-90.63720703125
-84.228515625
-88.80615234375
-73.2421875
-78.7353515625
-79.65087890625
-80.56640625
-88.80615234375
-95.21484375
-91.552734375
-98.876953125
-97.0458984375
-94.29931640625
-84.228515625
-85.14404296875
-90.63720703125
-86.97509765625
-96.13037109375
-104.3701171875
-99.79248046875
-97.0458984375
-95.21484375
-88.80615234375
-80.56640625
-82.3974609375
-86.97509765625
-86.97509765625
-92.46826171875
-102.5390625
-97.0458984375
-97.96142578125
-88.80615234375
-89.7216796875
-84.228515625
-88.80615234375
-95.21484375
-87.890625
-89.7216796875
-100.7080078125
-100.7080078125
-96.13037109375
-93.3837890625
-91.552734375
-83.31298828125
-83.31298828125
-83.31298828125
-87.890625
-93.3837890625
-104.3701171875
-99.79248046875
-93.3837890625
-92.46826171875
-89.7216796875
-85.14404296875
-77.81982421875
-82.3974609375
-86.97509765625
-93.3837890625
-102.5390625
-101.62353515625
-95.21484375
-93.3837890625
-94.29931640625
-87.890625
-86.0595703125
-89.7216796875
-90.63720703125
-95.21484375
-105.28564453125
-104.3701171875
-96.13037109375
-91.552734375
-88.80615234375
-86.0595703125
-86.97509765625
-88.80615234375
-84.228515625
-85.14404296875
-97.0458984375
-96.13037109375
-97.96142578125
-88.80615234375
-89.7216796875
-86.0595703125
-89.7216796875
-86.97509765625
-91.552734375
-86.97509765625
-107.11669921875
-113.525390625
-104.3701171875
-102.5390625
-91.552734375
-85.14404296875
-77.81982421875
-79.65087890625
-76.904296875
-77.81982421875
-90.63720703125
-88.80615234375
-85.14404296875
-85.14404296875
-86.0595703125
-74.15771484375
-70.49560546875
-66.83349609375
-53.1005859375
-37.53662109375
-33.87451171875
-33.87451171875
-34.7900390625
-37.53662109375
-43.9453125
-43.9453125
-54.931640625
-72.32666015625
-77.81982421875
-77.81982421875
-76.904296875
-82.3974609375
-89.7216796875
-97.96142578125
-92.46826171875
-78.7353515625
-86.97509765625
-91.552734375
-91.552734375
-94.29931640625
-105.28564453125
-109.86328125
-104.3701171875
-94.29931640625
-91.552734375
-83.31298828125
-86.97509765625
-87.890625
-90.63720703125
-95.21484375
-112.60986328125
-108.94775390625
-106.201171875
-100.7080078125
-93.3837890625
-93.3837890625
-96.13037109375
-94.29931640625
-97.96142578125
-96.13037109375
-102.5390625
-97.96142578125
-93.3837890625
-95.21484375
-96.13037109375
-81.48193359375
-76.904296875
-80.56640625
-91.552734375
-109.86328125
-146.484375
-163.87939453125
-176.69677734375
-175.78125
-139.16015625
-106.201171875
-75.0732421875
-37.53662109375
28.38134765625
133.6669921875
275.57373046875
429.38232421875
568.54248046875
680.23681640625
804.74853515625
947.57080078125
1047.36328125
1110.53466796875
1102.294921875
1065.673828125
1010.7421875
932.0068359375
730.5908203125
430.2978515625
155.6396484375
-61.34033203125
-110.77880859375
-101.62353515625
-83.31298828125
-62.255859375
-54.01611328125
-42.1142578125
-32.958984375
-34.7900390625
-32.04345703125
-33.87451171875
-44.86083984375
-51.26953125
-59.50927734375
-67.7490234375
-76.904296875
-77.81982421875
-72.32666015625
-73.2421875
-70.49560546875
-67.7490234375
-69.580078125
-75.0732421875
-79.65087890625
-85.14404296875
-95.21484375
-94.29931640625
-89.7216796875
-78.7353515625
-79.65087890625
-74.15771484375
-76.904296875
-82.3974609375
-85.14404296875
-85.14404296875
-87.890625
-87.890625
-82.3974609375
-76.904296875
-72.32666015625
-71.4111328125
-72.32666015625
-81.48193359375
-83.31298828125
-88.80615234375
-102.5390625
-98.876953125
-91.552734375
-84.228515625
-76.904296875
-72.32666015625
-72.32666015625
-73.2421875
-73.2421875
-79.65087890625
-93.3837890625
-90.63720703125
-87.890625
-83.31298828125
-76.904296875
-68.66455078125
-70.49560546875
-73.2421875
-76.904296875
-77.81982421875
-87.890625
-85.14404296875
-86.0595703125
-83.31298828125
-75.98876953125
-71.4111328125
-71.4111328125
-79.65087890625
-82.3974609375
-82.3974609375
-89.7216796875
-86.97509765625
-89.7216796875
-86.97509765625
-75.0732421875
-70.49560546875
-68.66455078125
-85.14404296875
-76.904296875
-82.3974609375
-87.890625
-85.14404296875
-79.65087890625
-74.15771484375
-69.580078125
-61.34033203125
-57.67822265625
-67.7490234375
-69.580078125
-72.32666015625
-77.81982421875
-78.7353515625
-73.2421875
-68.66455078125
-66.83349609375
-67.7490234375
-65.91796875
-62.255859375
-66.83349609375
-76.904296875
-81.48193359375
-79.65087890625
-62.255859375
-63.17138671875
-61.34033203125
-54.01611328125
-54.931640625
-58.59375
-63.17138671875
-63.17138671875
-68.66455078125
-65.91796875
-62.255859375
-58.59375
-50.35400390625
-51.26953125
-54.01611328125
-55.84716796875
-54.01611328125
-52.18505859375
-64.0869140625
-61.34033203125
-54.931640625
-52.18505859375
-46.69189453125
-43.02978515625
-43.02978515625
-43.02978515625
-43.02978515625
-49.4384765625
-54.01611328125
-49.4384765625
-48.52294921875
-38.4521484375
-28.38134765625
-21.97265625
-23.8037109375
-23.8037109375
-25.634765625
-27.4658203125
-32.958984375
-25.634765625
-25.634765625
-8.23974609375
-2.74658203125
-0.91552734375
-0.91552734375
-2.74658203125
-2.74658203125
-2.74658203125
-1.8310546875
0
-3.662109375
0
9.1552734375
12.8173828125
-0.91552734375
-6.40869140625
-0.91552734375
-7.32421875
-16.4794921875
-21.97265625
-21.97265625
-21.05712890625
-18.310546875
-12.8173828125
-20.1416015625
-29.296875
-35.70556640625
-43.02978515625
-53.1005859375
-54.01611328125
-56.7626953125
-48.52294921875
-49.4384765625
-47.607421875
-45.7763671875
-52.18505859375
-53.1005859375
-62.255859375
-75.0732421875
-75.0732421875
-67.7490234375
-64.0869140625
-64.0869140625
-51.26953125
-46.69189453125
-59.50927734375
-56.7626953125
-68.66455078125
-71.4111328125
-68.66455078125
-76.904296875
-67.7490234375
-65.00244140625
-56.7626953125
-58.59375
-64.0869140625
-67.7490234375
-73.2421875
-79.65087890625
-78.7353515625
-66.83349609375
-64.0869140625
-58.59375
-49.4384765625
-52.18505859375
-50.35400390625
-58.59375
-59.50927734375
-65.00244140625
-67.7490234375
-61.34033203125
-52.18505859375
-46.69189453125
-44.86083984375
-42.1142578125
-50.35400390625
-55.84716796875
-57.67822265625
-64.0869140625
-61.34033203125
-65.00244140625
-53.1005859375
-54.931640625
-52.18505859375
-51.26953125
-56.7626953125
-59.50927734375
-64.0869140625
-72.32666015625
-70.49560546875
-63.17138671875
-56.7626953125
-54.01611328125
-44.86083984375
-43.02978515625
-53.1005859375
-56.7626953125
-57.67822265625
-66.83349609375
-71.4111328125
-65.91796875
-60.4248046875
-56.7626953125
-44.86083984375
-45.7763671875
-46.69189453125
-48.52294921875
-59.50927734375
-68.66455078125
-65.91796875
-67.7490234375
-64.0869140625
-59.50927734375
-53.1005859375
-52.18505859375
-58.59375
-63.17138671875
-64.0869140625
-76.904296875
-73.2421875
-69.580078125
-68.66455078125
-65.91796875
-58.59375
-56.7626953125
-60.4248046875
-69.580078125
-70.49560546875
-86.97509765625
-80.56640625
-70.49560546875
-78.7353515625
-65.91796875
-54.931640625
-62.255859375
-62.255859375
-69.580078125
-76.904296875
-84.228515625
-77.81982421875
-76.904296875
-77.81982421875
-75.0732421875
-61.34033203125
-67.7490234375
-70.49560546875
-76.904296875
-77.81982421875
-84.228515625
-83.31298828125
-79.65087890625
-74.15771484375
-72.32666015625
-65.00244140625
-66.83349609375
-69.580078125
-75.0732421875
-72.32666015625
-78.7353515625
-82.3974609375
-79.65087890625
-76.904296875
-71.4111328125
-64.0869140625
-64.0869140625
-75.98876953125
-78.7353515625
-87.890625
-97.96142578125
-86.97509765625
-83.31298828125
-77.81982421875
-67.7490234375
-68.66455078125
-68.66455078125
-70.49560546875
-75.0732421875
-85.14404296875
-86.97509765625
-88.80615234375
-80.56640625
-76.904296875
-81.48193359375
-71.4111328125
-67.7490234375
-78.7353515625
-82.3974609375
-82.3974609375
-95.21484375
-93.3837890625
-91.552734375
-88.80615234375
-81.48193359375
-67.7490234375
-77.81982421875
-83.31298828125
-78.7353515625
-82.3974609375
-90.63720703125
-86.0595703125
-86.97509765625
-84.228515625
-78.7353515625
-72.32666015625
-75.98876953125
-84.228515625
-80.56640625
-82.3974609375
-97.0458984375
-93.3837890625
-92.46826171875
-88.80615234375
-84.228515625
-72.32666015625
-72.32666015625
-77.81982421875
-84.228515625
-90.63720703125
-90.63720703125
-85.14404296875
-86.0595703125
-78.7353515625
-75.98876953125
-68.66455078125
-74.15771484375
-83.31298828125
-86.0595703125
-89.7216796875
-97.0458984375
-97.96142578125
-84.228515625
-86.0595703125
-85.14404296875
-73.2421875
-75.0732421875
-82.3974609375
-73.2421875
-83.31298828125
-96.13037109375
-91.552734375
-92.46826171875
-83.31298828125
-77.81982421875
-68.66455078125
-83.31298828125
-86.97509765625
-86.0595703125
-90.63720703125
-96.13037109375
-90.63720703125
-91.552734375
-82.3974609375
-66.83349609375
-63.17138671875
-56.7626953125
-62.255859375
-69.580078125
-75.0732421875
-88.80615234375
-90.63720703125
-88.80615234375
-75.98876953125
-57.67822265625
-29.296875
-13.73291015625
-12.8173828125
-15.56396484375
-23.8037109375
-41.19873046875
-51.26953125
-55.84716796875
-60.4248046875
-61.34033203125
-52.18505859375
-51.26953125
-53.1005859375
-60.4248046875
-77.81982421875
-101.62353515625
-98.876953125
-87.890625
-86.97509765625
-83.31298828125
-75.0732421875
-74.15771484375
-80.56640625
-86.97509765625
-89.7216796875
-96.13037109375
-96.13037109375
-92.46826171875
-88.80615234375
-84.228515625
-81.48193359375
-86.97509765625
-94.29931640625
-89.7216796875
-93.3837890625
-98.876953125
-100.7080078125
-97.0458984375
-92.46826171875
-89.7216796875
-80.56640625
-82.3974609375
-82.3974609375
-86.0595703125
-87.890625
-95.21484375
-94.29931640625
-86.0595703125
-84.228515625
-81.48193359375
-75.98876953125
-85.14404296875
-107.11669921875
-139.16015625
-160.21728515625
-177.6123046875
-161.1328125
-131.8359375
-97.0458984375
-46.69189453125
30.21240234375
129.08935546875
260.92529296875
417.48046875
562.1337890625
664.6728515625
782.77587890625
923.76708984375
1034.5458984375
1111.4501953125
1131.591796875
1094.05517578125
1054.6875
978.69873046875
800.1708984375
498.046875
211.48681640625
-29.296875
-102.5390625
-86.0595703125
-71.4111328125
-49.4384765625
-36.62109375
-24.71923828125
-26.55029296875
-37.53662109375
-43.02978515625
-47.607421875
-51.26953125
-49.4384765625
-49.4384765625
-51.26953125
-57.67822265625
-61.34033203125
-68.66455078125
-81.48193359375
-77.81982421875
-82.3974609375
-75.98876953125
-67.7490234375
-66.83349609375
-69.580078125
-71.4111328125
-75.98876953125
-79.65087890625
-83.31298828125
-86.0595703125
-83.31298828125
-78.7353515625
-68.66455078125
-60.4248046875
-65.00244140625
-66.83349609375
-73.2421875
-72.32666015625
-82.3974609375
-85.14404296875
-79.65087890625
-80.56640625
-76.904296875
-67.7490234375
-62.255859375
-66.83349609375
-71.4111328125
-74.15771484375
-82.3974609375
-83.31298828125
-75.98876953125
-79.65087890625
-75.0732421875
-63.17138671875
-65.91796875
-69.580078125
-69.580078125
-70.49560546875
-75.98876953125
-75.98876953125
-78.7353515625
-68.66455078125
-69.580078125
-63.17138671875
-63.17138671875
-71.4111328125
-70.49560546875
-69.580078125
-76.904296875
-74.15771484375
-70.49560546875
-66.83349609375
-66.83349609375
-58.59375
-57.67822265625
-66.83349609375
-70.49560546875
-71.4111328125
-80.56640625
-83.31298828125
-73.2421875
-71.4111328125
-68.66455078125
-56.7626953125
-58.59375
-69.580078125
-73.2421875
-75.0732421875
-75.0732421875
-70.49560546875
-71.4111328125
-66.83349609375
-55.84716796875
-53.1005859375
-51.26953125
-53.1005859375
-62.255859375
-70.49560546875
-73.2421875
-71.4111328125
-63.17138671875
-63.17138671875
-53.1005859375
-52.18505859375
-53.1005859375
-54.01611328125
-65.91796875
-54.01611328125
-66.83349609375
-64.0869140625
-60.4248046875
-54.931640625
-44.86083984375
-45.7763671875
-47.607421875
-54.931640625
-55.84716796875
-62.255859375
-65.91796875
-66.83349609375
-55.84716796875
-49.4384765625
-47.607421875
-48.52294921875
-43.9453125
-45.7763671875
-47.607421875
-48.52294921875
-58.59375
-57.67822265625
-48.52294921875
-41.19873046875
-33.87451171875
-27.4658203125
-32.958984375
-30.21240234375
-31.1279296875
-37.53662109375
-48.52294921875
-50.35400390625
-41.19873046875
-40.283203125
-27.4658203125
-17.39501953125
-15.56396484375
-21.05712890625
-20.1416015625
-18.310546875
-21.97265625
-17.39501953125
-7.32421875
-0.91552734375
7.32421875
10.986328125
18.310546875
10.986328125
7.32421875
4.57763671875
-8.23974609375
-2.74658203125
6.40869140625
1.8310546875
6.40869140625
18.310546875
11.90185546875
9.1552734375
-2.74658203125
-15.56396484375
-22.88818359375
-32.04345703125
-32.04345703125
-23.8037109375
-21.97265625
-26.55029296875
-16.4794921875
-33.87451171875
-35.70556640625
-37.53662109375
-52.18505859375
-52.18505859375
-53.1005859375
-51.26953125
-49.4384765625
-41.19873046875
-42.1142578125
-55.84716796875
-57.67822265625
-55.84716796875
-70.49560546875
-68.66455078125
-57.67822265625
-57.67822265625
-53.1005859375
-41.19873046875
-46.69189453125
-54.931640625
-53.1005859375
-52.18505859375
-61.34033203125
-65.91796875
-60.4248046875
-59.50927734375
-57.67822265625
-50.35400390625
-50.35400390625
-50.35400390625
-55.84716796875
-54.931640625
-56.7626953125
-67.7490234375
-52.18505859375
-50.35400390625
-52.18505859375
-46.69189453125
-42.1142578125
-52.18505859375
-52.18505859375
-55.84716796875
-57.67822265625
-65.91796875
-58.59375
-50.35400390625
-51.26953125
-41.19873046875
-36.62109375
-44.86083984375
-48.52294921875
-52.18505859375
-56.7626953125
-62.255859375
-56.7626953125
-58.59375
-48.52294921875
-33.87451171875
-43.02978515625
-44.86083984375
-48.52294921875
-49.4384765625
-59.50927734375
-58.59375
-54.931640625
-54.01611328125
-53.1005859375
-42.1142578125
-48.52294921875
-49.4384765625
-50.35400390625
-58.59375
-61.34033203125
-60.4248046875
-62.255859375
-59.50927734375
-48.52294921875
-46.69189453125
-45.7763671875
-44.86083984375
-53.1005859375
-65.00244140625
-69.580078125
-72.32666015625
-59.50927734375
-61.34033203125
-63.17138671875
-54.931640625
-57.67822265625
-65.00244140625
-68.66455078125
-70.49560546875
-79.65087890625
-86.97509765625
-78.7353515625
-76.904296875
-68.66455078125
-56.7626953125
-63.17138671875
-67.7490234375
-69.580078125
-75.0732421875
-77.81982421875
-76.904296875
-75.0732421875
-67.7490234375
-60.4248046875
-59.50927734375
-59.50927734375
-56.7626953125
-68.66455078125
-71.4111328125
-80.56640625
-79.65087890625
-83.31298828125
-82.3974609375
-75.0732421875
-68.66455078125
-69.580078125
-68.66455078125
-65.91796875
-69.580078125
-77.81982421875
-81.48193359375
-83.31298828125
-75.98876953125
-62.255859375
-61.34033203125
-54.931640625
-64.0869140625
-65.91796875
-72.32666015625
-82.3974609375
-82.3974609375
-82.3974609375
-79.65087890625
-71.4111328125
-72.32666015625
-76.904296875
-67.7490234375
-75.0732421875
-71.4111328125
-75.98876953125
-87.890625
-83.31298828125
-76.904296875
-75.0732421875
-73.2421875
-75.0732421875
-84.228515625
-77.81982421875
-73.2421875
-84.228515625
-80.56640625
-80.56640625
-71.4111328125
-69.580078125
-71.4111328125
-67.7490234375
-70.49560546875
-81.48193359375
-78.7353515625
-80.56640625
-85.14404296875
-81.48193359375
-78.7353515625
-78.7353515625
-73.2421875
-69.580078125
-73.2421875
-76.904296875
-88.80615234375
-93.3837890625
-97.0458984375
-86.97509765625
-86.97509765625
-82.3974609375
-75.0732421875
-69.580078125
-72.32666015625
-83.31298828125
-86.0595703125
-90.63720703125
-88.80615234375
-95.21484375
-87.890625
-83.31298828125
-83.31298828125
-83.31298828125
-76.904296875
-79.65087890625
-85.14404296875
-88.80615234375
-86.0595703125
-86.0595703125
-81.48193359375
-81.48193359375
-76.904296875
-72.32666015625
-84.228515625
-91.552734375
-84.228515625
-92.46826171875
-92.46826171875
-97.96142578125
-92.46826171875
-84.228515625
-73.2421875
-86.97509765625
-85.14404296875
-85.14404296875
-81.48193359375
-83.31298828125
-72.32666015625
-77.81982421875
-75.98876953125
-75.98876953125
-67.7490234375
-52.18505859375
-47.607421875
-54.931640625
-62.255859375
-64.0869140625
-79.65087890625
-71.4111328125
-49.4384765625
-22.88818359375
3.662109375
8.23974609375
-4.57763671875
-19.22607421875
-13.73291015625
-36.62109375
-51.26953125
-53.1005859375
-61.34033203125
-62.255859375
-46.69189453125
-40.283203125
-54.01611328125
-77.81982421875
-91.552734375
-95.21484375
-91.552734375
-96.13037109375
-102.5390625
-95.21484375
-76.904296875
-85.14404296875
-86.97509765625
-79.65087890625
-86.97509765625
-97.96142578125
-99.79248046875
-91.552734375
-84.228515625
-83.31298828125
-76.904296875
-68.66455078125
-68.66455078125
-63.17138671875
-82.3974609375
-96.13037109375
-102.5390625
-94.29931640625
-92.46826171875
-84.228515625
-66.83349609375
-67.7490234375
-63.17138671875
-71.4111328125
-66.83349609375
-63.17138671875
-60.4248046875
-67.7490234375
-60.4248046875
-65.00244140625
-84.228515625
-106.201171875
-129.08935546875
-141.90673828125
-124.51171875
-118.10302734375
-84.228515625
-29.296875
34.7900390625
124.51171875
263.671875
429.38232421875
566.71142578125
660.09521484375
760.80322265625
880.7373046875
998.84033203125
1077.57568359375
1112.36572265625
1110.53466796875
1088.56201171875
1039.12353515625
880.7373046875
591.4306640625
309.4482421875
56.7626953125
-63.17138671875
-69.580078125
-76.904296875
-71.4111328125
-39.36767578125
-21.05712890625
-14.6484375
-12.8173828125
-20.1416015625
-31.1279296875
-35.70556640625
-31.1279296875
-46.69189453125
-45.7763671875
-37.53662109375
-36.62109375
-37.53662109375
-46.69189453125
-56.7626953125
-73.2421875
-81.48193359375
-73.2421875
-70.49560546875
-67.7490234375
-61.34033203125
-59.50927734375
-60.4248046875
-63.17138671875
-73.2421875
-91.552734375
-96.13037109375
-75.98876953125
-69.580078125
-59.50927734375
-47.607421875
-46.69189453125
-52.18505859375
-49.4384765625
-49.4384765625
-49.4384765625
-61.34033203125
-65.00244140625
-66.83349609375
-66.83349609375
-61.34033203125
-51.26953125
-54.01611328125
-58.59375
-55.84716796875
-65.91796875
-54.931640625
-53.1005859375
-55.84716796875
-44.86083984375
-30.21240234375
-43.9453125
-62.255859375
-70.49560546875
-65.91796875
-64.0869140625
-61.34033203125
-59.50927734375
-53.1005859375
-52.18505859375
-55.84716796875
-62.255859375
-65.91796875
-64.0869140625
-65.91796875
-71.4111328125
-67.7490234375
-53.1005859375
-48.52294921875
-46.69189453125
-32.04345703125
-35.70556640625
-44.86083984375
-49.4384765625
-57.67822265625
-57.67822265625
-62.255859375
-59.50927734375
-48.52294921875
-54.931640625
-45.7763671875
-46.69189453125
-54.01611328125
-54.931640625
-54.01611328125
-60.4248046875
-60.4248046875
-63.17138671875
-58.59375
-64.0869140625
-61.34033203125
-56.7626953125
-57.67822265625
-56.7626953125
-56.7626953125
-57.67822265625
-76.904296875
-70.49560546875
-65.91796875
-54.931640625
-40.283203125
-32.958984375
-44.86083984375
-53.1005859375
-56.7626953125
-63.17138671875
-65.00244140625
-50.35400390625
-42.1142578125
-33.87451171875
-25.634765625
-25.634765625
-28.38134765625
-38.4521484375
-46.69189453125
-65.00244140625
-62.255859375
-56.7626953125
-48.52294921875
-43.02978515625
-32.958984375
-36.62109375
-39.36767578125
-48.52294921875
-54.01611328125
-56.7626953125
-54.931640625
-48.52294921875
-44.86083984375
-44.86083984375
-38.4521484375
-41.19873046875
-36.62109375
-42.1142578125
-37.53662109375
-38.4521484375
-39.36767578125
-34.7900390625
-33.87451171875
-34.7900390625
-22.88818359375
-17.39501953125
-21.97265625
-19.22607421875
-20.1416015625
-23.8037109375
-21.05712890625
-10.986328125
-9.1552734375
-8.23974609375
0.91552734375
3.662109375
9.1552734375
17.39501953125
7.32421875
-0.91552734375
0.91552734375
3.662109375
3.662109375
7.32421875
10.07080078125
10.07080078125
4.57763671875
-3.662109375
-6.40869140625
-16.4794921875
-26.55029296875
-26.55029296875
-24.71923828125
-21.97265625
-21.97265625
-29.296875
-26.55029296875
-36.62109375
-47.607421875
-49.4384765625
-55.84716796875
-52.18505859375
-45.7763671875
-48.52294921875
-42.1142578125
-43.9453125
-49.4384765625
-51.26953125
-54.931640625
-64.0869140625
-63.17138671875
-64.0869140625
-61.34033203125
-57.67822265625
-48.52294921875
-47.607421875
-50.35400390625
-58.59375
-57.67822265625
-63.17138671875
-64.0869140625
-59.50927734375
-54.931640625
-59.50927734375
-43.02978515625
-43.02978515625
-52.18505859375
-54.01611328125
-57.67822265625
-63.17138671875
-68.66455078125
-61.34033203125
-52.18505859375
-51.26953125
-45.7763671875
-44.86083984375
-51.26953125
-50.35400390625
-55.84716796875
-65.91796875
-65.00244140625
-58.59375
-52.18505859375
-49.4384765625
-41.19873046875
-43.9453125
-41.19873046875
-49.4384765625
-51.26953125
-63.17138671875
-62.255859375
-64.0869140625
-58.59375
-49.4384765625
-41.19873046875
-46.69189453125
-52.18505859375
-55.84716796875
-50.35400390625
-57.67822265625
-73.2421875
-66.83349609375
-55.84716796875
-60.4248046875
-60.4248046875
-63.17138671875
-56.7626953125
-64.0869140625
-72.32666015625
-79.65087890625
-75.0732421875
-67.7490234375
-69.580078125
-65.91796875
-53.1005859375
-65.00244140625
-70.49560546875
-78.7353515625
-80.56640625
-89.7216796875
-86.0595703125
-81.48193359375
-79.65087890625
-72.32666015625
-65.91796875
-65.00244140625
-67.7490234375
-75.98876953125
-72.32666015625
-84.228515625
-90.63720703125
-86.97509765625
-80.56640625
-75.0732421875
-65.91796875
-75.98876953125
-79.65087890625
-76.904296875
-80.56640625
-86.0595703125
-90.63720703125
-88.80615234375
-85.14404296875
-75.98876953125
-67.7490234375
-70.49560546875
-80.56640625
-85.14404296875
-87.890625
-97.0458984375
-96.13037109375
-90.63720703125
-92.46826171875
-86.0595703125
-75.98876953125
-77.81982421875
-79.65087890625
-79.65087890625
-77.81982421875
-87.890625
-88.80615234375
-94.29931640625
-87.890625
-86.97509765625
-85.14404296875
-86.0595703125
-87.890625
-93.3837890625
-96.13037109375
-100.7080078125
-101.62353515625
-97.0458984375
-97.0458984375
-90.63720703125
-82.3974609375
-84.228515625
-90.63720703125
-92.46826171875
-91.552734375
-98.876953125
-105.28564453125
-94.29931640625
-88.80615234375
-86.97509765625
-84.228515625
-86.97509765625
-95.21484375
-89.7216796875
-89.7216796875
-95.21484375
-99.79248046875
-92.46826171875
-90.63720703125
-86.0595703125
-78.7353515625
-79.65087890625
-84.228515625
-85.14404296875
-86.97509765625
-89.7216796875
-88.80615234375
-90.63720703125
-90.63720703125
-86.97509765625
-86.0595703125
-82.3974609375
-88.80615234375
-97.96142578125
-96.13037109375
-105.28564453125
-100.7080078125
-98.876953125
-101.62353515625
-94.29931640625
-86.97509765625
-84.228515625
-87.890625
-90.63720703125
-89.7216796875
-100.7080078125
-103.45458984375
-99.79248046875
-90.63720703125
-87.890625
-81.48193359375
-79.65087890625
-83.31298828125
-89.7216796875
-89.7216796875
-105.28564453125
-105.28564453125
-108.0322265625
-101.62353515625
-94.29931640625
-76.904296875
-78.7353515625
-75.0732421875
-80.56640625
-80.56640625
-86.0595703125
-90.63720703125
-84.228515625
-80.56640625
-86.0595703125
-83.31298828125
-85.14404296875
-88.80615234375
-77.81982421875
-59.50927734375
-50.35400390625
-36.62109375
-26.55029296875
-25.634765625
-31.1279296875
-26.55029296875
-40.283203125
-67.7490234375
-66.83349609375
-66.83349609375
-77.81982421875
-84.228515625
-80.56640625
-82.3974609375
-87.890625
-91.552734375
-79.65087890625
-76.904296875
-89.7216796875
-91.552734375
-93.3837890625
-99.79248046875
-103.45458984375
-103.45458984375
-100.7080078125
-98.876953125
-92.46826171875
-97.96142578125
-100.7080078125
-104.3701171875
-115.3564453125
-115.3564453125
-110.77880859375
-108.94775390625
-105.28564453125
-91.552734375
-87.890625
-95.21484375
-95.21484375
-98.876953125
-101.62353515625
-103.45458984375
-98.876953125
-97.0458984375
-91.552734375
-78.7353515625
-81.48193359375
-86.0595703125
-85.14404296875
-97.0458984375
-117.1875
-132.75146484375
-154.72412109375
-169.37255859375
-175.78125
-149.23095703125
-128.173828125
-103.45458984375
-53.1005859375
10.07080078125
94.29931640625
234.375
396.42333984375
543.8232421875
658.26416015625
778.1982421875
923.76708984375
1034.5458984375
1107.7880859375
1121.52099609375
1076.66015625
1035.46142578125
975.03662109375
812.98828125
522.76611328125
241.69921875
-8.23974609375
-105.28564453125
-100.7080078125
-93.3837890625
-81.48193359375
-65.00244140625
-42.1142578125
-28.38134765625
-31.1279296875
-32.958984375
-37.53662109375
-46.69189453125
-59.50927734375
-60.4248046875
-73.2421875
-75.98876953125
-71.4111328125
-75.98876953125
-77.81982421875
-71.4111328125
-69.580078125
-75.0732421875
-78.7353515625
-83.31298828125
-94.29931640625
-93.3837890625
-89.7216796875
-83.31298828125
-83.31298828125
-76.904296875
-75.0732421875
-77.81982421875
-78.7353515625
-80.56640625
-92.46826171875
-97.96142578125
-95.21484375
-85.14404296875
-88.80615234375
-77.81982421875
-75.98876953125
-75.98876953125
-76.904296875
-86.97509765625
-89.7216796875
-95.21484375
-85.14404296875
-84.228515625
-81.48193359375
-71.4111328125
-65.91796875
-74.15771484375
-86.97509765625
-84.228515625
-96.13037109375
-97.0458984375
-92.46826171875
-84.228515625
-80.56640625
-70.49560546875
-75.98876953125
-79.65087890625
-79.65087890625
-79.65087890625
-87.890625
-90.63720703125
-90.63720703125
-86.97509765625
-83.31298828125
-75.0732421875
-72.32666015625
-76.904296875
-76.904296875
-75.98876953125
-88.80615234375
-90.63720703125
-82.3974609375
-84.228515625
-82.3974609375
-75.0732421875
-74.15771484375
-82.3974609375
-85.14404296875
-82.3974609375
-86.97509765625
-89.7216796875
-80.56640625
-78.7353515625
-75.98876953125
-67.7490234375
-59.50927734375
-67.7490234375
-69.580078125
-70.49560546875
-78.7353515625
-83.31298828125
-83.31298828125
-75.98876953125
-70.49560546875
-65.00244140625
-67.7490234375
-67.7490234375
-69.580078125
-78.7353515625
-88.80615234375
-86.0595703125
-77.81982421875
-74.15771484375
-72.32666015625
-65.91796875
-58.59375
-66.83349609375
-66.83349609375
-69.580078125
-75.0732421875
-69.580078125
-72.32666015625
-65.00244140625
-59.50927734375
-51.26953125
-45.7763671875
-46.69189453125
-52.18505859375
-57.67822265625
-73.2421875
-72.32666015625
-64.0869140625
-61.34033203125
-58.59375
-43.02978515625
-43.02978515625
-51.26953125
-50.35400390625
-47.607421875
-54.931640625
-60.4248046875
-53.1005859375
-45.7763671875
-40.283203125
-36.62109375
-31.1279296875
-32.958984375
-32.958984375
-36.62109375
-41.19873046875
-45.7763671875
-32.958984375
-31.1279296875
-20.1416015625
-8.23974609375
-5.4931640625
-8.23974609375
-8.23974609375
-6.40869140625
-14.6484375
-21.97265625
-13.73291015625
-5.4931640625
-7.32421875
1.8310546875
-0.91552734375
-8.23974609375
-15.56396484375
-21.97265625
-32.04345703125
-37.53662109375
-31.1279296875
-25.634765625
-24.71923828125
-23.8037109375
-26.55029296875
-41.19873046875
-43.9453125
-44.86083984375
-56.7626953125
-66.83349609375
-61.34033203125
-61.34033203125
-57.67822265625
-53.1005859375
-54.01611328125
-59.50927734375
-59.50927734375
-65.91796875
-83.31298828125
-89.7216796875
-85.14404296875
-84.228515625
-80.56640625
-71.4111328125
-63.17138671875
-74.15771484375
-77.81982421875
-80.56640625
-91.552734375
-94.29931640625
-90.63720703125
-89.7216796875
-84.228515625
-75.0732421875
-72.32666015625
-82.3974609375
-84.228515625
-86.0595703125
-89.7216796875
-88.80615234375
-86.97509765625
-85.14404296875
-79.65087890625
-64.0869140625
-63.17138671875
-70.49560546875
-69.580078125
-74.15771484375
-78.7353515625
-78.7353515625
-71.4111328125
-70.49560546875
-67.7490234375
-55.84716796875
-58.59375
-61.34033203125
-70.49560546875
-71.4111328125
-77.81982421875
-78.7353515625
-73.2421875
-76.904296875
-74.15771484375
-62.255859375
-65.00244140625
-64.0869140625
-71.4111328125
-69.580078125
-76.904296875
-79.65087890625
-70.49560546875
-65.00244140625
-66.83349609375
-56.7626953125
-53.1005859375
-63.17138671875
-78.7353515625
-75.98876953125
-83.31298828125
-88.80615234375
-85.14404296875
-82.3974609375
-75.0732421875
-73.2421875
-74.15771484375
-81.48193359375
-79.65087890625
-84.228515625
-90.63720703125
-86.97509765625
-85.14404296875
-84.228515625
-85.14404296875
-68.66455078125
-71.4111328125
-75.0732421875
-80.56640625
-83.31298828125
-92.46826171875
-99.79248046875
-91.552734375
-86.0595703125
-82.3974609375
-81.48193359375
-78.7353515625
-82.3974609375
-83.31298828125
-84.228515625
-95.21484375
-99.79248046875
-86.0595703125
-95.21484375
-87.890625
-78.7353515625
-83.31298828125
-85.14404296875
-88.80615234375
-88.80615234375
-101.62353515625
-103.45458984375
-97.96142578125
-87.890625
-90.63720703125
-87.890625
-86.97509765625
-92.46826171875
-89.7216796875
-94.29931640625
-99.79248046875
-100.7080078125
-101.62353515625
-94.29931640625
-95.21484375
-86.0595703125
-85.14404296875
-83.31298828125
-91.552734375
-97.0458984375
-104.3701171875
-105.28564453125
-100.7080078125
-89.7216796875
-88.80615234375
-89.7216796875
-89.7216796875
-89.7216796875
-97.0458984375
-91.552734375
-97.96142578125
-107.11669921875
-102.5390625
-96.13037109375
-95.21484375
-83.31298828125
-80.56640625
-86.0595703125
-86.97509765625
-92.46826171875
-98.876953125
-99.79248046875
-97.96142578125
-95.21484375
-92.46826171875
-86.0595703125
-81.48193359375
-83.31298828125
-88.80615234375
-99.79248046875
-106.201171875
-105.28564453125
-101.62353515625
-97.96142578125
-92.46826171875
-88.80615234375
-86.97509765625
-92.46826171875
-91.552734375
-96.13037109375
-99.79248046875
-104.3701171875
-104.3701171875
-97.96142578125
-99.79248046875
-88.80615234375
-89.7216796875
-93.3837890625
-90.63720703125
-97.96142578125
-110.77880859375
-111.6943359375
-108.94775390625
-96.13037109375
-94.29931640625
-91.552734375
-88.80615234375
-95.21484375
-103.45458984375
-98.876953125
-110.77880859375
-110.77880859375
-105.28564453125
-98.876953125
-95.21484375
-89.7216796875
-87.890625
-90.63720703125
-97.96142578125
-102.5390625
-111.6943359375
-116.27197265625
-110.77880859375
-109.86328125
-103.45458984375
-94.29931640625
-91.552734375
-96.13037109375
-97.0458984375
-94.29931640625
-97.0458984375
-97.96142578125
-91.552734375
-89.7216796875
-95.21484375
-103.45458984375
-104.3701171875
-95.21484375
-88.80615234375
-67.7490234375
-53.1005859375
-47.607421875
-42.1142578125
-45.7763671875
-47.607421875
-43.9453125
-54.931640625
-64.0869140625
-73.2421875
-83.31298828125
-86.97509765625
-88.80615234375
-76.904296875
-87.890625
-104.3701171875
-108.94775390625
-91.552734375
-87.890625
-89.7216796875
-101.62353515625
-106.201171875
-113.525390625
-103.45458984375
-109.86328125
-108.0322265625
-103.45458984375
-103.45458984375
-105.28564453125
-104.3701171875
-114.44091796875
-121.76513671875
-120.849609375
-119.93408203125
-107.11669921875
-103.45458984375
-97.96142578125
-96.13037109375
-102.5390625
-103.45458984375
-104.3701171875
-110.77880859375
-109.86328125
-112.60986328125
-108.0322265625
-101.62353515625
-95.21484375
-86.97509765625
-83.31298828125
-91.552734375
-97.0458984375
-115.3564453125
-133.6669921875
-158.38623046875
-172.119140625
-181.2744140625
-154.72412109375
-126.3427734375
-97.0458984375
-56.7626953125
4.57763671875
97.0458984375
245.361328125
406.494140625
554.8095703125
678.40576171875
799.25537109375
935.6689453125
1047.36328125
1119.68994140625
1128.84521484375
1077.57568359375
1040.95458984375
969.54345703125
787.353515625
491.63818359375
205.99365234375
-38.4521484375
-119.93408203125
-113.525390625
-103.45458984375
-82.3974609375
-66.83349609375
-52.18505859375
-44.86083984375
-38.4521484375
-31.1279296875
-43.02978515625
-57.67822265625
-63.17138671875
-64.0869140625
-67.7490234375
-84.228515625
-94.29931640625
-84.228515625
-83.31298828125
-74.15771484375
-71.4111328125
-81.48193359375
-86.97509765625
-89.7216796875
-97.96142578125
-98.876953125
-88.80615234375
-87.890625
-90.63720703125
-83.31298828125
-80.56640625
-95.21484375
-93.3837890625
-87.890625
-97.0458984375
-105.28564453125
-105.28564453125
-94.29931640625
-93.3837890625
-90.63720703125
-80.56640625
-84.228515625
-86.0595703125
-96.13037109375
-103.45458984375
-98.876953125
-93.3837890625
-96.13037109375
-87.890625
-82.3974609375
-87.890625
-78.7353515625
-81.48193359375
-93.3837890625
-95.21484375
-97.96142578125
-88.80615234375
-86.0595703125
-86.97509765625
-82.3974609375
-81.48193359375
-86.0595703125
-84.228515625
-88.80615234375
-102.5390625
-93.3837890625
-99.79248046875
-94.29931640625
-87.890625
-86.97509765625
-86.0595703125
-91.552734375
-88.80615234375
-94.29931640625
-102.5390625
-101.62353515625
-98.876953125
-96.13037109375
-89.7216796875
-85.14404296875
-87.890625
-91.552734375
-94.29931640625
-95.21484375
-102.5390625
-108.94775390625
-109.86328125
-100.7080078125
-90.63720703125
-89.7216796875
-86.0595703125
-84.228515625
-75.0732421875
-86.97509765625
-86.0595703125
-88.80615234375
-90.63720703125
-78.7353515625
-75.0732421875
-75.0732421875
-74.15771484375
-73.2421875
-73.2421875
-78.7353515625
-80.56640625
-95.21484375
-88.80615234375
-90.63720703125
-79.65087890625
-68.66455078125
-69.580078125
-75.98876953125
-76.904296875
-77.81982421875
-91.552734375
-83.31298828125
-79.65087890625
-73.2421875
-71.4111328125
-69.580078125
-65.00244140625
-71.4111328125
-70.49560546875
-68.66455078125
-76.904296875
-78.7353515625
-76.904296875
-65.00244140625
-63.17138671875
-57.67822265625
-52.18505859375
-55.84716796875
-57.67822265625
-62.255859375
-69.580078125
-61.34033203125
-57.67822265625
-51.26953125
-43.9453125
-32.958984375
-31.1279296875
-32.958984375
-32.04345703125
-35.70556640625
-37.53662109375
-33.87451171875
-43.02978515625
-43.02978515625
-27.4658203125
-11.90185546875
-2.74658203125
-12.8173828125
-14.6484375
-5.4931640625
-9.1552734375
-12.8173828125
-13.73291015625
-5.4931640625
-11.90185546875
-1.8310546875
-2.74658203125
-12.8173828125
-17.39501953125
-22.88818359375
-32.958984375
-32.958984375
-44.86083984375
-36.62109375
-42.1142578125
-34.7900390625
-31.1279296875
-50.35400390625
-40.283203125
-44.86083984375
-62.255859375
-65.91796875
-65.00244140625
-62.255859375
-58.59375
-63.17138671875
-65.00244140625
-68.66455078125
-75.0732421875
-83.31298828125
-85.14404296875
-95.21484375
-90.63720703125
-89.7216796875
-85.14404296875
-75.0732421875
-71.4111328125
-80.56640625
-77.81982421875
-82.3974609375
-88.80615234375
-97.96142578125
-88.80615234375
-79.65087890625
-82.3974609375
-79.65087890625
-71.4111328125
-82.3974609375
-77.81982421875
-85.14404296875
-90.63720703125
-86.97509765625
-85.14404296875
-87.890625
-77.81982421875
-65.00244140625
-71.4111328125
-72.32666015625
-75.98876953125
-86.0595703125
-95.21484375
-104.3701171875
-95.21484375
-92.46826171875
-85.14404296875
-74.15771484375
-71.4111328125
-74.15771484375
-75.98876953125
-80.56640625
-94.29931640625
-97.0458984375
-86.97509765625
-79.65087890625
-80.56640625
-75.0732421875
-73.2421875
-76.904296875
-78.7353515625
-75.0732421875
-73.2421875
-82.3974609375
-80.56640625
-83.31298828125
-76.904296875
-71.4111328125
-67.7490234375
-81.48193359375
-76.904296875
-74.15771484375
-90.63720703125
-89.7216796875
-77.81982421875
-78.7353515625
-73.2421875
-73.2421875
-72.32666015625
-73.2421875
-73.2421875
-85.14404296875
-92.46826171875
-98.876953125
-92.46826171875
-86.0595703125
-86.0595703125
-78.7353515625
-76.904296875
-79.65087890625
-81.48193359375
-85.14404296875
-93.3837890625
-105.28564453125
-94.29931640625
-92.46826171875
-95.21484375
-86.0595703125
-88.80615234375
-92.46826171875
-81.48193359375
-93.3837890625
-102.5390625
-93.3837890625
-95.21484375
-89.7216796875
-85.14404296875
-90.63720703125
-92.46826171875
-90.63720703125
-92.46826171875
-86.97509765625
-97.96142578125
-98.876953125
-102.5390625
-97.96142578125
-90.63720703125
-76.904296875
-81.48193359375
-90.63720703125
-86.97509765625
-88.80615234375
-98.876953125
-103.45458984375
-98.876953125
-97.0458984375
-86.0595703125
-79.65087890625
-81.48193359375
-86.0595703125
-91.552734375
-97.0458984375
-99.79248046875
-101.62353515625
-98.876953125
-96.13037109375
-90.63720703125
-92.46826171875
-92.46826171875
-86.0595703125
-83.31298828125
-84.228515625
-98.876953125
-103.45458984375
-112.60986328125
-98.876953125
-95.21484375
-83.31298828125
-82.3974609375
-81.48193359375
-84.228515625
-81.48193359375
-90.63720703125
-92.46826171875
-93.3837890625
-89.7216796875
-96.13037109375
-83.31298828125
-86.0595703125
-90.63720703125
-86.97509765625
-87.890625
-92.46826171875
-89.7216796875
-88.80615234375
-93.3837890625
-87.890625
-86.97509765625
-82.3974609375
-80.56640625
-86.0595703125
-94.29931640625
-91.552734375
-98.876953125
-89.7216796875
-87.890625
-93.3837890625
-87.890625
-89.7216796875
-81.48193359375
-83.31298828125
-90.63720703125
-93.3837890625
-97.96142578125
-93.3837890625
-80.56640625
-77.81982421875
-76.904296875
-75.0732421875
-78.7353515625
-76.904296875
-79.65087890625
-92.46826171875
-94.29931640625
-87.890625
-86.0595703125
-82.3974609375
-73.2421875
-65.91796875
-72.32666015625
-73.2421875
-70.49560546875
-76.904296875
-75.0732421875
-74.15771484375
-71.4111328125
-71.4111328125
-71.4111328125
-67.7490234375
-60.4248046875
-51.26953125
-33.87451171875
-26.55029296875
-27.4658203125
-25.634765625
-34.7900390625
-43.02978515625
-42.1142578125
-49.4384765625
-55.84716796875
-65.91796875
-64.0869140625
-71.4111328125
-74.15771484375
-86.0595703125
-93.3837890625
-89.7216796875
-85.14404296875
-76.904296875
-78.7353515625
-81.48193359375
-79.65087890625
-84.228515625
-89.7216796875
-97.0458984375
-93.3837890625
-91.552734375
-81.48193359375
-83.31298828125
-88.80615234375
-91.552734375
-89.7216796875
-99.79248046875
-101.62353515625
-101.62353515625
-97.96142578125
-88.80615234375
-81.48193359375
-86.97509765625
-94.29931640625
-90.63720703125
-88.80615234375
-95.21484375
-101.62353515625
-91.552734375
-83.31298828125
-86.97509765625
-76.904296875
-68.66455078125
-75.0732421875
-77.81982421875
-84.228515625
-117.1875
-151.9775390625
-164.794921875
-165.71044921875
-143.73779296875
-107.11669921875
-65.00244140625
-14.6484375
46.69189453125
145.56884765625
286.56005859375
451.35498046875
589.599609375
692.138671875
808.41064453125
942.9931640625
1034.5458984375
1094.05517578125
1117.85888671875
1086.73095703125
1038.2080078125
965.88134765625
775.45166015625
474.2431640625
210.5712890625
-1.8310546875
-75.0732421875
-87.890625
-90.63720703125
-86.0595703125
-75.0732421875
-54.931640625
-38.4521484375
-30.21240234375
-27.4658203125
-28.38134765625
-34.7900390625
-46.69189453125
-59.50927734375
-63.17138671875
-68.66455078125
-75.98876953125
-80.56640625
-72.32666015625
-71.4111328125
-71.4111328125
-72.32666015625
-72.32666015625
-80.56640625
-75.98876953125
-80.56640625
-86.0595703125
-84.228515625
-89.7216796875
-81.48193359375
-73.2421875
-73.2421875
-73.2421875
-76.904296875
-77.81982421875
-87.890625
-92.46826171875
-85.14404296875
-75.98876953125
-75.98876953125
-66.83349609375
-69.580078125
-70.49560546875
-74.15771484375
-77.81982421875
-82.3974609375
-82.3974609375
-77.81982421875
-73.2421875
-71.4111328125
-67.7490234375
-67.7490234375
-71.4111328125
-77.81982421875
-78.7353515625
-84.228515625
-86.0595703125
-85.14404296875
-86.0595703125
-82.3974609375
-74.15771484375
-74.15771484375
-75.98876953125
-77.81982421875
-86.0595703125
-96.13037109375
-89.7216796875
-86.0595703125
-76.904296875
-77.81982421875
-78.7353515625
-74.15771484375
-78.7353515625
-79.65087890625
-81.48193359375
-88.80615234375
-89.7216796875
-86.0595703125
-82.3974609375
-78.7353515625
-71.4111328125
-71.4111328125
-76.904296875
-78.7353515625
-89.7216796875
-93.3837890625
-93.3837890625
-90.63720703125
-86.0595703125
-87.890625
-80.56640625
-75.0732421875
-75.98876953125
-81.48193359375
-81.48193359375
-86.0595703125
-87.890625
-82.3974609375
-81.48193359375
-85.14404296875
-79.65087890625
-80.56640625
-82.3974609375
-78.7353515625
-80.56640625
-89.7216796875
-87.890625
-86.0595703125
-88.80615234375
-86.0595703125
-76.904296875
-72.32666015625
-74.15771484375
-75.98876953125
-80.56640625
-87.890625
-92.46826171875
-87.890625
-78.7353515625
-81.48193359375
-68.66455078125
-57.67822265625
-62.255859375
-65.91796875
-68.66455078125
-75.98876953125
-79.65087890625
-73.2421875
-73.2421875
-74.15771484375
-66.83349609375
-63.17138671875
-68.66455078125
-68.66455078125
-63.17138671875
-64.0869140625
-68.66455078125
-72.32666015625
-67.7490234375
-50.35400390625
-45.7763671875
-42.1142578125
-37.53662109375
-53.1005859375
-51.26953125
-49.4384765625
-55.84716796875
-51.26953125
-41.19873046875
-38.4521484375
-27.4658203125
-21.05712890625
-25.634765625
-27.4658203125
-21.05712890625
-29.296875
-33.87451171875
-32.04345703125
-22.88818359375
-18.310546875
-10.986328125
-10.986328125
-12.8173828125
-21.05712890625
-23.8037109375
-36.62109375
-41.19873046875
-40.283203125
-37.53662109375
-34.7900390625
-33.87451171875
-42.1142578125
-48.52294921875
-51.26953125
-55.84716796875
-66.83349609375
-76.904296875
-74.15771484375
-71.4111328125
-68.66455078125
-56.7626953125
-61.34033203125
-65.91796875
-66.83349609375
-65.91796875
-76.904296875
-84.228515625
-77.81982421875
-74.15771484375
-76.904296875
-75.0732421875
-67.7490234375
-71.4111328125
-68.66455078125
-75.0732421875
-79.65087890625
-80.56640625
-81.48193359375
-87.890625
-79.65087890625
-66.83349609375
-73.2421875
-72.32666015625
-66.83349609375
-65.91796875
-77.81982421875
-82.3974609375
-71.4111328125
-68.66455078125
-70.49560546875
-63.17138671875
-65.00244140625
-59.50927734375
-65.91796875
-71.4111328125
-78.7353515625
-81.48193359375
-73.2421875
-67.7490234375
-65.91796875
-59.50927734375
-59.50927734375
-62.255859375
-65.00244140625
-61.34033203125
-66.83349609375
-74.15771484375
-74.15771484375
-73.2421875
-69.580078125
-62.255859375
-59.50927734375
-64.0869140625
-60.4248046875
-64.0869140625
-66.83349609375
-69.580078125
-67.7490234375
-72.32666015625
-72.32666015625
-67.7490234375
-63.17138671875
-65.91796875
-65.00244140625
-72.32666015625
-76.904296875
-79.65087890625
-72.32666015625
-66.83349609375
-74.15771484375
-65.00244140625
-64.0869140625
-72.32666015625
-76.904296875
-79.65087890625
-83.31298828125
-88.80615234375
-88.80615234375
-82.3974609375
-76.904296875
-69.580078125
-72.32666015625
-76.904296875
-76.904296875
-86.0595703125
-91.552734375
-91.552734375
-89.7216796875
-83.31298828125
-82.3974609375
-80.56640625
-81.48193359375
-83.31298828125
-83.31298828125
-83.31298828125
-94.29931640625
-95.21484375
-97.0458984375
-89.7216796875
-83.31298828125
-79.65087890625
-80.56640625
-78.7353515625
-81.48193359375
-82.3974609375
-91.552734375
-78.7353515625
-81.48193359375
-87.890625
-86.0595703125
-79.65087890625
-80.56640625
-91.552734375
-89.7216796875
-90.63720703125
-97.0458984375
-98.876953125
-95.21484375
-95.21484375
-92.46826171875
-80.56640625
-89.7216796875
-91.552734375
-88.80615234375
-93.3837890625
-94.29931640625
-101.62353515625
-92.46826171875
-86.97509765625
-87.890625
-83.31298828125
-81.48193359375
-90.63720703125
-88.80615234375
-86.97509765625
-102.5390625
-105.28564453125
-98.876953125
-93.3837890625
-92.46826171875
-86.97509765625
-89.7216796875
-94.29931640625
-92.46826171875
-92.46826171875
-99.79248046875
-95.21484375
-93.3837890625
-86.97509765625
-84.228515625
-79.65087890625
-78.7353515625
-80.56640625
-87.890625
-86.0595703125
-97.96142578125
-105.28564453125
-98.876953125
-95.21484375
-95.21484375
-86.0595703125
-83.31298828125
-87.890625
-86.0595703125
-90.63720703125
-95.21484375
-99.79248046875
-101.62353515625
-97.96142578125
-87.890625
-85.14404296875
-90.63720703125
-96.13037109375
-91.552734375
-88.80615234375
-98.876953125
-108.94775390625
-100.7080078125
-95.21484375
-86.0595703125
-82.3974609375
-84.228515625
-88.80615234375
-86.0595703125
-86.0595703125
-97.96142578125
-100.7080078125
-93.3837890625
-88.80615234375
-98.876953125
-97.96142578125
-89.7216796875
-86.0595703125
-86.0595703125
-84.228515625
-86.97509765625
-86.0595703125
-81.48193359375
-70.49560546875
-68.66455078125
-69.580078125
-65.00244140625
-75.0732421875
-76.904296875
-78.7353515625
-78.7353515625
-65.00244140625
-46.69189453125
-26.55029296875
-21.97265625
-26.55029296875
-33.87451171875
-32.04345703125
-43.9453125
-52.18505859375
-67.7490234375
-79.65087890625
-74.15771484375
-70.49560546875
-68.66455078125
-69.580078125
-80.56640625
-99.79248046875
-93.3837890625
-87.890625
-97.96142578125
-101.62353515625
-94.29931640625
-95.21484375
-97.0458984375
-84.228515625
-90.63720703125
-86.97509765625
-94.29931640625
-97.96142578125
-109.86328125
-111.6943359375
-103.45458984375
-100.7080078125
-105.28564453125
-97.96142578125
-93.3837890625
-90.63720703125
-94.29931640625
-97.0458984375
-106.201171875
-106.201171875
-104.3701171875
-95.21484375
-86.97509765625
-82.3974609375
-81.48193359375
-83.31298828125
-90.63720703125
-86.0595703125
-95.21484375
-99.79248046875
-103.45458984375
-111.6943359375
-139.16015625
-155.6396484375
-166.6259765625
-158.38623046875
-129.08935546875
-93.3837890625
-61.34033203125
-5.4931640625
86.0595703125
223.388671875
382.6904296875
537.41455078125
664.6728515625
768.12744140625
899.96337890625
1036.376953125
1106.87255859375
1127.01416015625
1098.6328125
1064.75830078125
996.09375
855.1025390625
574.951171875
274.658203125
9.1552734375
-103.45458984375
-109.86328125
-97.0458984375
-66.83349609375
-43.02978515625
-29.296875
-10.986328125
-12.8173828125
-17.39501953125
-27.4658203125
-38.4521484375
-59.50927734375
-62.255859375
-65.00244140625
-66.83349609375
-62.255859375
-61.34033203125
-61.34033203125
-60.4248046875
-65.91796875
-77.81982421875
-84.228515625
-81.48193359375
-82.3974609375
-76.904296875
-73.2421875
-70.49560546875
-65.00244140625
-73.2421875
-71.4111328125
-69.580078125
-73.2421875
-76.904296875
-77.81982421875
-82.3974609375
-79.65087890625
-74.15771484375
-75.0732421875
-75.0732421875
-75.98876953125
-73.2421875
-86.0595703125
-94.29931640625
-86.97509765625
-75.98876953125
-71.4111328125
-69.580078125
-65.00244140625
-72.32666015625
-75.0732421875
-76.904296875
-87.890625
-86.97509765625
-83.31298828125
-85.14404296875
-79.65087890625
-74.15771484375
-75.98876953125
-74.15771484375
-78.7353515625
-79.65087890625
-84.228515625
-86.97509765625
-83.31298828125
-76.904296875
-84.228515625
-82.3974609375
-79.65087890625
-81.48193359375
-82.3974609375
-82.3974609375
-85.14404296875
-82.3974609375
-77.81982421875
-72.32666015625
-74.15771484375
-68.66455078125
-71.4111328125
-75.0732421875
-78.7353515625
-75.0732421875
-77.81982421875
-81.48193359375
-78.7353515625
-82.3974609375
-79.65087890625
-72.32666015625
-77.81982421875
-77.81982421875
-72.32666015625
-68.66455078125
-84.228515625
-89.7216796875
-82.3974609375
-77.81982421875
-75.0732421875
-74.15771484375
-66.83349609375
