ECG
-10.986328125
-3.662109375
7.32421875
14.6484375
33.87451171875
53.1005859375
41.19873046875
29.296875
30.21240234375
35.70556640625
19.22607421875
12.8173828125
18.310546875
17.39501953125
15.56396484375
13.73291015625
-0.91552734375
-11.90185546875
-14.6484375
-14.6484375
-29.296875
-43.02978515625
-41.19873046875
-37.53662109375
-48.52294921875
-42.1142578125
-47.607421875
-54.01611328125
-54.931640625
-61.34033203125
-69.580078125
-68.66455078125
-66.83349609375
-65.91796875
-70.49560546875
-58.59375
-52.18505859375
-56.7626953125
-58.59375
-65.91796875
-70.49560546875
-73.2421875
-62.255859375
-64.0869140625
-63.17138671875
-60.4248046875
-62.255859375
-62.255859375
-66.83349609375
-75.98876953125
-72.32666015625
-68.66455078125
-66.83349609375
-61.34033203125
-59.50927734375
-43.9453125
-55.84716796875
-63.17138671875
-64.0869140625
-66.83349609375
-83.31298828125
-90.63720703125
-110.77880859375
-128.173828125
-127.25830078125
-113.525390625
-104.3701171875
-71.4111328125
-31.1279296875
32.958984375
102.5390625
213.31787109375
379.94384765625
535.58349609375
663.75732421875
777.28271484375
912.78076171875
1038.2080078125
1116.02783203125
1163.63525390625
1125.18310546875
1085.8154296875
1038.2080078125
917.3583984375
652.77099609375
361.63330078125
97.96142578125
-56.7626953125
-75.0732421875
-67.7490234375
-53.1005859375
-26.55029296875
-11.90185546875
-1.8310546875
3.662109375
6.40869140625
6.40869140625
-3.662109375
-18.310546875
-25.634765625
-41.19873046875
-42.1142578125
-46.69189453125
-43.9453125
-43.02978515625
-40.283203125
-43.02978515625
-49.4384765625
-52.18505859375
-51.26953125
-57.67822265625
-61.34033203125
-60.4248046875
-60.4248046875
-54.931640625
-53.1005859375
-45.7763671875
-55.84716796875
-56.7626953125
-57.67822265625
-65.00244140625
-63.17138671875
-52.18505859375
-54.01611328125
-38.4521484375
-40.283203125
-43.9453125
-41.19873046875
-52.18505859375
-54.01611328125
-62.255859375
-60.4248046875
-53.1005859375
-57.67822265625
-54.01611328125
-52.18505859375
-47.607421875
-44.86083984375
-52.18505859375
-55.84716796875
-65.00244140625
-67.7490234375
-58.59375
-54.931640625
-51.26953125
-34.7900390625
-35.70556640625
-43.9453125
-40.283203125
-52.18505859375
-63.17138671875
-62.255859375
-56.7626953125
-54.931640625
-45.7763671875
-41.19873046875
-39.36767578125
-40.283203125
-52.18505859375
-62.255859375
-71.4111328125
-64.0869140625
-57.67822265625
-51.26953125
-46.69189453125
-37.53662109375
-40.283203125
-48.52294921875
-53.1005859375
-52.18505859375
-57.67822265625
-58.59375
-56.7626953125
-52.18505859375
-53.1005859375
-41.19873046875
-40.283203125
-43.9453125
-41.19873046875
-54.01611328125
-60.4248046875
-58.59375
-54.01611328125
-44.86083984375
-42.1142578125
-35.70556640625
-33.87451171875
-32.04345703125
-42.1142578125
-32.958984375
-41.19873046875
-33.87451171875
-26.55029296875
-29.296875
-26.55029296875
-27.4658203125
-32.958984375
-40.283203125
-38.4521484375
-38.4521484375
-40.283203125
-36.62109375
-37.53662109375
-31.1279296875
-23.8037109375
-13.73291015625
-14.6484375
-22.88818359375
-27.4658203125
-18.310546875
-34.7900390625
-38.4521484375
-31.1279296875
-26.55029296875
-21.05712890625
-7.32421875
-15.56396484375
-18.310546875
-15.56396484375
-19.22607421875
-26.55029296875
-22.88818359375
-12.8173828125
-3.662109375
-4.57763671875
8.23974609375
13.73291015625
6.40869140625
7.32421875
0.91552734375
-7.32421875
3.662109375
9.1552734375
7.32421875
12.8173828125
17.39501953125
29.296875
25.634765625
21.05712890625
34.7900390625
26.55029296875
22.88818359375
31.1279296875
32.04345703125
36.62109375
43.9453125
40.283203125
35.70556640625
28.38134765625
24.71923828125
18.310546875
16.4794921875
23.8037109375
18.310546875
23.8037109375
32.04345703125
28.38134765625
21.05712890625
14.6484375
-2.74658203125
-17.39501953125
-14.6484375
-10.986328125
-13.73291015625
-17.39501953125
-1.8310546875
-2.74658203125
-12.8173828125
-11.90185546875
-16.4794921875
-27.4658203125
-25.634765625
-19.22607421875
-25.634765625
-26.55029296875
-23.8037109375
-22.88818359375
-22.88818359375
-25.634765625
-28.38134765625
-39.36767578125
-45.7763671875
-40.283203125
-34.7900390625
-32.04345703125
-26.55029296875
-24.71923828125
-30.21240234375
-37.53662109375
-32.958984375
-41.19873046875
-46.69189453125
-42.1142578125
-38.4521484375
-36.62109375
-27.4658203125
-23.8037109375
-24.71923828125
-27.4658203125
-28.38134765625
-30.21240234375
-35.70556640625
-33.87451171875
-30.21240234375
-21.05712890625
-18.310546875
-26.55029296875
-20.1416015625
-15.56396484375
-21.97265625
-27.4658203125
-36.62109375
-34.7900390625
-22.88818359375
-17.39501953125
-12.8173828125
-11.90185546875
-13.73291015625
-10.986328125
-19.22607421875
-27.4658203125
-24.71923828125
-16.4794921875
-17.39501953125
-21.97265625
-21.05712890625
-18.310546875
-23.8037109375
-32.958984375
-25.634765625
-36.62109375
-46.69189453125
-33.87451171875
-26.55029296875
-30.21240234375
-17.39501953125
-14.6484375
-19.22607421875
-27.4658203125
-26.55029296875
-32.958984375
-38.4521484375
-38.4521484375
-38.4521484375
-29.296875
-28.38134765625
-28.38134765625
-28.38134765625
-27.4658203125
-27.4658203125
-41.19873046875
-45.7763671875
-40.283203125
-35.70556640625
-34.7900390625
-22.88818359375
-22.88818359375
-34.7900390625
-30.21240234375
-29.296875
-42.1142578125
-45.7763671875
-39.36767578125
-35.70556640625
-36.62109375
-30.21240234375
-32.958984375
-29.296875
-24.71923828125
-32.958984375
-42.1142578125
-43.02978515625
-35.70556640625
-33.87451171875
-32.04345703125
-23.8037109375
-29.296875
-32.04345703125
-30.21240234375
-41.19873046875
-53.1005859375
-52.18505859375
-54.931640625
-48.52294921875
-42.1142578125
-40.283203125
-43.02978515625
-45.7763671875
-47.607421875
-51.26953125
-53.1005859375
-58.59375
-58.59375
-54.01611328125
-51.26953125
-42.1142578125
-38.4521484375
-32.04345703125
-37.53662109375
-43.02978515625
-49.4384765625
-53.1005859375
-41.19873046875
-38.4521484375
-37.53662109375
-26.55029296875
-32.04345703125
-29.296875
-40.283203125
-49.4384765625
-53.1005859375
-54.931640625
-46.69189453125
-49.4384765625
-44.86083984375
-37.53662109375
-37.53662109375
-38.4521484375
-49.4384765625
-48.52294921875
-56.7626953125
-65.91796875
-54.01611328125
-48.52294921875
-45.7763671875
-35.70556640625
-32.958984375
-35.70556640625
-44.86083984375
-44.86083984375
-50.35400390625
-57.67822265625
-55.84716796875
-49.4384765625
-42.1142578125
-42.1142578125
-37.53662109375
-39.36767578125
-47.607421875
-45.7763671875
-48.52294921875
-54.931640625
-55.84716796875
-47.607421875
-44.86083984375
-43.02978515625
-42.1142578125
-47.607421875
-46.69189453125
-48.52294921875
-56.7626953125
-58.59375
-55.84716796875
-46.69189453125
-45.7763671875
-45.7763671875
-36.62109375
-31.1279296875
-34.7900390625
-34.7900390625
-41.19873046875
-43.9453125
-32.958984375
-23.8037109375
-18.310546875
-13.73291015625
-10.986328125
-10.07080078125
-4.57763671875
8.23974609375
11.90185546875
17.39501953125
31.1279296875
30.21240234375
33.87451171875
37.53662109375
34.7900390625
28.38134765625
17.39501953125
3.662109375
-4.57763671875
-7.32421875
-7.32421875
-16.4794921875
-24.71923828125
-22.88818359375
-16.4794921875
-18.310546875
-30.21240234375
-39.36767578125
-43.02978515625
-58.59375
-63.17138671875
-53.1005859375
-48.52294921875
-46.69189453125
-47.607421875
-51.26953125
-47.607421875
-54.01611328125
-57.67822265625
-63.17138671875
-61.34033203125
-59.50927734375
-60.4248046875
-49.4384765625
-44.86083984375
-46.69189453125
-50.35400390625
-60.4248046875
-68.66455078125
-74.15771484375
-71.4111328125
-56.7626953125
-51.26953125
-47.607421875
-43.9453125
-43.02978515625
-45.7763671875
-51.26953125
-54.01611328125
-57.67822265625
-54.01611328125
-56.7626953125
-58.59375
-75.0732421875
-97.0458984375
-113.525390625
-126.3427734375
-109.86328125
-76.904296875
-45.7763671875
0.91552734375
77.81982421875
184.02099609375
336.9140625
507.2021484375
630.79833984375
730.5908203125
841.36962890625
960.38818359375
1046.44775390625
1115.1123046875
1140.7470703125
1107.7880859375
1069.3359375
996.09375
783.69140625
476.98974609375
202.33154296875
-6.40869140625
-70.49560546875
-74.15771484375
-69.580078125
-47.607421875
-15.56396484375
6.40869140625
12.8173828125
4.57763671875
-1.8310546875
-10.07080078125
-18.310546875
-26.55029296875
-26.55029296875
-24.71923828125
-23.8037109375
-18.310546875
-21.05712890625
-29.296875
-36.62109375
-40.283203125
-46.69189453125
-48.52294921875
-47.607421875
-40.283203125
-32.958984375
-32.04345703125
-33.87451171875
-43.02978515625
-41.19873046875
-45.7763671875
-55.84716796875
-52.18505859375
-48.52294921875
-54.01611328125
-47.607421875
-44.86083984375
-45.7763671875
-46.69189453125
-52.18505859375
-54.01611328125
-65.91796875
-54.01611328125
-47.607421875
-43.9453125
-32.04345703125
-27.4658203125
-33.87451171875
-37.53662109375
-42.1142578125
-43.02978515625
-53.1005859375
-47.607421875
-50.35400390625
-45.7763671875
-43.02978515625
-36.62109375
-28.38134765625
-40.283203125
-45.7763671875
-48.52294921875
-53.1005859375
-52.18505859375
-43.9453125
-44.86083984375
-31.1279296875
-25.634765625
-26.55029296875
-35.70556640625
-34.7900390625
-32.958984375
-43.02978515625
-47.607421875
-48.52294921875
-44.86083984375
-39.36767578125
-36.62109375
-37.53662109375
-33.87451171875
-40.283203125
-48.52294921875
-57.67822265625
-60.4248046875
-49.4384765625
-43.9453125
-34.7900390625
-26.55029296875
-35.70556640625
-37.53662109375
-43.9453125
-39.36767578125
-49.4384765625
-46.69189453125
-44.86083984375
-33.87451171875
-20.1416015625
-18.310546875
-16.4794921875
-26.55029296875
-31.1279296875
-36.62109375
-47.607421875
-44.86083984375
-33.87451171875
-28.38134765625
-23.8037109375
-17.39501953125
-19.22607421875
-23.8037109375
-24.71923828125
-30.21240234375
-38.4521484375
-31.1279296875
-31.1279296875
-25.634765625
-22.88818359375
-19.22607421875
-18.310546875
-22.88818359375
-25.634765625
-32.04345703125
-41.19873046875
-34.7900390625
-32.04345703125
-23.8037109375
-15.56396484375
-13.73291015625
-16.4794921875
-17.39501953125
-19.22607421875
-21.05712890625
-30.21240234375
-26.55029296875
-15.56396484375
-11.90185546875
-9.1552734375
0
-3.662109375
-1.8310546875
-2.74658203125
-3.662109375
-11.90185546875
-11.90185546875
-12.8173828125
-4.57763671875
7.32421875
13.73291015625
14.6484375
15.56396484375
15.56396484375
7.32421875
-2.74658203125
10.986328125
21.97265625
28.38134765625
29.296875
33.87451171875
33.87451171875
36.62109375
33.87451171875
29.296875
18.310546875
15.56396484375
21.97265625
24.71923828125
23.8037109375
21.05712890625
15.56396484375
9.1552734375
18.310546875
9.1552734375
-6.40869140625
-12.8173828125
-7.32421875
-0.91552734375
-6.40869140625
0.91552734375
0
-4.57763671875
-7.32421875
-19.22607421875
-33.87451171875
-32.958984375
-31.1279296875
-33.87451171875
-32.04345703125
-16.4794921875
-17.39501953125
-19.22607421875
-21.97265625
-26.55029296875
-35.70556640625
-36.62109375
-38.4521484375
-36.62109375
-34.7900390625
-29.296875
-27.4658203125
-28.38134765625
-29.296875
-30.21240234375
-34.7900390625
-37.53662109375
-26.55029296875
-26.55029296875
-18.310546875
-7.32421875
-14.6484375
-23.8037109375
-25.634765625
-21.97265625
-32.958984375
-32.958984375
-35.70556640625
-33.87451171875
-19.22607421875
-12.8173828125
-18.310546875
-15.56396484375
-17.39501953125
-24.71923828125
-34.7900390625
-29.296875
-23.8037109375
-23.8037109375
-12.8173828125
-13.73291015625
-15.56396484375
-20.1416015625
-24.71923828125
-22.88818359375
-29.296875
-29.296875
-22.88818359375
-19.22607421875
-11.90185546875
-5.4931640625
-6.40869140625
-13.73291015625
-21.05712890625
-26.55029296875
-40.283203125
-41.19873046875
-39.36767578125
-33.87451171875
-28.38134765625
-21.05712890625
-16.4794921875
-21.05712890625
-32.04345703125
-32.958984375
-37.53662109375
-43.02978515625
-38.4521484375
-35.70556640625
-29.296875
-21.05712890625
-25.634765625
-24.71923828125
-27.4658203125
-31.1279296875
-46.69189453125
-51.26953125
-40.283203125
-34.7900390625
-35.70556640625
-32.04345703125
-28.38134765625
-36.62109375
-32.04345703125
-32.04345703125
-51.26953125
-42.1142578125
-35.70556640625
-32.04345703125
-27.4658203125
-29.296875
-30.21240234375
-32.958984375
-40.283203125
-48.52294921875
-58.59375
-56.7626953125
-50.35400390625
-46.69189453125
-39.36767578125
-37.53662109375
-35.70556640625
-46.69189453125
-44.86083984375
-47.607421875
-54.931640625
-57.67822265625
-48.52294921875
-49.4384765625
-40.283203125
-32.958984375
-27.4658203125
-36.62109375
-40.283203125
-45.7763671875
-62.255859375
-56.7626953125
-50.35400390625
-54.01611328125
-52.18505859375
-41.19873046875
-49.4384765625
-54.01611328125
-51.26953125
-54.931640625
-65.00244140625
-64.0869140625
-54.01611328125
-53.1005859375
-49.4384765625
-43.02978515625
-43.02978515625
-49.4384765625
-54.01611328125
-53.1005859375
-62.255859375
-68.66455078125
-55.84716796875
-50.35400390625
-47.607421875
-43.02978515625
-35.70556640625
-41.19873046875
-44.86083984375
-55.84716796875
-58.59375
-59.50927734375
-58.59375
-54.01611328125
-48.52294921875
-38.4521484375
-37.53662109375
-43.02978515625
-46.69189453125
-49.4384765625
-59.50927734375
-58.59375
-52.18505859375
-52.18505859375
-44.86083984375
-39.36767578125
-46.69189453125
-46.69189453125
-52.18505859375
-57.67822265625
-67.7490234375
-71.4111328125
-59.50927734375
-54.01611328125
-53.1005859375
-40.283203125
-41.19873046875
-44.86083984375
-50.35400390625
-56.7626953125
-66.83349609375
-67.7490234375
-62.255859375
-59.50927734375
-47.607421875
-41.19873046875
-45.7763671875
-43.02978515625
-45.7763671875
-56.7626953125
-64.0869140625
-67.7490234375
-57.67822265625
-54.01611328125
-54.931640625
-46.69189453125
-38.4521484375
-43.9453125
-45.7763671875
-52.18505859375
-63.17138671875
-57.67822265625
-58.59375
-55.84716796875
-54.01611328125
-47.607421875
-45.7763671875
-35.70556640625
-44.86083984375
-51.26953125
-63.17138671875
-67.7490234375
-63.17138671875
-53.1005859375
-43.02978515625
-34.7900390625
-31.1279296875
-38.4521484375
-43.9453125
-47.607421875
-54.01611328125
-44.86083984375
-37.53662109375
-27.4658203125
-21.05712890625
-8.23974609375
0.91552734375
5.4931640625
20.1416015625
25.634765625
15.56396484375
21.97265625
22.88818359375
29.296875
40.283203125
36.62109375
31.1279296875
20.1416015625
15.56396484375
10.07080078125
-8.23974609375
-25.634765625
-32.04345703125
-27.4658203125
-20.1416015625
-14.6484375
-25.634765625
-32.04345703125
-40.283203125
-51.26953125
-64.0869140625
-63.17138671875
-67.7490234375
-70.49560546875
-64.0869140625
-53.1005859375
-52.18505859375
-60.4248046875
-62.255859375
-61.34033203125
-67.7490234375
-68.66455078125
-64.0869140625
-64.0869140625
-64.0869140625
-56.7626953125
-64.0869140625
-73.2421875
-78.7353515625
-82.3974609375
-86.97509765625
-81.48193359375
-75.98876953125
-75.0732421875
-69.580078125
-62.255859375
-59.50927734375
-55.84716796875
-56.7626953125
-63.17138671875
-75.98876953125
-77.81982421875
-76.904296875
-77.81982421875
-75.98876953125
-83.31298828125
-108.0322265625
-130.0048828125
-140.9912109375
-138.24462890625
-121.76513671875
-89.7216796875
-44.86083984375
10.07080078125
88.80615234375
207.82470703125
357.0556640625
504.45556640625
628.96728515625
736.083984375
863.34228515625
997.9248046875
1096.8017578125
1155.3955078125
1128.84521484375
1094.970703125
1042.78564453125
939.3310546875
676.57470703125
371.7041015625
86.97509765625
-80.56640625
-94.29931640625
-75.98876953125
-51.26953125
-17.39501953125
-4.57763671875
2.74658203125
3.662109375
-0.91552734375
-22.88818359375
-31.1279296875
-33.87451171875
-39.36767578125
-43.9453125
-42.1142578125
-51.26953125
-55.84716796875
-58.59375
-61.34033203125
-67.7490234375
-75.0732421875
-67.7490234375
-66.83349609375
-68.66455078125
-56.7626953125
-51.26953125
-54.01611328125
-65.00244140625
-64.0869140625
-68.66455078125
-78.7353515625
-69.580078125
-57.67822265625
-59.50927734375
-49.4384765625
-46.69189453125
-58.59375
-55.84716796875
-63.17138671875
-67.7490234375
-71.4111328125
-65.91796875
-63.17138671875
-62.255859375
-60.4248046875
-55.84716796875
-63.17138671875
-65.00244140625
-73.2421875
-78.7353515625
-83.31298828125
-76.904296875
-66.83349609375
-65.00244140625
-59.50927734375
-54.931640625
-57.67822265625
-67.7490234375
-68.66455078125
-75.98876953125
-79.65087890625
-75.98876953125
-74.15771484375
-65.00244140625
-57.67822265625
-49.4384765625
-53.1005859375
-57.67822265625
-61.34033203125
-70.49560546875
-83.31298828125
-75.0732421875
-66.83349609375
-55.84716796875
-57.67822265625
-55.84716796875
-48.52294921875
-54.01611328125
-59.50927734375
-62.255859375
-63.17138671875
-65.91796875
-60.4248046875
-54.931640625
-61.34033203125
-62.255859375
-56.7626953125
-65.91796875
-68.66455078125
-74.15771484375
-68.66455078125
-66.83349609375
-57.67822265625
-59.50927734375
-50.35400390625
-49.4384765625
-50.35400390625
-50.35400390625
-49.4384765625
-55.84716796875
-60.4248046875
-54.01611328125
-55.84716796875
-52.18505859375
-44.86083984375
-37.53662109375
-41.19873046875
-41.19873046875
-41.19873046875
-43.02978515625
-49.4384765625
-49.4384765625
-39.36767578125
-39.36767578125
-32.958984375
-35.70556640625
-36.62109375
-32.958984375
-35.70556640625
-43.02978515625
-46.69189453125
-43.9453125
-35.70556640625
-27.4658203125
-17.39501953125
-10.986328125
-17.39501953125
-21.97265625
-22.88818359375
-29.296875
-38.4521484375
-32.04345703125
-26.55029296875
-15.56396484375
-10.986328125
-7.32421875
-10.07080078125
-6.40869140625
-7.32421875
-14.6484375
-22.88818359375
-19.22607421875
-18.310546875
-10.986328125
6.40869140625
8.23974609375
5.4931640625
3.662109375
2.74658203125
0
6.40869140625
9.1552734375
11.90185546875
22.88818359375
37.53662109375
43.02978515625
36.62109375
39.36767578125
34.7900390625
24.71923828125
21.05712890625
17.39501953125
14.6484375
21.05712890625
27.4658203125
33.87451171875
22.88818359375
16.4794921875
10.986328125
1.8310546875
-10.07080078125
-12.8173828125
-7.32421875
-11.90185546875
-12.8173828125
-10.986328125
-18.310546875
-13.73291015625
-12.8173828125
-30.21240234375
-32.958984375
-37.53662109375
-33.87451171875
-24.71923828125
-26.55029296875
-34.7900390625
-34.7900390625
-36.62109375
-38.4521484375
-45.7763671875
-53.1005859375
-53.1005859375
-46.69189453125
-44.86083984375
-40.283203125
-31.1279296875
-34.7900390625
-38.4521484375
-39.36767578125
-46.69189453125
-47.607421875
-52.18505859375
-49.4384765625
-38.4521484375
-28.38134765625
-27.4658203125
-30.21240234375
-39.36767578125
-50.35400390625
-55.84716796875
-62.255859375
-56.7626953125
-43.02978515625
-45.7763671875
-34.7900390625
-34.7900390625
-37.53662109375
-33.87451171875
-38.4521484375
-43.02978515625
-39.36767578125
-40.283203125
-41.19873046875
-38.4521484375
-23.8037109375
-32.04345703125
-32.04345703125
-34.7900390625
-39.36767578125
-53.1005859375
-54.01611328125
-55.84716796875
-48.52294921875
-32.958984375
-32.04345703125
-26.55029296875
-35.70556640625
-43.02978515625
-42.1142578125
-47.607421875
-49.4384765625
-49.4384765625
-52.18505859375
-38.4521484375
-30.21240234375
-29.296875
-30.21240234375
-32.958984375
-43.9453125
-50.35400390625
-57.67822265625
-54.931640625
-44.86083984375
-43.9453125
-38.4521484375
-41.19873046875
-43.9453125
-45.7763671875
-48.52294921875
-53.1005859375
-65.00244140625
-60.4248046875
-51.26953125
-38.4521484375
-42.1142578125
-41.19873046875
-38.4521484375
-47.607421875
-52.18505859375
-64.0869140625
-65.00244140625
-61.34033203125
-54.01611328125
-54.01611328125
-41.19873046875
-35.70556640625
-49.4384765625
-53.1005859375
-54.01611328125
-52.18505859375
-59.50927734375
-65.00244140625
-67.7490234375
-62.255859375
-51.26953125
-42.1142578125
-55.84716796875
-58.59375
-61.34033203125
-69.580078125
-79.65087890625
-74.15771484375
-69.580078125
-64.0869140625
-64.0869140625
-56.7626953125
-57.67822265625
-59.50927734375
-59.50927734375
-59.50927734375
-66.83349609375
-65.00244140625
-64.0869140625
-58.59375
-51.26953125
-49.4384765625
-50.35400390625
-58.59375
-64.0869140625
-61.34033203125
-72.32666015625
-73.2421875
-71.4111328125
-72.32666015625
-60.4248046875
-48.52294921875
-51.26953125
-61.34033203125
-70.49560546875
-73.2421875
-73.2421875
-63.17138671875
-66.83349609375
-64.0869140625
-65.91796875
-59.50927734375
-58.59375
-65.00244140625
-58.59375
-68.66455078125
-76.904296875
-72.32666015625
-65.91796875
-63.17138671875
-55.84716796875
-51.26953125
-59.50927734375
-64.0869140625
-59.50927734375
-60.4248046875
-73.2421875
-66.83349609375
-61.34033203125
-69.580078125
-62.255859375
-54.931640625
-63.17138671875
-62.255859375
-60.4248046875
-66.83349609375
-75.0732421875
-75.98876953125
-71.4111328125
-67.7490234375
-65.00244140625
-53.1005859375
-53.1005859375
-59.50927734375
-60.4248046875
-55.84716796875
-64.0869140625
-66.83349609375
-61.34033203125
-58.59375
-51.26953125
-49.4384765625
-56.7626953125
-54.931640625
-61.34033203125
-64.0869140625
-82.3974609375
-78.7353515625
-65.91796875
-62.255859375
-57.67822265625
-54.931640625
-59.50927734375
-56.7626953125
-61.34033203125
-58.59375
-67.7490234375
-52.18505859375
-45.7763671875
-29.296875
-12.8173828125
-18.310546875
-22.88818359375
-17.39501953125
-13.73291015625
-10.07080078125
0
13.73291015625
16.4794921875
25.634765625
25.634765625
25.634765625
3.662109375
-9.1552734375
-24.71923828125
-35.70556640625
-31.1279296875
-35.70556640625
-46.69189453125
-58.59375
-54.931640625
-57.67822265625
-46.69189453125
-50.35400390625
-70.49560546875
-71.4111328125
-77.81982421875
-73.2421875
-66.83349609375
-66.83349609375
-70.49560546875
-66.83349609375
-72.32666015625
-71.4111328125
-70.49560546875
-82.3974609375
-77.81982421875
-81.48193359375
-84.228515625
-74.15771484375
-70.49560546875
-66.83349609375
-66.83349609375
-71.4111328125
-77.81982421875
-84.228515625
-94.29931640625
-84.228515625
-77.81982421875
-77.81982421875
-66.83349609375
-66.83349609375
-69.580078125
-70.49560546875
-65.00244140625
-69.580078125
-73.2421875
-80.56640625
-81.48193359375
-92.46826171875
-105.28564453125
-115.3564453125
-137.3291015625
-135.498046875
-108.94775390625
-83.31298828125
-54.01611328125
-3.662109375
70.49560546875
193.17626953125
353.3935546875
510.8642578125
643.61572265625
742.49267578125
860.595703125
984.19189453125
1067.5048828125
1131.591796875
1127.01416015625
1091.30859375
1056.5185546875
960.38818359375
707.70263671875
395.5078125
127.25830078125
-64.0869140625
-102.5390625
-97.96142578125
-78.7353515625
-52.18505859375
-30.21240234375
-2.74658203125
-0.91552734375
-2.74658203125
-14.6484375
-27.4658203125
-39.36767578125
-50.35400390625
-49.4384765625
-56.7626953125
-54.01611328125
-46.69189453125
-56.7626953125
-66.83349609375
-66.83349609375
-64.0869140625
-75.98876953125
-72.32666015625
-74.15771484375
-75.98876953125
-61.34033203125
-48.52294921875
-65.91796875
-66.83349609375
-65.91796875
-67.7490234375
-81.48193359375
-87.890625
-86.0595703125
-85.14404296875
-66.83349609375
-46.69189453125
-50.35400390625
-61.34033203125
-70.49560546875
-73.2421875
-78.7353515625
-79.65087890625
-72.32666015625
-65.91796875
-62.255859375
-59.50927734375
-53.1005859375
-61.34033203125
-65.00244140625
-72.32666015625
-76.904296875
-75.0732421875
-65.00244140625
-68.66455078125
-57.67822265625
-53.1005859375
-59.50927734375
-60.4248046875
-69.580078125
-70.49560546875
-75.0732421875
-72.32666015625
-67.7490234375
-66.83349609375
-57.67822265625
-49.4384765625
-54.01611328125
-59.50927734375
-59.50927734375
-62.255859375
-71.4111328125
-74.15771484375
-65.91796875
-65.00244140625
-65.91796875
-59.50927734375
-54.01611328125
-60.4248046875
-66.83349609375
-76.904296875
-81.48193359375
-78.7353515625
-65.91796875
-48.52294921875
-54.931640625
-42.1142578125
-48.52294921875
-55.84716796875
-62.255859375
-71.4111328125
-68.66455078125
-72.32666015625
-65.00244140625
-57.67822265625
-60.4248046875
-58.59375
-45.7763671875
-48.52294921875
-49.4384765625
-63.17138671875
-69.580078125
-64.0869140625
-61.34033203125
-60.4248046875
-44.86083984375
-37.53662109375
-38.4521484375
-40.283203125
-46.69189453125
-44.86083984375
-44.86083984375
-53.1005859375
-52.18505859375
-54.931640625
-51.26953125
-43.9453125
-39.36767578125
-34.7900390625
-38.4521484375
-29.296875
-44.86083984375
-49.4384765625
-39.36767578125
-38.4521484375
-38.4521484375
-29.296875
-33.87451171875
-33.87451171875
-32.958984375
-37.53662109375
-35.70556640625
-36.62109375
-37.53662109375
-32.04345703125
-31.1279296875
-27.4658203125
-28.38134765625
-29.296875
-23.8037109375
-24.71923828125
-37.53662109375
-34.7900390625
-23.8037109375
-19.22607421875
-15.56396484375
2.74658203125
1.8310546875
-9.1552734375
-3.662109375
0
-0.91552734375
-2.74658203125
0
2.74658203125
11.90185546875
29.296875
25.634765625
27.4658203125
19.22607421875
17.39501953125
13.73291015625
0.91552734375
4.57763671875
6.40869140625
7.32421875
9.1552734375
10.07080078125
3.662109375
-4.57763671875
-8.23974609375
-24.71923828125
-36.62109375
-28.38134765625
-25.634765625
-24.71923828125
-18.310546875
-27.4658203125
-30.21240234375
-29.296875
-37.53662109375
-50.35400390625
-49.4384765625
-47.607421875
-48.52294921875
-46.69189453125
-43.9453125
-44.86083984375
-43.9453125
-45.7763671875
-48.52294921875
-55.84716796875
-57.67822265625
-54.931640625
-51.26953125
-42.1142578125
-36.62109375
-37.53662109375
-47.607421875
-54.01611328125
-59.50927734375
-59.50927734375
-61.34033203125
-62.255859375
-51.26953125
-44.86083984375
-38.4521484375
-41.19873046875
-47.607421875
-43.9453125
-45.7763671875
-58.59375
-56.7626953125
-42.1142578125
-40.283203125
-41.19873046875
-33.87451171875
-39.36767578125
-43.02978515625
-45.7763671875
-46.69189453125
-52.18505859375
-54.01611328125
-51.26953125
-44.86083984375
-34.7900390625
-33.87451171875
-30.21240234375
-35.70556640625
-33.87451171875
-37.53662109375
-52.18505859375
-58.59375
-51.26953125
-44.86083984375
-40.283203125
-29.296875
-29.296875
-33.87451171875
-38.4521484375
-41.19873046875
-39.36767578125
-37.53662109375
-43.02978515625
-39.36767578125
-41.19873046875
-43.02978515625
-43.02978515625
-43.9453125
-47.607421875
-56.7626953125
-65.00244140625
-59.50927734375
-52.18505859375
-54.931640625
-52.18505859375
-44.86083984375
-43.02978515625
-46.69189453125
-53.1005859375
-66.83349609375
-76.904296875
-71.4111328125
-57.67822265625
-54.931640625
-55.84716796875
-44.86083984375
-52.18505859375
-55.84716796875
-63.17138671875
-67.7490234375
-63.17138671875
-65.00244140625
-71.4111328125
-74.15771484375
-60.4248046875
-54.931640625
-52.18505859375
-55.84716796875
-66.83349609375
-69.580078125
-73.2421875
-72.32666015625
-65.91796875
-63.17138671875
-64.0869140625
-59.50927734375
-54.931640625
-65.00244140625
-69.580078125
-66.83349609375
-72.32666015625
-70.49560546875
-61.34033203125
-57.67822265625
-56.7626953125
-54.931640625
-54.01611328125
-55.84716796875
-60.4248046875
-61.34033203125
-70.49560546875
-76.904296875
-67.7490234375
-66.83349609375
-69.580078125
-64.0869140625
-61.34033203125
-67.7490234375
-76.904296875
-75.98876953125
-86.0595703125
-88.80615234375
-82.3974609375
-70.49560546875
-70.49560546875
-65.00244140625
-65.00244140625
-70.49560546875
-68.66455078125
-64.0869140625
-78.7353515625
-84.228515625
-75.98876953125
-77.81982421875
-75.98876953125
-63.17138671875
-65.00244140625
-57.67822265625
-60.4248046875
-68.66455078125
-77.81982421875
-78.7353515625
-75.98876953125
-59.50927734375
-59.50927734375
-52.18505859375
-51.26953125
-52.18505859375
-60.4248046875
-71.4111328125
-74.15771484375
-80.56640625
-75.98876953125
-72.32666015625
-74.15771484375
-64.0869140625
-57.67822265625
-65.91796875
-66.83349609375
-65.91796875
-83.31298828125
-93.3837890625
-80.56640625
-72.32666015625
-67.7490234375
-63.17138671875
-64.0869140625
-65.91796875
-72.32666015625
-81.48193359375
-87.890625
-92.46826171875
-81.48193359375
-68.66455078125
-75.0732421875
-70.49560546875
-70.49560546875
-67.7490234375
-75.98876953125
-78.7353515625
-83.31298828125
-84.228515625
-73.2421875
-60.4248046875
-61.34033203125
-59.50927734375
-51.26953125
-54.01611328125
-44.86083984375
-37.53662109375
-51.26953125
-42.1142578125
-31.1279296875
-17.39501953125
-5.4931640625
12.8173828125
20.1416015625
13.73291015625
14.6484375
9.1552734375
-14.6484375
-25.634765625
-23.8037109375
-35.70556640625
-32.04345703125
-28.38134765625
-28.38134765625
-38.4521484375
-51.26953125
-65.00244140625
-67.7490234375
-68.66455078125
-64.0869140625
-71.4111328125
-62.255859375
-63.17138671875
-71.4111328125
-74.15771484375
-82.3974609375
-86.97509765625
-92.46826171875
-90.63720703125
-90.63720703125
-81.48193359375
-85.14404296875
-83.31298828125
-79.65087890625
-80.56640625
-86.97509765625
-85.14404296875
-90.63720703125
-93.3837890625
-95.21484375
-88.80615234375
-83.31298828125
-74.15771484375
-64.0869140625
-71.4111328125
-79.65087890625
-86.97509765625
-97.96142578125
-103.45458984375
-93.3837890625
-87.890625
-86.97509765625
-70.49560546875
-69.580078125
-87.890625
-100.7080078125
-122.6806640625
-149.23095703125
-172.119140625
-161.1328125
-129.08935546875
-96.13037109375
-54.01611328125
8.23974609375
83.31298828125
198.66943359375
351.5625
505.37109375
625.30517578125
734.2529296875
865.17333984375
994.2626953125
1083.06884765625
1133.4228515625
1112.36572265625
1076.66015625
1015.31982421875
886.23046875
616.14990234375
327.7587890625
75.0732421875
-72.32666015625
-83.31298828125
-76.904296875
-66.83349609375
-51.26953125
-34.7900390625
-25.634765625
-31.1279296875
-29.296875
-32.958984375
-36.62109375
-37.53662109375
-43.02978515625
-50.35400390625
-54.01611328125
-64.0869140625
-71.4111328125
-74.15771484375
-79.65087890625
-75.0732421875
-75.98876953125
-67.7490234375
-67.7490234375
-70.49560546875
-75.98876953125
-76.904296875
-80.56640625
-83.31298828125
-82.3974609375
-81.48193359375
-76.904296875
-75.98876953125
-75.0732421875
-76.904296875
-85.14404296875
-86.0595703125
-88.80615234375
-92.46826171875
-86.97509765625
-80.56640625
-75.98876953125
-73.2421875
-62.255859375
-59.50927734375
-67.7490234375
-67.7490234375
-82.3974609375
-92.46826171875
-84.228515625
-72.32666015625
-75.0732421875
-65.00244140625
-68.66455078125
-74.15771484375
-75.98876953125
-79.65087890625
-87.890625
-92.46826171875
-89.7216796875
-84.228515625
-71.4111328125
-69.580078125
-70.49560546875
-68.66455078125
-78.7353515625
-75.0732421875
-78.7353515625
-92.46826171875
-86.0595703125
-85.14404296875
-75.0732421875
-72.32666015625
-62.255859375
-69.580078125
-72.32666015625
-79.65087890625
-86.0595703125
-90.63720703125
-86.0595703125
-80.56640625
-75.0732421875
-68.66455078125
-54.931640625
-67.7490234375
-70.49560546875
-73.2421875
-77.81982421875
-80.56640625
-80.56640625
-72.32666015625
-73.2421875
-66.83349609375
-63.17138671875
-63.17138671875
-70.49560546875
-75.0732421875
-80.56640625
-84.228515625
-80.56640625
-75.98876953125
-66.83349609375
-57.67822265625
-58.59375
-66.83349609375
-73.2421875
-70.49560546875
-69.580078125
-79.65087890625
-78.7353515625
-75.0732421875
-68.66455078125
-66.83349609375
-59.50927734375
-57.67822265625
-57.67822265625
-63.17138671875
-64.0869140625
-75.0732421875
-70.49560546875
-70.49560546875
-62.255859375
-54.931640625
-49.4384765625
-49.4384765625
-50.35400390625
-55.84716796875
-56.7626953125
-60.4248046875
-67.7490234375
-67.7490234375
-59.50927734375
-54.01611328125
-44.86083984375
-46.69189453125
-41.19873046875
-43.02978515625
-50.35400390625
-50.35400390625
-45.7763671875
-38.4521484375
-33.87451171875
-24.71923828125
-19.22607421875
-28.38134765625
-32.04345703125
-29.296875
-28.38134765625
-34.7900390625
-32.04345703125
-25.634765625
-22.88818359375
-14.6484375
-12.8173828125
-8.23974609375
-6.40869140625
-8.23974609375
-9.1552734375
-12.8173828125
-7.32421875
-6.40869140625
-7.32421875
-5.4931640625
0.91552734375
-1.8310546875
-12.8173828125
-14.6484375
-15.56396484375
-21.05712890625
-26.55029296875
-21.97265625
-25.634765625
-20.1416015625
-21.97265625
-27.4658203125
-28.38134765625
-31.1279296875
-42.1142578125
-54.01611328125
-49.4384765625
-53.1005859375
-51.26953125
-48.52294921875
-45.7763671875
-54.01611328125
-64.0869140625
-68.66455078125
-72.32666015625
-75.98876953125
-72.32666015625
-71.4111328125
-68.66455078125
-63.17138671875
-65.91796875
-65.91796875
-71.4111328125
-70.49560546875
-63.17138671875
-71.4111328125
-71.4111328125
-70.49560546875
-65.91796875
-58.59375
-48.52294921875
-54.931640625
-57.67822265625
-58.59375
-63.17138671875
-64.0869140625
-66.83349609375
-55.84716796875
-61.34033203125
-54.01611328125
-44.86083984375
-52.18505859375
-48.52294921875
-47.607421875
-57.67822265625
-73.2421875
-74.15771484375
-64.0869140625
-59.50927734375
-60.4248046875
-54.931640625
-54.931640625
-55.84716796875
-62.255859375
-64.0869140625
-72.32666015625
-66.83349609375
-58.59375
-57.67822265625
-56.7626953125
-47.607421875
-54.931640625
-62.255859375
-61.34033203125
-66.83349609375
-69.580078125
-65.91796875
-64.0869140625
-63.17138671875
-56.7626953125
-49.4384765625
-54.931640625
-58.59375
-61.34033203125
-66.83349609375
-77.81982421875
-71.4111328125
-64.0869140625
-64.0869140625
-59.50927734375
-48.52294921875
-52.18505859375
-59.50927734375
-60.4248046875
-70.49560546875
-79.65087890625
-82.3974609375
-77.81982421875
-67.7490234375
-68.66455078125
-60.4248046875
-61.34033203125
-72.32666015625
-77.81982421875
-81.48193359375
-86.97509765625
-86.97509765625
-82.3974609375
-75.0732421875
-67.7490234375
-65.00244140625
-69.580078125
-73.2421875
-69.580078125
-70.49560546875
-76.904296875
-75.0732421875
-74.15771484375
-76.904296875
-72.32666015625
-71.4111328125
-75.0732421875
-75.98876953125
-80.56640625
-84.228515625
-88.80615234375
-87.890625
-84.228515625
-77.81982421875
-73.2421875
-67.7490234375
-67.7490234375
-76.904296875
-78.7353515625
-86.97509765625
-87.890625
-87.890625
-85.14404296875
-85.14404296875
-80.56640625
-78.7353515625
-77.81982421875
-80.56640625
-78.7353515625
-83.31298828125
-96.13037109375
-93.3837890625
-89.7216796875
-84.228515625
-80.56640625
-73.2421875
-69.580078125
-72.32666015625
-68.66455078125
-77.81982421875
-92.46826171875
-87.890625
-80.56640625
-76.904296875
-76.904296875
-71.4111328125
-75.98876953125
-81.48193359375
-80.56640625
-83.31298828125
-88.80615234375
-89.7216796875
-87.890625
-93.3837890625
-79.65087890625
-70.49560546875
-79.65087890625
-86.97509765625
-84.228515625
-80.56640625
-89.7216796875
-94.29931640625
-89.7216796875
-87.890625
-77.81982421875
-73.2421875
-75.0732421875
-79.65087890625
-77.81982421875
-82.3974609375
-93.3837890625
-102.5390625
-99.79248046875
-89.7216796875
-85.14404296875
-78.7353515625
-71.4111328125
-75.98876953125
-80.56640625
-88.80615234375
-97.96142578125
-96.13037109375
-86.97509765625
-86.0595703125
-80.56640625
-71.4111328125
-69.580078125
-81.48193359375
-86.97509765625
-89.7216796875
-92.46826171875
-96.13037109375
-89.7216796875
-81.48193359375
-70.49560546875
-70.49560546875
-73.2421875
-68.66455078125
-68.66455078125
-56.7626953125
-63.17138671875
-59.50927734375
-54.01611328125
-49.4384765625
-32.958984375
-17.39501953125
-1.8310546875
12.8173828125
10.986328125
10.07080078125
-3.662109375
-10.986328125
-23.8037109375
-30.21240234375
-29.296875
-26.55029296875
-31.1279296875
-43.02978515625
-52.18505859375
-61.34033203125
-79.65087890625
-90.63720703125
-76.904296875
-69.580078125
-72.32666015625
-66.83349609375
-64.0869140625
-75.98876953125
-90.63720703125
-88.80615234375
-102.5390625
-106.201171875
-97.96142578125
-93.3837890625
-87.890625
-78.7353515625
-71.4111328125
-85.14404296875
-100.7080078125
-100.7080078125
-113.525390625
-113.525390625
-103.45458984375
-97.96142578125
-99.79248046875
-93.3837890625
-87.890625
-88.80615234375
-94.29931640625
-87.890625
-98.876953125
-98.876953125
-91.552734375
-92.46826171875
-88.80615234375
-78.7353515625
-80.56640625
-88.80615234375
-93.3837890625
-100.7080078125
-126.3427734375
-151.9775390625
-168.45703125
-176.69677734375
-162.9638671875
-131.8359375
-100.7080078125
-61.34033203125
-2.74658203125
83.31298828125
199.5849609375
348.81591796875
507.2021484375
632.62939453125
750.732421875
893.5546875
1019.8974609375
1103.21044921875
1138.00048828125
1092.22412109375
1057.43408203125
983.2763671875
844.1162109375
573.1201171875
281.982421875
29.296875
-94.29931640625
-108.0322265625
-94.29931640625
-69.580078125
-57.67822265625
-43.02978515625
-32.04345703125
-23.8037109375
-22.88818359375
-25.634765625
-27.4658203125
-45.7763671875
-43.9453125
-56.7626953125
-67.7490234375
-81.48193359375
-75.98876953125
-75.0732421875
-71.4111328125
-65.91796875
-70.49560546875
-77.81982421875
-83.31298828125
-88.80615234375
-95.21484375
-98.876953125
-90.63720703125
-84.228515625
-76.904296875
-74.15771484375
-71.4111328125
-78.7353515625
-88.80615234375
-95.21484375
-99.79248046875
-97.0458984375
-87.890625
-84.228515625
-81.48193359375
-69.580078125
-72.32666015625
-75.98876953125
-82.3974609375
-87.890625
-95.21484375
-97.96142578125
-96.13037109375
-82.3974609375
-83.31298828125
-75.0732421875
-75.98876953125
-77.81982421875
-79.65087890625
-81.48193359375
-91.552734375
-98.876953125
-88.80615234375
-81.48193359375
-77.81982421875
-67.7490234375
-75.0732421875
-73.2421875
-75.0732421875
-71.4111328125
-83.31298828125
-87.890625
-76.904296875
-81.48193359375
-83.31298828125
-82.3974609375
-76.904296875
-81.48193359375
-83.31298828125
-94.29931640625
-98.876953125
-101.62353515625
-97.0458984375
-95.21484375
-95.21484375
-83.31298828125
-76.904296875
-85.14404296875
-97.96142578125
-89.7216796875
-97.96142578125
-98.876953125
-89.7216796875
-85.14404296875
-81.48193359375
-75.98876953125
-75.98876953125
-77.81982421875
-86.0595703125
-87.890625
-96.13037109375
-97.96142578125
-95.21484375
-85.14404296875
-78.7353515625
-68.66455078125
-64.0869140625
-73.2421875
-74.15771484375
-71.4111328125
-70.49560546875
-82.3974609375
-78.7353515625
-75.98876953125
-75.98876953125
-66.83349609375
-56.7626953125
-65.91796875
-68.66455078125
-73.2421875
-84.228515625
-83.31298828125
-81.48193359375
-66.83349609375
-63.17138671875
-68.66455078125
-54.931640625
-62.255859375
-54.931640625
-65.91796875
-68.66455078125
-66.83349609375
-63.17138671875
-65.91796875
-59.50927734375
-50.35400390625
-46.69189453125
-45.7763671875
-41.19873046875
-45.7763671875
-52.18505859375
-49.4384765625
-43.9453125
-45.7763671875
-39.36767578125
-29.296875
-32.958984375
-32.958984375
-27.4658203125
-30.21240234375
-35.70556640625
-42.1142578125
-34.7900390625
-27.4658203125
-27.4658203125
-12.8173828125
2.74658203125
-3.662109375
-6.40869140625
3.662109375
-6.40869140625
-3.662109375
4.57763671875
0.91552734375
3.662109375
11.90185546875
9.1552734375
2.74658203125
-4.57763671875
-8.23974609375
-24.71923828125
-25.634765625
-30.21240234375
-39.36767578125
-32.04345703125
-22.88818359375
-17.39501953125
-21.97265625
-35.70556640625
-40.283203125
-46.69189453125
-57.67822265625
-54.931640625
-54.931640625
-57.67822265625
-52.18505859375
-48.52294921875
-58.59375
-62.255859375
-61.34033203125
-73.2421875
-82.3974609375
-80.56640625
-76.904296875
-78.7353515625
-69.580078125
-60.4248046875
-61.34033203125
-71.4111328125
-75.0732421875
-88.80615234375
-85.14404296875
-79.65087890625
-76.904296875
-75.98876953125
-74.15771484375
-68.66455078125
-73.2421875
-69.580078125
-67.7490234375
-74.15771484375
-75.98876953125
-74.15771484375
-73.2421875
-70.49560546875
-57.67822265625
-55.84716796875
-65.00244140625
-76.904296875
-71.4111328125
-83.31298828125
-76.904296875
-69.580078125
-74.15771484375
-69.580078125
-65.00244140625
-49.4384765625
-49.4384765625
-50.35400390625
-59.50927734375
-67.7490234375
-71.4111328125
-75.0732421875
-68.66455078125
-68.66455078125
-65.00244140625
-53.1005859375
-61.34033203125
-70.49560546875
-66.83349609375
-75.0732421875
-75.98876953125
-64.0869140625
-66.83349609375
-66.83349609375
-58.59375
-54.01611328125
-57.67822265625
-68.66455078125
-67.7490234375
-78.7353515625
-80.56640625
-75.0732421875
-71.4111328125
-70.49560546875
-73.2421875
-69.580078125
-68.66455078125
-75.98876953125
-78.7353515625
-78.7353515625
-81.48193359375
-80.56640625
-76.904296875
-75.0732421875
-65.91796875
-56.7626953125
-54.01611328125
-71.4111328125
-72.32666015625
-75.98876953125
-86.97509765625
-82.3974609375
-85.14404296875
-83.31298828125
-78.7353515625
-79.65087890625
-81.48193359375
-79.65087890625
-83.31298828125
-87.890625
-88.80615234375
-90.63720703125
-84.228515625
-81.48193359375
-79.65087890625
-73.2421875
-76.904296875
-83.31298828125
-90.63720703125
-92.46826171875
-99.79248046875
-96.13037109375
-94.29931640625
-88.80615234375
-86.97509765625
-80.56640625
-77.81982421875
-83.31298828125
-83.31298828125
-86.0595703125
-101.62353515625
-96.13037109375
-86.0595703125
-86.0595703125
-78.7353515625
-75.98876953125
-72.32666015625
-80.56640625
-85.14404296875
-88.80615234375
-95.21484375
-88.80615234375
-82.3974609375
-75.98876953125
-75.0732421875
-75.98876953125
-73.2421875
-86.0595703125
-85.14404296875
-94.29931640625
-102.5390625
-96.13037109375
-94.29931640625
-90.63720703125
-82.3974609375
-74.15771484375
-79.65087890625
-88.80615234375
-91.552734375
-86.97509765625
-104.3701171875
-111.6943359375
-96.13037109375
-98.876953125
-86.97509765625
-75.0732421875
-91.552734375
-88.80615234375
-84.228515625
-92.46826171875
-100.7080078125
-94.29931640625
-83.31298828125
-86.97509765625
-86.0595703125
-74.15771484375
-73.2421875
-79.65087890625
-84.228515625
-89.7216796875
-89.7216796875
-89.7216796875
-90.63720703125
-87.890625
-83.31298828125
-85.14404296875
-86.97509765625
-86.0595703125
-93.3837890625
-92.46826171875
-97.96142578125
-94.29931640625
-92.46826171875
-95.21484375
-93.3837890625
-88.80615234375
-93.3837890625
-104.3701171875
-102.5390625
-103.45458984375
-114.44091796875
-108.0322265625
-90.63720703125
-75.98876953125
-78.7353515625
-74.15771484375
-69.580078125
-67.7490234375
-63.17138671875
-65.91796875
-62.255859375
-54.01611328125
-33.87451171875
-22.88818359375
-3.662109375
8.23974609375
16.4794921875
10.07080078125
2.74658203125
-11.90185546875
-24.71923828125
-41.19873046875
-43.02978515625
-34.7900390625
-36.62109375
-43.02978515625
-59.50927734375
-66.83349609375
-70.49560546875
-77.81982421875
-87.890625
-91.552734375
-91.552734375
-88.80615234375
-80.56640625
-80.56640625
-88.80615234375
-84.228515625
-97.0458984375
-97.96142578125
-102.5390625
-103.45458984375
-101.62353515625
-97.96142578125
-89.7216796875
-84.228515625
-89.7216796875
-94.29931640625
-98.876953125
-97.96142578125
-101.62353515625
-109.86328125
-108.0322265625
-102.5390625
-94.29931640625
-97.0458984375
-91.552734375
-103.45458984375
-99.79248046875
-99.79248046875
-108.0322265625
-101.62353515625
-96.13037109375
-94.29931640625
-87.890625
-87.890625
-82.3974609375
-91.552734375
-106.201171875
-140.07568359375
-163.87939453125
-168.45703125
-145.56884765625
-118.10302734375
-77.81982421875
-23.8037109375
47.607421875
139.16015625
280.1513671875
440.36865234375
564.88037109375
665.58837890625
785.5224609375
921.93603515625
1023.5595703125
1100.4638671875
1110.53466796875
1076.66015625
1039.12353515625
959.47265625
756.2255859375
455.01708984375
190.4296875
-27.4658203125
-87.890625
-87.890625
-91.552734375
-83.31298828125
-59.50927734375
-43.9453125
-47.607421875
-43.9453125
-39.36767578125
-40.283203125
-45.7763671875
-48.52294921875
-53.1005859375
-64.0869140625
-74.15771484375
-74.15771484375
-83.31298828125
-89.7216796875
-83.31298828125
-68.66455078125
-65.91796875
-54.931640625
-57.67822265625
-72.32666015625
-78.7353515625
-89.7216796875
-107.11669921875
-103.45458984375
-98.876953125
-95.21484375
-87.890625
-83.31298828125
-85.14404296875
-87.890625
-91.552734375
-89.7216796875
-87.890625
-88.80615234375
-91.552734375
-82.3974609375
-76.904296875
-64.0869140625
-72.32666015625
-75.0732421875
-76.904296875
-82.3974609375
-89.7216796875
-100.7080078125
-95.21484375
-86.97509765625
-76.904296875
-73.2421875
-82.3974609375
-85.14404296875
-84.228515625
-93.3837890625
-89.7216796875
-75.0732421875
-73.2421875
-78.7353515625
-71.4111328125
-61.34033203125
-66.83349609375
-70.49560546875
-79.65087890625
-78.7353515625
-83.31298828125
-81.48193359375
-81.48193359375
-79.65087890625
-72.32666015625
-70.49560546875
-74.15771484375
-79.65087890625
-86.97509765625
-91.552734375
-90.63720703125
-87.890625
-80.56640625
-82.3974609375
-74.15771484375
-64.0869140625
-65.00244140625
-75.0732421875
-71.4111328125
-78.7353515625
-85.14404296875
-85.14404296875
-71.4111328125
-72.32666015625
-66.83349609375
-59.50927734375
-61.34033203125
-65.91796875
-66.83349609375
-73.2421875
-75.98876953125
-75.0732421875
-71.4111328125
-67.7490234375
-65.91796875
-67.7490234375
-66.83349609375
-65.91796875
-72.32666015625
-75.98876953125
-75.98876953125
-72.32666015625
-70.49560546875
-69.580078125
-54.931640625
-45.7763671875
-47.607421875
-52.18505859375
-55.84716796875
-65.91796875
-75.98876953125
-77.81982421875
-74.15771484375
-70.49560546875
-58.59375
-45.7763671875
-47.607421875
-58.59375
-54.01611328125
-56.7626953125
-62.255859375
-56.7626953125
-54.931640625
-51.26953125
-44.86083984375
-34.7900390625
-40.283203125
-43.9453125
-44.86083984375
-47.607421875
-65.00244140625
-55.84716796875
-47.607421875
-44.86083984375
-37.53662109375
-29.296875
-30.21240234375
-24.71923828125
-22.88818359375
-21.05712890625
-33.87451171875
-42.1142578125
-32.958984375
-23.8037109375
-16.4794921875
-9.1552734375
-1.8310546875
-2.74658203125
-6.40869140625
-8.23974609375
-15.56396484375
-12.8173828125
-7.32421875
-4.57763671875
-2.74658203125
3.662109375
6.40869140625
0
-6.40869140625
-10.986328125
-25.634765625
-27.4658203125
-21.97265625
-21.05712890625
-20.1416015625
-30.21240234375
-33.87451171875
-38.4521484375
-35.70556640625
-40.283203125
-57.67822265625
-58.59375
-55.84716796875
-53.1005859375
-49.4384765625
-46.69189453125
-51.26953125
-54.931640625
-56.7626953125
-65.00244140625
-70.49560546875
-78.7353515625
-72.32666015625
-68.66455078125
-64.0869140625
-56.7626953125
-60.4248046875
-62.255859375
-58.59375
-59.50927734375
-74.15771484375
-75.0732421875
-66.83349609375
-62.255859375
-56.7626953125
-51.26953125
-53.1005859375
-56.7626953125
-53.1005859375
-55.84716796875
-60.4248046875
-63.17138671875
-55.84716796875
-54.01611328125
-50.35400390625
-45.7763671875
-48.52294921875
-51.26953125
-46.69189453125
-55.84716796875
-62.255859375
-65.91796875
-55.84716796875
-54.931640625
-50.35400390625
-45.7763671875
-41.19873046875
-51.26953125
-54.931640625
-54.01611328125
-57.67822265625
-54.931640625
-56.7626953125
-56.7626953125
-48.52294921875
-34.7900390625
-32.04345703125
-41.19873046875
-50.35400390625
-54.931640625
-65.91796875
-65.00244140625
-62.255859375
-55.84716796875
-49.4384765625
-43.9453125
-40.283203125
-50.35400390625
-59.50927734375
-56.7626953125
-69.580078125
-73.2421875
-65.00244140625
-64.0869140625
-55.84716796875
-48.52294921875
-49.4384765625
-57.67822265625
-64.0869140625
-60.4248046875
-61.34033203125
-76.904296875
-65.00244140625
-74.15771484375
-65.00244140625
-61.34033203125
-58.59375
-61.34033203125
-64.0869140625
-67.7490234375
-71.4111328125
-74.15771484375
-73.2421875
-65.00244140625
-61.34033203125
-54.931640625
-59.50927734375
-65.00244140625
-71.4111328125
-72.32666015625
-83.31298828125
-86.0595703125
-86.97509765625
-70.49560546875
-62.255859375
-64.0869140625
-65.00244140625
-74.15771484375
-78.7353515625
-86.97509765625
-86.97509765625
-86.0595703125
-86.97509765625
-85.14404296875
-77.81982421875
-64.0869140625
-63.17138671875
-73.2421875
-81.48193359375
-76.904296875
-89.7216796875
-98.876953125
-91.552734375
-83.31298828125
-75.98876953125
-65.91796875
-65.91796875
-77.81982421875
-81.48193359375
-86.0595703125
-86.0595703125
-87.890625
-87.890625
-86.0595703125
-81.48193359375
-71.4111328125
-67.7490234375
-77.81982421875
-79.65087890625
-89.7216796875
-93.3837890625
-93.3837890625
-93.3837890625
-89.7216796875
-85.14404296875
-85.14404296875
-81.48193359375
-79.65087890625
-81.48193359375
-84.228515625
-85.14404296875
-83.31298828125
-83.31298828125
-75.0732421875
-71.4111328125
-69.580078125
-66.83349609375
-76.904296875
-82.3974609375
-82.3974609375
-97.0458984375
-97.96142578125
-90.63720703125
-88.80615234375
-87.890625
-82.3974609375
-84.228515625
-84.228515625
-78.7353515625
-86.97509765625
-90.63720703125
-97.0458984375
-90.63720703125
-78.7353515625
-82.3974609375
-84.228515625
-78.7353515625
-90.63720703125
-91.552734375
-95.21484375
-111.6943359375
-116.27197265625
-109.86328125
-100.7080078125
-93.3837890625
-77.81982421875
-76.904296875
-76.904296875
-83.31298828125
-75.98876953125
-74.15771484375
-75.98876953125
-57.67822265625
-56.7626953125
-52.18505859375
-40.283203125
-37.53662109375
-31.1279296875
-29.296875
-16.4794921875
-12.8173828125
-22.88818359375
-14.6484375
-16.4794921875
-23.8037109375
-32.04345703125
-28.38134765625
-33.87451171875
-44.86083984375
-49.4384765625
-62.255859375
-66.83349609375
-69.580078125
-79.65087890625
-77.81982421875
-63.17138671875
-69.580078125
-86.0595703125
-90.63720703125
-88.80615234375
-110.77880859375
-123.59619140625
-113.525390625
-109.86328125
-107.11669921875
-98.876953125
-97.96142578125
-97.0458984375
-107.11669921875
-110.77880859375
-110.77880859375
-110.77880859375
-108.0322265625
-101.62353515625
-98.876953125
-94.29931640625
-95.21484375
-92.46826171875
-97.96142578125
-105.28564453125
-111.6943359375
-122.6806640625
-123.59619140625
-108.0322265625
-105.28564453125
-95.21484375
-94.29931640625
-92.46826171875
-99.79248046875
-94.29931640625
-101.62353515625
-107.11669921875
-120.849609375
-138.24462890625
-162.9638671875
-170.2880859375
-162.04833984375
-142.822265625
-123.59619140625
-82.3974609375
-36.62109375
30.21240234375
148.3154296875
310.36376953125
472.412109375
608.82568359375
713.19580078125
826.72119140625
963.134765625
1056.5185546875
1118.7744140625
1094.970703125
1051.94091796875
1000.67138671875
910.0341796875
681.15234375
383.60595703125
107.11669921875
-66.83349609375
-105.28564453125
-103.45458984375
-108.0322265625
-75.0732421875
-57.67822265625
-45.7763671875
-41.19873046875
-37.53662109375
-44.86083984375
-50.35400390625
-63.17138671875
-80.56640625
-87.890625
-86.0595703125
-84.228515625
-87.890625
-76.904296875
-73.2421875
-86.0595703125
-90.63720703125
-87.890625
-93.3837890625
-94.29931640625
-97.0458984375
-87.890625
-95.21484375
-76.904296875
-73.2421875
-82.3974609375
-90.63720703125
-95.21484375
-100.7080078125
-102.5390625
-107.11669921875
-95.21484375
-95.21484375
-82.3974609375
-80.56640625
-85.14404296875
-88.80615234375
-93.3837890625
-96.13037109375
-104.3701171875
-102.5390625
-94.29931640625
-92.46826171875
-91.552734375
-88.80615234375
-84.228515625
-89.7216796875
-94.29931640625
-97.0458984375
-108.94775390625
-112.60986328125
-105.28564453125
-97.96142578125
-93.3837890625
-89.7216796875
-87.890625
-87.890625
-90.63720703125
-96.13037109375
-97.96142578125
-99.79248046875
-99.79248046875
-88.80615234375
-92.46826171875
-82.3974609375
-84.228515625
-88.80615234375
-89.7216796875
-90.63720703125
-100.7080078125
-101.62353515625
-93.3837890625
-97.0458984375
-91.552734375
-87.890625
-84.228515625
-88.80615234375
-92.46826171875
-96.13037109375
-102.5390625
-94.29931640625
-91.552734375
-93.3837890625
-84.228515625
-82.3974609375
-84.228515625
-88.80615234375
-96.13037109375
-102.5390625
-99.79248046875
-96.13037109375
-92.46826171875
-86.0595703125
-84.228515625
-85.14404296875
-82.3974609375
-80.56640625
-79.65087890625
-89.7216796875
-93.3837890625
-76.904296875
-80.56640625
-84.228515625
-76.904296875
-65.91796875
-69.580078125
-70.49560546875
-77.81982421875
-83.31298828125
-85.14404296875
-85.14404296875
-77.81982421875
-72.32666015625
-69.580078125
-59.50927734375
-68.66455078125
-69.580078125
-72.32666015625
-76.904296875
-84.228515625
-86.97509765625
-83.31298828125
-70.49560546875
-60.4248046875
-56.7626953125
-61.34033203125
-65.00244140625
-65.00244140625
-66.83349609375
-65.91796875
-63.17138671875
-63.17138671875
-56.7626953125
-43.02978515625
-40.283203125
-43.9453125
-41.19873046875
-50.35400390625
-42.1142578125
-52.18505859375
-48.52294921875
-32.958984375
-32.04345703125
-20.1416015625
-9.1552734375
-14.6484375
-19.22607421875
-22.88818359375
-24.71923828125
-32.04345703125
-27.4658203125
-17.39501953125
-9.1552734375
-4.57763671875
-2.74658203125
-0.91552734375
-1.8310546875
-13.73291015625
-20.1416015625
-32.04345703125
-33.87451171875
-31.1279296875
-27.4658203125
-25.634765625
-21.05712890625
-26.55029296875
-36.62109375
-40.283203125
-50.35400390625
-62.255859375
-61.34033203125
-59.50927734375
-53.1005859375
-50.35400390625
-50.35400390625
-57.67822265625
-65.91796875
-71.4111328125
-75.0732421875
-82.3974609375
-81.48193359375
-81.48193359375
-77.81982421875
-73.2421875
-67.7490234375
-66.83349609375
-75.0732421875
-81.48193359375
-78.7353515625
-88.80615234375
-86.97509765625
-84.228515625
-72.32666015625
-72.32666015625
-67.7490234375
-68.66455078125
-75.98876953125
-73.2421875
-74.15771484375
-84.228515625
-81.48193359375
-80.56640625
-79.65087890625
-71.4111328125
-57.67822265625
-62.255859375
-70.49560546875
-61.34033203125
-66.83349609375
-81.48193359375
-79.65087890625
-76.904296875
-71.4111328125
-70.49560546875
-56.7626953125
-52.18505859375
-56.7626953125
-61.34033203125
-62.255859375
-72.32666015625
-75.98876953125
-74.15771484375
-74.15771484375
-72.32666015625
-56.7626953125
-56.7626953125
-65.91796875
-68.66455078125
-68.66455078125
-70.49560546875
-73.2421875
-62.255859375
-62.255859375
-62.255859375
-55.84716796875
-58.59375
-64.0869140625
-68.66455078125
-69.580078125
-73.2421875
-66.83349609375
-64.0869140625
-62.255859375
-56.7626953125
-57.67822265625
-57.67822265625
-64.0869140625
-62.255859375
-73.2421875
-76.904296875
-79.65087890625
-79.65087890625
-74.15771484375
-67.7490234375
-63.17138671875
-62.255859375
-70.49560546875
-75.0732421875
-83.31298828125
-91.552734375
-83.31298828125
-87.890625
-84.228515625
-75.0732421875
-71.4111328125
-69.580078125
-76.904296875
-74.15771484375
-79.65087890625
-85.14404296875
-92.46826171875
-91.552734375
-90.63720703125
-83.31298828125
-74.15771484375
-75.0732421875
-77.81982421875
-82.3974609375
-78.7353515625
-87.890625
-97.0458984375
-86.0595703125
-84.228515625
-86.0595703125
-82.3974609375
-76.904296875
-79.65087890625
-80.56640625
-83.31298828125
-92.46826171875
-87.890625
-86.0595703125
-90.63720703125
-84.228515625
-86.0595703125
-83.31298828125
-93.3837890625
-90.63720703125
-89.7216796875
-100.7080078125
-94.29931640625
-91.552734375
-89.7216796875
-86.97509765625
-76.904296875
-83.31298828125
-86.0595703125
-86.97509765625
-87.890625
-105.28564453125
-97.96142578125
-91.552734375
-84.228515625
-80.56640625
-76.904296875
-80.56640625
-75.98876953125
-86.97509765625
-98.876953125
-108.0322265625
-97.0458984375
-100.7080078125
-92.46826171875
-80.56640625
-76.904296875
-83.31298828125
-84.228515625
-86.0595703125
-91.552734375
-104.3701171875
-102.5390625
-95.21484375
-89.7216796875
-89.7216796875
-73.2421875
-78.7353515625
-82.3974609375
-85.14404296875
-92.46826171875
-107.11669921875
-107.11669921875
-98.876953125
-97.0458984375
-79.65087890625
-83.31298828125
-88.80615234375
-89.7216796875
-89.7216796875
-97.0458984375
-97.96142578125
-94.29931640625
-86.97509765625
-87.890625
-87.890625
-77.81982421875
-76.904296875
-87.890625
-98.876953125
-104.3701171875
-109.86328125
-110.77880859375
-99.79248046875
-96.13037109375
-83.31298828125
-75.0732421875
-72.32666015625
-74.15771484375
-69.580078125
-64.0869140625
-63.17138671875
-59.50927734375
-52.18505859375
-51.26953125
-42.1142578125
-42.1142578125
-34.7900390625
-28.38134765625
-14.6484375
-3.662109375
-8.23974609375
-17.39501953125
-9.1552734375
-22.88818359375
-28.38134765625
-30.21240234375
-28.38134765625
-43.02978515625
-46.69189453125
-53.1005859375
-67.7490234375
-82.3974609375
-91.552734375
-89.7216796875
-75.98876953125
-67.7490234375
-69.580078125
-70.49560546875
-77.81982421875
-81.48193359375
-96.13037109375
-101.62353515625
-104.3701171875
-103.45458984375
-93.3837890625
-90.63720703125
-97.0458984375
-97.0458984375
-104.3701171875
-105.28564453125
-108.94775390625
-110.77880859375
-107.11669921875
-108.0322265625
-100.7080078125
-89.7216796875
-92.46826171875
-91.552734375
-99.79248046875
-102.5390625
-112.60986328125
-108.94775390625
-99.79248046875
-96.13037109375
-95.21484375
-86.97509765625
-96.13037109375
-108.94775390625
-108.0322265625
-100.7080078125
-111.6943359375
-122.6806640625
-127.25830078125
-144.6533203125
-158.38623046875
-173.03466796875
-159.3017578125
-135.498046875
-117.1875
-76.904296875
-18.310546875
64.0869140625
200.50048828125
358.88671875
515.44189453125
647.27783203125
755.31005859375
885.31494140625
1013.48876953125
1097.71728515625
1123.35205078125
1088.56201171875
1051.025390625
991.51611328125
856.01806640625
579.52880859375
277.40478515625
13.73291015625
-106.201171875
-109.86328125
-108.0322265625
-80.56640625
-54.931640625
-46.69189453125
-33.87451171875
-25.634765625
-24.71923828125
-38.4521484375
-53.1005859375
-62.255859375
-72.32666015625
-79.65087890625
-76.904296875
-77.81982421875
-83.31298828125
-77.81982421875
-83.31298828125
-81.48193359375
-83.31298828125
-95.21484375
-95.21484375
-102.5390625
-93.3837890625
-91.552734375
-85.14404296875
-82.3974609375
-79.65087890625
-86.0595703125
-84.228515625
-86.0595703125
-99.79248046875
-104.3701171875
-95.21484375
-91.552734375
-88.80615234375
-79.65087890625
-82.3974609375
-82.3974609375
-86.0595703125
-82.3974609375
-86.0595703125
-97.96142578125
-96.13037109375
-91.552734375
-92.46826171875
-77.81982421875
-78.7353515625
-72.32666015625
-75.98876953125
-82.3974609375
-87.890625
-88.80615234375
-83.31298828125
-87.890625
-85.14404296875
-90.63720703125
-87.890625
-85.14404296875
-91.552734375
-91.552734375
-97.0458984375
-101.62353515625
-96.13037109375
-87.890625
-86.97509765625
-75.98876953125
-77.81982421875
-85.14404296875
-93.3837890625
-89.7216796875
-92.46826171875
-97.0458984375
-94.29931640625
-93.3837890625
-83.31298828125
-69.580078125
-62.255859375
-77.81982421875
-84.228515625
-81.48193359375
-91.552734375
-95.21484375
-87.890625
-82.3974609375
-89.7216796875
-76.904296875
-77.81982421875
-85.14404296875
-84.228515625
-81.48193359375
-90.63720703125
-86.97509765625
-89.7216796875
-86.0595703125
-70.49560546875
-65.00244140625
-67.7490234375
-69.580078125
-70.49560546875
-71.4111328125
-83.31298828125
-97.96142578125
-86.97509765625
-79.65087890625
-71.4111328125
-68.66455078125
-73.2421875
-67.7490234375
-70.49560546875
-71.4111328125
-75.0732421875
-78.7353515625
-78.7353515625
-76.904296875
-65.91796875
-54.01611328125
-55.84716796875
-54.01611328125
-60.4248046875
-54.01611328125
-63.17138671875
-67.7490234375
-56.7626953125
-63.17138671875
-58.59375
-50.35400390625
-48.52294921875
-50.35400390625
-52.18505859375
-52.18505859375
-54.01611328125
-61.34033203125
-56.7626953125
-51.26953125
-45.7763671875
-38.4521484375
-37.53662109375
-40.283203125
-37.53662109375
-34.7900390625
-33.87451171875
-35.70556640625
-32.04345703125
-15.56396484375
-14.6484375
-10.07080078125
-3.662109375
-6.40869140625
-12.8173828125
-4.57763671875
-9.1552734375
-14.6484375
-9.1552734375
-7.32421875
-4.57763671875
-2.74658203125
4.57763671875
0
-8.23974609375
-7.32421875
-10.07080078125
-15.56396484375
-21.05712890625
-17.39501953125
-15.56396484375
-19.22607421875
-21.97265625
-21.05712890625
-28.38134765625
-35.70556640625
-52.18505859375
-56.7626953125
-57.67822265625
-52.18505859375
-57.67822265625
-50.35400390625
-49.4384765625
-47.607421875
-54.931640625
-54.01611328125
-65.00244140625
-80.56640625
-72.32666015625
-73.2421875
-75.0732421875
-65.91796875
-63.17138671875
-69.580078125
-63.17138671875
-65.91796875
-75.98876953125
-75.98876953125
-70.49560546875
-71.4111328125
-69.580078125
-74.15771484375
-66.83349609375
-64.0869140625
-64.0869140625
-72.32666015625
-79.65087890625
-85.14404296875
-82.3974609375
-81.48193359375
-74.15771484375
-67.7490234375
-73.2421875
-67.7490234375
-70.49560546875
-72.32666015625
-69.580078125
-73.2421875
-68.66455078125
-73.2421875
-69.580078125
-57.67822265625
-54.01611328125
-58.59375
-59.50927734375
-65.00244140625
-70.49560546875
-74.15771484375
-65.91796875
-70.49560546875
-58.59375
-54.01611328125
-53.1005859375
-56.7626953125
-55.84716796875
-65.91796875
-67.7490234375
-79.65087890625
-77.81982421875
-75.0732421875
-73.2421875
-62.255859375
-57.67822265625
-59.50927734375
-64.0869140625
-68.66455078125
-59.50927734375
-70.49560546875
-74.15771484375
-59.50927734375
-54.931640625
-48.52294921875
-53.1005859375
-60.4248046875
-67.7490234375
-79.65087890625
-84.228515625
-99.79248046875
-94.29931640625
-86.97509765625
-66.83349609375
-65.91796875
-69.580078125
-65.00244140625
-66.83349609375
-76.904296875
-77.81982421875
-87.890625
-85.14404296875
-86.0595703125
-83.31298828125
-76.904296875
-70.49560546875
-69.580078125
-78.7353515625
-84.228515625
-91.552734375
-102.5390625
-102.5390625
-92.46826171875
-86.97509765625
-87.890625
-77.81982421875
-83.31298828125
-92.46826171875
-91.552734375
-100.7080078125
-106.201171875
-109.86328125
-94.29931640625
-97.96142578125
-92.46826171875
-88.80615234375
-87.890625
-97.96142578125
-93.3837890625
-95.21484375
-97.96142578125
-97.96142578125
-94.29931640625
-93.3837890625
-92.46826171875
-82.3974609375
-94.29931640625
-89.7216796875
-93.3837890625
-99.79248046875
-103.45458984375
-94.29931640625
-89.7216796875
-89.7216796875
-86.0595703125
-82.3974609375
-95.21484375
-95.21484375
-94.29931640625
-89.7216796875
-106.201171875
-104.3701171875
-97.96142578125
-96.13037109375
-97.96142578125
-81.48193359375
-84.228515625
-86.97509765625
-93.3837890625
-89.7216796875
-98.876953125
-97.96142578125
-96.13037109375
-97.96142578125
-97.0458984375
-89.7216796875
-92.46826171875
-93.3837890625
-97.0458984375
-99.79248046875
-105.28564453125
-104.3701171875
-101.62353515625
-100.7080078125
-93.3837890625
-89.7216796875
-84.228515625
-89.7216796875
-84.228515625
-96.13037109375
-96.13037109375
-97.0458984375
-94.29931640625
-103.45458984375
-92.46826171875
-83.31298828125
-90.63720703125
-86.97509765625
-86.97509765625
-92.46826171875
-93.3837890625
-98.876953125
-97.96142578125
-90.63720703125
-85.14404296875
-81.48193359375
-87.890625
-93.3837890625
-96.13037109375
-103.45458984375
-110.77880859375
-113.525390625
-109.86328125
-98.876953125
-89.7216796875
-81.48193359375
-82.3974609375
-78.7353515625
-80.56640625
-81.48193359375
-91.552734375
-92.46826171875
-81.48193359375
-65.00244140625
-53.1005859375
-47.607421875
-47.607421875
-44.86083984375
-30.21240234375
-33.87451171875
-22.88818359375
-9.1552734375
-3.662109375
-9.1552734375
-7.32421875
-14.6484375
-27.4658203125
-39.36767578125
-41.19873046875
-54.931640625
-70.49560546875
-66.83349609375
-63.17138671875
-75.0732421875
-78.7353515625
-67.7490234375
-61.34033203125
-64.0869140625
-82.3974609375
-85.14404296875
-95.21484375
-92.46826171875
-94.29931640625
-87.890625
-88.80615234375
-84.228515625
-79.65087890625
-86.97509765625
-87.890625
-98.876953125
-115.3564453125
-110.77880859375
-108.0322265625
-103.45458984375
-96.13037109375
-89.7216796875
-94.29931640625
-96.13037109375
-97.0458984375
-101.62353515625
-105.28564453125
-110.77880859375
-107.11669921875
-100.7080078125
-89.7216796875
-82.3974609375
-81.48193359375
-86.97509765625
-89.7216796875
-95.21484375
-98.876953125
-93.3837890625
-86.0595703125
-92.46826171875
-103.45458984375
-124.51171875
-153.80859375
-153.80859375
-156.55517578125
-141.90673828125
-112.60986328125
-69.580078125
-2.74658203125
75.98876953125
204.16259765625
374.45068359375
532.8369140625
645.44677734375
744.32373046875
856.01806640625
981.4453125
1064.75830078125
1123.35205078125
1107.7880859375
1065.673828125
1019.8974609375
910.0341796875
634.46044921875
344.23828125
82.3974609375
-92.46826171875
-111.6943359375
-107.11669921875
-95.21484375
-66.83349609375
-37.53662109375
-22.88818359375
-29.296875
-34.7900390625
-39.36767578125
-55.84716796875
-69.580078125
-58.59375
-64.0869140625
-61.34033203125
-54.01611328125
-58.59375
-67.7490234375
-75.98876953125
-80.56640625
-86.97509765625
-86.97509765625
-87.890625
-80.56640625
-66.83349609375
-70.49560546875
-67.7490234375
-74.15771484375
-75.0732421875
-84.228515625
-97.0458984375
-97.96142578125
-86.0595703125
-83.31298828125
-89.7216796875
-81.48193359375
-81.48193359375
-81.48193359375
-86.97509765625
-87.890625
-90.63720703125
-96.13037109375
-93.3837890625
-88.80615234375
-86.97509765625
-79.65087890625
-83.31298828125
-80.56640625
-86.97509765625
-87.890625
-100.7080078125
-99.79248046875
-93.3837890625
-91.552734375
-83.31298828125
-75.98876953125
-76.904296875
-79.65087890625
-86.97509765625
-86.0595703125
-93.3837890625
-97.0458984375
-96.13037109375
-89.7216796875
-88.80615234375
-75.0732421875
-74.15771484375
-80.56640625
-78.7353515625
-84.228515625
-90.63720703125
-80.56640625
-76.904296875
-79.65087890625
-76.904296875
-80.56640625
-81.48193359375
-87.890625
-86.97509765625
-84.228515625
-91.552734375
-92.46826171875
-81.48193359375
-84.228515625
-75.98876953125
-67.7490234375
-67.7490234375
-74.15771484375
-83.31298828125
-79.65087890625
-91.552734375
-88.80615234375
-85.14404296875
-77.81982421875
-73.2421875
-60.4248046875
-62.255859375
-67.7490234375
-65.91796875
-64.0869140625
-75.0732421875
-79.65087890625
-76.904296875
-72.32666015625
-69.580078125
-63.17138671875
-59.50927734375
-58.59375
-64.0869140625
-64.0869140625
-70.49560546875
-70.49560546875
-55.84716796875
-54.01611328125
-60.4248046875
-59.50927734375
-53.1005859375
-55.84716796875
-58.59375
-62.255859375
-68.66455078125
-65.91796875
-61.34033203125
-58.59375
-50.35400390625
-45.7763671875
-42.1142578125
-48.52294921875
-44.86083984375
-44.86083984375
-54.931640625
-55.84716796875
-47.607421875
-41.19873046875
-39.36767578125
-36.62109375
-35.70556640625
-34.7900390625
-37.53662109375
-38.4521484375
-44.86083984375
-44.86083984375
-40.283203125
-35.70556640625
-21.97265625
-14.6484375
-8.23974609375
-10.07080078125
-6.40869140625
-10.07080078125
-16.4794921875
-17.39501953125
-16.4794921875
-12.8173828125
1.8310546875
6.40869140625
7.32421875
5.4931640625
15.56396484375
5.4931640625
-10.986328125
-9.1552734375
-11.90185546875
-8.23974609375
-6.40869140625
-3.662109375
-10.07080078125
-14.6484375
-11.90185546875
-18.310546875
-28.38134765625
-29.296875
-31.1279296875
-36.62109375
-31.1279296875
-23.8037109375
-26.55029296875
-32.958984375
-43.9453125
-51.26953125
-63.17138671875
-63.17138671875
-56.7626953125
-52.18505859375
-53.1005859375
-45.7763671875
-39.36767578125
-51.26953125
-61.34033203125
-62.255859375
-70.49560546875
-73.2421875
-74.15771484375
-72.32666015625
-67.7490234375
-56.7626953125
-57.67822265625
-64.0869140625
-63.17138671875
-54.931640625
-60.4248046875
-65.00244140625
-67.7490234375
-55.84716796875
-51.26953125
-47.607421875
-44.86083984375
-49.4384765625
-50.35400390625
-44.86083984375
-57.67822265625
-62.255859375
-58.59375
-55.84716796875
-56.7626953125
-53.1005859375
-43.02978515625
-45.7763671875
-50.35400390625
-52.18505859375
-55.84716796875
-58.59375
-57.67822265625
-56.7626953125
-53.1005859375
-44.86083984375
-40.283203125
-47.607421875
-46.69189453125
-44.86083984375
-57.67822265625
-58.59375
-53.1005859375
-54.01611328125
-46.69189453125
-39.36767578125
-36.62109375
-40.283203125
-43.9453125
-49.4384765625
-58.59375
-59.50927734375
-48.52294921875
-52.18505859375
-51.26953125
-42.1142578125
-42.1142578125
-46.69189453125
-52.18505859375
-53.1005859375
-58.59375
-64.0869140625
-62.255859375
-59.50927734375
-56.7626953125
-48.52294921875
-42.1142578125
-48.52294921875
-56.7626953125
-61.34033203125
-70.49560546875
-72.32666015625
-73.2421875
-66.83349609375
-65.00244140625
-57.67822265625
-57.67822265625
-59.50927734375
-59.50927734375
-67.7490234375
-77.81982421875
-77.81982421875
-78.7353515625
-71.4111328125
-70.49560546875
-66.83349609375
-58.59375
-64.0869140625
-67.7490234375
-73.2421875
-75.0732421875
-84.228515625
-77.81982421875
-74.15771484375
-74.15771484375
-68.66455078125
-65.00244140625
-76.904296875
-73.2421875
-74.15771484375
-81.48193359375
-87.890625
-85.14404296875
-85.14404296875
-76.904296875
-62.255859375
-60.4248046875
-64.0869140625
-75.98876953125
-73.2421875
-79.65087890625
-83.31298828125
-82.3974609375
-84.228515625
-84.228515625
-73.2421875
-66.83349609375
-77.81982421875
-81.48193359375
-78.7353515625
-88.80615234375
-93.3837890625
-85.14404296875
-75.0732421875
-74.15771484375
-78.7353515625
-74.15771484375
-77.81982421875
-83.31298828125
-86.97509765625
-87.890625
-92.46826171875
-91.552734375
-87.890625
-78.7353515625
-76.904296875
-73.2421875
-75.0732421875
-78.7353515625
-83.31298828125
-89.7216796875
-94.29931640625
-89.7216796875
-83.31298828125
-86.97509765625
-80.56640625
-66.83349609375
-71.4111328125
-73.2421875
-77.81982421875
-89.7216796875
-94.29931640625
-87.890625
-76.904296875
-75.98876953125
-71.4111328125
-75.98876953125
-78.7353515625
-80.56640625
-84.228515625
-93.3837890625
-86.0595703125
-80.56640625
-84.228515625
-74.15771484375
-72.32666015625
-73.2421875
-66.83349609375
-78.7353515625
-83.31298828125
-98.876953125
-97.0458984375
-94.29931640625
-91.552734375
-86.97509765625
-84.228515625
-83.31298828125
-86.0595703125
-94.29931640625
-94.29931640625
-91.552734375
-92.46826171875
-80.56640625
-80.56640625
-76.904296875
-65.91796875
-60.4248046875
-54.931640625
-54.01611328125
-54.01611328125
-57.67822265625
-58.59375
-47.607421875
-27.4658203125
-9.1552734375
0
7.32421875
12.8173828125
6.40869140625
-7.32421875
-24.71923828125
-39.36767578125
-50.35400390625
-57.67822265625
-53.1005859375
-50.35400390625
-49.4384765625
-54.931640625
-68.66455078125
-79.65087890625
-74.15771484375
-79.65087890625
-83.31298828125
-75.98876953125
-75.0732421875
-83.31298828125
-86.0595703125
-92.46826171875
-99.79248046875
-100.7080078125
-105.28564453125
-111.6943359375
-117.1875
-110.77880859375
-109.86328125
-101.62353515625
-93.3837890625
-97.0458984375
-97.0458984375
-106.201171875
-109.86328125
-111.6943359375
-109.86328125
-111.6943359375
-103.45458984375
-97.96142578125
-91.552734375
-91.552734375
-95.21484375
-97.0458984375
-98.876953125
-107.11669921875
-105.28564453125
-98.876953125
-99.79248046875
-94.29931640625
-86.0595703125
-95.21484375
-113.525390625
-130.0048828125
-157.470703125
-186.767578125
-182.18994140625
-153.80859375
-124.51171875
-79.65087890625
-21.05712890625
42.1142578125
148.3154296875
297.54638671875
451.35498046875
571.2890625
680.23681640625
804.74853515625
947.57080078125
1042.78564453125
1115.1123046875
1103.21044921875
1065.673828125
1017.15087890625
924.6826171875
698.54736328125
395.5078125
122.6806640625
-68.66455078125
-108.94775390625
-98.876953125
-97.96142578125
-80.56640625
-65.00244140625
-50.35400390625
-54.931640625
-48.52294921875
-51.26953125
-57.67822265625
-62.255859375
-66.83349609375
-67.7490234375
-75.98876953125
-84.228515625
-87.890625
-99.79248046875
-96.13037109375
-94.29931640625
-89.7216796875
-84.228515625
-83.31298828125
-82.3974609375
-87.890625
-93.3837890625
-96.13037109375
-105.28564453125
-104.3701171875
-105.28564453125
-100.7080078125
-98.876953125
-95.21484375
-96.13037109375
-93.3837890625
-99.79248046875
-107.11669921875
-113.525390625
-103.45458984375
-98.876953125
-101.62353515625
-91.552734375
-81.48193359375
-84.228515625
-87.890625
-91.552734375
-97.96142578125
-99.79248046875
-99.79248046875
-96.13037109375
-94.29931640625
-87.890625
-90.63720703125
-91.552734375
-94.29931640625
-97.0458984375
-96.13037109375
-108.0322265625
-110.77880859375
-106.201171875
-101.62353515625
-91.552734375
-90.63720703125
-88.80615234375
-94.29931640625
-102.5390625
-104.3701171875
-114.44091796875
-108.0322265625
-105.28564453125
-103.45458984375
-99.79248046875
-87.890625
-91.552734375
-97.0458984375
-99.79248046875
-108.0322265625
-103.45458984375
-105.28564453125
-99.79248046875
-91.552734375
-81.48193359375
-76.904296875
-85.14404296875
-94.29931640625
-92.46826171875
-93.3837890625
-104.3701171875
-108.0322265625
-102.5390625
-106.201171875
-95.21484375
-83.31298828125
-79.65087890625
-86.97509765625
-88.80615234375
-86.97509765625
-97.0458984375
-103.45458984375
-94.29931640625
-83.31298828125
-90.63720703125
-82.3974609375
-79.65087890625
-86.97509765625
-86.97509765625
-90.63720703125
-100.7080078125
-97.96142578125
-93.3837890625
-92.46826171875
-89.7216796875
-72.32666015625
-75.98876953125
-75.98876953125
-76.904296875
-81.48193359375
-90.63720703125
-89.7216796875
-82.3974609375
-81.48193359375
-77.81982421875
-71.4111328125
-70.49560546875
-72.32666015625
-75.0732421875
-75.98876953125
-81.48193359375
-85.14404296875
-87.890625
-76.904296875
-69.580078125
-61.34033203125
-59.50927734375
-62.255859375
-57.67822265625
-56.7626953125
-62.255859375
-63.17138671875
-66.83349609375
-61.34033203125
-60.4248046875
-47.607421875
-46.69189453125
-41.19873046875
-39.36767578125
-43.02978515625
-47.607421875
-43.9453125
-34.7900390625
-30.21240234375
-21.05712890625
-18.310546875
-25.634765625
-23.8037109375
-17.39501953125
-23.8037109375
-29.296875
-35.70556640625
-24.71923828125
-27.4658203125
-22.88818359375
-18.310546875
-21.05712890625
-34.7900390625
-34.7900390625
-45.7763671875
-45.7763671875
-54.931640625
-48.52294921875
-48.52294921875
-48.52294921875
-43.9453125
-52.18505859375
-56.7626953125
-65.00244140625
-59.50927734375
-75.0732421875
-78.7353515625
-77.81982421875
-73.2421875
-69.580078125
-67.7490234375
-72.32666015625
-77.81982421875
-81.48193359375
-78.7353515625
-83.31298828125
-86.0595703125
-90.63720703125
-90.63720703125
-86.0595703125
-75.98876953125
-77.81982421875
-85.14404296875
-90.63720703125
-89.7216796875
-101.62353515625
-101.62353515625
-99.79248046875
-101.62353515625
-95.21484375
-85.14404296875
-81.48193359375
-85.14404296875
-86.97509765625
-92.46826171875
-97.0458984375
-91.552734375
-89.7216796875
-83.31298828125
-83.31298828125
-71.4111328125
-77.81982421875
-83.31298828125
-79.65087890625
-81.48193359375
-89.7216796875
-88.80615234375
-88.80615234375
-86.0595703125
-77.81982421875
-67.7490234375
-69.580078125
-70.49560546875
-67.7490234375
-74.15771484375
-81.48193359375
-84.228515625
-76.904296875
-74.15771484375
-68.66455078125
-73.2421875
-70.49560546875
-72.32666015625
-77.81982421875
-79.65087890625
-85.14404296875
-89.7216796875
-87.890625
-80.56640625
-75.0732421875
-76.904296875
-76.904296875
-79.65087890625
-86.0595703125
-90.63720703125
-101.62353515625
-97.0458984375
-92.46826171875
-87.890625
-86.0595703125
-80.56640625
-82.3974609375
-89.7216796875
-94.29931640625
-96.13037109375
-97.96142578125
-98.876953125
-97.96142578125
-97.0458984375
-96.13037109375
-82.3974609375
-81.48193359375
-90.63720703125
-91.552734375
-102.5390625
-112.60986328125
-106.201171875
-107.11669921875
-106.201171875
-98.876953125
-86.97509765625
-86.0595703125
-91.552734375
-90.63720703125
-90.63720703125
-105.28564453125
-110.77880859375
-106.201171875
-101.62353515625
-102.5390625
-97.0458984375
-99.79248046875
-107.11669921875
-108.0322265625
-108.0322265625
-119.0185546875
-114.44091796875
-110.77880859375
-108.0322265625
-100.7080078125
-94.29931640625
-92.46826171875
-100.7080078125
-104.3701171875
-109.86328125
-111.6943359375
-115.3564453125
-111.6943359375
-108.0322265625
-103.45458984375
-90.63720703125
-92.46826171875
-95.21484375
-98.876953125
-107.11669921875
-115.3564453125
-122.6806640625
-118.10302734375
-111.6943359375
-104.3701171875
-97.0458984375
-95.21484375
-97.0458984375
-101.62353515625
-100.7080078125
-112.60986328125
-118.10302734375
-114.44091796875
-114.44091796875
-112.60986328125
-108.0322265625
-109.86328125
-113.525390625
-119.0185546875
-118.10302734375
-125.42724609375
-123.59619140625
-119.93408203125
-116.27197265625
-111.6943359375
-101.62353515625
-95.21484375
-104.3701171875
-105.28564453125
-103.45458984375
-118.10302734375
-122.6806640625
-115.3564453125
-115.3564453125
-109.86328125
-101.62353515625
-102.5390625
-107.11669921875
-105.28564453125
-118.10302734375
-124.51171875
-122.6806640625
-121.76513671875
-116.27197265625
-109.86328125
-106.201171875
-102.5390625
-98.876953125
-107.11669921875
-114.44091796875
-119.93408203125
-125.42724609375
-114.44091796875
-110.77880859375
-103.45458984375
-100.7080078125
-102.5390625
-95.21484375
-100.7080078125
-108.0322265625
-119.0185546875
-121.76513671875
-115.3564453125
-106.201171875
-103.45458984375
-101.62353515625
-99.79248046875
-105.28564453125
-104.3701171875
-108.94775390625
-115.3564453125
-115.3564453125
-113.525390625
-114.44091796875
-108.94775390625
-100.7080078125
-97.96142578125
-106.201171875
-110.77880859375
-113.525390625
-124.51171875
-129.08935546875
-117.1875
-114.44091796875
-110.77880859375
-94.29931640625
-83.31298828125
-93.3837890625
-116.27197265625
-123.59619140625
-122.6806640625
-124.51171875
-114.44091796875
-117.1875
-105.28564453125
-97.96142578125
-89.7216796875
-97.0458984375
-98.876953125
-98.876953125
-102.5390625
-98.876953125
-87.890625
-78.7353515625
-70.49560546875
-47.607421875
-27.4658203125
-10.07080078125
5.4931640625
14.6484375
9.1552734375
11.90185546875
12.8173828125
12.8173828125
17.39501953125
23.8037109375
18.310546875
19.22607421875
8.23974609375
-2.74658203125
-22.88818359375
-33.87451171875
-38.4521484375
-45.7763671875
-54.931640625
-59.50927734375
-68.66455078125
-81.48193359375
-86.97509765625
-105.28564453125
-110.77880859375
-115.3564453125
-109.86328125
-114.44091796875
-117.1875
-114.44091796875
-101.62353515625
-108.94775390625
-119.0185546875
-119.0185546875
-126.3427734375
-126.3427734375
-126.3427734375
-128.173828125
-118.10302734375
-118.10302734375
-119.93408203125
-132.75146484375
-125.42724609375
-120.849609375
-121.76513671875
-124.51171875
-130.0048828125
-131.8359375
-124.51171875
-122.6806640625
-113.525390625
-119.0185546875
-112.60986328125
-111.6943359375
-127.25830078125
-129.08935546875
-124.51171875
-119.0185546875
-122.6806640625
-127.25830078125
-143.73779296875
-166.6259765625
-190.4296875
-192.2607421875
-179.443359375
-145.56884765625
-100.7080078125
-50.35400390625
25.634765625
149.23095703125
300.29296875
444.03076171875
582.275390625
687.56103515625
811.1572265625
949.40185546875
1037.29248046875
1090.39306640625
1079.40673828125
1050.10986328125
1002.50244140625
910.94970703125
672.91259765625
367.12646484375
80.56640625
-115.3564453125
-143.73779296875
-127.25830078125
-99.79248046875
-72.32666015625
-49.4384765625
-40.283203125
-48.52294921875
-56.7626953125
-68.66455078125
-81.48193359375
-86.0595703125
-86.0595703125
-86.97509765625
-88.80615234375
-90.63720703125
-99.79248046875
-103.45458984375
-104.3701171875
-111.6943359375
-118.10302734375
-117.1875
-108.94775390625
-103.45458984375
-100.7080078125
-99.79248046875
-104.3701171875
-110.77880859375
-116.27197265625
-128.173828125
-129.08935546875
-119.0185546875
-111.6943359375
-118.10302734375
-108.0322265625
-102.5390625
-102.5390625
-104.3701171875
-111.6943359375
-116.27197265625
-120.849609375
-117.1875
-111.6943359375
-105.28564453125
-98.876953125
-90.63720703125
-97.0458984375
-95.21484375
-105.28564453125
-109.86328125
-108.94775390625
-106.201171875
-104.3701171875
-102.5390625
-95.21484375
-96.13037109375
-107.11669921875
-108.94775390625
-122.6806640625
-124.51171875
-119.0185546875
-111.6943359375
-111.6943359375
-108.0322265625
-97.96142578125
-87.890625
-88.80615234375
-96.13037109375
-94.29931640625
-96.13037109375
-103.45458984375
-104.3701171875
-103.45458984375
-97.96142578125
-97.0458984375
-93.3837890625
-100.7080078125
-108.94775390625
-102.5390625
-105.28564453125
-112.60986328125
-108.94775390625
-109.86328125
-100.7080078125
-92.46826171875
-84.228515625
-87.890625
-89.7216796875
-95.21484375
-95.21484375
-99.79248046875
-91.552734375
-84.228515625
-86.0595703125
-91.552734375
-85.14404296875
-80.56640625
-76.904296875
-84.228515625
-78.7353515625
-84.228515625
-83.31298828125
-84.228515625
-83.31298828125
-70.49560546875
-66.83349609375
-73.2421875
-74.15771484375
-78.7353515625
-82.3974609375
-86.97509765625
-81.48193359375
-66.83349609375
-62.255859375
-58.59375
-55.84716796875
-56.7626953125
-65.00244140625
-76.904296875
-82.3974609375
-84.228515625
-75.98876953125
-75.0732421875
-72.32666015625
-67.7490234375
-52.18505859375
-55.84716796875
-55.84716796875
-58.59375
-65.00244140625
-73.2421875
-56.7626953125
-51.26953125
-54.931640625
-42.1142578125
-26.55029296875
-36.62109375
-38.4521484375
-40.283203125
-46.69189453125
-54.931640625
-51.26953125
-42.1142578125
-39.36767578125
-29.296875
-12.8173828125
-9.1552734375
-15.56396484375
-21.05712890625
-17.39501953125
-19.22607421875
-22.88818359375
-5.4931640625
0.91552734375
3.662109375
16.4794921875
8.23974609375
1.8310546875
-1.8310546875
-1.8310546875
-11.90185546875
-6.40869140625
-1.8310546875
5.4931640625
5.4931640625
0.91552734375
-6.40869140625
-8.23974609375
-9.1552734375
-21.05712890625
-37.53662109375
-33.87451171875
-23.8037109375
-20.1416015625
-27.4658203125
-28.38134765625
-36.62109375
-37.53662109375
-51.26953125
-56.7626953125
-63.17138671875
-63.17138671875
-58.59375
-61.34033203125
-54.01611328125
-47.607421875
-44.86083984375
-51.26953125
-59.50927734375
-66.83349609375
-79.65087890625
-80.56640625
-69.580078125
-69.580078125
-65.91796875
-57.67822265625
-61.34033203125
-66.83349609375
-65.00244140625
-64.0869140625
-74.15771484375
-74.15771484375
-70.49560546875
-71.4111328125
-66.83349609375
-64.0869140625
-70.49560546875
-65.00244140625
-59.50927734375
-64.0869140625
-75.0732421875
-68.66455078125
-54.931640625
-51.26953125
-59.50927734375
-54.931640625
-55.84716796875
-55.84716796875
-57.67822265625
-58.59375
-67.7490234375
-67.7490234375
-62.255859375
-58.59375
-50.35400390625
-40.283203125
-54.931640625
-64.0869140625
-62.255859375
-60.4248046875
-67.7490234375
-59.50927734375
-54.01611328125
-47.607421875
-37.53662109375
-37.53662109375
-40.283203125
-52.18505859375
-53.1005859375
-58.59375
-63.17138671875
-63.17138671875
-59.50927734375
-63.17138671875
-59.50927734375
-45.7763671875
-46.69189453125
-49.4384765625
-51.26953125
-56.7626953125
-57.67822265625
-53.1005859375
-54.931640625
-53.1005859375
-45.7763671875
-53.1005859375
-63.17138671875
-56.7626953125
-60.4248046875
-53.1005859375
-67.7490234375
-71.4111328125
-63.17138671875
-65.91796875
-67.7490234375
-54.931640625
-57.67822265625
-57.67822265625
-63.17138671875
-62.255859375
-78.7353515625
-74.15771484375
-74.15771484375
-72.32666015625
-68.66455078125
-60.4248046875
-54.01611328125
-65.00244140625
-68.66455078125
-65.00244140625
-74.15771484375
-76.904296875
-68.66455078125
-61.34033203125
-66.83349609375
-63.17138671875
-65.91796875
-69.580078125
-72.32666015625
-72.32666015625
-77.81982421875
-86.0595703125
-79.65087890625
-74.15771484375
-73.2421875
-72.32666015625
-66.83349609375
-62.255859375
-67.7490234375
-68.66455078125
-86.97509765625
-93.3837890625
-86.97509765625
-80.56640625
-80.56640625
-69.580078125
-72.32666015625
-68.66455078125
-73.2421875
-71.4111328125
-82.3974609375
-81.48193359375
-75.98876953125
-74.15771484375
-70.49560546875
-64.0869140625
-65.91796875
-75.0732421875
-81.48193359375
-81.48193359375
-92.46826171875
-87.890625
-83.31298828125
-83.31298828125
-74.15771484375
-68.66455078125
-67.7490234375
-72.32666015625
-75.98876953125
-76.904296875
-79.65087890625
-76.904296875
-81.48193359375
-79.65087890625
-81.48193359375
-69.580078125
-65.91796875
-69.580078125
-80.56640625
-81.48193359375
-88.80615234375
-87.890625
-74.15771484375
-76.904296875
-73.2421875
-67.7490234375
-71.4111328125
-76.904296875
-76.904296875
-76.904296875
-90.63720703125
-86.97509765625
-85.14404296875
-83.31298828125
-73.2421875
-73.2421875
-75.98876953125
-71.4111328125
-85.14404296875
-82.3974609375
-96.13037109375
-88.80615234375
-81.48193359375
-80.56640625
-74.15771484375
-65.91796875
-63.17138671875
-65.91796875
-71.4111328125
-74.15771484375
-79.65087890625
-76.904296875
-70.49560546875
-65.00244140625
-64.0869140625
-50.35400390625
-55.84716796875
-52.18505859375
-42.1142578125
-36.62109375
-29.296875
-25.634765625
-15.56396484375
0.91552734375
10.07080078125
18.310546875
16.4794921875
17.39501953125
5.4931640625
-7.32421875
-20.1416015625
-20.1416015625
-25.634765625
-32.958984375
-32.04345703125
-38.4521484375
-43.9453125
-48.52294921875
-51.26953125
-59.50927734375
-72.32666015625
-73.2421875
-72.32666015625
-72.32666015625
-75.98876953125
-66.83349609375
-68.66455078125
-71.4111328125
-78.7353515625
-85.14404296875
-88.80615234375
-91.552734375
-97.0458984375
-96.13037109375
-91.552734375
-81.48193359375
-82.3974609375
-78.7353515625
-84.228515625
-80.56640625
-93.3837890625
-99.79248046875
-92.46826171875
-89.7216796875
-84.228515625
-78.7353515625
-76.904296875
-78.7353515625
-75.98876953125
-80.56640625
-91.552734375
-96.13037109375
-87.890625
-85.14404296875
-86.0595703125
-77.81982421875
-78.7353515625
-84.228515625
-100.7080078125
-130.92041015625
-152.89306640625
-166.6259765625
-151.9775390625
-129.08935546875
-88.80615234375
-34.7900390625
22.88818359375
104.3701171875
227.05078125
398.25439453125
542.90771484375
649.10888671875
748.9013671875
882.568359375
997.9248046875
1074.8291015625
1123.35205078125
1105.95703125
1066.58935546875
1020.81298828125
864.2578125
563.96484375
294.7998046875
50.35400390625
-66.83349609375
-80.56640625
-75.98876953125
-77.81982421875
-63.17138671875
-42.1142578125
-40.283203125
-35.70556640625
-27.4658203125
-25.634765625
-32.04345703125
-31.1279296875
-35.70556640625
-43.02978515625
-58.59375
-67.7490234375
-76.904296875
-82.3974609375
-77.81982421875
-77.81982421875
-69.580078125
-59.50927734375
-60.4248046875
-69.580078125
-72.32666015625
-76.904296875
-83.31298828125
-86.97509765625
-85.14404296875
-79.65087890625
-70.49560546875
-66.83349609375
-66.83349609375
-67.7490234375
-73.2421875
-74.15771484375
-81.48193359375
-85.14404296875
-87.890625
-78.7353515625
-72.32666015625
-63.17138671875
-62.255859375
-66.83349609375
-70.49560546875
-74.15771484375
-88.80615234375
-85.14404296875
-78.7353515625
-72.32666015625
-76.904296875
-62.255859375
-58.59375
-67.7490234375
-69.580078125
-71.4111328125
-84.228515625
-93.3837890625
-90.63720703125
-87.890625
-79.65087890625
-71.4111328125
-62.255859375
-64.0869140625
-62.255859375
-71.4111328125
-75.98876953125
-80.56640625
-79.65087890625
-70.49560546875
-63.17138671875
-62.255859375
-54.931640625
-61.34033203125
-64.0869140625
-58.59375
-71.4111328125
-86.97509765625
-85.14404296875
-76.904296875
-67.7490234375
-57.67822265625
-54.01611328125
-65.00244140625
-67.7490234375
-59.50927734375
-66.83349609375
-79.65087890625
-74.15771484375
-67.7490234375
-69.580078125
-62.255859375
-54.931640625
-59.50927734375
-57.67822265625
-63.17138671875
-65.00244140625
-75.0732421875
-65.91796875
-58.59375
-54.931640625
-52.18505859375
-48.52294921875
-56.7626953125
-63.17138671875
-67.7490234375
-68.66455078125
-68.66455078125
-67.7490234375
-62.255859375
-54.01611328125
-50.35400390625
-51.26953125
-52.18505859375
-49.4384765625
-57.67822265625
-58.59375
-62.255859375
-61.34033203125
-51.26953125
-48.52294921875
-43.02978515625
-40.283203125
-43.9453125
-48.52294921875
-51.26953125
-59.50927734375
-63.17138671875
-57.67822265625
-55.84716796875
-57.67822265625
-48.52294921875
-37.53662109375
-36.62109375
-41.19873046875
-42.1142578125
-47.607421875
-52.18505859375
-42.1142578125
-43.9453125
-32.958984375
-24.71923828125
-20.1416015625
-19.22607421875
-21.97265625
-25.634765625
-25.634765625
-25.634765625
-27.4658203125
-17.39501953125
-9.1552734375
-5.4931640625
2.74658203125
6.40869140625
2.74658203125
-5.4931640625
-7.32421875
-10.986328125
-9.1552734375
-5.4931640625
4.57763671875
6.40869140625
7.32421875
-0.91552734375
0.91552734375
-3.662109375
-11.90185546875
-15.56396484375
-23.8037109375
-25.634765625
-19.22607421875
-18.310546875
-17.39501953125
-31.1279296875
-37.53662109375
-42.1142578125
-43.9453125
-56.7626953125
-65.00244140625
-60.4248046875
-54.931640625
-49.4384765625
-42.1142578125
-45.7763671875
-57.67822265625
-60.4248046875
-64.0869140625
-70.49560546875
-65.91796875
-64.0869140625
-66.83349609375
-59.50927734375
-58.59375
-61.34033203125
-63.17138671875
-64.0869140625
-74.15771484375
-79.65087890625
-76.904296875
-69.580078125
-65.00244140625
-57.67822265625
-43.9453125
-36.62109375
-49.4384765625
-53.1005859375
-54.01611328125
-63.17138671875
-58.59375
-54.931640625
-56.7626953125
-49.4384765625
-43.02978515625
-42.1142578125
-45.7763671875
-50.35400390625
-59.50927734375
-63.17138671875
-61.34033203125
-55.84716796875
-54.931640625
-53.1005859375
-43.9453125
-45.7763671875
-50.35400390625
-48.52294921875
-53.1005859375
-60.4248046875
-59.50927734375
-54.01611328125
-57.67822265625
-48.52294921875
-43.02978515625
-45.7763671875
-46.69189453125
-55.84716796875
-66.83349609375
-70.49560546875
-65.00244140625
-54.01611328125
-55.84716796875
-52.18505859375
-40.283203125
-44.86083984375
-48.52294921875
-53.1005859375
-56.7626953125
-58.59375
-60.4248046875
-62.255859375
-57.67822265625
-57.67822265625
-47.607421875
-54.01611328125
-63.17138671875
-62.255859375
-67.7490234375
-75.98876953125
-75.0732421875
-71.4111328125
-75.0732421875
-67.7490234375
-54.931640625
-69.580078125
-74.15771484375
-70.49560546875
-73.2421875
-79.65087890625
-75.98876953125
-75.0732421875
-69.580078125
-69.580078125
-64.0869140625
-65.00244140625
-65.00244140625
-70.49560546875
-67.7490234375
-81.48193359375
-79.65087890625
-75.0732421875
-71.4111328125
-74.15771484375
-67.7490234375
-70.49560546875
-75.0732421875
-77.81982421875
-75.98876953125
-86.0595703125
-87.890625
-85.14404296875
-76.904296875
-73.2421875
-59.50927734375
-59.50927734375
-67.7490234375
-71.4111328125
-75.0732421875
-81.48193359375
-86.97509765625
-81.48193359375
-81.48193359375
-75.0732421875
-75.0732421875
-75.0732421875
-80.56640625
-78.7353515625
-76.904296875
-86.97509765625
-88.80615234375
-86.0595703125
-75.98876953125
-76.904296875
-68.66455078125
-66.83349609375
-71.4111328125
-73.2421875
-76.904296875
-87.890625
-85.14404296875
-81.48193359375
-76.904296875
-75.98876953125
-66.83349609375
-67.7490234375
-75.98876953125
-81.48193359375
-78.7353515625
-86.97509765625
-92.46826171875
-90.63720703125
-83.31298828125
-74.15771484375
-72.32666015625
-77.81982421875
-78.7353515625
-74.15771484375
-84.228515625
-91.552734375
-87.890625
-83.31298828125
-79.65087890625
-76.904296875
-67.7490234375
-74.15771484375
-78.7353515625
-79.65087890625
-77.81982421875
-80.56640625
-84.228515625
-82.3974609375
-74.15771484375
-68.66455078125
-72.32666015625
-76.904296875
-80.56640625
-85.14404296875
-86.0595703125
-88.80615234375
-90.63720703125
-88.80615234375
-89.7216796875
-81.48193359375
-75.0732421875
-70.49560546875
-70.49560546875
-75.98876953125
-81.48193359375
-87.890625
-87.890625
-82.3974609375
-76.904296875
-75.0732421875
-67.7490234375
-63.17138671875
-64.0869140625
-79.65087890625
-79.65087890625
-95.21484375
-97.96142578125
-90.63720703125
-83.31298828125
-78.7353515625
-75.0732421875
-78.7353515625
-78.7353515625
-80.56640625
-85.14404296875
-89.7216796875
-84.228515625
-86.97509765625
-78.7353515625
-75.0732421875
-71.4111328125
-77.81982421875
-82.3974609375
-82.3974609375
-81.48193359375
-86.0595703125
-85.14404296875
-75.98876953125
-74.15771484375
-73.2421875
-56.7626953125
-54.01611328125
-57.67822265625
-49.4384765625
-50.35400390625
-42.1142578125
-34.7900390625
-21.05712890625
1.8310546875
31.1279296875
39.36767578125
51.26953125
55.84716796875
49.4384765625
45.7763671875
36.62109375
32.958984375
34.7900390625
38.4521484375
41.19873046875
43.9453125
33.87451171875
13.73291015625
7.32421875
-3.662109375
-25.634765625
-46.69189453125
-49.4384765625
-56.7626953125
-60.4248046875
-51.26953125
-58.59375
-67.7490234375
-71.4111328125
-75.98876953125
-85.14404296875
-79.65087890625
-80.56640625
-81.48193359375
-81.48193359375
-73.2421875
-76.904296875
-82.3974609375
-82.3974609375
-84.228515625
-94.29931640625
-94.29931640625
-90.63720703125
-89.7216796875
-92.46826171875
-96.13037109375
-94.29931640625
-96.13037109375
-97.96142578125
-97.0458984375
-103.45458984375
-104.3701171875
-97.0458984375
-88.80615234375
-86.0595703125
-82.3974609375
-81.48193359375
-82.3974609375
-88.80615234375
-90.63720703125
-102.5390625
-120.849609375
-142.822265625
-163.87939453125
-175.78125
-156.55517578125
-134.58251953125
-110.77880859375
-73.2421875
-19.22607421875
52.18505859375
171.20361328125
325.01220703125
478.82080078125
617.98095703125
738.83056640625
870.66650390625
998.84033203125
1078.4912109375
1123.35205078125
1082.1533203125
1038.2080078125
986.9384765625
883.48388671875
638.12255859375
338.7451171875
75.0732421875
-97.96142578125
-109.86328125
-105.28564453125
-80.56640625
-54.931640625
-41.19873046875
-26.55029296875
-29.296875
-29.296875
-36.62109375
-45.7763671875
-54.931640625
-60.4248046875
-78.7353515625
-84.228515625
-75.98876953125
-76.904296875
-75.0732421875
-74.15771484375
-78.7353515625
-90.63720703125
-95.21484375
-92.46826171875
-105.28564453125
-110.77880859375
-97.96142578125
-97.0458984375
-87.890625
-85.14404296875
-86.0595703125
-82.3974609375
-92.46826171875
-93.3837890625
-104.3701171875
-100.7080078125
-97.96142578125
-81.48193359375
-88.80615234375
-82.3974609375
-77.81982421875
-83.31298828125
-86.97509765625
-99.79248046875
-102.5390625
-107.11669921875
-96.13037109375
-92.46826171875
-92.46826171875
-78.7353515625
-78.7353515625
-75.0732421875
-85.14404296875
-88.80615234375
-90.63720703125
-96.13037109375
-97.0458984375
-96.13037109375
-100.7080078125
-92.46826171875
-84.228515625
-88.80615234375
-86.0595703125
-90.63720703125
-94.29931640625
-95.21484375
-86.97509765625
-86.0595703125
-82.3974609375
-68.66455078125
-72.32666015625
-73.2421875
-80.56640625
-94.29931640625
-93.3837890625
-94.29931640625
-91.552734375
-89.7216796875
-78.7353515625
-77.81982421875
-76.904296875
-74.15771484375
-83.31298828125
-83.31298828125
-87.890625
-97.0458984375
-99.79248046875
-93.3837890625
-82.3974609375
-69.580078125
-66.83349609375
-74.15771484375
-80.56640625
-77.81982421875
-86.0595703125
-86.0595703125
-82.3974609375
-78.7353515625
-81.48193359375
-71.4111328125
-70.49560546875
-74.15771484375
-75.0732421875
-65.91796875
-73.2421875
-77.81982421875
-64.0869140625
-64.0869140625
-62.255859375
-65.91796875
-64.0869140625
-58.59375
-62.255859375
-65.91796875
-64.0869140625
-65.00244140625
-56.7626953125
-59.50927734375
-55.84716796875
-47.607421875
-40.283203125
-48.52294921875
-54.01611328125
-60.4248046875
-58.59375
-64.0869140625
-65.00244140625
-53.1005859375
-48.52294921875
-40.283203125
-30.21240234375
-34.7900390625
-36.62109375
-43.02978515625
-53.1005859375
-54.01611328125
-44.86083984375
-40.283203125
-39.36767578125
-30.21240234375
-27.4658203125
-31.1279296875
-21.97265625
-22.88818359375
-24.71923828125
-24.71923828125
-25.634765625
-23.8037109375
-11.90185546875
-0.91552734375
4.57763671875
3.662109375
4.57763671875
0
1.8310546875
1.8310546875
7.32421875
6.40869140625
7.32421875
14.6484375
21.05712890625
17.39501953125
11.90185546875
11.90185546875
4.57763671875
-3.662109375
-7.32421875
-2.74658203125
-1.8310546875
-0.91552734375
-0.91552734375
-7.32421875
-15.56396484375
-23.8037109375
-28.38134765625
-35.70556640625
-43.02978515625
-43.02978515625
-41.19873046875
-40.283203125
-47.607421875
-54.931640625
-54.931640625
-61.34033203125
-71.4111328125
-71.4111328125
-65.91796875
-66.83349609375
-60.4248046875
-54.931640625
-57.67822265625
-51.26953125
-60.4248046875
-63.17138671875
-61.34033203125
-65.00244140625
-66.83349609375
-64.0869140625
-54.931640625
-47.607421875
-43.9453125
-44.86083984375
-54.01611328125
-60.4248046875
-71.4111328125
-77.81982421875
-73.2421875
-73.2421875
-73.2421875
-63.17138671875
-56.7626953125
-56.7626953125
-61.34033203125
-57.67822265625
-61.34033203125
-67.7490234375
-62.255859375
-62.255859375
-59.50927734375
-49.4384765625
-45.7763671875
-43.02978515625
-52.18505859375
-60.4248046875
-71.4111328125
-73.2421875
-72.32666015625
-59.50927734375
-53.1005859375
-50.35400390625
-50.35400390625
-57.67822265625
-57.67822265625
-61.34033203125
-65.00244140625
-67.7490234375
-66.83349609375
-62.255859375
-60.4248046875
-48.52294921875
-41.19873046875
-43.9453125
-43.02978515625
-51.26953125
-57.67822265625
-65.91796875
-71.4111328125
-67.7490234375
-72.32666015625
-61.34033203125
-53.1005859375
-56.7626953125
-52.18505859375
-56.7626953125
-60.4248046875
-75.0732421875
-71.4111328125
-59.50927734375
-61.34033203125
-57.67822265625
-56.7626953125
-55.84716796875
-58.59375
-57.67822265625
-66.83349609375
-77.81982421875
-74.15771484375
-72.32666015625
-73.2421875
-66.83349609375
-67.7490234375
-72.32666015625
-78.7353515625
-77.81982421875
-76.904296875
-78.7353515625
-82.3974609375
-71.4111328125
-65.91796875
-61.34033203125
-64.0869140625
-69.580078125
-75.0732421875
-79.65087890625
-92.46826171875
-97.0458984375
-88.80615234375
-81.48193359375
-88.80615234375
-79.65087890625
-75.0732421875
-75.0732421875
-71.4111328125
-70.49560546875
-81.48193359375
-96.13037109375
-93.3837890625
-87.890625
-88.80615234375
-81.48193359375
-86.0595703125
-81.48193359375
-78.7353515625
-83.31298828125
-86.0595703125
-94.29931640625
-94.29931640625
-82.3974609375
-77.81982421875
-72.32666015625
-67.7490234375
-77.81982421875
-73.2421875
-86.0595703125
-88.80615234375
-91.552734375
-82.3974609375
-85.14404296875
-83.31298828125
-75.0732421875
-74.15771484375
-77.81982421875
-89.7216796875
-88.80615234375
-91.552734375
-94.29931640625
-91.552734375
-86.0595703125
-75.98876953125
-76.904296875
-77.81982421875
-76.904296875
-78.7353515625
-91.552734375
-90.63720703125
-101.62353515625
-104.3701171875
-98.876953125
-99.79248046875
-84.228515625
-81.48193359375
-91.552734375
-90.63720703125
-93.3837890625
-97.96142578125
-110.77880859375
-105.28564453125
-101.62353515625
-99.79248046875
-99.79248046875
-97.96142578125
-102.5390625
-96.13037109375
-96.13037109375
-110.77880859375
-111.6943359375
-103.45458984375
-101.62353515625
-95.21484375
-88.80615234375
-87.890625
-93.3837890625
-98.876953125
-107.11669921875
-108.0322265625
-119.93408203125
-111.6943359375
-109.86328125
-109.86328125
-97.96142578125
-94.29931640625
-105.28564453125
-105.28564453125
-97.96142578125
-104.3701171875
-99.79248046875
-103.45458984375
-100.7080078125
-90.63720703125
-82.3974609375
-65.91796875
-59.50927734375
-64.0869140625
-71.4111328125
-59.50927734375
-54.931640625
-44.86083984375
-30.21240234375
-18.310546875
-12.8173828125
-4.57763671875
-15.56396484375
-27.4658203125
-41.19873046875
-43.9453125
-49.4384765625
-54.01611328125
-54.01611328125
-70.49560546875
-78.7353515625
-80.56640625
-78.7353515625
-86.97509765625
-89.7216796875
-99.79248046875
-108.94775390625
-108.94775390625
-105.28564453125
-99.79248046875
-105.28564453125
-97.0458984375
-98.876953125
-108.0322265625
-109.86328125
-121.76513671875
-130.92041015625
-126.3427734375
-118.10302734375
-107.11669921875
-103.45458984375
-97.0458984375
-98.876953125
-104.3701171875
-110.77880859375
-121.76513671875
-123.59619140625
-118.10302734375
-114.44091796875
-110.77880859375
-112.60986328125
-102.5390625
-97.0458984375
-100.7080078125
-101.62353515625
-103.45458984375
-121.76513671875
-117.1875
-108.0322265625
-112.60986328125
-108.0322265625
-110.77880859375
-119.0185546875
-147.39990234375
-161.1328125
-169.37255859375
-160.21728515625
-138.24462890625
-95.21484375
-42.1142578125
33.87451171875
143.73779296875
284.72900390625
438.53759765625
570.37353515625
666.50390625
773.62060546875
907.28759765625
1005.2490234375
1075.74462890625
1099.54833984375
1077.57568359375
1042.78564453125
957.6416015625
748.9013671875
442.19970703125
175.78125
-42.1142578125
-105.28564453125
-105.28564453125
-106.201171875
-86.0595703125
-66.83349609375
-49.4384765625
-44.86083984375
-39.36767578125
-49.4384765625
-55.84716796875
-54.931640625
-65.00244140625
-66.83349609375
-65.91796875
-67.7490234375
-78.7353515625
-87.890625
-86.97509765625
-97.0458984375
-106.201171875
-100.7080078125
-105.28564453125
-96.13037109375
-85.14404296875
-85.14404296875
-86.97509765625
-91.552734375
-89.7216796875
-97.96142578125
-97.0458984375
-97.0458984375
-93.3837890625
-85.14404296875
-86.97509765625
-89.7216796875
-86.97509765625
-91.552734375
-94.29931640625
-102.5390625
-97.0458984375
-91.552734375
-86.0595703125
-89.7216796875
-79.65087890625
-81.48193359375
-80.56640625
-78.7353515625
-87.890625
-100.7080078125
-98.876953125
-94.29931640625
-84.228515625
-81.48193359375
-78.7353515625
-75.98876953125
-80.56640625
-80.56640625
-89.7216796875
-97.96142578125
-96.13037109375
-90.63720703125
-89.7216796875
-87.890625
-80.56640625
-84.228515625
-78.7353515625
-85.14404296875
-82.3974609375
-87.890625
-97.96142578125
-86.0595703125
-90.63720703125
-88.80615234375
-85.14404296875
-83.31298828125
-85.14404296875
-85.14404296875
-86.97509765625
-97.0458984375
-95.21484375
-95.21484375
-90.63720703125
-85.14404296875
-77.81982421875
-75.98876953125
-77.81982421875
-85.14404296875
-83.31298828125
-95.21484375
-96.13037109375
-89.7216796875
-84.228515625
-83.31298828125
-72.32666015625
-70.49560546875
-77.81982421875
-82.3974609375
-79.65087890625
-83.31298828125
-87.890625
-87.890625
-83.31298828125
-74.15771484375
-69.580078125
-67.7490234375
-66.83349609375
-68.66455078125
-65.00244140625
-74.15771484375
-86.0595703125
-75.98876953125
-69.580078125
-68.66455078125
-62.255859375
-61.34033203125
-58.59375
-60.4248046875
-58.59375
-64.0869140625
-81.48193359375
-72.32666015625
-70.49560546875
-69.580078125
-55.84716796875
-52.18505859375
-60.4248046875
-67.7490234375
-75.0732421875
-77.81982421875
-75.0732421875
-75.0732421875
-72.32666015625
-68.66455078125
-62.255859375
-54.01611328125
-49.4384765625
-53.1005859375
-57.67822265625
-71.4111328125
-65.00244140625
-59.50927734375
-49.4384765625
-43.9453125
-36.62109375
-32.04345703125
-33.87451171875
-34.7900390625
-41.19873046875
-42.1142578125
-39.36767578125
-29.296875
-24.71923828125
-22.88818359375
-16.4794921875
-9.1552734375
0
-6.40869140625
-15.56396484375
-21.97265625
-19.22607421875
-16.4794921875
-19.22607421875
-15.56396484375
-8.23974609375
-6.40869140625
-14.6484375
-22.88818359375
-30.21240234375
-40.283203125
-42.1142578125
-41.19873046875
-43.02978515625
-47.607421875
-41.19873046875
-43.9453125
-50.35400390625
-60.4248046875
-58.59375
-65.00244140625
-67.7490234375
-67.7490234375
-60.4248046875
-65.00244140625
-62.255859375
-54.931640625
-66.83349609375
-65.91796875
-68.66455078125
-73.2421875
-79.65087890625
-69.580078125
-74.15771484375
-75.0732421875
-72.32666015625
-74.15771484375
-75.0732421875
-79.65087890625
-75.98876953125
-84.228515625
-87.890625
-85.14404296875
-80.56640625
-73.2421875
-61.34033203125
-58.59375
-63.17138671875
-59.50927734375
-65.00244140625
-70.49560546875
-71.4111328125
-72.32666015625
-74.15771484375
-67.7490234375
-65.00244140625
-61.34033203125
-63.17138671875
-65.00244140625
-64.0869140625
-74.15771484375
-85.14404296875
-82.3974609375
-68.66455078125
-63.17138671875
-62.255859375
-57.67822265625
-58.59375
-68.66455078125
-62.255859375
-75.98876953125
-81.48193359375
-75.0732421875
-66.83349609375
-67.7490234375
-62.255859375
-54.931640625
-55.84716796875
-63.17138671875
-67.7490234375
-78.7353515625
-84.228515625
-78.7353515625
-74.15771484375
-73.2421875
-66.83349609375
-60.4248046875
-63.17138671875
-65.91796875
-65.91796875
-76.904296875
-77.81982421875
-75.98876953125
-75.98876953125
-67.7490234375
-59.50927734375
-58.59375
-59.50927734375
-59.50927734375
-64.0869140625
-78.7353515625
-85.14404296875
-88.80615234375
-80.56640625
-83.31298828125
-79.65087890625
-72.32666015625
-73.2421875
-80.56640625
-81.48193359375
-86.0595703125
-96.13037109375
-95.21484375
-96.13037109375
-94.29931640625
-88.80615234375
-81.48193359375
-85.14404296875
-95.21484375
-97.96142578125
-98.876953125
-103.45458984375
-96.13037109375
-90.63720703125
-90.63720703125
-85.14404296875
-85.14404296875
-90.63720703125
-87.890625
-90.63720703125
-100.7080078125
-102.5390625
-98.876953125
-93.3837890625
-90.63720703125
-83.31298828125
-82.3974609375
-85.14404296875
-89.7216796875
-88.80615234375
-98.876953125
-101.62353515625
-91.552734375
-95.21484375
-86.97509765625
-82.3974609375
-79.65087890625
-85.14404296875
-86.97509765625
-90.63720703125
-103.45458984375
-105.28564453125
-92.46826171875
-95.21484375
-88.80615234375
-79.65087890625
-77.81982421875
-86.0595703125
-90.63720703125
-93.3837890625
-103.45458984375
-105.28564453125
-104.3701171875
-97.96142578125
-93.3837890625
-88.80615234375
-86.0595703125
-93.3837890625
-95.21484375
-100.7080078125
-108.94775390625
-113.525390625
-112.60986328125
-102.5390625
-104.3701171875
-92.46826171875
-92.46826171875
-100.7080078125
-98.876953125
-97.0458984375
-107.11669921875
-108.0322265625
-106.201171875
-98.876953125
-96.13037109375
-95.21484375
-89.7216796875
-92.46826171875
-94.29931640625
-93.3837890625
-103.45458984375
-110.77880859375
-108.0322265625
-99.79248046875
-96.13037109375
-91.552734375
-86.97509765625
-87.890625
-89.7216796875
-91.552734375
-103.45458984375
-109.86328125
-101.62353515625
-101.62353515625
-95.21484375
-90.63720703125
-89.7216796875
-89.7216796875
-97.0458984375
-96.13037109375
-106.201171875
-120.849609375
-113.525390625
-111.6943359375
-98.876953125
-86.97509765625
-78.7353515625
-80.56640625
-85.14404296875
-78.7353515625
-75.0732421875
-79.65087890625
-73.2421875
-69.580078125
-62.255859375
-57.67822265625
-54.01611328125
-41.19873046875
-40.283203125
-23.8037109375
-19.22607421875
-21.05712890625
-18.310546875
-17.39501953125
-32.04345703125
-33.87451171875
-38.4521484375
-50.35400390625
-48.52294921875
-53.1005859375
-65.91796875
-79.65087890625
-84.228515625
-88.80615234375
-78.7353515625
-66.83349609375
-73.2421875
-80.56640625
-84.228515625
-94.29931640625
-100.7080078125
-110.77880859375
-108.0322265625
-107.11669921875
-104.3701171875
-105.28564453125
-92.46826171875
-91.552734375
-98.876953125
-97.96142578125
-107.11669921875
-118.10302734375
-113.525390625
-108.0322265625
-101.62353515625
-89.7216796875
-78.7353515625
-90.63720703125
-96.13037109375
-93.3837890625
-96.13037109375
-113.525390625
-115.3564453125
-110.77880859375
-106.201171875
-102.5390625
-93.3837890625
-104.3701171875
-108.94775390625
-101.62353515625
-107.11669921875
-122.6806640625
-130.0048828125
-145.56884765625
-173.03466796875
-182.18994140625
-153.80859375
-132.75146484375
-104.3701171875
-58.59375
0
79.65087890625
220.64208984375
387.26806640625
535.58349609375
653.6865234375
775.45166015625
918.27392578125
1034.5458984375
1111.4501953125
1124.267578125
1078.4912109375
1029.052734375
975.03662109375
817.56591796875
523.681640625
237.12158203125
-14.6484375
-108.0322265625
-108.94775390625
-101.62353515625
-90.63720703125
-69.580078125
-53.1005859375
-42.1142578125
-36.62109375
-43.9453125
-54.01611328125
-65.00244140625
-75.0732421875
-83.31298828125
-92.46826171875
-92.46826171875
-90.63720703125
-85.14404296875
-81.48193359375
-77.81982421875
-81.48193359375
-78.7353515625
-85.14404296875
-95.21484375
-108.94775390625
-102.5390625
-99.79248046875
-99.79248046875
-101.62353515625
-93.3837890625
-95.21484375
-105.28564453125
-110.77880859375
-120.849609375
-123.59619140625
-112.60986328125
-102.5390625
-91.552734375
-88.80615234375
-83.31298828125
-78.7353515625
-88.80615234375
-91.552734375
-95.21484375
-108.0322265625
-110.77880859375
-101.62353515625
-95.21484375
-93.3837890625
-88.80615234375
-91.552734375
-94.29931640625
-96.13037109375
-103.45458984375
-112.60986328125
-105.28564453125
-101.62353515625
-98.876953125
-91.552734375
-82.3974609375
-87.890625
-95.21484375
-99.79248046875
-100.7080078125
-107.11669921875
-104.3701171875
-105.28564453125
-91.552734375
-82.3974609375
-80.56640625
-82.3974609375
-90.63720703125
-90.63720703125
-96.13037109375
-101.62353515625
-102.5390625
-96.13037109375
-94.29931640625
-91.552734375
-85.14404296875
-83.31298828125
-87.890625
-91.552734375
-94.29931640625
-101.62353515625
-102.5390625
-96.13037109375
-90.63720703125
-85.14404296875
-77.81982421875
-76.904296875
-78.7353515625
-84.228515625
-90.63720703125
-96.13037109375
-96.13037109375
-90.63720703125
-84.228515625
-81.48193359375
-73.2421875
-74.15771484375
-79.65087890625
-80.56640625
-88.80615234375
-96.13037109375
-97.0458984375
-86.97509765625
-83.31298828125
-77.81982421875
-65.91796875
-63.17138671875
-65.00244140625
-73.2421875
-80.56640625
-85.14404296875
-96.13037109375
-89.7216796875
-75.0732421875
-72.32666015625
-58.59375
-51.26953125
-61.34033203125
-61.34033203125
-60.4248046875
-63.17138671875
-65.91796875
-61.34033203125
-53.1005859375
-38.4521484375
-29.296875
-48.52294921875
-69.580078125
-64.0869140625
-58.59375
-66.83349609375
-64.0869140625
-48.52294921875
-45.7763671875
-42.1142578125
-32.04345703125
-32.04345703125
-29.296875
-38.4521484375
-40.283203125
-39.36767578125
-34.7900390625
-12.8173828125
-6.40869140625
-4.57763671875
6.40869140625
1.8310546875
0
-10.986328125
-22.88818359375
-31.1279296875
-32.04345703125
-29.296875
-21.97265625
-11.90185546875
-10.986328125
-10.07080078125
-7.32421875
-20.1416015625
-21.97265625
-30.21240234375
-39.36767578125
-29.296875
-25.634765625
-24.71923828125
-8.23974609375
-12.8173828125
-22.88818359375
-26.55029296875
-32.958984375
-38.4521484375
-46.69189453125
-50.35400390625
-54.01611328125
-66.83349609375
-65.91796875
-74.15771484375
-79.65087890625
-84.228515625
-91.552734375
-85.14404296875
-79.65087890625
-74.15771484375
-80.56640625
-82.3974609375
-71.4111328125
-75.0732421875
-82.3974609375
-76.904296875
-80.56640625
-90.63720703125
-84.228515625
-82.3974609375
-79.65087890625
-71.4111328125
-67.7490234375
-74.15771484375
-75.0732421875
-83.31298828125
-86.97509765625
-92.46826171875
-93.3837890625
-86.0595703125
-83.31298828125
-72.32666015625
-62.255859375
-63.17138671875
-73.2421875
-70.49560546875
-73.2421875
-82.3974609375
-86.0595703125
-79.65087890625
-70.49560546875
-74.15771484375
-75.0732421875
-63.17138671875
-69.580078125
-80.56640625
-79.65087890625
-88.80615234375
-85.14404296875
-72.32666015625
-68.66455078125
-58.59375
-46.69189453125
-51.26953125
-56.7626953125
-64.0869140625
-73.2421875
-79.65087890625
-89.7216796875
-83.31298828125
-77.81982421875
-84.228515625
-63.17138671875
-71.4111328125
-83.31298828125
-84.228515625
-81.48193359375
-75.98876953125
-85.14404296875
-85.14404296875
-77.81982421875
-67.7490234375
-61.34033203125
-71.4111328125
-75.98876953125
-86.0595703125
-102.5390625
-98.876953125
-97.96142578125
-99.79248046875
-98.876953125
-91.552734375
-75.98876953125
-91.552734375
-88.80615234375
-84.228515625
-91.552734375
-104.3701171875
-104.3701171875
-95.21484375
-100.7080078125
-99.79248046875
-77.81982421875
-77.81982421875
-92.46826171875
-102.5390625
-90.63720703125
-109.86328125
-111.6943359375
-107.11669921875
-103.45458984375
-108.0322265625
-87.890625
-97.96142578125
-106.201171875
-102.5390625
-104.3701171875
-108.94775390625
-103.45458984375
-105.28564453125
-107.11669921875
-103.45458984375
-98.876953125
-97.96142578125
-107.11669921875
-108.0322265625
-108.0322265625
-119.93408203125
-127.25830078125
-117.1875
-109.86328125
-111.6943359375
-110.77880859375
-103.45458984375
-108.0322265625
-108.94775390625
-102.5390625
-114.44091796875
-117.1875
-116.27197265625
-113.525390625
-104.3701171875
-100.7080078125
-93.3837890625
-101.62353515625
-107.11669921875
-119.93408203125
-134.58251953125
-124.51171875
-130.92041015625
-116.27197265625
-114.44091796875
-117.1875
-114.44091796875
-119.93408203125
-115.3564453125
-117.1875
-129.08935546875
-136.41357421875
-130.92041015625
-119.0185546875
-119.0185546875
-111.6943359375
-113.525390625
-117.1875
-119.93408203125
-120.849609375
-124.51171875
-133.6669921875
-134.58251953125
-126.3427734375
-120.849609375
-119.93408203125
-111.6943359375
-117.1875
-113.525390625
-117.1875
-120.849609375
-127.25830078125
-128.173828125
-126.3427734375
-128.173828125
-115.3564453125
-111.6943359375
-129.08935546875
-126.3427734375
-127.25830078125
-138.24462890625
-140.9912109375
-140.9912109375
-133.6669921875
-132.75146484375
-119.93408203125
-112.60986328125
-117.1875
-124.51171875
-128.173828125
-135.498046875
-139.16015625
-134.58251953125
-127.25830078125
-120.849609375
-119.93408203125
-116.27197265625
-115.3564453125
-131.8359375
-138.24462890625
-146.484375
-151.06201171875
-155.6396484375
-132.75146484375
-127.25830078125
-116.27197265625
-109.86328125
-116.27197265625
-125.42724609375
-125.42724609375
-130.92041015625
-117.1875
-105.28564453125
-97.96142578125
-93.3837890625
-78.7353515625
-67.7490234375
-63.17138671875
-50.35400390625
-37.53662109375
-40.283203125
-49.4384765625
-54.01611328125
-62.255859375
-70.49560546875
-76.904296875
-75.0732421875
-81.48193359375
-84.228515625
-90.63720703125
-107.11669921875
-114.44091796875
-133.6669921875
-129.08935546875
-114.44091796875
-109.86328125
-111.6943359375
-119.0185546875
-123.59619140625
-146.484375
-156.55517578125
-150.146484375
-154.72412109375
-153.80859375
-140.07568359375
-134.58251953125
-142.822265625
-140.07568359375
-140.9912109375
-151.06201171875
-156.55517578125
-159.3017578125
-157.470703125
-152.89306640625
-150.146484375
-149.23095703125
-139.16015625
-136.41357421875
-138.24462890625
-140.07568359375
-150.146484375
-147.39990234375
-153.80859375
-145.56884765625
-139.16015625
-135.498046875
-127.25830078125
-123.59619140625
-126.3427734375
-128.173828125
-143.73779296875
-155.6396484375
-179.443359375
-198.66943359375
-208.740234375
-212.40234375
-196.83837890625
-166.6259765625
-140.07568359375
-93.3837890625
-34.7900390625
53.1005859375
209.65576171875
371.7041015625
523.681640625
619.81201171875
730.5908203125
888.97705078125
996.09375
1058.349609375
1072.998046875
1023.5595703125
978.69873046875
910.0341796875
736.083984375
444.03076171875
174.86572265625
-73.2421875
-145.56884765625
-157.470703125
-151.9775390625
-130.0048828125
-107.11669921875
-81.48193359375
-76.904296875
-74.15771484375
-71.4111328125
-86.97509765625
-93.3837890625
-106.201171875
-124.51171875
-117.1875
-111.6943359375
-103.45458984375
-105.28564453125
-107.11669921875
-105.28564453125
-107.11669921875
-126.3427734375
-125.42724609375
-132.75146484375
-149.23095703125
-147.39990234375
-135.498046875
-129.08935546875
-130.92041015625
-128.173828125
-128.173828125
-130.0048828125
-145.56884765625
-143.73779296875
-151.9775390625
-140.07568359375
-136.41357421875
-142.822265625
-135.498046875
-120.849609375
-141.90673828125
-131.8359375
-130.0048828125
-131.8359375
-139.16015625
-135.498046875
-121.76513671875
-117.1875
-119.93408203125
-105.28564453125
-97.0458984375
-116.27197265625
-124.51171875
-134.58251953125
-140.07568359375
-137.3291015625
-124.51171875
-127.25830078125
-130.0048828125
-129.08935546875
-125.42724609375
-126.3427734375
-140.9912109375
-151.06201171875
-155.6396484375
-152.89306640625
-145.56884765625
-148.3154296875
-131.8359375
-127.25830078125
-140.9912109375
-136.41357421875
-139.16015625
-145.56884765625
-145.56884765625
-144.6533203125
-140.9912109375
-130.0048828125
-123.59619140625
-118.10302734375
-119.0185546875
-117.1875
-120.849609375
-126.3427734375
-142.822265625
-138.24462890625
-128.173828125
-123.59619140625
-126.3427734375
-130.92041015625
-119.0185546875
-135.498046875
-123.59619140625
-132.75146484375
-135.498046875
-127.25830078125
-137.3291015625
-131.8359375
-121.76513671875
-111.6943359375
-112.60986328125
-114.44091796875
-121.76513671875
-115.3564453125
-123.59619140625
-125.42724609375
-119.93408203125
-118.10302734375
-109.86328125
-101.62353515625
-96.13037109375
-102.5390625
-105.28564453125
-103.45458984375
-109.86328125
-110.77880859375
-107.11669921875
-111.6943359375
-102.5390625
-90.63720703125
-99.79248046875
-96.13037109375
-86.97509765625
-90.63720703125
-106.201171875
-115.3564453125
-101.62353515625
-92.46826171875
-87.890625
-78.7353515625
-79.65087890625
-86.0595703125
-80.56640625
-86.97509765625
-98.876953125
-101.62353515625
-100.7080078125
-97.0458984375
-91.552734375
-74.15771484375
-84.228515625
-80.56640625
-75.98876953125
-84.228515625
-77.81982421875
-77.81982421875
-68.66455078125
-73.2421875
-55.84716796875
-45.7763671875
-49.4384765625
-48.52294921875
-43.9453125
-47.607421875
-52.18505859375
-46.69189453125
-50.35400390625
-42.1142578125
-31.1279296875
-34.7900390625
-42.1142578125
-41.19873046875
-48.52294921875
-44.86083984375
-64.0869140625
-62.255859375
-58.59375
-56.7626953125
-57.67822265625
-52.18505859375
-54.931640625
-50.35400390625
-63.17138671875
-80.56640625
-78.7353515625
-85.14404296875
-86.0595703125
-84.228515625
-76.904296875
-73.2421875
-74.15771484375
-87.890625
-87.890625
-106.201171875
-114.44091796875
-116.27197265625
-112.60986328125
-113.525390625
-107.11669921875
-91.552734375
-108.0322265625
-114.44091796875
-115.3564453125
-119.0185546875
-118.10302734375
-113.525390625
-113.525390625
-110.77880859375
-93.3837890625
-87.890625
-96.13037109375
-103.45458984375
-109.86328125
-108.0322265625
-118.10302734375
-109.86328125
-101.62353515625
-104.3701171875
-102.5390625
-97.96142578125
-102.5390625
-104.3701171875
-100.7080078125
-104.3701171875
-112.60986328125
-107.11669921875
-101.62353515625
-101.62353515625
-97.0458984375
-94.29931640625
-84.228515625
-81.48193359375
-80.56640625
-84.228515625
-95.21484375
-91.552734375
-86.97509765625
-84.228515625
-86.0595703125
-84.228515625
-86.0595703125
-93.3837890625
-85.14404296875
-85.14404296875
-101.62353515625
-102.5390625
-98.876953125
-94.29931640625
-86.0595703125
-86.0595703125
-76.904296875
-75.0732421875
-83.31298828125
-91.552734375
-107.11669921875
-113.525390625
-97.0458984375
-92.46826171875
-81.48193359375
-82.3974609375
-78.7353515625
-82.3974609375
-82.3974609375
-82.3974609375
-99.79248046875
-102.5390625
-98.876953125
-97.0458984375
-91.552734375
-88.80615234375
-85.14404296875
-86.0595703125
-99.79248046875
-103.45458984375
-104.3701171875
-109.86328125
-100.7080078125
-93.3837890625
-86.97509765625
-83.31298828125
-81.48193359375
-88.80615234375
-86.97509765625
-91.552734375
-107.11669921875
-108.0322265625
-101.62353515625
-100.7080078125
-92.46826171875
-89.7216796875
-99.79248046875
-97.96142578125
-105.28564453125
-112.60986328125
-120.849609375
-126.3427734375
-126.3427734375
-114.44091796875
-102.5390625
-99.79248046875
-92.46826171875
-96.13037109375
-100.7080078125
-103.45458984375
-107.11669921875
-107.11669921875
-102.5390625
-97.96142578125
-96.13037109375
-84.228515625
-84.228515625
-99.79248046875
-110.77880859375
-109.86328125
-115.3564453125
-119.93408203125
-113.525390625
-108.94775390625
-106.201171875
-97.0458984375
-98.876953125
-102.5390625
-103.45458984375
-105.28564453125
-110.77880859375
-112.60986328125
-108.0322265625
-106.201171875
-107.11669921875
-91.552734375
-86.0595703125
-87.890625
-99.79248046875
-108.0322265625
-117.1875
-116.27197265625
-109.86328125
-110.77880859375
-105.28564453125
-99.79248046875
-101.62353515625
-106.201171875
-104.3701171875
-103.45458984375
-115.3564453125
-119.0185546875
-108.0322265625
-106.201171875
-99.79248046875
-98.876953125
-92.46826171875
-95.21484375
-97.96142578125
-103.45458984375
-112.60986328125
-109.86328125
-98.876953125
-97.96142578125
-99.79248046875
-91.552734375
-86.97509765625
-85.14404296875
-96.13037109375
-100.7080078125
-105.28564453125
-114.44091796875
-106.201171875
-97.96142578125
-78.7353515625
-57.67822265625
-39.36767578125
-30.21240234375
-35.70556640625
-45.7763671875
-61.34033203125
-67.7490234375
-75.98876953125
-86.97509765625
-87.890625
-80.56640625
-74.15771484375
