ECG
-74.15771484375
-72.32666015625
-73.2421875
-63.17138671875
-64.0869140625
-65.00244140625
-67.7490234375
-73.2421875
-80.56640625
-80.56640625
-78.7353515625
-76.904296875
-65.00244140625
-53.1005859375
-58.59375
-65.00244140625
-67.7490234375
-75.98876953125
-83.31298828125
-77.81982421875
-74.15771484375
-75.98876953125
-73.2421875
-67.7490234375
-66.83349609375
-66.83349609375
-68.66455078125
-73.2421875
-87.890625
-84.228515625
-77.81982421875
-74.15771484375
-69.580078125
-59.50927734375
-61.34033203125
-69.580078125
-72.32666015625
-67.7490234375
-79.65087890625
-82.3974609375
-73.2421875
-73.2421875
-71.4111328125
-61.34033203125
-67.7490234375
-71.4111328125
-68.66455078125
-70.49560546875
-77.81982421875
-82.3974609375
-75.0732421875
-72.32666015625
-74.15771484375
-60.4248046875
-60.4248046875
-72.32666015625
-69.580078125
-70.49560546875
-84.228515625
-79.65087890625
-70.49560546875
-67.7490234375
-65.91796875
-60.4248046875
-53.1005859375
-56.7626953125
-71.4111328125
-79.65087890625
-81.48193359375
-79.65087890625
-72.32666015625
-62.255859375
-68.66455078125
-57.67822265625
-53.1005859375
-60.4248046875
-67.7490234375
-63.17138671875
-72.32666015625
-71.4111328125
-66.83349609375
-62.255859375
-54.01611328125
-48.52294921875
-52.18505859375
-54.01611328125
-57.67822265625
-61.34033203125
-66.83349609375
-63.17138671875
-61.34033203125
-54.931640625
-51.26953125
-46.69189453125
-41.19873046875
-47.607421875
-58.59375
-56.7626953125
-69.580078125
-69.580078125
-63.17138671875
-62.255859375
-55.84716796875
-39.36767578125
-42.1142578125
-50.35400390625
-56.7626953125
-55.84716796875
-57.67822265625
-53.1005859375
-53.1005859375
-52.18505859375
-48.52294921875
-33.87451171875
-21.97265625
-21.97265625
-30.21240234375
-37.53662109375
-37.53662109375
-32.958984375
-27.4658203125
-23.8037109375
-16.4794921875
-0.91552734375
4.57763671875
-4.57763671875
-6.40869140625
-17.39501953125
-28.38134765625
-22.88818359375
-9.1552734375
-12.8173828125
-11.90185546875
-5.4931640625
-10.07080078125
-19.22607421875
-23.8037109375
-26.55029296875
-37.53662109375
-43.02978515625
-37.53662109375
-38.4521484375
-43.02978515625
-33.87451171875
-37.53662109375
-43.02978515625
-40.283203125
-48.52294921875
-58.59375
-67.7490234375
-65.00244140625
-68.66455078125
-62.255859375
-54.01611328125
-51.26953125
-58.59375
-65.91796875
-69.580078125
-76.904296875
-74.15771484375
-70.49560546875
-65.91796875
-54.931640625
-52.18505859375
-52.18505859375
-51.26953125
-52.18505859375
-60.4248046875
-75.98876953125
-77.81982421875
-67.7490234375
-63.17138671875
-60.4248046875
-50.35400390625
-51.26953125
-51.26953125
-57.67822265625
-61.34033203125
-71.4111328125
-71.4111328125
-56.7626953125
-55.84716796875
-54.01611328125
-44.86083984375
-41.19873046875
-56.7626953125
-61.34033203125
-61.34033203125
-66.83349609375
-65.00244140625
-63.17138671875
-58.59375
-58.59375
-50.35400390625
-43.9453125
-49.4384765625
-56.7626953125
-58.59375
-64.0869140625
-68.66455078125
-62.255859375
-55.84716796875
-54.931640625
-46.69189453125
-43.9453125
-53.1005859375
-48.52294921875
-54.931640625
-68.66455078125
-74.15771484375
-62.255859375
-58.59375
-60.4248046875
-51.26953125
-41.19873046875
-48.52294921875
-56.7626953125
-68.66455078125
-71.4111328125
-75.0732421875
-66.83349609375
-61.34033203125
-56.7626953125
-54.01611328125
-44.86083984375
-54.01611328125
-58.59375
-68.66455078125
-76.904296875
-78.7353515625
-69.580078125
-70.49560546875
-70.49560546875
-68.66455078125
-65.00244140625
-62.255859375
-66.83349609375
-71.4111328125
-79.65087890625
-86.0595703125
-75.98876953125
-70.49560546875
-68.66455078125
-59.50927734375
-54.01611328125
-57.67822265625
-71.4111328125
-78.7353515625
-83.31298828125
-97.96142578125
-88.80615234375
-71.4111328125
-74.15771484375
-70.49560546875
-62.255859375
-66.83349609375
-76.904296875
-82.3974609375
-86.97509765625
-86.0595703125
-80.56640625
-75.0732421875
-74.15771484375
-65.91796875
-61.34033203125
-66.83349609375
-75.98876953125
-85.14404296875
-87.890625
-87.890625
-88.80615234375
-85.14404296875
-80.56640625
-65.00244140625
-67.7490234375
-75.98876953125
-78.7353515625
-77.81982421875
-82.3974609375
-95.21484375
-90.63720703125
-88.80615234375
-85.14404296875
-76.904296875
-69.580078125
-82.3974609375
-86.97509765625
-77.81982421875
-84.228515625
-93.3837890625
-87.890625
-89.7216796875
-82.3974609375
-72.32666015625
-72.32666015625
-76.904296875
-77.81982421875
-86.97509765625
-87.890625
-92.46826171875
-93.3837890625
-91.552734375
-82.3974609375
-72.32666015625
-63.17138671875
-70.49560546875
-75.0732421875
-78.7353515625
-87.890625
-99.79248046875
-92.46826171875
-82.3974609375
-82.3974609375
-74.15771484375
-64.0869140625
-68.66455078125
-81.48193359375
-88.80615234375
-87.890625
-88.80615234375
-86.0595703125
-84.228515625
-87.890625
-79.65087890625
-75.98876953125
-81.48193359375
-79.65087890625
-80.56640625
-90.63720703125
-101.62353515625
-107.11669921875
-93.3837890625
-77.81982421875
-65.00244140625
-64.0869140625
-69.580078125
-68.66455078125
-71.4111328125
-67.7490234375
-77.81982421875
-75.98876953125
-72.32666015625
-75.98876953125
-78.7353515625
-66.83349609375
-57.67822265625
-46.69189453125
-32.04345703125
-23.8037109375
-30.21240234375
-37.53662109375
-28.38134765625
-28.38134765625
-33.87451171875
-35.70556640625
-47.607421875
-55.84716796875
-63.17138671875
-70.49560546875
-79.65087890625
-75.0732421875
-82.3974609375
-86.97509765625
-79.65087890625
-65.91796875
-68.66455078125
-81.48193359375
-83.31298828125
-94.29931640625
-97.0458984375
-91.552734375
-93.3837890625
-83.31298828125
-86.0595703125
-80.56640625
-85.14404296875
-84.228515625
-84.228515625
-97.0458984375
-103.45458984375
-99.79248046875
-97.96142578125
-97.96142578125
-88.80615234375
-80.56640625
-88.80615234375
-86.97509765625
-87.890625
-96.13037109375
-98.876953125
-90.63720703125
-89.7216796875
-85.14404296875
-80.56640625
-75.0732421875
-73.2421875
-76.904296875
-93.3837890625
-119.0185546875
-145.56884765625
-158.38623046875
-164.794921875
-156.55517578125
-127.25830078125
-82.3974609375
-34.7900390625
10.986328125
98.876953125
227.96630859375
367.12646484375
516.357421875
639.0380859375
747.98583984375
887.14599609375
1013.48876953125
1089.4775390625
1104.1259765625
1068.42041015625
1033.63037109375
956.72607421875
794.677734375
505.37109375
227.96630859375
-20.1416015625
-90.63720703125
-90.63720703125
-78.7353515625
-56.7626953125
-40.283203125
-36.62109375
-20.1416015625
-17.39501953125
-36.62109375
-42.1142578125
-33.87451171875
-35.70556640625
-54.01611328125
-63.17138671875
-69.580078125
-80.56640625
-80.56640625
-70.49560546875
-73.2421875
-67.7490234375
-62.255859375
-65.00244140625
-73.2421875
-73.2421875
-75.0732421875
-87.890625
-84.228515625
-76.904296875
-72.32666015625
-69.580078125
-65.91796875
-66.83349609375
-71.4111328125
-78.7353515625
-84.228515625
-86.0595703125
-83.31298828125
-69.580078125
-67.7490234375
-72.32666015625
-57.67822265625
-58.59375
-66.83349609375
-69.580078125
-75.0732421875
-90.63720703125
-86.97509765625
-78.7353515625
-78.7353515625
-65.00244140625
-58.59375
-65.91796875
-81.48193359375
-81.48193359375
-77.81982421875
-93.3837890625
-87.890625
-79.65087890625
-71.4111328125
-64.0869140625
-56.7626953125
-66.83349609375
-70.49560546875
-73.2421875
-81.48193359375
-88.80615234375
-83.31298828125
-73.2421875
-68.66455078125
-70.49560546875
-59.50927734375
-60.4248046875
-71.4111328125
-75.0732421875
-78.7353515625
-88.80615234375
-80.56640625
-78.7353515625
-75.0732421875
-61.34033203125
-63.17138671875
-63.17138671875
-67.7490234375
-64.0869140625
-76.904296875
-88.80615234375
-80.56640625
-73.2421875
-71.4111328125
-65.91796875
-55.84716796875
-58.59375
-71.4111328125
-67.7490234375
-71.4111328125
-89.7216796875
-83.31298828125
-68.66455078125
-70.49560546875
-67.7490234375
-55.84716796875
-53.1005859375
-58.59375
-61.34033203125
-71.4111328125
-79.65087890625
-70.49560546875
-64.0869140625
-60.4248046875
-59.50927734375
-54.931640625
-53.1005859375
-54.931640625
-65.00244140625
-63.17138671875
-69.580078125
-67.7490234375
-61.34033203125
-64.0869140625
-56.7626953125
-44.86083984375
-53.1005859375
-50.35400390625
-49.4384765625
-56.7626953125
-67.7490234375
-66.83349609375
-60.4248046875
-48.52294921875
-43.9453125
-37.53662109375
-39.36767578125
-43.9453125
-40.283203125
-54.931640625
-70.49560546875
-66.83349609375
-61.34033203125
-53.1005859375
-43.9453125
-31.1279296875
-28.38134765625
-27.4658203125
-33.87451171875
-35.70556640625
-40.283203125
-41.19873046875
-26.55029296875
-21.97265625
-21.05712890625
-12.8173828125
-11.90185546875
-10.986328125
-15.56396484375
-12.8173828125
-19.22607421875
-17.39501953125
-16.4794921875
-14.6484375
-15.56396484375
2.74658203125
1.8310546875
-11.90185546875
-12.8173828125
-29.296875
-33.87451171875
-30.21240234375
-26.55029296875
-29.296875
-24.71923828125
-16.4794921875
-29.296875
-34.7900390625
-42.1142578125
-47.607421875
-55.84716796875
-58.59375
-55.84716796875
-61.34033203125
-46.69189453125
-35.70556640625
-44.86083984375
-60.4248046875
-62.255859375
-54.931640625
-69.580078125
-65.00244140625
-56.7626953125
-49.4384765625
-50.35400390625
-45.7763671875
-47.607421875
-49.4384765625
-59.50927734375
-66.83349609375
-72.32666015625
-70.49560546875
-57.67822265625
-62.255859375
-54.931640625
-45.7763671875
-46.69189453125
-51.26953125
-58.59375
-62.255859375
-76.904296875
-77.81982421875
-65.00244140625
-50.35400390625
-50.35400390625
-36.62109375
-36.62109375
-49.4384765625
-50.35400390625
-54.931640625
-59.50927734375
-59.50927734375
-63.17138671875
-62.255859375
-52.18505859375
-39.36767578125
-43.9453125
-37.53662109375
-40.283203125
-42.1142578125
-54.01611328125
-54.01611328125
-58.59375
-48.52294921875
-43.02978515625
-44.86083984375
-40.283203125
-44.86083984375
-62.255859375
-52.18505859375
-60.4248046875
-60.4248046875
-50.35400390625
-49.4384765625
-48.52294921875
-37.53662109375
-40.283203125
-52.18505859375
-54.01611328125
-48.52294921875
-65.91796875
-68.66455078125
-62.255859375
-71.4111328125
-61.34033203125
-39.36767578125
-35.70556640625
-49.4384765625
-56.7626953125
-53.1005859375
-68.66455078125
-73.2421875
-59.50927734375
-64.0869140625
-68.66455078125
-53.1005859375
-43.9453125
-47.607421875
-59.50927734375
-62.255859375
-75.98876953125
-72.32666015625
-67.7490234375
-68.66455078125
-67.7490234375
-61.34033203125
-58.59375
-70.49560546875
-74.15771484375
-78.7353515625
-80.56640625
-75.0732421875
-70.49560546875
-71.4111328125
-64.0869140625
-58.59375
-56.7626953125
-65.91796875
-70.49560546875
-68.66455078125
-75.0732421875
-75.98876953125
-73.2421875
-79.65087890625
-76.904296875
-68.66455078125
-64.0869140625
-66.83349609375
-73.2421875
-71.4111328125
-82.3974609375
-89.7216796875
-74.15771484375
-76.904296875
-76.904296875
-64.0869140625
-69.580078125
-73.2421875
-65.00244140625
-73.2421875
-87.890625
-85.14404296875
-75.98876953125
-83.31298828125
-77.81982421875
-65.00244140625
-64.0869140625
-68.66455078125
-69.580078125
-83.31298828125
-96.13037109375
-95.21484375
-91.552734375
-84.228515625
-82.3974609375
-76.904296875
-75.98876953125
-78.7353515625
-84.228515625
-86.97509765625
-95.21484375
-100.7080078125
-90.63720703125
-85.14404296875
-81.48193359375
-78.7353515625
-68.66455078125
-79.65087890625
-79.65087890625
-79.65087890625
-88.80615234375
-100.7080078125
-97.96142578125
-93.3837890625
-89.7216796875
-76.904296875
-71.4111328125
-76.904296875
-83.31298828125
-86.0595703125
-97.96142578125
-97.96142578125
-95.21484375
-91.552734375
-86.97509765625
-75.0732421875
-75.0732421875
-71.4111328125
-77.81982421875
-75.0732421875
-83.31298828125
-86.97509765625
-75.0732421875
-78.7353515625
-79.65087890625
-67.7490234375
-65.00244140625
-73.2421875
-74.15771484375
-66.83349609375
-60.4248046875
-38.4521484375
-24.71923828125
-29.296875
-26.55029296875
-22.88818359375
-30.21240234375
-40.283203125
-45.7763671875
-52.18505859375
-64.0869140625
-72.32666015625
-64.0869140625
-69.580078125
-73.2421875
-71.4111328125
-73.2421875
-74.15771484375
-73.2421875
-79.65087890625
-97.0458984375
-89.7216796875
-84.228515625
-78.7353515625
-78.7353515625
-66.83349609375
-70.49560546875
-75.0732421875
-87.890625
-91.552734375
-101.62353515625
-92.46826171875
-89.7216796875
-81.48193359375
-77.81982421875
-68.66455078125
-70.49560546875
-75.0732421875
-78.7353515625
-83.31298828125
-97.0458984375
-96.13037109375
-79.65087890625
-84.228515625
-77.81982421875
-69.580078125
-62.255859375
-65.91796875
-72.32666015625
-80.56640625
-97.96142578125
-111.6943359375
-123.59619140625
-134.58251953125
-143.73779296875
-119.93408203125
-88.80615234375
-63.17138671875
-20.1416015625
43.9453125
119.93408203125
238.95263671875
406.494140625
555.72509765625
654.60205078125
761.71875
892.63916015625
993.34716796875
1061.09619140625
1094.05517578125
1066.58935546875
1035.46142578125
982.36083984375
828.55224609375
538.330078125
277.40478515625
44.86083984375
-59.50927734375
-78.7353515625
-81.48193359375
-88.80615234375
-79.65087890625
-52.18505859375
-40.283203125
-32.04345703125
-19.22607421875
-17.39501953125
-28.38134765625
-39.36767578125
-47.607421875
-60.4248046875
-65.91796875
-62.255859375
-64.0869140625
-58.59375
-54.931640625
-50.35400390625
-57.67822265625
-63.17138671875
-75.0732421875
-80.56640625
-81.48193359375
-75.98876953125
-74.15771484375
-69.580078125
-60.4248046875
-57.67822265625
-54.01611328125
-66.83349609375
-70.49560546875
-78.7353515625
-85.14404296875
-79.65087890625
-75.0732421875
-62.255859375
-55.84716796875
-52.18505859375
-64.0869140625
-63.17138671875
-65.00244140625
-73.2421875
-73.2421875
-64.0869140625
-70.49560546875
-65.00244140625
-62.255859375
-44.86083984375
-50.35400390625
-61.34033203125
-69.580078125
-77.81982421875
-79.65087890625
-79.65087890625
-67.7490234375
-62.255859375
-54.931640625
-53.1005859375
-59.50927734375
-66.83349609375
-65.91796875
-78.7353515625
-78.7353515625
-72.32666015625
-62.255859375
-69.580078125
-61.34033203125
-49.4384765625
-57.67822265625
-60.4248046875
-66.83349609375
-81.48193359375
-80.56640625
-73.2421875
-70.49560546875
-68.66455078125
-55.84716796875
-51.26953125
-61.34033203125
-66.83349609375
-72.32666015625
-79.65087890625
-81.48193359375
-73.2421875
-67.7490234375
-63.17138671875
-58.59375
-44.86083984375
-53.1005859375
-57.67822265625
-68.66455078125
-73.2421875
-77.81982421875
-72.32666015625
-69.580078125
-57.67822265625
-53.1005859375
-49.4384765625
-61.34033203125
-66.83349609375
-62.255859375
-65.91796875
-75.0732421875
-73.2421875
-67.7490234375
-59.50927734375
-55.84716796875
-49.4384765625
-47.607421875
-51.26953125
-57.67822265625
-68.66455078125
-74.15771484375
-70.49560546875
-68.66455078125
-67.7490234375
-55.84716796875
-50.35400390625
-53.1005859375
-66.83349609375
-75.0732421875
-68.66455078125
-74.15771484375
-71.4111328125
-65.00244140625
-58.59375
-54.931640625
-51.26953125
-54.931640625
-61.34033203125
-67.7490234375
-71.4111328125
-75.0732421875
-68.66455078125
-65.91796875
-64.0869140625
-53.1005859375
-41.19873046875
-54.931640625
-55.84716796875
-55.84716796875
-57.67822265625
-63.17138671875
-49.4384765625
-38.4521484375
-49.4384765625
-42.1142578125
-16.4794921875
-24.71923828125
-26.55029296875
-28.38134765625
-32.04345703125
-39.36767578125
-37.53662109375
-30.21240234375
-24.71923828125
-17.39501953125
-13.73291015625
-19.22607421875
-22.88818359375
-31.1279296875
-41.19873046875
-40.283203125
-35.70556640625
-35.70556640625
-33.87451171875
-32.958984375
-22.88818359375
-26.55029296875
-38.4521484375
-48.52294921875
-62.255859375
-69.580078125
-55.84716796875
-51.26953125
-52.18505859375
-52.18505859375
-39.36767578125
-38.4521484375
-53.1005859375
-56.7626953125
-59.50927734375
-70.49560546875
-65.00244140625
-65.91796875
-65.91796875
-59.50927734375
-50.35400390625
-49.4384765625
-56.7626953125
-65.00244140625
-70.49560546875
-76.904296875
-57.67822265625
-50.35400390625
-58.59375
-52.18505859375
-40.283203125
-48.52294921875
-54.931640625
-53.1005859375
-54.01611328125
-64.0869140625
-59.50927734375
-55.84716796875
-59.50927734375
-47.607421875
-40.283203125
-45.7763671875
-50.35400390625
-60.4248046875
-61.34033203125
-68.66455078125
-65.00244140625
-54.931640625
-55.84716796875
-52.18505859375
-38.4521484375
-40.283203125
-52.18505859375
-55.84716796875
-56.7626953125
-55.84716796875
-61.34033203125
-56.7626953125
-46.69189453125
-45.7763671875
-40.283203125
-42.1142578125
-43.02978515625
-46.69189453125
-54.931640625
-63.17138671875
-64.0869140625
-58.59375
-58.59375
-51.26953125
-41.19873046875
-47.607421875
-52.18505859375
-57.67822265625
-59.50927734375
-71.4111328125
-73.2421875
-65.00244140625
-56.7626953125
-49.4384765625
-52.18505859375
-59.50927734375
-67.7490234375
-65.00244140625
-65.91796875
-75.98876953125
-76.904296875
-75.98876953125
-73.2421875
-61.34033203125
-54.01611328125
-64.0869140625
-71.4111328125
-70.49560546875
-75.0732421875
-87.890625
-82.3974609375
-81.48193359375
-81.48193359375
-67.7490234375
-57.67822265625
-63.17138671875
-69.580078125
-81.48193359375
-82.3974609375
-90.63720703125
-81.48193359375
-79.65087890625
-78.7353515625
-77.81982421875
-68.66455078125
-69.580078125
-74.15771484375
-78.7353515625
-80.56640625
-88.80615234375
-88.80615234375
-89.7216796875
-82.3974609375
-79.65087890625
-71.4111328125
-69.580078125
-70.49560546875
-80.56640625
-83.31298828125
-89.7216796875
-88.80615234375
-85.14404296875
-86.97509765625
-75.0732421875
-71.4111328125
-71.4111328125
-75.98876953125
-83.31298828125
-90.63720703125
-96.13037109375
-89.7216796875
-94.29931640625
-91.552734375
-83.31298828125
-71.4111328125
-77.81982421875
-87.890625
-84.228515625
-84.228515625
-97.0458984375
-97.0458984375
-88.80615234375
-76.904296875
-71.4111328125
-65.91796875
-69.580078125
-84.228515625
-89.7216796875
-93.3837890625
-94.29931640625
-91.552734375
-86.97509765625
-84.228515625
-81.48193359375
-69.580078125
-73.2421875
-81.48193359375
-79.65087890625
-82.3974609375
-96.13037109375
-90.63720703125
-86.0595703125
-83.31298828125
-72.32666015625
-68.66455078125
-72.32666015625
-82.3974609375
-89.7216796875
-94.29931640625
-93.3837890625
-82.3974609375
-78.7353515625
-83.31298828125
-86.97509765625
-75.0732421875
-75.0732421875
-82.3974609375
-88.80615234375
-87.890625
-91.552734375
-94.29931640625
-90.63720703125
-77.81982421875
-71.4111328125
-67.7490234375
-61.34033203125
-64.0869140625
-69.580078125
-77.81982421875
-91.552734375
-90.63720703125
-81.48193359375
-69.580078125
-50.35400390625
-28.38134765625
-17.39501953125
-17.39501953125
-27.4658203125
-36.62109375
-45.7763671875
-57.67822265625
-65.91796875
-60.4248046875
-66.83349609375
-57.67822265625
-56.7626953125
-62.255859375
-68.66455078125
-88.80615234375
-111.6943359375
-106.201171875
-85.14404296875
-79.65087890625
-85.14404296875
-74.15771484375
-75.0732421875
-83.31298828125
-97.0458984375
-103.45458984375
-113.525390625
-107.11669921875
-100.7080078125
-98.876953125
-96.13037109375
-85.14404296875
-86.97509765625
-87.890625
-100.7080078125
-107.11669921875
-113.525390625
-113.525390625
-106.201171875
-97.96142578125
-95.21484375
-81.48193359375
-87.890625
-93.3837890625
-93.3837890625
-96.13037109375
-108.94775390625
-105.28564453125
-97.0458984375
-94.29931640625
-92.46826171875
-94.29931640625
-109.86328125
-146.484375
-164.794921875
-183.10546875
-173.9501953125
-141.90673828125
-98.876953125
-48.52294921875
11.90185546875
118.10302734375
256.34765625
399.169921875
533.75244140625
648.193359375
747.98583984375
886.23046875
998.84033203125
1075.74462890625
1094.05517578125
1072.08251953125
1032.71484375
957.6416015625
765.380859375
462.34130859375
176.69677734375
-50.35400390625
-115.3564453125
-106.201171875
-87.890625
-54.01611328125
-32.04345703125
-26.55029296875
-32.04345703125
-42.1142578125
-47.607421875
-55.84716796875
-61.34033203125
-60.4248046875
-67.7490234375
-63.17138671875
-56.7626953125
-64.0869140625
-75.0732421875
-78.7353515625
-89.7216796875
-93.3837890625
-84.228515625
-79.65087890625
-76.904296875
-75.98876953125
-76.904296875
-77.81982421875
-83.31298828125
-92.46826171875
-98.876953125
-91.552734375
-86.0595703125
-80.56640625
-75.98876953125
-68.66455078125
-66.83349609375
-74.15771484375
-79.65087890625
-89.7216796875
-97.0458984375
-96.13037109375
-89.7216796875
-82.3974609375
-79.65087890625
-71.4111328125
-70.49560546875
-84.228515625
-80.56640625
-83.31298828125
-93.3837890625
-95.21484375
-87.890625
-86.0595703125
-86.0595703125
-78.7353515625
-72.32666015625
-76.904296875
-83.31298828125
-81.48193359375
-92.46826171875
-96.13037109375
-89.7216796875
-86.97509765625
-81.48193359375
-77.81982421875
-79.65087890625
-78.7353515625
-81.48193359375
-86.97509765625
-86.97509765625
-89.7216796875
-84.228515625
-78.7353515625
-78.7353515625
-73.2421875
-71.4111328125
-74.15771484375
-77.81982421875
-77.81982421875
-86.97509765625
-94.29931640625
-87.890625
-81.48193359375
-79.65087890625
-75.98876953125
-72.32666015625
-75.0732421875
-78.7353515625
-76.904296875
-87.890625
-87.890625
-88.80615234375
-86.97509765625
-77.81982421875
-69.580078125
-67.7490234375
-70.49560546875
-76.904296875
-75.0732421875
-90.63720703125
-88.80615234375
-78.7353515625
-79.65087890625
-78.7353515625
-65.00244140625
-55.84716796875
-63.17138671875
-67.7490234375
-76.904296875
-83.31298828125
-84.228515625
-75.98876953125
-67.7490234375
-70.49560546875
-65.00244140625
-61.34033203125
-62.255859375
-67.7490234375
-70.49560546875
-80.56640625
-77.81982421875
-69.580078125
-70.49560546875
-63.17138671875
-52.18505859375
-58.59375
-61.34033203125
-65.91796875
-66.83349609375
-79.65087890625
-77.81982421875
-62.255859375
-63.17138671875
-61.34033203125
-57.67822265625
-49.4384765625
-47.607421875
-55.84716796875
-53.1005859375
-60.4248046875
-53.1005859375
-52.18505859375
-49.4384765625
-35.70556640625
-30.21240234375
-25.634765625
-26.55029296875
-30.21240234375
-33.87451171875
-37.53662109375
-39.36767578125
-37.53662109375
-23.8037109375
-20.1416015625
-9.1552734375
-3.662109375
-10.986328125
-13.73291015625
-21.97265625
-32.04345703125
-27.4658203125
-27.4658203125
-32.04345703125
-32.04345703125
-20.1416015625
-16.4794921875
-22.88818359375
-32.04345703125
-41.19873046875
-55.84716796875
-54.931640625
-56.7626953125
-56.7626953125
-54.01611328125
-47.607421875
-45.7763671875
-51.26953125
-57.67822265625
-61.34033203125
-72.32666015625
-71.4111328125
-71.4111328125
-77.81982421875
-65.00244140625
-54.01611328125
-52.18505859375
-63.17138671875
-70.49560546875
-65.00244140625
-76.904296875
-85.14404296875
-75.98876953125
-72.32666015625
-65.91796875
-57.67822265625
-54.931640625
-61.34033203125
-74.15771484375
-75.0732421875
-77.81982421875
-81.48193359375
-75.98876953125
-72.32666015625
-69.580078125
-55.84716796875
-57.67822265625
-59.50927734375
-62.255859375
-57.67822265625
-68.66455078125
-79.65087890625
-75.98876953125
-68.66455078125
-62.255859375
-58.59375
-53.1005859375
-56.7626953125
-61.34033203125
-63.17138671875
-72.32666015625
-73.2421875
-72.32666015625
-65.91796875
-60.4248046875
-60.4248046875
-53.1005859375
-51.26953125
-61.34033203125
-66.83349609375
-72.32666015625
-73.2421875
-66.83349609375
-60.4248046875
-58.59375
-56.7626953125
-55.84716796875
-56.7626953125
-69.580078125
-66.83349609375
-75.0732421875
-76.904296875
-70.49560546875
-71.4111328125
-70.49560546875
-62.255859375
-62.255859375
-65.00244140625
-70.49560546875
-69.580078125
-78.7353515625
-86.0595703125
-79.65087890625
-76.904296875
-77.81982421875
-66.83349609375
-67.7490234375
-75.0732421875
-77.81982421875
-77.81982421875
-80.56640625
-90.63720703125
-86.0595703125
-80.56640625
-73.2421875
-70.49560546875
-68.66455078125
-75.0732421875
-81.48193359375
-78.7353515625
-88.80615234375
-100.7080078125
-97.0458984375
-84.228515625
-79.65087890625
-75.98876953125
-75.0732421875
-78.7353515625
-85.14404296875
-83.31298828125
-88.80615234375
-92.46826171875
-88.80615234375
-88.80615234375
-91.552734375
-75.98876953125
-75.0732421875
-83.31298828125
-84.228515625
-88.80615234375
-105.28564453125
-111.6943359375
-99.79248046875
-89.7216796875
-86.0595703125
-81.48193359375
-79.65087890625
-85.14404296875
-88.80615234375
-93.3837890625
-102.5390625
-110.77880859375
-102.5390625
-99.79248046875
-95.21484375
-80.56640625
-76.904296875
-89.7216796875
-93.3837890625
-93.3837890625
-100.7080078125
-104.3701171875
-100.7080078125
-90.63720703125
-90.63720703125
-90.63720703125
-86.97509765625
-89.7216796875
-93.3837890625
-87.890625
-101.62353515625
-110.77880859375
-108.0322265625
-99.79248046875
-96.13037109375
-88.80615234375
-81.48193359375
-91.552734375
-90.63720703125
-98.876953125
-105.28564453125
-108.0322265625
-99.79248046875
-97.0458984375
-94.29931640625
-80.56640625
-73.2421875
-81.48193359375
-90.63720703125
-99.79248046875
-109.86328125
-116.27197265625
-103.45458984375
-107.11669921875
-98.876953125
-86.0595703125
-81.48193359375
-82.3974609375
-95.21484375
-99.79248046875
-106.201171875
-110.77880859375
-99.79248046875
-100.7080078125
-104.3701171875
-95.21484375
-84.228515625
-84.228515625
-96.13037109375
-100.7080078125
-103.45458984375
-105.28564453125
-99.79248046875
-99.79248046875
-103.45458984375
-95.21484375
-94.29931640625
-96.13037109375
-100.7080078125
-89.7216796875
-84.228515625
-93.3837890625
-95.21484375
-85.14404296875
-85.14404296875
-75.0732421875
-67.7490234375
-83.31298828125
-94.29931640625
-96.13037109375
-90.63720703125
-97.96142578125
-75.0732421875
-50.35400390625
-34.7900390625
-26.55029296875
-20.1416015625
-31.1279296875
-45.7763671875
-60.4248046875
-73.2421875
-90.63720703125
-89.7216796875
-78.7353515625
-73.2421875
-64.0869140625
-65.91796875
-90.63720703125
-104.3701171875
-107.11669921875
-103.45458984375
-109.86328125
-97.0458984375
-89.7216796875
-97.0458984375
-96.13037109375
-90.63720703125
-102.5390625
-97.96142578125
-104.3701171875
-113.525390625
-125.42724609375
-121.76513671875
-116.27197265625
-99.79248046875
-89.7216796875
-87.890625
-86.0595703125
-100.7080078125
-104.3701171875
-118.10302734375
-116.27197265625
-111.6943359375
-100.7080078125
-101.62353515625
-91.552734375
-81.48193359375
-88.80615234375
-94.29931640625
-96.13037109375
-101.62353515625
-102.5390625
-96.13037109375
-99.79248046875
-111.6943359375
-130.92041015625
-150.146484375
-162.04833984375
-167.54150390625
-149.23095703125
-129.08935546875
-96.13037109375
-39.36767578125
43.02978515625
155.6396484375
299.37744140625
454.1015625
582.275390625
677.490234375
812.98828125
947.57080078125
1032.71484375
1087.646484375
1070.25146484375
1040.0390625
1001.5869140625
904.541015625
650.93994140625
336.9140625
54.01611328125
-112.60986328125
-127.25830078125
-119.93408203125
-89.7216796875
-59.50927734375
-32.04345703125
-23.8037109375
-29.296875
-33.87451171875
-37.53662109375
-47.607421875
-65.00244140625
-66.83349609375
-74.15771484375
-78.7353515625
-66.83349609375
-59.50927734375
-75.98876953125
-81.48193359375
-80.56640625
-80.56640625
-99.79248046875
-94.29931640625
-85.14404296875
-79.65087890625
-83.31298828125
-78.7353515625
-78.7353515625
-82.3974609375
-87.890625
-94.29931640625
-99.79248046875
-92.46826171875
-85.14404296875
-88.80615234375
-84.228515625
-71.4111328125
-75.98876953125
-83.31298828125
-84.228515625
-97.96142578125
-105.28564453125
-93.3837890625
-88.80615234375
-88.80615234375
-80.56640625
-68.66455078125
-73.2421875
-76.904296875
-82.3974609375
-93.3837890625
-95.21484375
-92.46826171875
-80.56640625
-81.48193359375
-82.3974609375
-61.34033203125
-67.7490234375
-78.7353515625
-81.48193359375
-86.0595703125
-98.876953125
-88.80615234375
-79.65087890625
-83.31298828125
-80.56640625
-75.0732421875
-73.2421875
-78.7353515625
-84.228515625
-84.228515625
-98.876953125
-104.3701171875
-94.29931640625
-89.7216796875
-79.65087890625
-75.98876953125
-79.65087890625
-82.3974609375
-86.97509765625
-87.890625
-95.21484375
-88.80615234375
-83.31298828125
-78.7353515625
-76.904296875
-65.91796875
-66.83349609375
-76.904296875
-85.14404296875
-86.0595703125
-89.7216796875
-90.63720703125
-81.48193359375
-78.7353515625
-69.580078125
-56.7626953125
-72.32666015625
-75.98876953125
-77.81982421875
-76.904296875
-87.890625
-91.552734375
-74.15771484375
-75.0732421875
-71.4111328125
-62.255859375
-65.91796875
-68.66455078125
-67.7490234375
-75.0732421875
-83.31298828125
-75.0732421875
-75.0732421875
-75.98876953125
-66.83349609375
-55.84716796875
-58.59375
-66.83349609375
-67.7490234375
-76.904296875
-83.31298828125
-75.98876953125
-73.2421875
-67.7490234375
-57.67822265625
-56.7626953125
-57.67822265625
-63.17138671875
-78.7353515625
-75.0732421875
-75.0732421875
-71.4111328125
-65.00244140625
-57.67822265625
-60.4248046875
-53.1005859375
-52.18505859375
-54.931640625
-59.50927734375
-60.4248046875
-63.17138671875
-65.00244140625
-53.1005859375
-44.86083984375
-39.36767578125
-34.7900390625
-30.21240234375
-30.21240234375
-28.38134765625
-35.70556640625
-42.1142578125
-37.53662109375
-26.55029296875
-13.73291015625
-17.39501953125
-16.4794921875
-6.40869140625
-15.56396484375
-17.39501953125
-21.97265625
-39.36767578125
-35.70556640625
-33.87451171875
-35.70556640625
-35.70556640625
-30.21240234375
-32.04345703125
-31.1279296875
-39.36767578125
-49.4384765625
-65.00244140625
-64.0869140625
-64.0869140625
-65.91796875
-61.34033203125
-57.67822265625
-60.4248046875
-65.91796875
-75.0732421875
-71.4111328125
-86.97509765625
-86.0595703125
-81.48193359375
-75.98876953125
-71.4111328125
-62.255859375
-72.32666015625
-82.3974609375
-84.228515625
-86.0595703125
-92.46826171875
-91.552734375
-86.0595703125
-75.0732421875
-72.32666015625
-65.91796875
-64.0869140625
-67.7490234375
-71.4111328125
-78.7353515625
-90.63720703125
-90.63720703125
-77.81982421875
-67.7490234375
-65.00244140625
-64.0869140625
-61.34033203125
-74.15771484375
-74.15771484375
-75.98876953125
-78.7353515625
-77.81982421875
-72.32666015625
-68.66455078125
-72.32666015625
-64.0869140625
-63.17138671875
-66.83349609375
-76.904296875
-84.228515625
-92.46826171875
-82.3974609375
-80.56640625
-73.2421875
-66.83349609375
-64.0869140625
-61.34033203125
-72.32666015625
-74.15771484375
-76.904296875
-91.552734375
-85.14404296875
-78.7353515625
-75.0732421875
-66.83349609375
-61.34033203125
-64.0869140625
-74.15771484375
-75.98876953125
-79.65087890625
-89.7216796875
-90.63720703125
-83.31298828125
-75.0732421875
-75.98876953125
-71.4111328125
-76.904296875
-75.0732421875
-78.7353515625
-81.48193359375
-89.7216796875
-89.7216796875
-86.97509765625
-87.890625
-72.32666015625
-67.7490234375
-72.32666015625
-76.904296875
-86.0595703125
-89.7216796875
-88.80615234375
-83.31298828125
-83.31298828125
-85.14404296875
-77.81982421875
-68.66455078125
-74.15771484375
-85.14404296875
-86.97509765625
-89.7216796875
-96.13037109375
-97.0458984375
-96.13037109375
-90.63720703125
-93.3837890625
-81.48193359375
-80.56640625
-92.46826171875
-92.46826171875
-97.0458984375
-108.0322265625
-110.77880859375
-99.79248046875
-90.63720703125
-90.63720703125
-81.48193359375
-81.48193359375
-91.552734375
-91.552734375
-97.96142578125
-102.5390625
-99.79248046875
-105.28564453125
-95.21484375
-84.228515625
-86.0595703125
-88.80615234375
-87.890625
-89.7216796875
-95.21484375
-105.28564453125
-97.96142578125
-89.7216796875
-92.46826171875
-89.7216796875
-77.81982421875
-75.98876953125
-83.31298828125
-95.21484375
-101.62353515625
-108.0322265625
-108.94775390625
-111.6943359375
-102.5390625
-98.876953125
-86.0595703125
-84.228515625
-84.228515625
-95.21484375
-96.13037109375
-104.3701171875
-109.86328125
-106.201171875
-101.62353515625
-94.29931640625
-87.890625
-89.7216796875
-93.3837890625
-97.0458984375
-99.79248046875
-106.201171875
-118.10302734375
-108.0322265625
-102.5390625
-101.62353515625
-86.97509765625
-77.81982421875
-83.31298828125
-86.97509765625
-94.29931640625
-104.3701171875
-92.46826171875
-94.29931640625
-101.62353515625
-98.876953125
-84.228515625
-80.56640625
-87.890625
-91.552734375
-100.7080078125
-107.11669921875
-102.5390625
-102.5390625
-108.94775390625
-97.96142578125
-84.228515625
-91.552734375
-97.96142578125
-97.96142578125
-104.3701171875
-104.3701171875
-100.7080078125
-92.46826171875
-95.21484375
-97.96142578125
-80.56640625
-82.3974609375
-87.890625
-85.14404296875
-72.32666015625
-71.4111328125
-50.35400390625
-32.958984375
-40.283203125
-43.9453125
-32.958984375
-46.69189453125
-48.52294921875
-71.4111328125
-92.46826171875
-91.552734375
-86.97509765625
-75.0732421875
-77.81982421875
-89.7216796875
-88.80615234375
-86.0595703125
-82.3974609375
-88.80615234375
-100.7080078125
-108.0322265625
-106.201171875
-108.0322265625
-106.201171875
-104.3701171875
-89.7216796875
-86.97509765625
-97.0458984375
-100.7080078125
-106.201171875
-114.44091796875
-108.0322265625
-104.3701171875
-115.3564453125
-105.28564453125
-97.96142578125
-97.96142578125
-97.96142578125
-98.876953125
-103.45458984375
-118.10302734375
-114.44091796875
-105.28564453125
-108.0322265625
-99.79248046875
-85.14404296875
-84.228515625
-85.14404296875
-86.0595703125
-86.0595703125
-108.94775390625
-124.51171875
-142.822265625
-156.55517578125
-162.04833984375
-135.498046875
-109.86328125
-82.3974609375
-26.55029296875
29.296875
112.60986328125
246.27685546875
419.3115234375
555.72509765625
647.27783203125
757.14111328125
890.80810546875
985.107421875
1044.61669921875
1072.998046875
1035.46142578125
1000.67138671875
945.73974609375
761.71875
470.5810546875
224.30419921875
-5.4931640625
-88.80615234375
-93.3837890625
-100.7080078125
-102.5390625
-82.3974609375
-58.59375
-43.9453125
-42.1142578125
-32.958984375
-36.62109375
-46.69189453125
-50.35400390625
-60.4248046875
-76.904296875
-85.14404296875
-84.228515625
-81.48193359375
-79.65087890625
-75.0732421875
-62.255859375
-73.2421875
-77.81982421875
-81.48193359375
-99.79248046875
-97.0458984375
-90.63720703125
-88.80615234375
-88.80615234375
-73.2421875
-70.49560546875
-79.65087890625
-86.97509765625
-94.29931640625
-100.7080078125
-94.29931640625
-90.63720703125
-87.890625
-86.97509765625
-75.98876953125
-75.98876953125
-80.56640625
-79.65087890625
-86.97509765625
-94.29931640625
-97.96142578125
-93.3837890625
-91.552734375
-87.890625
-77.81982421875
-77.81982421875
-88.80615234375
-91.552734375
-94.29931640625
-102.5390625
-101.62353515625
-89.7216796875
-85.14404296875
-89.7216796875
-81.48193359375
-73.2421875
-75.98876953125
-87.890625
-90.63720703125
-97.96142578125
-102.5390625
-97.0458984375
-96.13037109375
-93.3837890625
-85.14404296875
-73.2421875
-75.98876953125
-82.3974609375
-85.14404296875
-91.552734375
-97.96142578125
-95.21484375
-91.552734375
-86.97509765625
-75.0732421875
-73.2421875
-85.14404296875
-89.7216796875
-94.29931640625
-92.46826171875
-101.62353515625
-90.63720703125
-92.46826171875
-83.31298828125
-75.98876953125
-77.81982421875
-83.31298828125
-84.228515625
-83.31298828125
-90.63720703125
-97.96142578125
-92.46826171875
-88.80615234375
-86.97509765625
-76.904296875
-66.83349609375
-72.32666015625
-81.48193359375
-84.228515625
-91.552734375
-102.5390625
-93.3837890625
-87.890625
-92.46826171875
-82.3974609375
-75.98876953125
-81.48193359375
-88.80615234375
-88.80615234375
-93.3837890625
-93.3837890625
-86.97509765625
-84.228515625
-86.0595703125
-83.31298828125
-75.98876953125
-78.7353515625
-85.14404296875
-90.63720703125
-97.0458984375
-102.5390625
-98.876953125
-93.3837890625
-93.3837890625
-81.48193359375
-76.904296875
-86.0595703125
-91.552734375
-89.7216796875
-105.28564453125
-99.79248046875
-87.890625
-82.3974609375
-75.98876953125
-71.4111328125
-73.2421875
-76.904296875
-76.904296875
-82.3974609375
-86.0595703125
-85.14404296875
-78.7353515625
-74.15771484375
-66.83349609375
-54.01611328125
-54.01611328125
-50.35400390625
-51.26953125
-49.4384765625
-64.0869140625
-67.7490234375
-60.4248046875
-55.84716796875
-47.607421875
-38.4521484375
-32.04345703125
-39.36767578125
-44.86083984375
-52.18505859375
-56.7626953125
-69.580078125
-65.00244140625
-54.931640625
-62.255859375
-58.59375
-48.52294921875
-57.67822265625
-64.0869140625
-70.49560546875
-77.81982421875
-90.63720703125
-92.46826171875
-87.890625
-84.228515625
-74.15771484375
-65.00244140625
-71.4111328125
-71.4111328125
-75.0732421875
-84.228515625
-93.3837890625
-97.96142578125
-91.552734375
-88.80615234375
-85.14404296875
-77.81982421875
-77.81982421875
-81.48193359375
-83.31298828125
-92.46826171875
-103.45458984375
-90.63720703125
-85.14404296875
-84.228515625
-86.0595703125
-73.2421875
-75.98876953125
-78.7353515625
-84.228515625
-89.7216796875
-94.29931640625
-91.552734375
-86.0595703125
-82.3974609375
-75.98876953125
-63.17138671875
-68.66455078125
-73.2421875
-75.98876953125
-79.65087890625
-88.80615234375
-83.31298828125
-76.904296875
-72.32666015625
-71.4111328125
-66.83349609375
-66.83349609375
-66.83349609375
-75.98876953125
-86.97509765625
-91.552734375
-82.3974609375
-76.904296875
-70.49560546875
-61.34033203125
-58.59375
-65.00244140625
-72.32666015625
-74.15771484375
-82.3974609375
-83.31298828125
-79.65087890625
-79.65087890625
-82.3974609375
-81.48193359375
-72.32666015625
-75.0732421875
-81.48193359375
-79.65087890625
-81.48193359375
-90.63720703125
-87.890625
-87.890625
-83.31298828125
-77.81982421875
-67.7490234375
-71.4111328125
-82.3974609375
-86.0595703125
-95.21484375
-109.86328125
-97.0458984375
-91.552734375
-91.552734375
-93.3837890625
-81.48193359375
-77.81982421875
-86.0595703125
-84.228515625
-97.0458984375
-105.28564453125
-95.21484375
-94.29931640625
-88.80615234375
-89.7216796875
-81.48193359375
-84.228515625
-94.29931640625
-99.79248046875
-104.3701171875
-108.0322265625
-108.0322265625
-103.45458984375
-97.96142578125
-86.97509765625
-80.56640625
-90.63720703125
-94.29931640625
-100.7080078125
-103.45458984375
-116.27197265625
-115.3564453125
-107.11669921875
-90.63720703125
-86.97509765625
-78.7353515625
-89.7216796875
-92.46826171875
-101.62353515625
-108.0322265625
-117.1875
-114.44091796875
-101.62353515625
-108.94775390625
-98.876953125
-86.97509765625
-93.3837890625
-99.79248046875
-98.876953125
-108.94775390625
-119.0185546875
-111.6943359375
-100.7080078125
-97.96142578125
-93.3837890625
-84.228515625
-84.228515625
-88.80615234375
-97.96142578125
-105.28564453125
-113.525390625
-111.6943359375
-105.28564453125
-97.96142578125
-90.63720703125
-87.890625
-94.29931640625
-100.7080078125
-99.79248046875
-107.11669921875
-118.10302734375
-115.3564453125
-108.0322265625
-100.7080078125
-96.13037109375
-88.80615234375
-86.97509765625
-92.46826171875
-103.45458984375
-108.0322265625
-112.60986328125
-110.77880859375
-98.876953125
-101.62353515625
-95.21484375
-88.80615234375
-94.29931640625
-97.0458984375
-111.6943359375
-113.525390625
-118.10302734375
-113.525390625
-103.45458984375
-94.29931640625
-101.62353515625
-98.876953125
-97.96142578125
-102.5390625
-101.62353515625
-98.876953125
-105.28564453125
-100.7080078125
-98.876953125
-91.552734375
-85.14404296875
-78.7353515625
-83.31298828125
-92.46826171875
-97.96142578125
-109.86328125
-108.0322265625
-101.62353515625
-87.890625
-71.4111328125
-48.52294921875
-31.1279296875
-27.4658203125
-40.283203125
-57.67822265625
-71.4111328125
-75.98876953125
-88.80615234375
-83.31298828125
-83.31298828125
-78.7353515625
-75.0732421875
-79.65087890625
-108.94775390625
-118.10302734375
-123.59619140625
-127.25830078125
-119.93408203125
-124.51171875
-110.77880859375
-98.876953125
-92.46826171875
-102.5390625
-113.525390625
-108.94775390625
-113.525390625
-127.25830078125
-122.6806640625
-116.27197265625
-118.10302734375
-113.525390625
-110.77880859375
-108.0322265625
-113.525390625
-112.60986328125
-114.44091796875
-131.8359375
-133.6669921875
-122.6806640625
-106.201171875
-108.0322265625
-101.62353515625
-104.3701171875
-110.77880859375
-117.1875
-119.93408203125
-124.51171875
-119.93408203125
-115.3564453125
-122.6806640625
-130.92041015625
-147.39990234375
-171.20361328125
-194.091796875
-190.4296875
-165.71044921875
-140.9912109375
-93.3837890625
-29.296875
65.00244140625
189.51416015625
343.32275390625
486.14501953125
589.599609375
681.15234375
809.326171875
932.0068359375
1008.9111328125
1055.60302734375
1037.29248046875
1002.50244140625
960.38818359375
825.8056640625
541.07666015625
249.0234375
-16.4794921875
-144.6533203125
-140.9912109375
-131.8359375
-112.60986328125
-75.98876953125
-49.4384765625
-46.69189453125
-51.26953125
-58.59375
-69.580078125
-88.80615234375
-88.80615234375
-92.46826171875
-91.552734375
-82.3974609375
-79.65087890625
-86.97509765625
-97.96142578125
-106.201171875
-114.44091796875
-119.0185546875
-114.44091796875
-109.86328125
-109.86328125
-97.0458984375
-92.46826171875
-97.0458984375
-101.62353515625
-111.6943359375
-113.525390625
-120.849609375
-125.42724609375
-119.0185546875
-102.5390625
-103.45458984375
-94.29931640625
-95.21484375
-93.3837890625
-100.7080078125
-118.10302734375
-130.0048828125
-119.0185546875
-110.77880859375
-108.0322265625
-101.62353515625
-94.29931640625
-97.0458984375
-106.201171875
-111.6943359375
-114.44091796875
-121.76513671875
-119.0185546875
-110.77880859375
-111.6943359375
-103.45458984375
-91.552734375
-99.79248046875
-110.77880859375
-113.525390625
-108.94775390625
-118.10302734375
-117.1875
-112.60986328125
-108.0322265625
-101.62353515625
-95.21484375
-97.0458984375
-105.28564453125
-105.28564453125
-102.5390625
-117.1875
-114.44091796875
-108.94775390625
-108.94775390625
-101.62353515625
-97.96142578125
-102.5390625
-108.0322265625
-109.86328125
-111.6943359375
-120.849609375
-120.849609375
-111.6943359375
-103.45458984375
-99.79248046875
-89.7216796875
-95.21484375
-107.11669921875
-108.94775390625
-106.201171875
-119.93408203125
-119.0185546875
-114.44091796875
-108.0322265625
-101.62353515625
-95.21484375
-95.21484375
-99.79248046875
-103.45458984375
-104.3701171875
-113.525390625
-107.11669921875
-100.7080078125
-104.3701171875
-97.0458984375
-87.890625
-92.46826171875
-102.5390625
-102.5390625
-103.45458984375
-116.27197265625
-111.6943359375
-105.28564453125
-97.0458984375
-92.46826171875
-79.65087890625
-79.65087890625
-97.0458984375
-97.96142578125
-96.13037109375
-108.94775390625
-113.525390625
-100.7080078125
-87.890625
-89.7216796875
-87.890625
-90.63720703125
-97.96142578125
-100.7080078125
-103.45458984375
-111.6943359375
-104.3701171875
-98.876953125
-88.80615234375
-91.552734375
-86.97509765625
-80.56640625
-86.97509765625
-90.63720703125
-86.0595703125
-98.876953125
-92.46826171875
-82.3974609375
-77.81982421875
-75.0732421875
-62.255859375
-59.50927734375
-61.34033203125
-65.00244140625
-68.66455078125
-74.15771484375
-66.83349609375
-55.84716796875
-47.607421875
-43.02978515625
-34.7900390625
-33.87451171875
-45.7763671875
-56.7626953125
-54.931640625
-65.91796875
-59.50927734375
-56.7626953125
-59.50927734375
-65.91796875
-54.01611328125
-55.84716796875
-68.66455078125
-77.81982421875
-80.56640625
-93.3837890625
-87.890625
-83.31298828125
-84.228515625
-85.14404296875
-79.65087890625
-79.65087890625
-93.3837890625
-99.79248046875
-104.3701171875
-110.77880859375
-108.94775390625
-111.6943359375
-104.3701171875
-98.876953125
-88.80615234375
-89.7216796875
-100.7080078125
-105.28564453125
-105.28564453125
-111.6943359375
-103.45458984375
-107.11669921875
-107.11669921875
-102.5390625
-86.0595703125
-87.890625
-95.21484375
-97.0458984375
-97.0458984375
-111.6943359375
-106.201171875
-102.5390625
-95.21484375
-94.29931640625
-86.97509765625
-83.31298828125
-90.63720703125
-91.552734375
-97.96142578125
-112.60986328125
-108.0322265625
-100.7080078125
-99.79248046875
-96.13037109375
-90.63720703125
-85.14404296875
-93.3837890625
-94.29931640625
-97.96142578125
-107.11669921875
-103.45458984375
-97.96142578125
-91.552734375
-93.3837890625
-81.48193359375
-84.228515625
-89.7216796875
-100.7080078125
-97.96142578125
-103.45458984375
-106.201171875
-100.7080078125
-99.79248046875
-97.0458984375
-91.552734375
-88.80615234375
-86.97509765625
-84.228515625
-91.552734375
-106.201171875
-112.60986328125
-109.86328125
-100.7080078125
-96.13037109375
-92.46826171875
-95.21484375
-100.7080078125
-105.28564453125
-104.3701171875
-112.60986328125
-117.1875
-104.3701171875
-105.28564453125
-107.11669921875
-98.876953125
-95.21484375
-99.79248046875
-102.5390625
-102.5390625
-116.27197265625
-119.93408203125
-117.1875
-110.77880859375
-108.0322265625
-101.62353515625
-100.7080078125
-103.45458984375
-108.0322265625
-109.86328125
-126.3427734375
-122.6806640625
-114.44091796875
-112.60986328125
-108.94775390625
-99.79248046875
-98.876953125
-108.0322265625
-121.76513671875
-124.51171875
-135.498046875
-134.58251953125
-123.59619140625
-108.0322265625
-106.201171875
-106.201171875
-105.28564453125
-113.525390625
-116.27197265625
-116.27197265625
-125.42724609375
-126.3427734375
-124.51171875
-123.59619140625
-110.77880859375
-104.3701171875
-104.3701171875
-116.27197265625
-118.10302734375
-118.10302734375
-124.51171875
-128.173828125
-119.93408203125
-110.77880859375
-119.93408203125
-111.6943359375
-112.60986328125
-112.60986328125
-119.93408203125
-121.76513671875
-122.6806640625
-126.3427734375
-126.3427734375
-122.6806640625
-112.60986328125
-114.44091796875
-115.3564453125
-114.44091796875
-119.0185546875
-124.51171875
-133.6669921875
-127.25830078125
-121.76513671875
-126.3427734375
-125.42724609375
-111.6943359375
-101.62353515625
-105.28564453125
-117.1875
-119.0185546875
-127.25830078125
-135.498046875
-130.0048828125
-126.3427734375
-121.76513671875
-108.94775390625
-105.28564453125
-111.6943359375
-112.60986328125
-116.27197265625
-127.25830078125
-130.0048828125
-121.76513671875
-119.0185546875
-115.3564453125
-110.77880859375
-108.94775390625
-117.1875
-119.0185546875
-127.25830078125
-133.6669921875
-132.75146484375
-127.25830078125
-114.44091796875
-115.3564453125
-116.27197265625
-104.3701171875
-107.11669921875
-116.27197265625
-120.849609375
-135.498046875
-136.41357421875
-128.173828125
-128.173828125
-130.0048828125
-114.44091796875
-110.77880859375
-120.849609375
-119.93408203125
-117.1875
-123.59619140625
-123.59619140625
-111.6943359375
-111.6943359375
-107.11669921875
-104.3701171875
-99.79248046875
-106.201171875
-113.525390625
-115.3564453125
-119.93408203125
-111.6943359375
-87.890625
-75.98876953125
-54.931640625
-51.26953125
-59.50927734375
-65.91796875
-78.7353515625
-91.552734375
-110.77880859375
-115.3564453125
-99.79248046875
-97.0458984375
-101.62353515625
-97.96142578125
-105.28564453125
-119.93408203125
-130.92041015625
-126.3427734375
-130.0048828125
-132.75146484375
-129.08935546875
-125.42724609375
-122.6806640625
-118.10302734375
-113.525390625
-125.42724609375
-131.8359375
-134.58251953125
-141.90673828125
-143.73779296875
-134.58251953125
-130.92041015625
-125.42724609375
-123.59619140625
-116.27197265625
-123.59619140625
-128.173828125
-133.6669921875
-139.16015625
-137.3291015625
-137.3291015625
-134.58251953125
-123.59619140625
-113.525390625
-109.86328125
-120.849609375
-127.25830078125
-131.8359375
-128.173828125
-132.75146484375
-133.6669921875
-145.56884765625
-156.55517578125
-178.52783203125
-187.68310546875
-194.091796875
-178.52783203125
-162.04833984375
-130.92041015625
-85.14404296875
-9.1552734375
107.11669921875
247.1923828125
400.08544921875
542.90771484375
639.0380859375
761.71875
903.62548828125
992.431640625
1055.60302734375
1045.5322265625
1018.98193359375
980.52978515625
896.30126953125
666.50390625
362.548828125
79.65087890625
-117.1875
-151.9775390625
-142.822265625
-113.525390625
-83.31298828125
-69.580078125
-48.52294921875
-45.7763671875
-56.7626953125
-70.49560546875
-68.66455078125
-86.97509765625
-107.11669921875
-106.201171875
-99.79248046875
-98.876953125
-96.13037109375
-95.21484375
-101.62353515625
-106.201171875
-107.11669921875
-114.44091796875
-119.93408203125
-122.6806640625
-118.10302734375
-108.0322265625
-107.11669921875
-100.7080078125
-106.201171875
-119.0185546875
-112.60986328125
-119.0185546875
-133.6669921875
-121.76513671875
-116.27197265625
-113.525390625
-107.11669921875
-95.21484375
-108.0322265625
-115.3564453125
-122.6806640625
-121.76513671875
-119.93408203125
-120.849609375
-119.0185546875
-115.3564453125
-111.6943359375
-98.876953125
-106.201171875
-112.60986328125
-118.10302734375
-118.10302734375
-129.08935546875
-122.6806640625
-117.1875
-116.27197265625
-107.11669921875
-104.3701171875
-105.28564453125
-112.60986328125
-119.93408203125
-125.42724609375
-128.173828125
-124.51171875
-122.6806640625
-115.3564453125
-105.28564453125
-94.29931640625
-105.28564453125
-118.10302734375
-120.849609375
-127.25830078125
-131.8359375
-111.6943359375
-110.77880859375
-114.44091796875
-116.27197265625
-103.45458984375
-101.62353515625
-113.525390625
-110.77880859375
-115.3564453125
-123.59619140625
-122.6806640625
-117.1875
-112.60986328125
-101.62353515625
-95.21484375
-97.0458984375
-108.0322265625
-104.3701171875
-110.77880859375
-119.93408203125
-122.6806640625
-114.44091796875
-108.94775390625
-103.45458984375
-94.29931640625
-101.62353515625
-112.60986328125
-106.201171875
-111.6943359375
-119.0185546875
-119.0185546875
-115.3564453125
-104.3701171875
-97.96142578125
-93.3837890625
-95.21484375
-97.96142578125
-98.876953125
-116.27197265625
-119.93408203125
-105.28564453125
-93.3837890625
-91.552734375
-88.80615234375
-80.56640625
-91.552734375
-105.28564453125
-105.28564453125
-103.45458984375
-110.77880859375
-108.0322265625
-102.5390625
-94.29931640625
-90.63720703125
-87.890625
-89.7216796875
-95.21484375
-103.45458984375
-102.5390625
-104.3701171875
-102.5390625
-94.29931640625
-95.21484375
-86.0595703125
-81.48193359375
-83.31298828125
-88.80615234375
-81.48193359375
-75.98876953125
-84.228515625
-83.31298828125
-74.15771484375
-70.49560546875
-64.0869140625
-57.67822265625
-54.931640625
-54.931640625
-63.17138671875
-65.00244140625
-66.83349609375
-54.931640625
-47.607421875
-46.69189453125
-38.4521484375
-35.70556640625
-39.36767578125
-48.52294921875
-54.01611328125
-60.4248046875
-63.17138671875
-64.0869140625
-58.59375
-59.50927734375
-61.34033203125
-54.01611328125
-56.7626953125
-73.2421875
-80.56640625
-80.56640625
-88.80615234375
-86.0595703125
-85.14404296875
-86.97509765625
-78.7353515625
-80.56640625
-86.97509765625
-97.0458984375
-101.62353515625
-100.7080078125
-103.45458984375
-111.6943359375
-104.3701171875
-97.96142578125
-97.0458984375
-90.63720703125
-86.97509765625
-95.21484375
-102.5390625
-100.7080078125
-106.201171875
-108.94775390625
-106.201171875
-97.96142578125
-95.21484375
-92.46826171875
-98.876953125
-103.45458984375
-100.7080078125
-105.28564453125
-109.86328125
-106.201171875
-104.3701171875
-92.46826171875
-97.0458984375
-88.80615234375
-83.31298828125
-90.63720703125
-103.45458984375
-108.94775390625
-112.60986328125
-101.62353515625
-104.3701171875
-93.3837890625
-88.80615234375
-87.890625
-86.0595703125
-93.3837890625
-95.21484375
-104.3701171875
-111.6943359375
-108.0322265625
-91.552734375
-97.0458984375
-90.63720703125
-75.0732421875
-81.48193359375
-93.3837890625
-97.96142578125
-105.28564453125
-108.0322265625
-104.3701171875
-96.13037109375
-92.46826171875
-90.63720703125
-78.7353515625
-87.890625
-96.13037109375
-101.62353515625
-105.28564453125
-108.0322265625
-99.79248046875
-97.96142578125
-97.96142578125
-97.0458984375
-90.63720703125
-92.46826171875
-99.79248046875
-95.21484375
-104.3701171875
-114.44091796875
-108.0322265625
-100.7080078125
-97.96142578125
-94.29931640625
-90.63720703125
-107.11669921875
-116.27197265625
-108.94775390625
-106.201171875
-117.1875
-115.3564453125
-105.28564453125
-113.525390625
-99.79248046875
-96.13037109375
-105.28564453125
-105.28564453125
-109.86328125
-119.0185546875
-130.0048828125
-126.3427734375
-116.27197265625
-115.3564453125
-108.94775390625
-100.7080078125
-108.0322265625
-108.94775390625
-113.525390625
-125.42724609375
-130.0048828125
-125.42724609375
-123.59619140625
-120.849609375
-113.525390625
-108.94775390625
-110.77880859375
-111.6943359375
-123.59619140625
-129.08935546875
-133.6669921875
-128.173828125
-126.3427734375
-120.849609375
-114.44091796875
-111.6943359375
-104.3701171875
-119.0185546875
-119.0185546875
-125.42724609375
-137.3291015625
-137.3291015625
-130.92041015625
-128.173828125
-122.6806640625
-110.77880859375
-111.6943359375
-124.51171875
-130.0048828125
-126.3427734375
-132.75146484375
-125.42724609375
-129.08935546875
-125.42724609375
-123.59619140625
-113.525390625
-110.77880859375
-119.93408203125
-122.6806640625
-125.42724609375
-134.58251953125
-137.3291015625
-127.25830078125
-126.3427734375
-119.0185546875
-116.27197265625
-115.3564453125
-125.42724609375
-129.08935546875
-130.0048828125
-134.58251953125
-123.59619140625
-127.25830078125
-122.6806640625
-122.6806640625
-112.60986328125
-118.10302734375
-119.0185546875
-125.42724609375
-129.08935546875
-136.41357421875
-138.24462890625
-131.8359375
-131.8359375
-117.1875
-116.27197265625
-119.93408203125
-126.3427734375
-130.92041015625
-133.6669921875
-138.24462890625
-140.9912109375
-134.58251953125
-127.25830078125
-126.3427734375
-120.849609375
-121.76513671875
-121.76513671875
-128.173828125
-130.92041015625
-141.90673828125
-140.07568359375
-134.58251953125
-127.25830078125
-119.0185546875
-115.3564453125
-112.60986328125
-108.94775390625
-112.60986328125
-123.59619140625
-127.25830078125
-121.76513671875
-117.1875
-118.10302734375
-120.849609375
-112.60986328125
-117.1875
-111.6943359375
-108.94775390625
-97.96142578125
-104.3701171875
-80.56640625
-68.66455078125
-65.00244140625
-75.98876953125
-72.32666015625
-79.65087890625
-89.7216796875
-105.28564453125
-109.86328125
-110.77880859375
-117.1875
-116.27197265625
-115.3564453125
-129.08935546875
-124.51171875
-119.93408203125
-120.849609375
-122.6806640625
-133.6669921875
-141.90673828125
-146.484375
-136.41357421875
-132.75146484375
-134.58251953125
-126.3427734375
-124.51171875
-134.58251953125
-138.24462890625
-140.9912109375
-155.6396484375
-144.6533203125
-141.90673828125
-141.90673828125
-130.92041015625
-121.76513671875
-122.6806640625
-122.6806640625
-139.16015625
-143.73779296875
-142.822265625
-136.41357421875
-132.75146484375
-132.75146484375
-122.6806640625
-116.27197265625
-121.76513671875
-128.173828125
-133.6669921875
-137.3291015625
-150.146484375
-166.6259765625
-184.9365234375
-195.9228515625
-203.2470703125
-178.52783203125
-152.89306640625
-120.849609375
-75.0732421875
-27.4658203125
59.50927734375
197.75390625
358.88671875
504.45556640625
606.99462890625
722.35107421875
850.52490234375
953.9794921875
1021.728515625
1042.78564453125
1002.50244140625
969.54345703125
914.61181640625
743.408203125
445.86181640625
191.34521484375
-44.86083984375
-135.498046875
-144.6533203125
-141.90673828125
-123.59619140625
-97.0458984375
-83.31298828125
-66.83349609375
-63.17138671875
-61.34033203125
-68.66455078125
-86.97509765625
-91.552734375
-104.3701171875
-111.6943359375
-109.86328125
-116.27197265625
-115.3564453125
-119.0185546875
-113.525390625
-109.86328125
-119.0185546875
-114.44091796875
-120.849609375
-130.0048828125
-135.498046875
-127.25830078125
-125.42724609375
-121.76513671875
-109.86328125
-106.201171875
-112.60986328125
-129.08935546875
-125.42724609375
-135.498046875
-134.58251953125
-125.42724609375
-118.10302734375
-116.27197265625
-105.28564453125
-104.3701171875
-111.6943359375
-113.525390625
-119.93408203125
-131.8359375
-140.07568359375
-137.3291015625
-131.8359375
-122.6806640625
-110.77880859375
-118.10302734375
-121.76513671875
-131.8359375
-128.173828125
-132.75146484375
-126.3427734375
-124.51171875
-115.3564453125
-113.525390625
-116.27197265625
-112.60986328125
-123.59619140625
-119.0185546875
-120.849609375
-137.3291015625
-133.6669921875
-121.76513671875
-115.3564453125
-114.44091796875
-112.60986328125
-108.0322265625
-113.525390625
-118.10302734375
-120.849609375
-132.75146484375
-136.41357421875
-130.0048828125
-123.59619140625
-110.77880859375
-104.3701171875
-111.6943359375
-108.0322265625
-124.51171875
-120.849609375
-130.92041015625
-137.3291015625
-129.08935546875
-126.3427734375
-120.849609375
-114.44091796875
-111.6943359375
-98.876953125
-111.6943359375
-119.0185546875
-136.41357421875
-130.92041015625
-123.59619140625
-129.08935546875
-120.849609375
-111.6943359375
-113.525390625
-111.6943359375
-119.0185546875
-114.44091796875
-123.59619140625
-123.59619140625
-114.44091796875
-114.44091796875
-108.94775390625
-96.13037109375
-100.7080078125
-102.5390625
-111.6943359375
-117.1875
-123.59619140625
-119.93408203125
-113.525390625
-113.525390625
-111.6943359375
-105.28564453125
-101.62353515625
-106.201171875
-117.1875
-118.10302734375
-129.08935546875
-121.76513671875
-119.0185546875
-117.1875
-119.93408203125
-114.44091796875
-101.62353515625
-102.5390625
-113.525390625
-119.93408203125
-134.58251953125
-127.25830078125
-116.27197265625
-106.201171875
-102.5390625
-95.21484375
-105.28564453125
-111.6943359375
-106.201171875
-97.96142578125
-109.86328125
-106.201171875
-90.63720703125
-95.21484375
-89.7216796875
-75.0732421875
-71.4111328125
-71.4111328125
-75.98876953125
-73.2421875
-76.904296875
-76.904296875
-75.98876953125
-71.4111328125
-66.83349609375
-54.931640625
-50.35400390625
-56.7626953125
-73.2421875
-65.91796875
-85.14404296875
-89.7216796875
-94.29931640625
-88.80615234375
-78.7353515625
-78.7353515625
-70.49560546875
-81.48193359375
-92.46826171875
-98.876953125
-108.0322265625
-114.44091796875
-108.0322265625
-105.28564453125
-109.86328125
-99.79248046875
-85.14404296875
-102.5390625
-114.44091796875
-110.77880859375
-118.10302734375
-114.44091796875
-113.525390625
-105.28564453125
-108.0322265625
-105.28564453125
-108.0322265625
-105.28564453125
-112.60986328125
-110.77880859375
-109.86328125
-112.60986328125
-107.11669921875
-109.86328125
-109.86328125
-97.96142578125
-95.21484375
-98.876953125
-98.876953125
-112.60986328125
-119.0185546875
-117.1875
-105.28564453125
-109.86328125
-108.94775390625
-91.552734375
-86.97509765625
-96.13037109375
-104.3701171875
-101.62353515625
-112.60986328125
-114.44091796875
-108.0322265625
-119.93408203125
-108.0322265625
-102.5390625
-87.890625
-88.80615234375
-91.552734375
-94.29931640625
-119.93408203125
-115.3564453125
-102.5390625
-97.0458984375
-101.62353515625
-85.14404296875
-86.97509765625
-97.96142578125
-107.11669921875
-110.77880859375
-116.27197265625
-116.27197265625
-106.201171875
-104.3701171875
-100.7080078125
-93.3837890625
-96.13037109375
-93.3837890625
-93.3837890625
-101.62353515625
-102.5390625
-115.3564453125
-110.77880859375
-107.11669921875
-107.11669921875
-103.45458984375
-97.96142578125
-99.79248046875
-109.86328125
-112.60986328125
-122.6806640625
-122.6806640625
-111.6943359375
-117.1875
-119.0185546875
-100.7080078125
-101.62353515625
-111.6943359375
-118.10302734375
-119.0185546875
-127.25830078125
-127.25830078125
-130.0048828125
-130.0048828125
-119.93408203125
-111.6943359375
-108.94775390625
-105.28564453125
-108.94775390625
-119.0185546875
-126.3427734375
-133.6669921875
-125.42724609375
-119.0185546875
-119.93408203125
-109.86328125
-109.86328125
-117.1875
-123.59619140625
-133.6669921875
-130.92041015625
-134.58251953125
-128.173828125
-126.3427734375
-120.849609375
-115.3564453125
-114.44091796875
-125.42724609375
-125.42724609375
-127.25830078125
-137.3291015625
-134.58251953125
-122.6806640625
-119.0185546875
-111.6943359375
-112.60986328125
-117.1875
-121.76513671875
-126.3427734375
-126.3427734375
-134.58251953125
-142.822265625
-134.58251953125
-132.75146484375
-126.3427734375
-117.1875
-114.44091796875
-121.76513671875
-124.51171875
-122.6806640625
-138.24462890625
-143.73779296875
-148.3154296875
-136.41357421875
-130.0048828125
-120.849609375
-111.6943359375
-120.849609375
-121.76513671875
-126.3427734375
-140.07568359375
-140.07568359375
-132.75146484375
-128.173828125
-123.59619140625
-114.44091796875
-108.94775390625
-115.3564453125
-123.59619140625
-120.849609375
-131.8359375
-133.6669921875
-129.08935546875
-128.173828125
-115.3564453125
-113.525390625
-111.6943359375
-115.3564453125
-117.1875
-124.51171875
-138.24462890625
-140.07568359375
-134.58251953125
-127.25830078125
-120.849609375
-111.6943359375
-109.86328125
-112.60986328125
-120.849609375
-112.60986328125
-122.6806640625
-130.92041015625
-130.0048828125
-124.51171875
-127.25830078125
-120.849609375
-104.3701171875
-92.46826171875
-83.31298828125
-67.7490234375
-77.81982421875
-84.228515625
-78.7353515625
-83.31298828125
-92.46826171875
-84.228515625
-85.14404296875
-91.552734375
-104.3701171875
-102.5390625
-108.94775390625
-121.76513671875
-123.59619140625
-129.08935546875
-130.0048828125
-117.1875
-106.201171875
-112.60986328125
-124.51171875
-124.51171875
-133.6669921875
-143.73779296875
-134.58251953125
-136.41357421875
-130.0048828125
-126.3427734375
-117.1875
-124.51171875
-124.51171875
-136.41357421875
-149.23095703125
-156.55517578125
-140.9912109375
-133.6669921875
-131.8359375
-129.08935546875
-119.0185546875
-130.0048828125
-136.41357421875
-123.59619140625
-127.25830078125
-140.07568359375
-133.6669921875
-132.75146484375
-130.0048828125
-119.93408203125
-119.0185546875
-125.42724609375
-133.6669921875
-148.3154296875
-180.35888671875
-199.5849609375
-203.2470703125
-179.443359375
-151.9775390625
-119.0185546875
-61.34033203125
-7.32421875
79.65087890625
203.2470703125
357.97119140625
500.79345703125
593.26171875
700.37841796875
821.22802734375
937.5
1012.5732421875
1044.61669921875
1017.15087890625
978.69873046875
924.6826171875
762.63427734375
475.15869140625
210.5712890625
-23.8037109375
-110.77880859375
-119.93408203125
-123.59619140625
-131.8359375
-115.3564453125
-103.45458984375
-93.3837890625
-75.98876953125
-80.56640625
-77.81982421875
-76.904296875
-75.0732421875
-83.31298828125
-96.13037109375
-102.5390625
-108.0322265625
-122.6806640625
-112.60986328125
-107.11669921875
-110.77880859375
-98.876953125
-96.13037109375
-108.94775390625
-120.849609375
-115.3564453125
-123.59619140625
-133.6669921875
-120.849609375
-112.60986328125
-110.77880859375
-102.5390625
-102.5390625
-108.0322265625
-117.1875
-119.93408203125
-119.93408203125
-126.3427734375
-120.849609375
-123.59619140625
-116.27197265625
-108.0322265625
-102.5390625
-108.0322265625
-113.525390625
-118.10302734375
-119.0185546875
-124.51171875
-119.93408203125
-112.60986328125
-106.201171875
-109.86328125
-102.5390625
-107.11669921875
-114.44091796875
-118.10302734375
-117.1875
-132.75146484375
-129.08935546875
-112.60986328125
-109.86328125
-107.11669921875
-94.29931640625
-97.96142578125
-106.201171875
-112.60986328125
-117.1875
-125.42724609375
-126.3427734375
-119.0185546875
-117.1875
-116.27197265625
-100.7080078125
-102.5390625
-115.3564453125
-113.525390625
-124.51171875
-130.92041015625
-116.27197265625
-108.0322265625
-108.0322265625
-108.0322265625
-100.7080078125
-103.45458984375
-109.86328125
-112.60986328125
-114.44091796875
-124.51171875
-117.1875
-111.6943359375
-106.201171875
-101.62353515625
-95.21484375
-105.28564453125
-112.60986328125
-113.525390625
-115.3564453125
-121.76513671875
-109.86328125
-111.6943359375
-117.1875
-101.62353515625
-91.552734375
-97.96142578125
-107.11669921875
-107.11669921875
-113.525390625
-124.51171875
-117.1875
-114.44091796875
-111.6943359375
-99.79248046875
-99.79248046875
-107.11669921875
-107.11669921875
-109.86328125
-125.42724609375
-133.6669921875
-121.76513671875
-114.44091796875
-112.60986328125
-110.77880859375
-107.11669921875
-105.28564453125
-109.86328125
-109.86328125
-117.1875
-127.25830078125
-122.6806640625
-112.60986328125
-115.3564453125
-115.3564453125
-102.5390625
-105.28564453125
-105.28564453125
-113.525390625
-119.0185546875
-123.59619140625
-119.93408203125
-110.77880859375
-111.6943359375
-110.77880859375
-96.13037109375
-101.62353515625
-104.3701171875
-103.45458984375
-108.94775390625
-109.86328125
-97.96142578125
-91.552734375
-92.46826171875
-85.14404296875
-71.4111328125
-73.2421875
-81.48193359375
-85.14404296875
-82.3974609375
-86.97509765625
-86.97509765625
-82.3974609375
-77.81982421875
-67.7490234375
-64.0869140625
-68.66455078125
-82.3974609375
-91.552734375
-97.96142578125
-107.11669921875
-95.21484375
-94.29931640625
-93.3837890625
-86.97509765625
-81.48193359375
-90.63720703125
-98.876953125
-113.525390625
-112.60986328125
-120.849609375
-112.60986328125
-104.3701171875
-110.77880859375
-105.28564453125
-97.96142578125
-95.21484375
-97.96142578125
-109.86328125
-109.86328125
-126.3427734375
-120.849609375
-119.0185546875
-108.94775390625
-106.201171875
-91.552734375
-95.21484375
-99.79248046875
-104.3701171875
-109.86328125
-119.0185546875
-110.77880859375
-108.0322265625
-104.3701171875
-102.5390625
-97.0458984375
-93.3837890625
-97.0458984375
-105.28564453125
-108.0322265625
-114.44091796875
-104.3701171875
-98.876953125
-99.79248046875
-96.13037109375
-85.14404296875
-95.21484375
-95.21484375
-95.21484375
-102.5390625
-112.60986328125
-105.28564453125
-100.7080078125
-96.13037109375
-88.80615234375
-82.3974609375
-86.97509765625
-92.46826171875
-96.13037109375
-97.96142578125
-103.45458984375
-107.11669921875
-108.0322265625
-98.876953125
-93.3837890625
-92.46826171875
-93.3837890625
-91.552734375
-95.21484375
-102.5390625
-111.6943359375
-104.3701171875
-86.97509765625
-89.7216796875
-95.21484375
-88.80615234375
-89.7216796875
-97.96142578125
-100.7080078125
-104.3701171875
-113.525390625
-107.11669921875
-103.45458984375
-104.3701171875
-100.7080078125
-86.97509765625
-97.0458984375
-101.62353515625
-103.45458984375
-110.77880859375
-122.6806640625
-118.10302734375
-114.44091796875
-107.11669921875
-105.28564453125
-97.96142578125
-104.3701171875
-110.77880859375
-114.44091796875
-114.44091796875
-119.0185546875
-115.3564453125
-108.0322265625
-113.525390625
-112.60986328125
-105.28564453125
-105.28564453125
-108.94775390625
-110.77880859375
-119.0185546875
-122.6806640625
-119.0185546875
-116.27197265625
-113.525390625
-109.86328125
-103.45458984375
-102.5390625
-105.28564453125
-112.60986328125
-119.93408203125
-129.08935546875
-118.10302734375
-117.1875
-127.25830078125
-117.1875
-113.525390625
-115.3564453125
-114.44091796875
-116.27197265625
-117.1875
-131.8359375
-123.59619140625
-117.1875
-122.6806640625
-112.60986328125
-102.5390625
-113.525390625
-121.76513671875
-123.59619140625
-125.42724609375
-133.6669921875
-127.25830078125
-120.849609375
-114.44091796875
-114.44091796875
-106.201171875
-108.94775390625
-111.6943359375
-119.0185546875
-127.25830078125
-129.08935546875
-122.6806640625
-119.93408203125
-112.60986328125
-109.86328125
-108.0322265625
-106.201171875
-112.60986328125
-121.76513671875
-126.3427734375
-130.0048828125
-124.51171875
-121.76513671875
-119.93408203125
-114.44091796875
-108.94775390625
-107.11669921875
-114.44091796875
-123.59619140625
-128.173828125
-134.58251953125
-130.92041015625
-119.93408203125
-123.59619140625
-117.1875
-111.6943359375
-115.3564453125
-118.10302734375
-118.10302734375
-122.6806640625
-137.3291015625
-135.498046875
-121.76513671875
-122.6806640625
-111.6943359375
-108.0322265625
-108.0322265625
-112.60986328125
-118.10302734375
-119.93408203125
-134.58251953125
-136.41357421875
-135.498046875
-127.25830078125
-123.59619140625
-118.10302734375
-119.0185546875
-124.51171875
-120.849609375
-117.1875
-126.3427734375
-122.6806640625
-110.77880859375
-103.45458984375
-97.96142578125
-96.13037109375
-99.79248046875
-112.60986328125
-124.51171875
-130.0048828125
-132.75146484375
-122.6806640625
-106.201171875
-78.7353515625
-49.4384765625
-37.53662109375
-49.4384765625
-64.0869140625
-68.66455078125
-78.7353515625
-97.0458984375
-108.0322265625
-108.94775390625
-100.7080078125
-96.13037109375
-83.31298828125
-90.63720703125
-108.94775390625
-121.76513671875
-127.25830078125
-130.0048828125
-124.51171875
-126.3427734375
-117.1875
-115.3564453125
-109.86328125
-115.3564453125
-122.6806640625
-127.25830078125
-124.51171875
-140.9912109375
-140.9912109375
-124.51171875
-119.93408203125
-124.51171875
-112.60986328125
-120.849609375
-125.42724609375
-127.25830078125
-133.6669921875
-144.6533203125
-142.822265625
-131.8359375
-119.0185546875
-114.44091796875
-109.86328125
-109.86328125
-114.44091796875
-118.10302734375
-124.51171875
-131.8359375
-130.0048828125
-126.3427734375
-128.173828125
-140.07568359375
-162.9638671875
-178.52783203125
-190.4296875
-176.69677734375
-158.38623046875
-138.24462890625
-97.96142578125
-22.88818359375
72.32666015625
198.66943359375
357.0556640625
499.8779296875
604.248046875
713.19580078125
836.7919921875
946.6552734375
1027.2216796875
1064.75830078125
1041.8701171875
995.17822265625
941.162109375
791.93115234375
503.5400390625
219.7265625
-32.958984375
-145.56884765625
-146.484375
-127.25830078125
-97.96142578125
-73.2421875
-49.4384765625
-39.36767578125
-52.18505859375
-62.255859375
-71.4111328125
-90.63720703125
-91.552734375
-86.0595703125
-87.890625
-95.21484375
-85.14404296875
-89.7216796875
-100.7080078125
-98.876953125
-108.0322265625
-121.76513671875
-123.59619140625
-116.27197265625
-109.86328125
-105.28564453125
-88.80615234375
-93.3837890625
-108.0322265625
-101.62353515625
-102.5390625
-121.76513671875
-118.10302734375
-110.77880859375
-107.11669921875
-103.45458984375
-90.63720703125
-101.62353515625
-109.86328125
-109.86328125
-105.28564453125
-119.93408203125
-116.27197265625
-106.201171875
-103.45458984375
-107.11669921875
-95.21484375
-92.46826171875
-99.79248046875
-102.5390625
-104.3701171875
-118.10302734375
-123.59619140625
-120.849609375
-109.86328125
-100.7080078125
-89.7216796875
-101.62353515625
-105.28564453125
-106.201171875
-111.6943359375
-119.93408203125
-119.93408203125
-109.86328125
-113.525390625
-117.1875
-98.876953125
-86.0595703125
-94.29931640625
-98.876953125
-103.45458984375
-115.3564453125
-113.525390625
-107.11669921875
-104.3701171875
-98.876953125
-91.552734375
-88.80615234375
-102.5390625
-107.11669921875
-111.6943359375
-117.1875
-119.93408203125
-108.0322265625
-102.5390625
-101.62353515625
-86.0595703125
-86.0595703125
-97.96142578125
-100.7080078125
-101.62353515625
-115.3564453125
-117.1875
-102.5390625
-99.79248046875
-97.0458984375
-91.552734375
-91.552734375
-101.62353515625
-105.28564453125
-108.94775390625
-114.44091796875
-111.6943359375
-106.201171875
-101.62353515625
-97.96142578125
-85.14404296875
-85.14404296875
-87.890625
-90.63720703125
-99.79248046875
-108.0322265625
-101.62353515625
-97.0458984375
-96.13037109375
-87.890625
-78.7353515625
-86.0595703125
-96.13037109375
-86.97509765625
-88.80615234375
-102.5390625
-107.11669921875
-100.7080078125
-91.552734375
-87.890625
-82.3974609375
-70.49560546875
-78.7353515625
-86.97509765625
-83.31298828125
-96.13037109375
-100.7080078125
-88.80615234375
-79.65087890625
-78.7353515625
-75.98876953125
-72.32666015625
-77.81982421875
-78.7353515625
-81.48193359375
-91.552734375
-85.14404296875
-72.32666015625
-73.2421875
-65.00244140625
-55.84716796875
-54.931640625
-54.931640625
-54.01611328125
-51.26953125
-61.34033203125
-55.84716796875
-48.52294921875
-43.02978515625
-42.1142578125
-28.38134765625
-26.55029296875
-30.21240234375
-32.958984375
-37.53662109375
-60.4248046875
-68.66455078125
-54.931640625
-50.35400390625
-43.02978515625
-41.19873046875
-43.9453125
-56.7626953125
-63.17138671875
-65.91796875
-82.3974609375
-81.48193359375
-74.15771484375
-80.56640625
-74.15771484375
-63.17138671875
-69.580078125
-75.98876953125
-84.228515625
-86.97509765625
-99.79248046875
-101.62353515625
-94.29931640625
-91.552734375
-88.80615234375
-86.97509765625
-86.97509765625
-89.7216796875
-87.890625
-89.7216796875
-100.7080078125
-102.5390625
-100.7080078125
-100.7080078125
-94.29931640625
-87.890625
-85.14404296875
-87.890625
-92.46826171875
-94.29931640625
-99.79248046875
-101.62353515625
-92.46826171875
-90.63720703125
-89.7216796875
-84.228515625
-76.904296875
-86.97509765625
-90.63720703125
-90.63720703125
-96.13037109375
-97.96142578125
-87.890625
-89.7216796875
-89.7216796875
-89.7216796875
-78.7353515625
-87.890625
-91.552734375
-89.7216796875
-99.79248046875
-108.0322265625
-98.876953125
-90.63720703125
-87.890625
-78.7353515625
-73.2421875
-79.65087890625
-87.890625
-86.0595703125
-97.0458984375
-97.0458984375
-93.3837890625
-89.7216796875
-87.890625
-76.904296875
-81.48193359375
-84.228515625
-87.890625
-86.0595703125
-98.876953125
-97.0458984375
-90.63720703125
-85.14404296875
-85.14404296875
-81.48193359375
-81.48193359375
-86.97509765625
-95.21484375
-97.96142578125
-107.11669921875
-106.201171875
-99.79248046875
-107.11669921875
-105.28564453125
-86.0595703125
-79.65087890625
-82.3974609375
-91.552734375
-101.62353515625
-108.94775390625
-115.3564453125
-108.0322265625
-101.62353515625
-89.7216796875
-83.31298828125
-83.31298828125
-86.97509765625
-96.13037109375
-108.94775390625
-114.44091796875
-114.44091796875
-107.11669921875
-105.28564453125
-103.45458984375
-90.63720703125
-85.14404296875
-90.63720703125
-100.7080078125
-113.525390625
-120.849609375
-123.59619140625
-115.3564453125
-114.44091796875
-104.3701171875
-98.876953125
-98.876953125
-106.201171875
-106.201171875
-109.86328125
-119.0185546875
-124.51171875
-119.93408203125
-113.525390625
-102.5390625
-91.552734375
-88.80615234375
-100.7080078125
-103.45458984375
-107.11669921875
-120.849609375
-121.76513671875
-113.525390625
-112.60986328125
-107.11669921875
-94.29931640625
-97.96142578125
-104.3701171875
-106.201171875
-114.44091796875
-119.93408203125
-126.3427734375
-121.76513671875
-108.94775390625
-108.94775390625
-107.11669921875
-102.5390625
-101.62353515625
-108.94775390625
-110.77880859375
-120.849609375
-119.93408203125
-115.3564453125
-119.0185546875
-118.10302734375
-108.0322265625
-104.3701171875
-110.77880859375
-109.86328125
-116.27197265625
-125.42724609375
-125.42724609375
-117.1875
-110.77880859375
-103.45458984375
-97.96142578125
-95.21484375
-102.5390625
-103.45458984375
-108.0322265625
-121.76513671875
-130.92041015625
-126.3427734375
-114.44091796875
-106.201171875
-104.3701171875
-97.96142578125
-106.201171875
-113.525390625
-111.6943359375
-123.59619140625
-133.6669921875
-120.849609375
-120.849609375
-114.44091796875
-98.876953125
-98.876953125
-111.6943359375
-119.93408203125
-125.42724609375
-126.3427734375
-121.76513671875
-110.77880859375
-105.28564453125
-100.7080078125
-92.46826171875
-84.228515625
-91.552734375
-99.79248046875
-99.79248046875
-110.77880859375
-122.6806640625
-118.10302734375
-104.3701171875
-102.5390625
-70.49560546875
-52.18505859375
-48.52294921875
-43.9453125
-52.18505859375
-64.0869140625
-75.0732421875
-74.15771484375
-76.904296875
-82.3974609375
-84.228515625
-79.65087890625
-85.14404296875
-91.552734375
-101.62353515625
-119.0185546875
-127.25830078125
-126.3427734375
-112.60986328125
-111.6943359375
-108.0322265625
-98.876953125
-98.876953125
-113.525390625
-120.849609375
-128.173828125
-135.498046875
-124.51171875
-119.0185546875
-117.1875
-108.94775390625
-108.0322265625
-112.60986328125
-117.1875
-123.59619140625
-130.0048828125
-136.41357421875
-134.58251953125
-130.92041015625
-123.59619140625
-108.0322265625
-100.7080078125
-105.28564453125
-103.45458984375
-108.0322265625
-119.0185546875
-119.0185546875
-119.93408203125
-116.27197265625
-109.86328125
-108.0322265625
-107.11669921875
-130.92041015625
-164.794921875
-179.443359375
-203.2470703125
-195.00732421875
-163.87939453125
-128.173828125
-86.97509765625
-21.97265625
62.255859375
184.9365234375
324.0966796875
464.17236328125
584.1064453125
678.40576171875
815.73486328125
952.1484375
1043.701171875
1085.8154296875
1062.92724609375
1029.052734375
966.796875
824.89013671875
539.24560546875
246.27685546875
-21.97265625
-139.16015625
-130.92041015625
-108.0322265625
-77.81982421875
-66.83349609375
-54.931640625
-47.607421875
-56.7626953125
-73.2421875
-67.7490234375
-71.4111328125
-78.7353515625
-77.81982421875
-72.32666015625
-84.228515625
-94.29931640625
-100.7080078125
-103.45458984375
-112.60986328125
-108.0322265625
-111.6943359375
-113.525390625
-105.28564453125
-96.13037109375
-103.45458984375
-101.62353515625
-94.29931640625
-109.86328125
-114.44091796875
-110.77880859375
-111.6943359375
-104.3701171875
-96.13037109375
-90.63720703125
-96.13037109375
-109.86328125
-112.60986328125
-112.60986328125
-116.27197265625
-108.94775390625
-110.77880859375
-108.0322265625
-104.3701171875
-93.3837890625
-99.79248046875
-107.11669921875
-107.11669921875
-106.201171875
-112.60986328125
-109.86328125
-104.3701171875
-101.62353515625
-99.79248046875
-86.97509765625
-89.7216796875
-99.79248046875
-108.0322265625
-108.0322265625
-112.60986328125
-112.60986328125
-105.28564453125
-104.3701171875
-102.5390625
-96.13037109375
-98.876953125
-105.28564453125
-105.28564453125
-109.86328125
-114.44091796875
-106.201171875
-102.5390625
-101.62353515625
-97.0458984375
-88.80615234375
-101.62353515625
-106.201171875
-106.201171875
-107.11669921875
-109.86328125
-104.3701171875
-97.96142578125
-99.79248046875
-92.46826171875
-93.3837890625
-92.46826171875
-97.0458984375
-104.3701171875
-106.201171875
-104.3701171875
-108.94775390625
-109.86328125
-105.28564453125
-94.29931640625
-77.81982421875
-88.80615234375
-100.7080078125
-102.5390625
-106.201171875
-107.11669921875
-99.79248046875
-102.5390625
-100.7080078125
-92.46826171875
-83.31298828125
-82.3974609375
-92.46826171875
-91.552734375
-87.890625
-103.45458984375
-108.94775390625
-103.45458984375
-95.21484375
-86.97509765625
-79.65087890625
-81.48193359375
-83.31298828125
-87.890625
-97.96142578125
-108.0322265625
-98.876953125
-98.876953125
-90.63720703125
-88.80615234375
-77.81982421875
-79.65087890625
-85.14404296875
-84.228515625
-88.80615234375
-101.62353515625
-99.79248046875
-89.7216796875
-83.31298828125
-80.56640625
-66.83349609375
-66.83349609375
-84.228515625
-89.7216796875
-86.97509765625
-91.552734375
-84.228515625
-74.15771484375
-68.66455078125
-58.59375
-55.84716796875
-58.59375
-60.4248046875
-62.255859375
-57.67822265625
-70.49560546875
-67.7490234375
-61.34033203125
-54.01611328125
-44.86083984375
-35.70556640625
-42.1142578125
-40.283203125
-43.9453125
-43.02978515625
-56.7626953125
-55.84716796875
-43.9453125
-44.86083984375
-39.36767578125
-38.4521484375
-51.26953125
-61.34033203125
-56.7626953125
-82.3974609375
-95.21484375
-82.3974609375
-70.49560546875
-76.904296875
-71.4111328125
-64.0869140625
-70.49560546875
-75.0732421875
-77.81982421875
-85.14404296875
-101.62353515625
-103.45458984375
-98.876953125
-89.7216796875
-81.48193359375
-85.14404296875
-92.46826171875
-97.0458984375
-95.21484375
-100.7080078125
-111.6943359375
-102.5390625
-97.0458984375
-103.45458984375
-97.96142578125
-86.97509765625
-86.0595703125
-91.552734375
-89.7216796875
-104.3701171875
-118.10302734375
-111.6943359375
-103.45458984375
-97.0458984375
-82.3974609375
-85.14404296875
-89.7216796875
-87.890625
-91.552734375
-96.13037109375
-102.5390625
-104.3701171875
-99.79248046875
-97.0458984375
-91.552734375
-80.56640625
-75.98876953125
-82.3974609375
-97.96142578125
-97.0458984375
-103.45458984375
-95.21484375
-89.7216796875
-86.97509765625
-85.14404296875
-78.7353515625
-77.81982421875
-81.48193359375
-88.80615234375
-97.0458984375
-101.62353515625
-98.876953125
-88.80615234375
-82.3974609375
-82.3974609375
-80.56640625
-81.48193359375
-90.63720703125
-88.80615234375
-90.63720703125
-98.876953125
-105.28564453125
-101.62353515625
-107.11669921875
-94.29931640625
-75.0732421875
-81.48193359375
-89.7216796875
-98.876953125
-99.79248046875
-106.201171875
-102.5390625
-97.0458984375
-87.890625
-89.7216796875
-86.97509765625
-79.65087890625
-90.63720703125
-97.0458984375
-109.86328125
-128.173828125
-111.6943359375
-110.77880859375
-113.525390625
-101.62353515625
-89.7216796875
-94.29931640625
-90.63720703125
-105.28564453125
-104.3701171875
-106.201171875
-101.62353515625
-103.45458984375
-106.201171875
-99.79248046875
-90.63720703125
-97.96142578125
-99.79248046875
-108.0322265625
-119.0185546875
-124.51171875
-117.1875
-111.6943359375
-114.44091796875
-108.0322265625
-97.96142578125
-100.7080078125
-105.28564453125
-111.6943359375
-113.525390625
-130.92041015625
-114.44091796875
-108.94775390625
-108.94775390625
-105.28564453125
-99.79248046875
-108.0322265625
-118.10302734375
-114.44091796875
-112.60986328125
-130.92041015625
-118.10302734375
-117.1875
-108.0322265625
-112.60986328125
-106.201171875
-102.5390625
-104.3701171875
-113.525390625
-115.3564453125
-130.0048828125
-130.0048828125
-110.77880859375
-111.6943359375
-111.6943359375
-105.28564453125
-102.5390625
-101.62353515625
-111.6943359375
-114.44091796875
-121.76513671875
-117.1875
-117.1875
-112.60986328125
-106.201171875
-97.0458984375
-98.876953125
-97.96142578125
-112.60986328125
-127.25830078125
-132.75146484375
-123.59619140625
-115.3564453125
-114.44091796875
-113.525390625
-99.79248046875
-98.876953125
-103.45458984375
-112.60986328125
-113.525390625
-127.25830078125
-130.0048828125
-124.51171875
-116.27197265625
-114.44091796875
-103.45458984375
-97.0458984375
-105.28564453125
-111.6943359375
-122.6806640625
-131.8359375
-130.92041015625
-126.3427734375
-126.3427734375
-119.0185546875
-106.201171875
-102.5390625
-91.552734375
-100.7080078125
-110.77880859375
-117.1875
-121.76513671875
-111.6943359375
-109.86328125
-108.0322265625
-103.45458984375
-102.5390625
-111.6943359375
-108.94775390625
-109.86328125
-99.79248046875
-76.904296875
-59.50927734375
-64.0869140625
-61.34033203125
-58.59375
-64.0869140625
-71.4111328125
-85.14404296875
-98.876953125
-106.201171875
-110.77880859375
-102.5390625
-98.876953125
-114.44091796875
-111.6943359375
-113.525390625
-111.6943359375
-114.44091796875
-125.42724609375
-134.58251953125
-119.93408203125
-119.93408203125
-126.3427734375
-119.0185546875
-112.60986328125
-119.0185546875
-126.3427734375
-123.59619140625
-128.173828125
-134.58251953125
-135.498046875
-134.58251953125
-130.92041015625
-121.76513671875
-108.94775390625
-104.3701171875
-111.6943359375
-118.10302734375
-124.51171875
-138.24462890625
-130.0048828125
-119.93408203125
-117.1875
-115.3564453125
-104.3701171875
-103.45458984375
-111.6943359375
-106.201171875
-114.44091796875
-122.6806640625
-125.42724609375
-140.07568359375
-159.3017578125
-177.6123046875
-169.37255859375
-157.470703125
-133.6669921875
-100.7080078125
-47.607421875
11.90185546875
123.59619140625
276.4892578125
426.6357421875
552.978515625
663.75732421875
769.04296875
881.65283203125
963.134765625
1032.71484375
1040.0390625
1022.64404296875
986.02294921875
909.11865234375
703.125
416.56494140625
158.38623046875
-55.84716796875
-111.6943359375
-124.51171875
-136.41357421875
-126.3427734375
-97.96142578125
-84.228515625
-69.580078125
-50.35400390625
-42.1142578125
-61.34033203125
-74.15771484375
-82.3974609375
-103.45458984375
-108.94775390625
-109.86328125
-94.29931640625
-87.890625
-90.63720703125
-95.21484375
-99.79248046875
-97.0458984375
-98.876953125
-118.10302734375
-114.44091796875
-102.5390625
-103.45458984375
-105.28564453125
-101.62353515625
-97.96142578125
-97.96142578125
-103.45458984375
-105.28564453125
-123.59619140625
-120.849609375
-113.525390625
-105.28564453125
-102.5390625
-95.21484375
-96.13037109375
-98.876953125
-103.45458984375
-99.79248046875
-113.525390625
-122.6806640625
-108.94775390625
-104.3701171875
-104.3701171875
-89.7216796875
-89.7216796875
-112.60986328125
-111.6943359375
-106.201171875
-108.94775390625
-108.0322265625
-108.0322265625
-107.11669921875
-109.86328125
-94.29931640625
-98.876953125
-104.3701171875
-96.13037109375
-101.62353515625
-120.849609375
-121.76513671875
-119.0185546875
-108.0322265625
-103.45458984375
-92.46826171875
-93.3837890625
-97.0458984375
-104.3701171875
-108.94775390625
-115.3564453125
-123.59619140625
-116.27197265625
-103.45458984375
-99.79248046875
-93.3837890625
-95.21484375
-94.29931640625
-95.21484375
-108.94775390625
-113.525390625
-115.3564453125
-108.94775390625
-106.201171875
-106.201171875
-97.0458984375
-94.29931640625
-104.3701171875
-102.5390625
-98.876953125
-107.11669921875
-104.3701171875
-101.62353515625
-101.62353515625
-104.3701171875
-97.0458984375
-93.3837890625
-99.79248046875
-103.45458984375
-103.45458984375
-109.86328125
-113.525390625
-106.201171875
-100.7080078125
-97.96142578125
-84.228515625
-86.0595703125
-91.552734375
-96.13037109375
-97.96142578125
-110.77880859375
-113.525390625
-98.876953125
-100.7080078125
-95.21484375
-91.552734375
-86.97509765625
-89.7216796875
-99.79248046875
-105.28564453125
-109.86328125
-110.77880859375
-112.60986328125
-113.525390625
-103.45458984375
-92.46826171875
-86.0595703125
-94.29931640625
-100.7080078125
-100.7080078125
-111.6943359375
-107.11669921875
-99.79248046875
-97.0458984375
-90.63720703125
-78.7353515625
-74.15771484375
-80.56640625
-91.552734375
-87.890625
-92.46826171875
-97.0458984375
-89.7216796875
-88.80615234375
-75.0732421875
-56.7626953125
-62.255859375
-67.7490234375
-63.17138671875
-65.00244140625
-67.7490234375
-62.255859375
-65.91796875
-58.59375
-52.18505859375
-46.69189453125
-38.4521484375
-53.1005859375
-58.59375
-65.00244140625
-80.56640625
-83.31298828125
-78.7353515625
-77.81982421875
-69.580078125
-64.0869140625
-63.17138671875
-72.32666015625
-77.81982421875
-86.97509765625
-99.79248046875
-104.3701171875
-94.29931640625
-86.97509765625
-86.0595703125
-86.0595703125
-80.56640625
-84.228515625
-96.13037109375
-106.201171875
-114.44091796875
-108.0322265625
-98.876953125
-104.3701171875
-97.96142578125
-98.876953125
-90.63720703125
-92.46826171875
-101.62353515625
-100.7080078125
-110.77880859375
-116.27197265625
-107.11669921875
-105.28564453125
-95.21484375
-86.97509765625
-80.56640625
-79.65087890625
-83.31298828125
-95.21484375
-108.94775390625
-112.60986328125
-92.46826171875
-88.80615234375
-96.13037109375
-86.97509765625
-77.81982421875
-81.48193359375
-90.63720703125
-92.46826171875
-108.0322265625
-99.79248046875
-95.21484375
-84.228515625
-86.97509765625
-81.48193359375
-77.81982421875
-79.65087890625
-85.14404296875
-98.876953125
-108.0322265625
-99.79248046875
-93.3837890625
-84.228515625
-75.0732421875
-68.66455078125
-68.66455078125
-79.65087890625
-93.3837890625
-87.890625
-102.5390625
-107.11669921875
-97.0458984375
-90.63720703125
-88.80615234375
-80.56640625
-78.7353515625
-81.48193359375
-100.7080078125
-104.3701171875
-112.60986328125
-111.6943359375
-98.876953125
-92.46826171875
-87.890625
-86.0595703125
-90.63720703125
-92.46826171875
-103.45458984375
-107.11669921875
-108.0322265625
-116.27197265625
-108.94775390625
-105.28564453125
-104.3701171875
-95.21484375
-92.46826171875
-96.13037109375
-104.3701171875
-113.525390625
-125.42724609375
-129.08935546875
-121.76513671875
-114.44091796875
-113.525390625
-102.5390625
-92.46826171875
-104.3701171875
-116.27197265625
-119.0185546875
-124.51171875
-129.08935546875
-122.6806640625
-113.525390625
-117.1875
-113.525390625
-104.3701171875
-110.77880859375
-124.51171875
-124.51171875
-128.173828125
-133.6669921875
-130.0048828125
-121.76513671875
-119.93408203125
-103.45458984375
-97.96142578125
-110.77880859375
-124.51171875
-128.173828125
-133.6669921875
-143.73779296875
-140.9912109375
-131.8359375
-119.0185546875
-114.44091796875
-112.60986328125
-118.10302734375
-112.60986328125
-119.93408203125
-127.25830078125
-132.75146484375
-121.76513671875
-120.849609375
-123.59619140625
-115.3564453125
-109.86328125
-114.44091796875
-109.86328125
-126.3427734375
-134.58251953125
-135.498046875
-134.58251953125
-125.42724609375
-117.1875
-105.28564453125
-99.79248046875
-114.44091796875
-117.1875
-120.849609375
-126.3427734375
-130.92041015625
-134.58251953125
-128.173828125
-125.42724609375
-112.60986328125
-109.86328125
-117.1875
-116.27197265625
-119.93408203125
-123.59619140625
-128.173828125
-122.6806640625
-114.44091796875
-114.44091796875
-109.86328125
-111.6943359375
-120.849609375
-122.6806640625
-118.10302734375
-118.10302734375
-122.6806640625
-114.44091796875
-113.525390625
-112.60986328125
-99.79248046875
-93.3837890625
-97.0458984375
-103.45458984375
-105.28564453125
-124.51171875
-130.92041015625
-107.11669921875
-83.31298828125
-72.32666015625
-50.35400390625
-45.7763671875
-52.18505859375
-57.67822265625
-72.32666015625
-90.63720703125
-97.96142578125
-96.13037109375
-98.876953125
-96.13037109375
-85.14404296875
-81.48193359375
-101.62353515625
-118.10302734375
-128.173828125
-128.173828125
-122.6806640625
-123.59619140625
-120.849609375
-122.6806640625
-116.27197265625
-110.77880859375
-113.525390625
-110.77880859375
-120.849609375
-127.25830078125
-135.498046875
-124.51171875
-123.59619140625
-119.93408203125
-107.11669921875
-105.28564453125
-114.44091796875
-115.3564453125
-127.25830078125
-127.25830078125
-144.6533203125
-130.0048828125
-114.44091796875
-106.201171875
-98.876953125
-103.45458984375
-102.5390625
-106.201171875
-116.27197265625
-130.92041015625
-132.75146484375
-123.59619140625
-116.27197265625
-120.849609375
-133.6669921875
-162.04833984375
-182.18994140625
-191.34521484375
-185.85205078125
-155.6396484375
-130.92041015625
-78.7353515625
-16.4794921875
78.7353515625
223.388671875
389.09912109375
520.93505859375
620.7275390625
721.435546875
844.1162109375
943.90869140625
1018.98193359375
1047.36328125
1028.13720703125
994.2626953125
944.82421875
769.04296875
467.83447265625
193.17626953125
-34.7900390625
-125.42724609375
-127.25830078125
-121.76513671875
-108.94775390625
-74.15771484375
-54.931640625
-51.26953125
-53.1005859375
-54.931640625
-69.580078125
-75.0732421875
-73.2421875
-96.13037109375
-87.890625
-86.0595703125
-85.14404296875
-91.552734375
-102.5390625
-99.79248046875
-102.5390625
-117.1875
-110.77880859375
-108.94775390625
-105.28564453125
-98.876953125
-92.46826171875
-100.7080078125
-107.11669921875
-99.79248046875
-108.94775390625
-121.76513671875
-118.10302734375
-110.77880859375
-108.94775390625
-98.876953125
-96.13037109375
-97.96142578125
-99.79248046875
-105.28564453125
-111.6943359375
-118.10302734375
-113.525390625
-111.6943359375
-105.28564453125
-97.0458984375
-92.46826171875
-97.96142578125
-102.5390625
-108.0322265625
-112.60986328125
-120.849609375
-115.3564453125
-113.525390625
-109.86328125
-100.7080078125
-91.552734375
-96.13037109375
-99.79248046875
-109.86328125
-118.10302734375
-119.0185546875
-115.3564453125
-112.60986328125
-100.7080078125
-89.7216796875
-81.48193359375
-99.79248046875
-103.45458984375
-108.0322265625
-113.525390625
-123.59619140625
-117.1875
-108.0322265625
-105.28564453125
-94.29931640625
-91.552734375
-94.29931640625
-94.29931640625
-102.5390625
-108.94775390625
-117.1875
-111.6943359375
-100.7080078125
-109.86328125
-99.79248046875
-91.552734375
-97.0458984375
-102.5390625
-105.28564453125
-112.60986328125
-119.0185546875
-117.1875
-109.86328125
-97.0458984375
-91.552734375
-90.63720703125
-98.876953125
-95.21484375
-97.96142578125
-103.45458984375
-108.0322265625
-101.62353515625
-102.5390625
-97.96142578125
-90.63720703125
-89.7216796875
-85.14404296875
-93.3837890625
-92.46826171875
-97.0458984375
-110.77880859375
-104.3701171875
-97.96142578125
-92.46826171875
-86.0595703125
-80.56640625
-88.80615234375
-89.7216796875
-93.3837890625
-100.7080078125
-102.5390625
-97.96142578125
-97.96142578125
-87.890625
-86.0595703125
-82.3974609375
-86.97509765625
-89.7216796875
-91.552734375
-97.0458984375
-105.28564453125
-101.62353515625
-95.21484375
-82.3974609375
-75.98876953125
-69.580078125
-78.7353515625
-86.0595703125
-80.56640625
-84.228515625
-102.5390625
-92.46826171875
-86.0595703125
-75.98876953125
-55.84716796875
-43.9453125
-50.35400390625
-58.59375
-61.34033203125
-68.66455078125
-70.49560546875
-63.17138671875
-54.931640625
-46.69189453125
-43.02978515625
-40.283203125
-43.9453125
-47.607421875
-49.4384765625
-57.67822265625
-66.83349609375
-66.83349609375
-60.4248046875
-55.84716796875
-53.1005859375
-45.7763671875
-56.7626953125
-65.00244140625
-74.15771484375
-85.14404296875
-95.21484375
-90.63720703125
-83.31298828125
-84.228515625
-82.3974609375
-73.2421875
-78.7353515625
-86.0595703125
-86.97509765625
-106.201171875
-114.44091796875
-103.45458984375
-97.0458984375
-97.0458984375
-93.3837890625
-84.228515625
-87.890625
-98.876953125
-93.3837890625
-99.79248046875
-115.3564453125
-116.27197265625
-103.45458984375
-100.7080078125
-92.46826171875
-86.97509765625
-86.97509765625
-93.3837890625
-97.0458984375
-100.7080078125
-106.201171875
-101.62353515625
-95.21484375
-89.7216796875
-86.97509765625
-80.56640625
-82.3974609375
-86.97509765625
-88.80615234375
-99.79248046875
-104.3701171875
-99.79248046875
-96.13037109375
-93.3837890625
-93.3837890625
-80.56640625
-86.0595703125
-88.80615234375
-89.7216796875
-91.552734375
-99.79248046875
-91.552734375
-89.7216796875
-90.63720703125
-90.63720703125
-80.56640625
-77.81982421875
-85.14404296875
-85.14404296875
-88.80615234375
-99.79248046875
-89.7216796875
-89.7216796875
-88.80615234375
-88.80615234375
-76.904296875
-75.0732421875
-78.7353515625
-97.0458984375
-97.96142578125
-105.28564453125
-106.201171875
-98.876953125
-86.97509765625
-88.80615234375
-74.15771484375
-77.81982421875
-86.0595703125
-91.552734375
-95.21484375
-107.11669921875
-109.86328125
-105.28564453125
-99.79248046875
-97.0458984375
-91.552734375
-92.46826171875
-99.79248046875
-97.96142578125
-108.94775390625
-121.76513671875
-114.44091796875
-100.7080078125
-96.13037109375
-106.201171875
-94.29931640625
-99.79248046875
-104.3701171875
-104.3701171875
-110.77880859375
-123.59619140625
-118.10302734375
-103.45458984375
-108.0322265625
-106.201171875
-100.7080078125
-99.79248046875
-104.3701171875
-102.5390625
-109.86328125
-116.27197265625
-119.93408203125
-119.0185546875
-115.3564453125
-109.86328125
-96.13037109375
-96.13037109375
-104.3701171875
-109.86328125
-108.0322265625
-116.27197265625
-124.51171875
-124.51171875
-120.849609375
-109.86328125
-97.0458984375
-99.79248046875
-112.60986328125
-114.44091796875
-117.1875
-121.76513671875
-121.76513671875
-124.51171875
-113.525390625
-108.0322265625
-97.0458984375
-105.28564453125
-118.10302734375
-114.44091796875
-122.6806640625
-130.92041015625
-123.59619140625
-116.27197265625
-108.94775390625
-102.5390625
-94.29931640625
-99.79248046875
-108.94775390625
-115.3564453125
-113.525390625
-124.51171875
-123.59619140625
-115.3564453125
-108.94775390625
-110.77880859375
-108.0322265625
-108.94775390625
-109.86328125
-118.10302734375
-127.25830078125
-130.0048828125
-119.0185546875
-116.27197265625
-114.44091796875
-112.60986328125
-105.28564453125
-104.3701171875
-110.77880859375
-112.60986328125
-114.44091796875
-130.0048828125
-122.6806640625
-119.0185546875
-114.44091796875
-111.6943359375
-101.62353515625
-105.28564453125
-114.44091796875
-118.10302734375
-124.51171875
-130.0048828125
-130.92041015625
-124.51171875
-118.10302734375
-108.94775390625
-100.7080078125
-104.3701171875
-116.27197265625
-124.51171875
-124.51171875
-130.92041015625
-122.6806640625
-108.0322265625
-102.5390625
-103.45458984375
-87.890625
-85.14404296875
-90.63720703125
-105.28564453125
-105.28564453125
-119.0185546875
-119.93408203125
-118.10302734375
-115.3564453125
-102.5390625
-68.66455078125
-60.4248046875
-50.35400390625
-47.607421875
-55.84716796875
-79.65087890625
-78.7353515625
-76.904296875
-78.7353515625
-91.552734375
-87.890625
-87.890625
-94.29931640625
-97.96142578125
-102.5390625
-130.92041015625
-136.41357421875
-125.42724609375
-109.86328125
-106.201171875
-101.62353515625
-97.0458984375
-108.94775390625
-116.27197265625
-120.849609375
-133.6669921875
-128.173828125
-125.42724609375
-121.76513671875
-117.1875
-113.525390625
-115.3564453125
-122.6806640625
-128.173828125
-126.3427734375
-137.3291015625
-139.16015625
-125.42724609375
-119.0185546875
-114.44091796875
-108.94775390625
-110.77880859375
-109.86328125
-118.10302734375
-120.849609375
-131.8359375
-122.6806640625
-112.60986328125
-113.525390625
-117.1875
-118.10302734375
-114.44091796875
-128.173828125
-162.9638671875
-195.9228515625
-208.740234375
-194.091796875
-168.45703125
-139.16015625
-92.46826171875
-21.97265625
56.7626953125
180.35888671875
331.4208984375
468.75
582.275390625
691.22314453125
834.04541015625
962.21923828125
1043.701171875
1093.1396484375
1064.75830078125
1016.2353515625
951.23291015625
809.326171875
517.27294921875
230.712890625
-21.05712890625
-131.8359375
-128.173828125
-104.3701171875
-78.7353515625
-72.32666015625
-58.59375
-54.931640625
-62.255859375
-65.00244140625
-70.49560546875
-76.904296875
-75.0732421875
-74.15771484375
-79.65087890625
-88.80615234375
-95.21484375
-93.3837890625
-105.28564453125
-109.86328125
-107.11669921875
-108.94775390625
-106.201171875
-93.3837890625
-91.552734375
-96.13037109375
-99.79248046875
-109.86328125
-121.76513671875
-122.6806640625
-116.27197265625
-110.77880859375
-107.11669921875
-98.876953125
-96.13037109375
-101.62353515625
-107.11669921875
-106.201171875
-119.93408203125
-126.3427734375
-121.76513671875
-113.525390625
-104.3701171875
-85.14404296875
-84.228515625
-99.79248046875
-106.201171875
-112.60986328125
-118.10302734375
-115.3564453125
-112.60986328125
-107.11669921875
-98.876953125
-95.21484375
-99.79248046875
-100.7080078125
-99.79248046875
-98.876953125
-119.0185546875
-122.6806640625
-108.94775390625
-102.5390625
-97.96142578125
-88.80615234375
-97.96142578125
-97.0458984375
-97.0458984375
-104.3701171875
-119.93408203125
-118.10302734375
-113.525390625
-107.11669921875
-103.45458984375
-94.29931640625
-87.890625
-92.46826171875
-102.5390625
-104.3701171875
-115.3564453125
-117.1875
-112.60986328125
-105.28564453125
-104.3701171875
-98.876953125
-94.29931640625
-101.62353515625
-105.28564453125
-107.11669921875
-112.60986328125
-108.0322265625
-110.77880859375
-104.3701171875
-105.28564453125
-94.29931640625
-91.552734375
-93.3837890625
-95.21484375
-91.552734375
-107.11669921875
-104.3701171875
-103.45458984375
-100.7080078125
-94.29931640625
-88.80615234375
-86.97509765625
-89.7216796875
-95.21484375
-100.7080078125
-108.0322265625
-104.3701171875
-101.62353515625
-96.13037109375
-84.228515625
-78.7353515625
-75.0732421875
-86.0595703125
-87.890625
-103.45458984375
-108.94775390625
-111.6943359375
-101.62353515625
-86.97509765625
-81.48193359375
-75.98876953125
-75.98876953125
-84.228515625
-95.21484375
-93.3837890625
-103.45458984375
-98.876953125
-89.7216796875
-89.7216796875
-85.14404296875
-75.0732421875
-75.0732421875
-74.15771484375
-70.49560546875
-71.4111328125
-87.890625
-86.97509765625
-80.56640625
-72.32666015625
-71.4111328125
-57.67822265625
-61.34033203125
-58.59375
-55.84716796875
-60.4248046875
-65.91796875
-61.34033203125
-61.34033203125
-58.59375
-46.69189453125
-34.7900390625
-25.634765625
-33.87451171875
-47.607421875
-55.84716796875
-58.59375
-57.67822265625
-52.18505859375
-48.52294921875
-48.52294921875
-38.4521484375
-38.4521484375
-47.607421875
-62.255859375
-65.91796875
-83.31298828125
-86.97509765625
-77.81982421875
-71.4111328125
-69.580078125
-71.4111328125
-69.580078125
-75.98876953125
-84.228515625
-90.63720703125
-101.62353515625
-104.3701171875
-99.79248046875
-95.21484375
-90.63720703125
-87.890625
-83.31298828125
-85.14404296875
-86.0595703125
-99.79248046875
-113.525390625
-110.77880859375
-107.11669921875
-103.45458984375
-98.876953125
-88.80615234375
-83.31298828125
-93.3837890625
-89.7216796875
-94.29931640625
-111.6943359375
-116.27197265625
-107.11669921875
-99.79248046875
-95.21484375
-91.552734375
-88.80615234375
-88.80615234375
-97.0458984375
-104.3701171875
-114.44091796875
-115.3564453125
-99.79248046875
-88.80615234375
-88.80615234375
-86.97509765625
-86.97509765625
-91.552734375
-97.96142578125
-97.0458984375
-98.876953125
-97.96142578125
-93.3837890625
-95.21484375
-94.29931640625
-81.48193359375
-75.98876953125
-83.31298828125
-94.29931640625
-94.29931640625
-102.5390625
-102.5390625
-97.0458984375
-92.46826171875
-86.97509765625
-85.14404296875
-82.3974609375
-84.228515625
-93.3837890625
-97.96142578125
-108.94775390625
-106.201171875
-94.29931640625
-86.0595703125
-91.552734375
-86.0595703125
-81.48193359375
-92.46826171875
-94.29931640625
-103.45458984375
-109.86328125
-116.27197265625
-103.45458984375
-97.0458984375
-97.96142578125
-87.890625
-85.14404296875
-92.46826171875
-92.46826171875
-98.876953125
-113.525390625
-114.44091796875
-106.201171875
-101.62353515625
-99.79248046875
-92.46826171875
-86.0595703125
-97.0458984375
-96.13037109375
-104.3701171875
-114.44091796875
-118.10302734375
-106.201171875
-101.62353515625
-102.5390625
-97.96142578125
-97.0458984375
-105.28564453125
-109.86328125
-114.44091796875
-120.849609375
-124.51171875
-121.76513671875
-117.1875
-124.51171875
-107.11669921875
-94.29931640625
-108.94775390625
-113.525390625
-110.77880859375
-119.0185546875
-129.08935546875
-124.51171875
-117.1875
-113.525390625
-105.28564453125
-109.86328125
-114.44091796875
-116.27197265625
-116.27197265625
-129.08935546875
-129.08935546875
-119.93408203125
-118.10302734375
-118.10302734375
-112.60986328125
-109.86328125
-115.3564453125
-119.0185546875
-117.1875
-129.08935546875
-127.25830078125
-119.0185546875
-120.849609375
-122.6806640625
-107.11669921875
-101.62353515625
-109.86328125
-118.10302734375
-120.849609375
-132.75146484375
-132.75146484375
-119.0185546875
-112.60986328125
-111.6943359375
-106.201171875
-101.62353515625
-108.94775390625
-113.525390625
-107.11669921875
-123.59619140625
-130.0048828125
-122.6806640625
-117.1875
-116.27197265625
-109.86328125
-112.60986328125
-114.44091796875
-117.1875
-117.1875
-128.173828125
-139.16015625
-136.41357421875
-129.08935546875
-118.10302734375
-111.6943359375
-108.94775390625
-112.60986328125
-119.93408203125
-125.42724609375
-126.3427734375
-134.58251953125
-131.8359375
-123.59619140625
-117.1875
-106.201171875
-109.86328125
-110.77880859375
-119.93408203125
-118.10302734375
-126.3427734375
-132.75146484375
-132.75146484375
-129.08935546875
-117.1875
-112.60986328125
-111.6943359375
-118.10302734375
-127.25830078125
-128.173828125
-128.173828125
-122.6806640625
-109.86328125
-101.62353515625
-103.45458984375
-97.0458984375
-90.63720703125
-95.21484375
-101.62353515625
-108.94775390625
-127.25830078125
-128.173828125
-113.525390625
-93.3837890625
-80.56640625
-60.4248046875
-43.02978515625
-57.67822265625
-65.00244140625
-74.15771484375
-87.890625
-104.3701171875
-99.79248046875
-97.96142578125
-98.876953125
-90.63720703125
-85.14404296875
-92.46826171875
-106.201171875
-129.08935546875
-130.92041015625
-122.6806640625
-121.76513671875
-123.59619140625
-120.849609375
-115.3564453125
-110.77880859375
-114.44091796875
-124.51171875
-123.59619140625
-133.6669921875
-146.484375
-140.07568359375
-130.0048828125
-128.173828125
-119.0185546875
-118.10302734375
-118.10302734375
-124.51171875
-124.51171875
-130.0048828125
-135.498046875
-131.8359375
-129.08935546875
-125.42724609375
-116.27197265625
-115.3564453125
-119.0185546875
-119.93408203125
-122.6806640625
-133.6669921875
-133.6669921875
-127.25830078125
-116.27197265625
-122.6806640625
-122.6806640625
-131.8359375
-166.6259765625
-195.9228515625
-200.50048828125
-190.4296875
-175.78125
-127.25830078125
-73.2421875
-13.73291015625
87.890625
230.712890625
370.78857421875
506.28662109375
618.896484375
726.01318359375
856.01806640625
975.9521484375
1054.6875
1072.998046875
1049.1943359375
1015.31982421875
942.9931640625
747.98583984375
441.2841796875
154.72412109375
-90.63720703125
-151.9775390625
-135.498046875
-116.27197265625
-86.0595703125
-54.931640625
-46.69189453125
-54.01611328125
-56.7626953125
-69.580078125
-86.0595703125
-86.0595703125
-83.31298828125
-88.80615234375
-93.3837890625
-85.14404296875
-86.97509765625
-86.97509765625
-99.79248046875
-115.3564453125
-119.0185546875
-108.94775390625
-108.94775390625
-109.86328125
-102.5390625
-98.876953125
-96.13037109375
-99.79248046875
-109.86328125
-119.93408203125
-129.08935546875
-127.25830078125
-114.44091796875
-99.79248046875
-97.0458984375
-96.13037109375
-99.79248046875
-96.13037109375
-97.96142578125
-113.525390625
-126.3427734375
-116.27197265625
-107.11669921875
-108.94775390625
-108.0322265625
-97.96142578125
-100.7080078125
-103.45458984375
-118.10302734375
-115.3564453125
-120.849609375
-113.525390625
-110.77880859375
-107.11669921875
-105.28564453125
-92.46826171875
-95.21484375
-106.201171875
-116.27197265625
-118.10302734375
-120.849609375
-113.525390625
-104.3701171875
-108.94775390625
-101.62353515625
-96.13037109375
-97.0458984375
-103.45458984375
-104.3701171875
-119.93408203125
-125.42724609375
-119.93408203125
-117.1875
-108.94775390625
-102.5390625
-95.21484375
-98.876953125
-107.11669921875
-107.11669921875
-105.28564453125
-116.27197265625
-108.0322265625
-107.11669921875
-108.0322265625
-96.13037109375
-91.552734375
-94.29931640625
-97.96142578125
-109.86328125
-106.201171875
-113.525390625
-108.0322265625
-108.94775390625
-105.28564453125
-98.876953125
-96.13037109375
-100.7080078125
-98.876953125
-106.201171875
-116.27197265625
-115.3564453125
-104.3701171875
-100.7080078125
-95.21484375
-92.46826171875
-82.3974609375
-94.29931640625
-100.7080078125
-98.876953125
-101.62353515625
-107.11669921875
-108.0322265625
-95.21484375
-94.29931640625
-98.876953125
-91.552734375
-96.13037109375
-97.0458984375
-91.552734375
-99.79248046875
-105.28564453125
-105.28564453125
-97.96142578125
-89.7216796875
-86.0595703125
-80.56640625
-77.81982421875
-86.0595703125
-88.80615234375
-93.3837890625
-102.5390625
-94.29931640625
-88.80615234375
-76.904296875
-77.81982421875
-78.7353515625
-76.904296875
-77.81982421875
-74.15771484375
-81.48193359375
-89.7216796875
-84.228515625
-81.48193359375
-67.7490234375
-64.0869140625
-53.1005859375
-55.84716796875
-54.01611328125
-50.35400390625
-58.59375
-59.50927734375
-58.59375
-43.9453125
-51.26953125
-46.69189453125
-41.19873046875
-38.4521484375
-40.283203125
-43.02978515625
-47.607421875
-56.7626953125
-51.26953125
-46.69189453125
-43.02978515625
-44.86083984375
-46.69189453125
-52.18505859375
-57.67822265625
-64.0869140625
-72.32666015625
-77.81982421875
-80.56640625
-81.48193359375
-74.15771484375
-72.32666015625
-64.0869140625
-69.580078125
-77.81982421875
-86.0595703125
-86.97509765625
-105.28564453125
-101.62353515625
-92.46826171875
-95.21484375
-93.3837890625
-86.97509765625
-86.0595703125
-96.13037109375
-100.7080078125
-100.7080078125
-107.11669921875
-106.201171875
-104.3701171875
-94.29931640625
-91.552734375
-86.0595703125
-86.0595703125
-89.7216796875
-95.21484375
-97.96142578125
-107.11669921875
-101.62353515625
-106.201171875
-93.3837890625
-88.80615234375
-81.48193359375
-83.31298828125
-91.552734375
-92.46826171875
-98.876953125
-106.201171875
-108.0322265625
-103.45458984375
-96.13037109375
-94.29931640625
-83.31298828125
-76.904296875
-82.3974609375
-90.63720703125
-92.46826171875
-102.5390625
-89.7216796875
-86.0595703125
-84.228515625
-78.7353515625
-73.2421875
-85.14404296875
-87.890625
-88.80615234375
-90.63720703125
-105.28564453125
-97.96142578125
-87.890625
-88.80615234375
-86.97509765625
-75.98876953125
-72.32666015625
-81.48193359375
-86.0595703125
-86.97509765625
-97.0458984375
-101.62353515625
-90.63720703125
-94.29931640625
-80.56640625
-73.2421875
-84.228515625
-83.31298828125
-87.890625
-95.21484375
-99.79248046875
-103.45458984375
-100.7080078125
-92.46826171875
-84.228515625
-82.3974609375
-86.97509765625
-97.0458984375
-105.28564453125
-102.5390625
-109.86328125
-103.45458984375
-103.45458984375
-100.7080078125
-93.3837890625
-78.7353515625
-80.56640625
-92.46826171875
-100.7080078125
-107.11669921875
-118.10302734375
-114.44091796875
-105.28564453125
-103.45458984375
-108.94775390625
-99.79248046875
-94.29931640625
-98.876953125
-108.0322265625
-110.77880859375
-111.6943359375
-107.11669921875
-110.77880859375
-106.201171875
-108.0322265625
-105.28564453125
-105.28564453125
-105.28564453125
-109.86328125
-108.94775390625
-115.3564453125
-112.60986328125
-109.86328125
-104.3701171875
-104.3701171875
-97.0458984375
-97.0458984375
-104.3701171875
-114.44091796875
-114.44091796875
-125.42724609375
-122.6806640625
-119.0185546875
-114.44091796875
-108.0322265625
-91.552734375
-94.29931640625
-104.3701171875
-105.28564453125
-116.27197265625
-123.59619140625
-119.93408203125
-111.6943359375
-113.525390625
-108.94775390625
-103.45458984375
-99.79248046875
-107.11669921875
-111.6943359375
-111.6943359375
-124.51171875
-128.173828125
-119.0185546875
-114.44091796875
-108.94775390625
-102.5390625
-107.11669921875
-104.3701171875
-115.3564453125
-116.27197265625
-115.3564453125
-119.93408203125
-116.27197265625
-111.6943359375
-109.86328125
-103.45458984375
-100.7080078125
-104.3701171875
-112.60986328125
-110.77880859375
-125.42724609375
-122.6806640625
-113.525390625
-118.10302734375
-112.60986328125
-97.96142578125
-100.7080078125
-106.201171875
-115.3564453125
-122.6806640625
-130.0048828125
-130.92041015625
-124.51171875
-116.27197265625
-107.11669921875
-92.46826171875
-93.3837890625
-97.0458984375
-106.201171875
-100.7080078125
-109.86328125
-106.201171875
-100.7080078125
-108.0322265625
-109.86328125
-100.7080078125
-106.201171875
-108.94775390625
-99.79248046875
-82.3974609375
-76.904296875
-62.255859375
-55.84716796875
-50.35400390625
-54.01611328125
-59.50927734375
-71.4111328125
-80.56640625
-92.46826171875
-98.876953125
-101.62353515625
-106.201171875
-91.552734375
-99.79248046875
-118.10302734375
-116.27197265625
-107.11669921875
-110.77880859375
-108.0322265625
-112.60986328125
-118.10302734375
-120.849609375
-117.1875
-108.0322265625
-115.3564453125
-108.94775390625
-107.11669921875
-116.27197265625
-119.0185546875
-120.849609375
-129.08935546875
-130.0048828125
-123.59619140625
-117.1875
-119.93408203125
-110.77880859375
-111.6943359375
-118.10302734375
-117.1875
-123.59619140625
-132.75146484375
-132.75146484375
-120.849609375
-114.44091796875
-108.94775390625
-97.96142578125
-104.3701171875
-99.79248046875
-109.86328125
-119.0185546875
-125.42724609375
-147.39990234375
-173.9501953125
-185.85205078125
-190.4296875
-169.37255859375
-146.484375
-117.1875
-75.0732421875
-24.71923828125
44.86083984375
163.87939453125
325.01220703125
476.07421875
595.0927734375
698.54736328125
823.05908203125
941.162109375
1010.7421875
1059.26513671875
1036.376953125
1006.16455078125
959.47265625
839.53857421875
564.88037109375
304.87060546875
59.50927734375
-97.0458984375
-119.93408203125
-116.27197265625
-126.3427734375
-108.0322265625
-76.904296875
-64.0869140625
-54.931640625
-47.607421875
-57.67822265625
-64.0869140625
-75.98876953125
-85.14404296875
-97.96142578125
-102.5390625
-94.29931640625
-90.63720703125
-89.7216796875
-81.48193359375
-83.31298828125
-94.29931640625
-100.7080078125
-100.7080078125
-109.86328125
-109.86328125
-110.77880859375
-106.201171875
-101.62353515625
-93.3837890625
-89.7216796875
-95.21484375
-91.552734375
-102.5390625
-112.60986328125
-116.27197265625
-104.3701171875
-98.876953125
-100.7080078125
-94.29931640625
-91.552734375
-91.552734375
-102.5390625
-104.3701171875
-110.77880859375
-111.6943359375
-106.201171875
-103.45458984375
-101.62353515625
-93.3837890625
-89.7216796875
-96.13037109375
-99.79248046875
-99.79248046875
-108.94775390625
-106.201171875
-104.3701171875
-104.3701171875
-96.13037109375
-86.0595703125
-80.56640625
-98.876953125
-100.7080078125
-97.0458984375
-109.86328125
-113.525390625
-106.201171875
-93.3837890625
-97.96142578125
-96.13037109375
-89.7216796875
-97.96142578125
-103.45458984375
-107.11669921875
-111.6943359375
-103.45458984375
-103.45458984375
-99.79248046875
-99.79248046875
-81.48193359375
-80.56640625
-93.3837890625
-102.5390625
-102.5390625
-111.6943359375
-111.6943359375
-113.525390625
-103.45458984375
-95.21484375
-93.3837890625
-92.46826171875
-94.29931640625
-100.7080078125
-102.5390625
-111.6943359375
-112.60986328125
-108.0322265625
-100.7080078125
-91.552734375
-87.890625
-80.56640625
-88.80615234375
-97.0458984375
-98.876953125
-107.11669921875
-109.86328125
-105.28564453125
-93.3837890625
-87.890625
-80.56640625
-83.31298828125
-85.14404296875
-87.890625
-98.876953125
-101.62353515625
-105.28564453125
-97.96142578125
-91.552734375
-96.13037109375
-91.552734375
-88.80615234375
-87.890625
-88.80615234375
-94.29931640625
-108.94775390625
-110.77880859375
-101.62353515625
-97.96142578125
-93.3837890625
-88.80615234375
-89.7216796875
-79.65087890625
-87.890625
-91.552734375
-95.21484375
-93.3837890625
-97.96142578125
-91.552734375
-84.228515625
-77.81982421875
-74.15771484375
-80.56640625
-82.3974609375
-84.228515625
-92.46826171875
-85.14404296875
-72.32666015625
-70.49560546875
-69.580078125
-52.18505859375
-40.283203125
-46.69189453125
-57.67822265625
-57.67822265625
-62.255859375
-64.0869140625
-58.59375
-61.34033203125
-60.4248046875
-47.607421875
-49.4384765625
-52.18505859375
-54.931640625
-56.7626953125
-67.7490234375
-68.66455078125
-66.83349609375
-61.34033203125
-58.59375
-64.0869140625
-62.255859375
-71.4111328125
-71.4111328125
-76.904296875
-97.96142578125
-101.62353515625
-96.13037109375
-102.5390625
-92.46826171875
-84.228515625
-85.14404296875
-87.890625
-93.3837890625
-94.29931640625
-105.28564453125
-109.86328125
-100.7080078125
-97.0458984375
-96.13037109375
-81.48193359375
-83.31298828125
-96.13037109375
-98.876953125
-98.876953125
-102.5390625
-99.79248046875
-98.876953125
-97.96142578125
-97.0458984375
-86.97509765625
-85.14404296875
-91.552734375
-91.552734375
-96.13037109375
-101.62353515625
-112.60986328125
-106.201171875
-98.876953125
-97.0458984375
-81.48193359375
-76.904296875
-80.56640625
-89.7216796875
-86.97509765625
-91.552734375
-94.29931640625
-92.46826171875
-89.7216796875
-88.80615234375
-80.56640625
-74.15771484375
-77.81982421875
-81.48193359375
-89.7216796875
-90.63720703125
-95.21484375
-85.14404296875
-96.13037109375
-97.96142578125
-81.48193359375
-71.4111328125
-78.7353515625
-92.46826171875
-92.46826171875
-97.96142578125
-98.876953125
-97.0458984375
-95.21484375
-89.7216796875
-75.98876953125
-72.32666015625
-76.904296875
-83.31298828125
-84.228515625
-96.13037109375
-103.45458984375
-96.13037109375
-96.13037109375
-90.63720703125
-77.81982421875
-79.65087890625
-93.3837890625
-102.5390625
-103.45458984375
-106.201171875
-107.11669921875
-108.0322265625
-102.5390625
-100.7080078125
-94.29931640625
-90.63720703125
-93.3837890625
-100.7080078125
-99.79248046875
-108.0322265625
-109.86328125
-102.5390625
-99.79248046875
-100.7080078125
-96.13037109375
-92.46826171875
-91.552734375
-104.3701171875
-112.60986328125
-121.76513671875
-121.76513671875
-112.60986328125
-107.11669921875
-106.201171875
-92.46826171875
-93.3837890625
-97.0458984375
-106.201171875
-109.86328125
-114.44091796875
-113.525390625
-115.3564453125
-112.60986328125
-107.11669921875
-101.62353515625
-98.876953125
-98.876953125
-99.79248046875
-109.86328125
-122.6806640625
-127.25830078125
-118.10302734375
-115.3564453125
-119.0185546875
-101.62353515625
-97.0458984375
-109.86328125
-114.44091796875
-118.10302734375
-122.6806640625
-126.3427734375
-119.93408203125
-115.3564453125
-111.6943359375
-105.28564453125
-98.876953125
-105.28564453125
-112.60986328125
-109.86328125
-119.93408203125
-125.42724609375
-121.76513671875
-117.1875
-113.525390625
-98.876953125
-99.79248046875
-109.86328125
-112.60986328125
-114.44091796875
-123.59619140625
-134.58251953125
-129.08935546875
-123.59619140625
-118.10302734375
-113.525390625
-105.28564453125
-108.94775390625
-107.11669921875
-109.86328125
-120.849609375
-129.08935546875
-126.3427734375
-115.3564453125
-104.3701171875
-106.201171875
-105.28564453125
-106.201171875
-105.28564453125
-112.60986328125
-122.6806640625
-132.75146484375
-135.498046875
-125.42724609375
-118.10302734375
-108.94775390625
-103.45458984375
-105.28564453125
-105.28564453125
-109.86328125
-120.849609375
-123.59619140625
-115.3564453125
-111.6943359375
-107.11669921875
-105.28564453125
-103.45458984375
-102.5390625
-97.0458984375
-84.228515625
-75.98876953125
-63.17138671875
-57.67822265625
-57.67822265625
-62.255859375
-66.83349609375
-65.00244140625
-82.3974609375
-92.46826171875
-99.79248046875
-106.201171875
-106.201171875
-96.13037109375
-97.0458984375
-112.60986328125
-121.76513671875
-110.77880859375
-106.201171875
-108.0322265625
-115.3564453125
-124.51171875
-129.08935546875
-128.173828125
-127.25830078125
-124.51171875
-120.849609375
-117.1875
-121.76513671875
-127.25830078125
-131.8359375
-136.41357421875
-140.07568359375
-137.3291015625
-130.92041015625
-121.76513671875
-113.525390625
-107.11669921875
-117.1875
-121.76513671875
-120.849609375
-130.0048828125
-138.24462890625
-130.0048828125
-114.44091796875
-113.525390625
-111.6943359375
-107.11669921875
-106.201171875
-115.3564453125
-119.0185546875
-130.0048828125
-146.484375
-159.3017578125
-181.2744140625
-190.4296875
-186.767578125
-158.38623046875
-133.6669921875
-104.3701171875
-52.18505859375
12.8173828125
117.1875
278.3203125
426.6357421875
552.06298828125
664.6728515625
780.94482421875
907.28759765625
989.68505859375
1046.44775390625
1029.96826171875
988.76953125
954.89501953125
869.7509765625
634.46044921875
349.7314453125
93.3837890625
-77.81982421875
-127.25830078125
-134.58251953125
-140.07568359375
-118.10302734375
-95.21484375
-74.15771484375
-65.91796875
-58.59375
-54.01611328125
-68.66455078125
-80.56640625
-90.63720703125
-108.0322265625
-114.44091796875
-107.11669921875
-109.86328125
-107.11669921875
-102.5390625
-97.0458984375
-101.62353515625
-109.86328125
-115.3564453125
-114.44091796875
-126.3427734375
-125.42724609375
-114.44091796875
-114.44091796875
-106.201171875
-97.96142578125
-107.11669921875
-111.6943359375
-117.1875
-123.59619140625
-130.92041015625
-119.93408203125
-113.525390625
-109.86328125
-104.3701171875
-106.201171875
-103.45458984375
-105.28564453125
-111.6943359375
-115.3564453125
-126.3427734375
-121.76513671875
-111.6943359375
-109.86328125
-102.5390625
-96.13037109375
-102.5390625
-105.28564453125
-111.6943359375
-118.10302734375
-128.173828125
-119.93408203125
-108.94775390625
-109.86328125
-103.45458984375
-96.13037109375
-109.86328125
-108.94775390625
-107.11669921875
-119.93408203125
-128.173828125
-127.25830078125
-119.0185546875
-110.77880859375
-101.62353515625
-95.21484375
-98.876953125
-102.5390625
-108.0322265625
-117.1875
-124.51171875
-115.3564453125
-109.86328125
-109.86328125
-109.86328125
-101.62353515625
-105.28564453125
-116.27197265625
-110.77880859375
-114.44091796875
-129.08935546875
-125.42724609375
-117.1875
-108.94775390625
-106.201171875
-97.0458984375
-101.62353515625
-101.62353515625
-104.3701171875
-110.77880859375
-123.59619140625
-113.525390625
-105.28564453125
-107.11669921875
-101.62353515625
-97.0458984375
-94.29931640625
-98.876953125
-104.3701171875
-114.44091796875
-125.42724609375
-111.6943359375
-108.94775390625
-98.876953125
-97.96142578125
-91.552734375
-89.7216796875
-90.63720703125
-94.29931640625
-107.11669921875
-115.3564453125
-113.525390625
-101.62353515625
-97.96142578125
-84.228515625
-81.48193359375
-89.7216796875
-91.552734375
-97.0458984375
-104.3701171875
-108.94775390625
-102.5390625
-98.876953125
-90.63720703125
-86.97509765625
-93.3837890625
-97.0458984375
-95.21484375
-94.29931640625
-99.79248046875
-107.11669921875
-99.79248046875
-98.876953125
-89.7216796875
-86.97509765625
-71.4111328125
-73.2421875
-83.31298828125
-87.890625
-87.890625
-88.80615234375
-81.48193359375
-71.4111328125
-68.66455078125
-63.17138671875
-48.52294921875
-45.7763671875
-60.4248046875
-65.91796875
-64.0869140625
-69.580078125
-59.50927734375
-55.84716796875
-54.01611328125
-52.18505859375
-42.1142578125
-46.69189453125
-50.35400390625
-54.01611328125
-69.580078125
-80.56640625
-74.15771484375
-74.15771484375
-76.904296875
-70.49560546875
-69.580078125
-75.98876953125
-82.3974609375
-83.31298828125
-90.63720703125
-100.7080078125
-97.0458984375
-88.80615234375
-87.890625
