ECG
-325.927734375
-328.67431640625
-320.4345703125
-332.33642578125
-324.0966796875
-314.02587890625
-314.02587890625
-317.68798828125
-333.251953125
-330.50537109375
-325.01220703125
-330.50537109375
-329.58984375
-318.603515625
-319.51904296875
-327.7587890625
-335.0830078125
-335.0830078125
-333.251953125
-332.33642578125
-334.16748046875
-324.0966796875
-322.265625
-322.265625
-323.18115234375
-325.01220703125
-325.927734375
-327.7587890625
-328.67431640625
-330.50537109375
-333.251953125
-332.33642578125
-334.16748046875
-328.67431640625
-332.33642578125
-333.251953125
-332.33642578125
-326.84326171875
-325.01220703125
-329.58984375
-320.4345703125
-316.7724609375
-304.87060546875
-278.3203125
-270.08056640625
-271.91162109375
-276.4892578125
-277.40478515625
-281.06689453125
-270.99609375
-279.23583984375
-279.23583984375
-266.41845703125
-259.09423828125
-257.26318359375
-258.1787109375
-249.93896484375
-242.61474609375
-233.45947265625
-242.61474609375
-237.12158203125
-232.5439453125
-229.79736328125
-221.5576171875
-220.64208984375
-230.712890625
-237.12158203125
-233.45947265625
-238.037109375
-252.685546875
-263.671875
-262.75634765625
-250.8544921875
-249.0234375
-260.009765625
-280.1513671875
-292.96875
-307.6171875
-326.84326171875
-331.4208984375
-331.4208984375
-340.576171875
-347.900390625
-346.0693359375
-346.98486328125
-340.576171875
-337.82958984375
-335.0830078125
-338.7451171875
-341.49169921875
-346.0693359375
-353.3935546875
-348.81591796875
-342.4072265625
-344.23828125
-348.81591796875
-346.0693359375
-349.7314453125
-352.47802734375
-349.7314453125
-356.14013671875
-351.5625
-347.900390625
-345.15380859375
-347.900390625
-348.81591796875
-357.97119140625
-346.98486328125
-331.4208984375
-346.0693359375
-351.5625
-348.81591796875
-352.47802734375
-343.32275390625
-346.0693359375
-355.224609375
-369.873046875
-379.94384765625
-400.08544921875
-407.40966796875
-418.39599609375
-439.453125
-440.36865234375
-428.466796875
-404.6630859375
-347.900390625
-221.5576171875
-79.65087890625
59.50927734375
208.740234375
346.98486328125
491.63818359375
594.17724609375
649.10888671875
690.3076171875
692.138671875
672.91259765625
629.8828125
574.03564453125
417.48046875
190.4296875
6.40869140625
-203.2470703125
-371.7041015625
-442.19970703125
-433.9599609375
-408.3251953125
-379.0283203125
-342.4072265625
-303.955078125
-267.333984375
-245.361328125
-240.78369140625
-245.361328125
-244.44580078125
-240.78369140625
-246.27685546875
-252.685546875
-248.10791015625
-254.5166015625
-252.685546875
-254.5166015625
-265.5029296875
-265.5029296875
-267.333984375
-273.74267578125
-268.24951171875
-267.333984375
-266.41845703125
-260.009765625
-264.58740234375
-267.333984375
-261.8408203125
-259.09423828125
-252.685546875
-254.5166015625
-257.26318359375
-256.34765625
-252.685546875
-253.60107421875
-251.77001953125
-249.93896484375
-241.69921875
-240.78369140625
-235.29052734375
-233.45947265625
-240.78369140625
-236.2060546875
-236.2060546875
-230.712890625
-230.712890625
-221.5576171875
-218.81103515625
-221.5576171875
-216.064453125
-217.8955078125
-218.81103515625
-215.14892578125
-205.078125
-197.75390625
-200.50048828125
-195.00732421875
-185.85205078125
-180.35888671875
-182.18994140625
-162.9638671875
-169.37255859375
-170.2880859375
-162.9638671875
-150.146484375
-147.39990234375
-140.9912109375
-137.3291015625
-130.92041015625
-122.6806640625
-114.44091796875
-113.525390625
-107.11669921875
-94.29931640625
-80.56640625
-79.65087890625
-71.4111328125
-61.34033203125
-41.19873046875
-32.958984375
-31.1279296875
-18.310546875
-7.32421875
5.4931640625
19.22607421875
21.97265625
36.62109375
48.52294921875
59.50927734375
71.4111328125
73.2421875
83.31298828125
95.21484375
98.876953125
106.201171875
108.0322265625
103.45458984375
111.6943359375
126.3427734375
137.3291015625
130.92041015625
136.41357421875
147.39990234375
142.822265625
135.498046875
137.3291015625
135.498046875
127.25830078125
122.6806640625
121.76513671875
105.28564453125
94.29931640625
86.97509765625
74.15771484375
52.18505859375
32.958984375
12.8173828125
-7.32421875
-22.88818359375
-34.7900390625
-51.26953125
-63.17138671875
-86.97509765625
-107.11669921875
-121.76513671875
-133.6669921875
-144.6533203125
-162.04833984375
-180.35888671875
-185.85205078125
-198.66943359375
-204.16259765625
-211.48681640625
-224.30419921875
-235.29052734375
-240.78369140625
-247.1923828125
-256.34765625
-254.5166015625
-259.09423828125
-267.333984375
-270.08056640625
-266.41845703125
-274.658203125
-277.40478515625
-278.3203125
-283.8134765625
-289.306640625
-290.22216796875
-283.8134765625
-287.4755859375
-281.982421875
-281.06689453125
-288.39111328125
-295.71533203125
-293.88427734375
-297.54638671875
-292.05322265625
-283.8134765625
-280.1513671875
-283.8134765625
-285.64453125
-281.06689453125
-279.23583984375
-283.8134765625
-287.4755859375
-285.64453125
-290.22216796875
-284.72900390625
-281.982421875
-283.8134765625
-286.56005859375
-285.64453125
-280.1513671875
-283.8134765625
-283.8134765625
-284.72900390625
-286.56005859375
-286.56005859375
-284.72900390625
-282.89794921875
-280.1513671875
-284.72900390625
-281.982421875
-281.982421875
-280.1513671875
-284.72900390625
-281.982421875
-277.40478515625
-278.3203125
-279.23583984375
-273.74267578125
-276.4892578125
-269.1650390625
-276.4892578125
-280.1513671875
-275.57373046875
-279.23583984375
-274.658203125
-277.40478515625
-279.23583984375
-279.23583984375
-279.23583984375
-281.982421875
-276.4892578125
-273.74267578125
-277.40478515625
-275.57373046875
-275.57373046875
-276.4892578125
-277.40478515625
-281.06689453125
-282.89794921875
-280.1513671875
-281.06689453125
-279.23583984375
-281.982421875
-284.72900390625
-282.89794921875
-273.74267578125
-264.58740234375
-270.99609375
-272.8271484375
-275.57373046875
-282.89794921875
-282.89794921875
-280.1513671875
-284.72900390625
-289.306640625
-281.982421875
-280.1513671875
-281.06689453125
-279.23583984375
-275.57373046875
-283.8134765625
-287.4755859375
-285.64453125
-281.06689453125
-282.89794921875
-282.89794921875
-286.56005859375
-283.8134765625
-285.64453125
-286.56005859375
-293.88427734375
-298.4619140625
-288.39111328125
-279.23583984375
-281.06689453125
-290.22216796875
-283.8134765625
-286.56005859375
-294.7998046875
-291.1376953125
-287.4755859375
-287.4755859375
-285.64453125
-282.89794921875
-282.89794921875
-286.56005859375
-287.4755859375
-290.22216796875
-292.96875
-293.88427734375
-293.88427734375
-292.05322265625
-294.7998046875
-293.88427734375
-292.05322265625
-292.05322265625
-288.39111328125
-285.64453125
-287.4755859375
-290.22216796875
-292.05322265625
-291.1376953125
-292.05322265625
-293.88427734375
-292.96875
-292.05322265625
-295.71533203125
-297.54638671875
-295.71533203125
-295.71533203125
-292.05322265625
-296.630859375
-303.03955078125
-292.96875
-287.4755859375
-288.39111328125
-293.88427734375
-287.4755859375
-292.96875
-286.56005859375
-281.982421875
-288.39111328125
-289.306640625
-289.306640625
-290.22216796875
-295.71533203125
-293.88427734375
-292.05322265625
-289.306640625
-288.39111328125
-288.39111328125
-291.1376953125
-289.306640625
-289.306640625
-287.4755859375
-292.05322265625
-292.96875
-294.7998046875
-293.88427734375
-295.71533203125
-299.37744140625
-292.05322265625
-287.4755859375
-286.56005859375
-286.56005859375
-281.982421875
-294.7998046875
-294.7998046875
-292.05322265625
-288.39111328125
-295.71533203125
-291.1376953125
-282.89794921875
-292.96875
-299.37744140625
-296.630859375
-296.630859375
-279.23583984375
-273.74267578125
-283.8134765625
-280.1513671875
-260.92529296875
-238.95263671875
-222.47314453125
-228.8818359375
-230.712890625
-231.62841796875
-232.5439453125
-233.45947265625
-233.45947265625
-232.5439453125
-236.2060546875
-227.05078125
-227.96630859375
-221.5576171875
-216.064453125
-208.740234375
-206.9091796875
-196.83837890625
-200.50048828125
-202.33154296875
-197.75390625
-196.83837890625
-190.4296875
-191.34521484375
-200.50048828125
-205.99365234375
-219.7265625
-237.12158203125
-241.69921875
-242.61474609375
-240.78369140625
-233.45947265625
-231.62841796875
-235.29052734375
-262.75634765625
-286.56005859375
-290.22216796875
-283.8134765625
-288.39111328125
-292.96875
-308.53271484375
-315.85693359375
-307.6171875
-298.4619140625
-300.29296875
-308.53271484375
-306.70166015625
-303.955078125
-298.4619140625
-301.20849609375
-312.19482421875
-315.85693359375
-314.94140625
-315.85693359375
-304.87060546875
-312.19482421875
-319.51904296875
-317.68798828125
-312.19482421875
-313.1103515625
-309.4482421875
-303.955078125
-307.6171875
-304.87060546875
-306.70166015625
-313.1103515625
-303.03955078125
-299.37744140625
-294.7998046875
-299.37744140625
-314.94140625
-308.53271484375
-315.85693359375
-320.4345703125
-330.50537109375
-340.576171875
-342.4072265625
-368.95751953125
-382.6904296875
-406.494140625
-401.91650390625
-387.26806640625
-355.224609375
-270.08056640625
-152.89306640625
-12.8173828125
127.25830078125
277.40478515625
435.791015625
574.951171875
657.3486328125
717.7734375
759.8876953125
756.2255859375
737.9150390625
698.54736328125
620.7275390625
426.6357421875
202.33154296875
7.32421875
-205.078125
-357.97119140625
-412.90283203125
-395.5078125
-359.80224609375
-338.7451171875
-308.53271484375
-274.658203125
-229.79736328125
-206.9091796875
-213.31787109375
-213.31787109375
-212.40234375
-205.99365234375
-200.50048828125
-201.416015625
-213.31787109375
-218.81103515625
-225.2197265625
-220.64208984375
-229.79736328125
-228.8818359375
-225.2197265625
-225.2197265625
-229.79736328125
-223.388671875
-220.64208984375
-224.30419921875
-228.8818359375
-220.64208984375
-218.81103515625
-219.7265625
-227.96630859375
-218.81103515625
-218.81103515625
-217.8955078125
-214.2333984375
-214.2333984375
-213.31787109375
-211.48681640625
-216.064453125
-209.65576171875
-203.2470703125
-204.16259765625
-203.2470703125
-195.9228515625
-195.00732421875
-194.091796875
-195.9228515625
-195.00732421875
-186.767578125
-189.51416015625
-182.18994140625
-168.45703125
-163.87939453125
-170.2880859375
-160.21728515625
-150.146484375
-152.89306640625
-154.72412109375
-155.6396484375
-145.56884765625
-147.39990234375
-135.498046875
-133.6669921875
-122.6806640625
-118.10302734375
-110.77880859375
-111.6943359375
-101.62353515625
-97.0458984375
-90.63720703125
-81.48193359375
-76.904296875
-68.66455078125
-66.83349609375
-50.35400390625
-51.26953125
-41.19873046875
-32.958984375
-25.634765625
-9.1552734375
4.57763671875
10.07080078125
16.4794921875
32.958984375
46.69189453125
54.01611328125
52.18505859375
61.34033203125
66.83349609375
85.14404296875
90.63720703125
113.525390625
119.93408203125
106.201171875
122.6806640625
133.6669921875
129.08935546875
133.6669921875
128.173828125
139.16015625
140.07568359375
149.23095703125
151.9775390625
162.04833984375
153.80859375
146.484375
162.04833984375
157.470703125
151.9775390625
142.822265625
137.3291015625
121.76513671875
116.27197265625
116.27197265625
92.46826171875
75.0732421875
66.83349609375
52.18505859375
34.7900390625
13.73291015625
9.1552734375
-13.73291015625
-38.4521484375
-48.52294921875
-68.66455078125
-79.65087890625
-96.13037109375
-108.0322265625
-128.173828125
-140.07568359375
-144.6533203125
-157.470703125
-164.794921875
-183.10546875
-196.83837890625
-207.82470703125
-199.5849609375
-197.75390625
-213.31787109375
-216.97998046875
-220.64208984375
-222.47314453125
-227.05078125
-230.712890625
-234.375
-242.61474609375
-239.8681640625
-245.361328125
-238.95263671875
-242.61474609375
-254.5166015625
-252.685546875
-247.1923828125
-252.685546875
-243.5302734375
-247.1923828125
-243.5302734375
-245.361328125
-247.1923828125
-243.5302734375
-234.375
-238.037109375
-245.361328125
-249.93896484375
-251.77001953125
-247.1923828125
-249.0234375
-244.44580078125
-243.5302734375
-239.8681640625
-251.77001953125
-259.09423828125
-253.60107421875
-244.44580078125
-240.78369140625
-231.62841796875
-232.5439453125
-241.69921875
-236.2060546875
-237.12158203125
-232.5439453125
-231.62841796875
-232.5439453125
-236.2060546875
-237.12158203125
-241.69921875
-228.8818359375
-230.712890625
-247.1923828125
-243.5302734375
-230.712890625
-236.2060546875
-237.12158203125
-234.375
-242.61474609375
-238.95263671875
-233.45947265625
-235.29052734375
-239.8681640625
-240.78369140625
-236.2060546875
-234.375
-227.96630859375
-235.29052734375
-234.375
-238.95263671875
-239.8681640625
-235.29052734375
-226.13525390625
-228.8818359375
-235.29052734375
-241.69921875
-233.45947265625
-238.037109375
-236.2060546875
-238.037109375
-240.78369140625
-240.78369140625
-239.8681640625
-241.69921875
-232.5439453125
-235.29052734375
-238.037109375
-236.2060546875
-237.12158203125
-231.62841796875
-240.78369140625
-247.1923828125
-247.1923828125
-250.8544921875
-247.1923828125
-242.61474609375
-244.44580078125
-250.8544921875
-254.5166015625
-245.361328125
-256.34765625
-252.685546875
-258.1787109375
-253.60107421875
-259.09423828125
-256.34765625
-249.0234375
-257.26318359375
-258.1787109375
-253.60107421875
-257.26318359375
-263.671875
-258.1787109375
-254.5166015625
-250.8544921875
-254.5166015625
-248.10791015625
-250.8544921875
-257.26318359375
-253.60107421875
-256.34765625
-256.34765625
-267.333984375
-263.671875
-266.41845703125
-260.92529296875
-252.685546875
-260.92529296875
-259.09423828125
-263.671875
-257.26318359375
-264.58740234375
-273.74267578125
-269.1650390625
-257.26318359375
-251.77001953125
-260.92529296875
-262.75634765625
-264.58740234375
-257.26318359375
-256.34765625
-260.92529296875
-268.24951171875
-268.24951171875
-268.24951171875
-267.333984375
-259.09423828125
-264.58740234375
-261.8408203125
-265.5029296875
-262.75634765625
-262.75634765625
-269.1650390625
-265.5029296875
-265.5029296875
-265.5029296875
-262.75634765625
-260.92529296875
-263.671875
-261.8408203125
-263.671875
-261.8408203125
-263.671875
-270.99609375
-274.658203125
-270.08056640625
-270.08056640625
-260.009765625
-260.92529296875
-266.41845703125
-261.8408203125
-260.009765625
-262.75634765625
-264.58740234375
-261.8408203125
-255.43212890625
-252.685546875
-256.34765625
-255.43212890625
-253.60107421875
-245.361328125
-235.29052734375
-227.05078125
-225.2197265625
-221.5576171875
-221.5576171875
-226.13525390625
-234.375
-242.61474609375
-259.09423828125
-263.671875
-263.671875
-264.58740234375
-263.671875
-260.009765625
-241.69921875
-229.79736328125
-226.13525390625
-227.05078125
-227.96630859375
-218.81103515625
-224.30419921875
-238.037109375
-239.8681640625
-244.44580078125
-250.8544921875
-249.0234375
-254.5166015625
-257.26318359375
-245.361328125
-238.95263671875
-242.61474609375
-246.27685546875
-260.009765625
-270.08056640625
-268.24951171875
-271.91162109375
-276.4892578125
-279.23583984375
-279.23583984375
-271.91162109375
-270.99609375
-273.74267578125
-276.4892578125
-272.8271484375
-268.24951171875
-266.41845703125
-274.658203125
-277.40478515625
-271.91162109375
-268.24951171875
-267.333984375
-267.333984375
-275.57373046875
-273.74267578125
-268.24951171875
-264.58740234375
-267.333984375
-269.1650390625
-268.24951171875
-263.671875
-256.34765625
-256.34765625
-260.92529296875
-257.26318359375
-258.1787109375
-265.5029296875
-265.5029296875
-264.58740234375
-263.671875
-275.57373046875
-277.40478515625
-284.72900390625
-292.05322265625
-303.03955078125
-320.4345703125
-335.99853515625
-357.97119140625
-353.3935546875
-331.4208984375
-287.4755859375
-211.48681640625
-89.7216796875
43.9453125
184.9365234375
326.84326171875
501.708984375
649.10888671875
731.50634765625
779.11376953125
781.8603515625
779.11376953125
739.74609375
680.23681640625
600.5859375
419.3115234375
197.75390625
0
-173.03466796875
-307.6171875
-342.4072265625
-331.4208984375
-294.7998046875
-270.99609375
-270.99609375
-253.60107421875
-223.388671875
-191.34521484375
-173.03466796875
-165.71044921875
-161.1328125
-160.21728515625
-161.1328125
-167.54150390625
-162.9638671875
-169.37255859375
-170.2880859375
-164.794921875
-163.87939453125
-162.9638671875
-166.6259765625
-173.03466796875
-175.78125
-177.6123046875
-175.78125
-171.20361328125
-166.6259765625
-167.54150390625
-167.54150390625
-176.69677734375
-171.20361328125
-164.794921875
-163.87939453125
-163.87939453125
-160.21728515625
-159.3017578125
-157.470703125
-160.21728515625
-155.6396484375
-153.80859375
-155.6396484375
-146.484375
-141.90673828125
-142.822265625
-144.6533203125
-142.822265625
-140.07568359375
-125.42724609375
-130.0048828125
-130.92041015625
-130.0048828125
-127.25830078125
-121.76513671875
-116.27197265625
-110.77880859375
-108.0322265625
-103.45458984375
-102.5390625
-102.5390625
-101.62353515625
-95.21484375
-75.98876953125
-73.2421875
-74.15771484375
-72.32666015625
-67.7490234375
-60.4248046875
-51.26953125
-52.18505859375
-43.9453125
-37.53662109375
-30.21240234375
-29.296875
-22.88818359375
-9.1552734375
-2.74658203125
10.07080078125
14.6484375
25.634765625
38.4521484375
42.1142578125
53.1005859375
62.255859375
61.34033203125
77.81982421875
89.7216796875
97.0458984375
96.13037109375
106.201171875
114.44091796875
130.92041015625
138.24462890625
144.6533203125
151.9775390625
155.6396484375
157.470703125
159.3017578125
165.71044921875
165.71044921875
162.9638671875
169.37255859375
174.86572265625
173.03466796875
169.37255859375
172.119140625
177.6123046875
173.9501953125
162.04833984375
158.38623046875
156.55517578125
141.90673828125
135.498046875
130.0048828125
112.60986328125
101.62353515625
96.13037109375
84.228515625
65.00244140625
43.9453125
32.04345703125
10.986328125
-2.74658203125
-20.1416015625
-33.87451171875
-47.607421875
-63.17138671875
-73.2421875
-86.97509765625
-102.5390625
-97.0458984375
-119.93408203125
-130.0048828125
-138.24462890625
-144.6533203125
-154.72412109375
-164.794921875
-166.6259765625
-170.2880859375
-179.443359375
-184.02099609375
-184.9365234375
-194.091796875
-205.078125
-205.078125
-199.5849609375
-193.17626953125
-201.416015625
-198.66943359375
-205.99365234375
-208.740234375
-202.33154296875
-205.99365234375
-216.97998046875
-212.40234375
-211.48681640625
-209.65576171875
-216.064453125
-226.13525390625
-218.81103515625
-217.8955078125
-216.97998046875
-215.14892578125
-215.14892578125
-213.31787109375
-205.078125
-201.416015625
-205.99365234375
-206.9091796875
-209.65576171875
-203.2470703125
-198.66943359375
-203.2470703125
-200.50048828125
-205.078125
-204.16259765625
-209.65576171875
-211.48681640625
-202.33154296875
-199.5849609375
-199.5849609375
-196.83837890625
-194.091796875
-195.9228515625
-189.51416015625
-190.4296875
-195.00732421875
-195.00732421875
-202.33154296875
-197.75390625
-194.091796875
-192.2607421875
-188.5986328125
-192.2607421875
-195.9228515625
-190.4296875
-187.68310546875
-191.34521484375
-187.68310546875
-192.2607421875
-195.9228515625
-199.5849609375
-195.00732421875
-193.17626953125
-196.83837890625
-196.83837890625
-196.83837890625
-194.091796875
-188.5986328125
-188.5986328125
-194.091796875
-191.34521484375
-188.5986328125
-190.4296875
-198.66943359375
-200.50048828125
-197.75390625
-200.50048828125
-197.75390625
-199.5849609375
-200.50048828125
-210.5712890625
-203.2470703125
-202.33154296875
-195.9228515625
-201.416015625
-199.5849609375
-196.83837890625
-198.66943359375
-205.99365234375
-204.16259765625
-207.82470703125
-200.50048828125
-202.33154296875
-210.5712890625
-216.97998046875
-209.65576171875
-205.078125
-209.65576171875
-205.99365234375
-212.40234375
-211.48681640625
-214.2333984375
-213.31787109375
-215.14892578125
-215.14892578125
-214.2333984375
-209.65576171875
-213.31787109375
-221.5576171875
-217.8955078125
-216.97998046875
-214.2333984375
-216.064453125
-228.8818359375
-224.30419921875
-216.97998046875
-216.97998046875
-212.40234375
-216.97998046875
-223.388671875
-221.5576171875
-224.30419921875
-218.81103515625
-217.8955078125
-222.47314453125
-216.97998046875
-217.8955078125
-222.47314453125
-219.7265625
-212.40234375
-213.31787109375
-227.05078125
-226.13525390625
-224.30419921875
-223.388671875
-224.30419921875
-227.05078125
-225.2197265625
-233.45947265625
-227.96630859375
-220.64208984375
-220.64208984375
-225.2197265625
-229.79736328125
-225.2197265625
-219.7265625
-221.5576171875
-227.05078125
-225.2197265625
-230.712890625
-224.30419921875
-223.388671875
-225.2197265625
-226.13525390625
-222.47314453125
-222.47314453125
-222.47314453125
-219.7265625
-223.388671875
-225.2197265625
-226.13525390625
-227.05078125
-237.12158203125
-238.95263671875
-245.361328125
-236.2060546875
-232.5439453125
-216.97998046875
-200.50048828125
-198.66943359375
-184.9365234375
-185.85205078125
-208.740234375
-224.30419921875
-231.62841796875
-241.69921875
-240.78369140625
-234.375
-225.2197265625
-223.388671875
-212.40234375
-215.14892578125
-222.47314453125
-227.05078125
-220.64208984375
-226.13525390625
-221.5576171875
-222.47314453125
-225.2197265625
-225.2197265625
-228.8818359375
-226.13525390625
-220.64208984375
-215.14892578125
-209.65576171875
-203.2470703125
-204.16259765625
-219.7265625
-231.62841796875
-238.037109375
-247.1923828125
-260.009765625
-251.77001953125
-240.78369140625
-241.69921875
-241.69921875
-241.69921875
-246.27685546875
-249.0234375
-246.27685546875
-235.29052734375
-238.037109375
-237.12158203125
-237.12158203125
-238.95263671875
-239.8681640625
-234.375
-238.037109375
-243.5302734375
-240.78369140625
-235.29052734375
-227.96630859375
-228.8818359375
-231.62841796875
-229.79736328125
-225.2197265625
-226.13525390625
-222.47314453125
-226.13525390625
-223.388671875
-225.2197265625
-232.5439453125
-233.45947265625
-232.5439453125
-239.8681640625
-249.0234375
-267.333984375
-282.89794921875
-302.1240234375
-316.7724609375
-346.0693359375
-347.900390625
-337.82958984375
-303.955078125
-229.79736328125
-107.11669921875
33.87451171875
185.85205078125
321.35009765625
469.66552734375
623.47412109375
736.99951171875
792.8466796875
815.73486328125
817.56591796875
806.57958984375
761.71875
709.53369140625
542.90771484375
304.87060546875
108.0322265625
-99.79248046875
-280.1513671875
-334.16748046875
-316.7724609375
-281.982421875
-253.60107421875
-225.2197265625
-195.9228515625
-159.3017578125
-124.51171875
-117.1875
-122.6806640625
-125.42724609375
-124.51171875
-120.849609375
-121.76513671875
-121.76513671875
-133.6669921875
-141.90673828125
-142.822265625
-145.56884765625
-141.90673828125
-134.58251953125
-138.24462890625
-136.41357421875
-136.41357421875
-138.24462890625
-140.07568359375
-142.822265625
-144.6533203125
-145.56884765625
-144.6533203125
-144.6533203125
-136.41357421875
-130.0048828125
-131.8359375
-130.92041015625
-131.8359375
-130.0048828125
-132.75146484375
-124.51171875
-125.42724609375
-121.76513671875
-121.76513671875
-122.6806640625
-116.27197265625
-109.86328125
-108.94775390625
-105.28564453125
-103.45458984375
-110.77880859375
-108.0322265625
-96.13037109375
-95.21484375
-95.21484375
-96.13037109375
-88.80615234375
-93.3837890625
-91.552734375
-80.56640625
-77.81982421875
-82.3974609375
-76.904296875
-63.17138671875
-54.931640625
-57.67822265625
-49.4384765625
-45.7763671875
-45.7763671875
-38.4521484375
-26.55029296875
-23.8037109375
-24.71923828125
-14.6484375
-3.662109375
4.57763671875
7.32421875
16.4794921875
23.8037109375
29.296875
46.69189453125
56.7626953125
60.4248046875
70.49560546875
85.14404296875
94.29931640625
101.62353515625
106.201171875
112.60986328125
123.59619140625
137.3291015625
143.73779296875
149.23095703125
154.72412109375
159.3017578125
168.45703125
178.52783203125
178.52783203125
187.68310546875
188.5986328125
196.83837890625
197.75390625
194.091796875
187.68310546875
197.75390625
206.9091796875
207.82470703125
201.416015625
199.5849609375
196.83837890625
190.4296875
182.18994140625
176.69677734375
163.87939453125
154.72412109375
146.484375
136.41357421875
115.3564453125
96.13037109375
80.56640625
66.83349609375
55.84716796875
39.36767578125
21.97265625
9.1552734375
-12.8173828125
-20.1416015625
-33.87451171875
-48.52294921875
-68.66455078125
-75.98876953125
-84.228515625
-102.5390625
-112.60986328125
-116.27197265625
-125.42724609375
-137.3291015625
-147.39990234375
-151.9775390625
-153.80859375
-160.21728515625
-168.45703125
-176.69677734375
-175.78125
-180.35888671875
-182.18994140625
-178.52783203125
-187.68310546875
-194.091796875
-193.17626953125
-193.17626953125
-193.17626953125
-196.83837890625
-202.33154296875
-202.33154296875
-200.50048828125
-202.33154296875
-205.99365234375
-201.416015625
-204.16259765625
-196.83837890625
-201.416015625
-199.5849609375
-197.75390625
-195.9228515625
-195.9228515625
-193.17626953125
-195.00732421875
-198.66943359375
-198.66943359375
-193.17626953125
-193.17626953125
-190.4296875
-193.17626953125
-197.75390625
-201.416015625
-194.091796875
-198.66943359375
-197.75390625
-195.00732421875
-187.68310546875
-181.2744140625
-192.2607421875
-185.85205078125
-184.9365234375
-193.17626953125
-188.5986328125
-189.51416015625
-192.2607421875
-188.5986328125
-184.02099609375
-183.10546875
-178.52783203125
-179.443359375
-180.35888671875
-177.6123046875
-178.52783203125
-174.86572265625
-179.443359375
-179.443359375
-181.2744140625
-182.18994140625
-181.2744140625
-182.18994140625
-183.10546875
-184.9365234375
-178.52783203125
-184.02099609375
-191.34521484375
-185.85205078125
-191.34521484375
-196.83837890625
-190.4296875
-184.9365234375
-191.34521484375
-195.9228515625
-190.4296875
-189.51416015625
-185.85205078125
-187.68310546875
-190.4296875
-189.51416015625
-189.51416015625
-186.767578125
-191.34521484375
-194.091796875
-195.00732421875
-192.2607421875
-192.2607421875
-195.9228515625
-197.75390625
-196.83837890625
-192.2607421875
-193.17626953125
-198.66943359375
-195.9228515625
-195.00732421875
-205.078125
-209.65576171875
-205.078125
-200.50048828125
-206.9091796875
-208.740234375
-209.65576171875
-207.82470703125
-201.416015625
-201.416015625
-205.078125
-201.416015625
-205.99365234375
-205.99365234375
-205.078125
-211.48681640625
-206.9091796875
-215.14892578125
-216.064453125
-200.50048828125
-203.2470703125
-212.40234375
-211.48681640625
-207.82470703125
-202.33154296875
-208.740234375
-208.740234375
-207.82470703125
-212.40234375
-215.14892578125
-211.48681640625
-212.40234375
-210.5712890625
-206.9091796875
-205.99365234375
-214.2333984375
-209.65576171875
-205.99365234375
-211.48681640625
-217.8955078125
-216.97998046875
-216.064453125
-222.47314453125
-217.8955078125
-223.388671875
-224.30419921875
-222.47314453125
-215.14892578125
-210.5712890625
-214.2333984375
-213.31787109375
-219.7265625
-217.8955078125
-217.8955078125
-214.2333984375
-219.7265625
-222.47314453125
-224.30419921875
-216.97998046875
-206.9091796875
-219.7265625
-217.8955078125
-202.33154296875
-200.50048828125
-197.75390625
-212.40234375
-214.2333984375
-212.40234375
-209.65576171875
-218.81103515625
-230.712890625
-234.375
-228.8818359375
-219.7265625
-212.40234375
-211.48681640625
-197.75390625
-177.6123046875
-170.2880859375
-181.2744140625
-200.50048828125
-212.40234375
-218.81103515625
-227.96630859375
-234.375
-234.375
-225.2197265625
-216.064453125
-213.31787109375
-206.9091796875
-208.740234375
-216.97998046875
-225.2197265625
-215.14892578125
-216.064453125
-209.65576171875
-213.31787109375
-212.40234375
-210.5712890625
-204.16259765625
-198.66943359375
-196.83837890625
-193.17626953125
-184.02099609375
-199.5849609375
-219.7265625
-228.8818359375
-233.45947265625
-244.44580078125
-240.78369140625
-234.375
-230.712890625
-231.62841796875
-234.375
-233.45947265625
-237.12158203125
-235.29052734375
-229.79736328125
-230.712890625
-228.8818359375
-231.62841796875
-230.712890625
-227.05078125
-227.05078125
-222.47314453125
-222.47314453125
-230.712890625
-231.62841796875
-227.96630859375
-215.14892578125
-221.5576171875
-222.47314453125
-225.2197265625
-226.13525390625
-221.5576171875
-224.30419921875
-222.47314453125
-218.81103515625
-211.48681640625
-205.078125
-218.81103515625
-234.375
-240.78369140625
-250.8544921875
-253.60107421875
-266.41845703125
-286.56005859375
-303.03955078125
-321.35009765625
-314.94140625
-299.37744140625
-269.1650390625
-180.35888671875
-39.36767578125
101.62353515625
251.77001953125
401.0009765625
564.88037109375
705.87158203125
802.91748046875
848.69384765625
863.34228515625
867.00439453125
834.9609375
775.45166015625
701.2939453125
508.11767578125
271.91162109375
55.84716796875
-150.146484375
-299.37744140625
-325.01220703125
-306.70166015625
-263.671875
-235.29052734375
-214.2333984375
-181.2744140625
-145.56884765625
-128.173828125
-116.27197265625
-116.27197265625
-115.3564453125
-116.27197265625
-121.76513671875
-125.42724609375
-126.3427734375
-134.58251953125
-131.8359375
-124.51171875
-121.76513671875
-122.6806640625
-140.07568359375
-143.73779296875
-140.9912109375
-136.41357421875
-144.6533203125
-146.484375
-143.73779296875
-137.3291015625
-130.92041015625
-135.498046875
-143.73779296875
-135.498046875
-131.8359375
-136.41357421875
-132.75146484375
-127.25830078125
-129.08935546875
-127.25830078125
-126.3427734375
-126.3427734375
-128.173828125
-121.76513671875
-117.1875
-121.76513671875
-119.0185546875
-111.6943359375
-118.10302734375
-116.27197265625
-99.79248046875
-107.11669921875
-101.62353515625
-98.876953125
-95.21484375
-90.63720703125
-92.46826171875
-87.890625
-85.14404296875
-75.0732421875
-70.49560546875
-81.48193359375
-79.65087890625
-78.7353515625
-67.7490234375
-63.17138671875
-52.18505859375
-41.19873046875
-43.9453125
-33.87451171875
-29.296875
-21.97265625
-18.310546875
-2.74658203125
-4.57763671875
1.8310546875
9.1552734375
9.1552734375
11.90185546875
28.38134765625
40.283203125
47.607421875
52.18505859375
64.0869140625
75.0732421875
93.3837890625
99.79248046875
108.94775390625
118.10302734375
130.0048828125
140.07568359375
152.89306640625
153.80859375
150.146484375
159.3017578125
162.9638671875
165.71044921875
164.794921875
168.45703125
178.52783203125
197.75390625
194.091796875
188.5986328125
191.34521484375
197.75390625
191.34521484375
184.9365234375
189.51416015625
183.10546875
182.18994140625
188.5986328125
179.443359375
160.21728515625
152.89306640625
148.3154296875
137.3291015625
119.93408203125
105.28564453125
93.3837890625
75.98876953125
56.7626953125
40.283203125
21.97265625
5.4931640625
-9.1552734375
-13.73291015625
-18.310546875
-39.36767578125
-62.255859375
-74.15771484375
-83.31298828125
-84.228515625
-97.0458984375
-113.525390625
-126.3427734375
-130.92041015625
-134.58251953125
-148.3154296875
-150.146484375
-147.39990234375
-149.23095703125
-155.6396484375
-169.37255859375
-178.52783203125
-180.35888671875
-179.443359375
-182.18994140625
-184.9365234375
-194.091796875
-194.091796875
-192.2607421875
-194.091796875
-197.75390625
-186.767578125
-190.4296875
-197.75390625
-198.66943359375
-201.416015625
-199.5849609375
-202.33154296875
-195.9228515625
-198.66943359375
-197.75390625
-195.00732421875
-193.17626953125
-191.34521484375
-191.34521484375
-190.4296875
-187.68310546875
-185.85205078125
-184.02099609375
-184.9365234375
-187.68310546875
-185.85205078125
-183.10546875
-189.51416015625
-184.02099609375
-178.52783203125
-168.45703125
-174.86572265625
-176.69677734375
-178.52783203125
-182.18994140625
-179.443359375
-176.69677734375
-174.86572265625
-178.52783203125
-179.443359375
-177.6123046875
-178.52783203125
-171.20361328125
-176.69677734375
-181.2744140625
-178.52783203125
-173.9501953125
-173.9501953125
-163.87939453125
-165.71044921875
-174.86572265625
-173.03466796875
-168.45703125
-167.54150390625
-167.54150390625
-166.6259765625
-171.20361328125
-172.119140625
-180.35888671875
-180.35888671875
-176.69677734375
-173.9501953125
-171.20361328125
-172.119140625
-174.86572265625
-178.52783203125
-177.6123046875
-169.37255859375
-173.9501953125
-176.69677734375
-180.35888671875
-183.10546875
-177.6123046875
-179.443359375
-180.35888671875
-174.86572265625
-180.35888671875
-182.18994140625
-185.85205078125
-187.68310546875
-184.9365234375
-183.10546875
-184.02099609375
-191.34521484375
-193.17626953125
-184.9365234375
-184.9365234375
-189.51416015625
-188.5986328125
-190.4296875
-193.17626953125
-193.17626953125
-185.85205078125
-190.4296875
-196.83837890625
-202.33154296875
-199.5849609375
-195.9228515625
-199.5849609375
-197.75390625
-195.00732421875
-193.17626953125
-197.75390625
-191.34521484375
-203.2470703125
-201.416015625
-193.17626953125
-194.091796875
-197.75390625
-193.17626953125
-199.5849609375
-209.65576171875
-199.5849609375
-203.2470703125
-205.078125
-200.50048828125
-207.82470703125
-210.5712890625
-214.2333984375
-214.2333984375
-208.740234375
-208.740234375
-202.33154296875
-211.48681640625
-205.99365234375
-186.767578125
-194.091796875
-185.85205078125
-187.68310546875
-193.17626953125
-195.00732421875
-193.17626953125
-191.34521484375
-196.83837890625
-203.2470703125
-204.16259765625
-201.416015625
-203.2470703125
-208.740234375
-207.82470703125
-205.078125
-202.33154296875
-205.078125
-198.66943359375
-205.078125
-206.9091796875
-208.740234375
-204.16259765625
-209.65576171875
-210.5712890625
-208.740234375
-207.82470703125
-207.82470703125
-204.16259765625
-208.740234375
-209.65576171875
-207.82470703125
-205.99365234375
-205.078125
-207.82470703125
-199.5849609375
-187.68310546875
-184.02099609375
-183.10546875
-190.4296875
-195.00732421875
-203.2470703125
-206.9091796875
-209.65576171875
-212.40234375
-208.740234375
-197.75390625
-201.416015625
-195.00732421875
-176.69677734375
-162.04833984375
-166.6259765625
-178.52783203125
-196.83837890625
-212.40234375
-217.8955078125
-216.064453125
-223.388671875
-216.97998046875
-216.064453125
-205.078125
-205.99365234375
-201.416015625
-188.5986328125
-195.9228515625
-199.5849609375
-197.75390625
-197.75390625
-193.17626953125
-186.767578125
-193.17626953125
-201.416015625
-197.75390625
-183.10546875
-178.52783203125
-179.443359375
-184.02099609375
-195.00732421875
-205.99365234375
-223.388671875
-229.79736328125
-233.45947265625
-225.2197265625
-225.2197265625
-229.79736328125
-227.05078125
-224.30419921875
-225.2197265625
-225.2197265625
-220.64208984375
-218.81103515625
-215.14892578125
-215.14892578125
-211.48681640625
-211.48681640625
-216.97998046875
-216.97998046875
-207.82470703125
-213.31787109375
-211.48681640625
-216.064453125
-217.8955078125
-215.14892578125
-206.9091796875
-203.2470703125
-197.75390625
-193.17626953125
-201.416015625
-205.99365234375
-211.48681640625
-213.31787109375
-206.9091796875
-211.48681640625
-210.5712890625
-219.7265625
-227.96630859375
-238.95263671875
-252.685546875
-262.75634765625
-271.91162109375
-286.56005859375
-306.70166015625
-306.70166015625
-292.96875
-252.685546875
-146.484375
-7.32421875
137.3291015625
287.4755859375
424.8046875
594.17724609375
751.64794921875
838.623046875
882.568359375
900.87890625
899.96337890625
870.66650390625
815.73486328125
719.6044921875
508.11767578125
276.4892578125
64.0869140625
-139.16015625
-281.982421875
-301.20849609375
-278.3203125
-238.95263671875
-216.064453125
-210.5712890625
-173.03466796875
-115.3564453125
-96.13037109375
-98.876953125
-97.0458984375
-108.0322265625
-99.79248046875
-93.3837890625
-97.96142578125
-102.5390625
-113.525390625
-117.1875
-124.51171875
-127.25830078125
-121.76513671875
-122.6806640625
-122.6806640625
-130.92041015625
-115.3564453125
-123.59619140625
-125.42724609375
-126.3427734375
-128.173828125
-122.6806640625
-128.173828125
-126.3427734375
-122.6806640625
-118.10302734375
-113.525390625
-113.525390625
-111.6943359375
-111.6943359375
-110.77880859375
-107.11669921875
-104.3701171875
-108.0322265625
-109.86328125
-107.11669921875
-104.3701171875
-106.201171875
-106.201171875
-91.552734375
-90.63720703125
-94.29931640625
-87.890625
-85.14404296875
-86.0595703125
-85.14404296875
-81.48193359375
-79.65087890625
-76.904296875
-63.17138671875
-54.01611328125
-69.580078125
-55.84716796875
-54.01611328125
-53.1005859375
-46.69189453125
-38.4521484375
-32.958984375
-33.87451171875
-22.88818359375
-7.32421875
-13.73291015625
-10.986328125
-7.32421875
4.57763671875
9.1552734375
9.1552734375
19.22607421875
38.4521484375
38.4521484375
51.26953125
54.01611328125
62.255859375
74.15771484375
85.14404296875
85.14404296875
92.46826171875
115.3564453125
118.10302734375
126.3427734375
138.24462890625
150.146484375
150.146484375
150.146484375
155.6396484375
162.9638671875
175.78125
176.69677734375
178.52783203125
185.85205078125
188.5986328125
191.34521484375
191.34521484375
187.68310546875
194.091796875
193.17626953125
201.416015625
209.65576171875
204.16259765625
201.416015625
200.50048828125
184.02099609375
180.35888671875
162.9638671875
157.470703125
150.146484375
148.3154296875
133.6669921875
104.3701171875
87.890625
72.32666015625
63.17138671875
41.19873046875
11.90185546875
14.6484375
6.40869140625
-9.1552734375
-24.71923828125
-39.36767578125
-54.01611328125
-70.49560546875
-81.48193359375
-94.29931640625
-101.62353515625
-120.849609375
-128.173828125
-122.6806640625
-126.3427734375
-138.24462890625
-149.23095703125
-141.90673828125
-147.39990234375
-164.794921875
-167.54150390625
-166.6259765625
-173.9501953125
-178.52783203125
-184.02099609375
-186.767578125
-192.2607421875
-185.85205078125
-185.85205078125
-191.34521484375
-200.50048828125
-203.2470703125
-197.75390625
-195.00732421875
-198.66943359375
-200.50048828125
-202.33154296875
-198.66943359375
-201.416015625
-206.9091796875
-204.16259765625
-198.66943359375
-188.5986328125
-190.4296875
-189.51416015625
-190.4296875
-185.85205078125
-191.34521484375
-188.5986328125
-195.00732421875
-186.767578125
-185.85205078125
-188.5986328125
-182.18994140625
-182.18994140625
-198.66943359375
-182.18994140625
-174.86572265625
-177.6123046875
-185.85205078125
-191.34521484375
-185.85205078125
-173.9501953125
-180.35888671875
-173.9501953125
-175.78125
-183.10546875
-184.9365234375
-179.443359375
-179.443359375
-179.443359375
-179.443359375
-176.69677734375
-169.37255859375
-175.78125
-179.443359375
-179.443359375
-177.6123046875
-172.119140625
-170.2880859375
-165.71044921875
-178.52783203125
-184.02099609375
-183.10546875
-182.18994140625
-185.85205078125
-184.02099609375
-177.6123046875
-189.51416015625
-188.5986328125
-192.2607421875
-187.68310546875
-183.10546875
-182.18994140625
-182.18994140625
-182.18994140625
-187.68310546875
-190.4296875
-192.2607421875
-193.17626953125
-185.85205078125
-184.9365234375
-187.68310546875
-186.767578125
-183.10546875
-190.4296875
-193.17626953125
-191.34521484375
-191.34521484375
-195.00732421875
-195.00732421875
-198.66943359375
-186.767578125
-190.4296875
-199.5849609375
-193.17626953125
-193.17626953125
-186.767578125
-194.091796875
-192.2607421875
-202.33154296875
-198.66943359375
-201.416015625
-205.99365234375
-206.9091796875
-205.078125
-202.33154296875
-210.5712890625
-211.48681640625
-213.31787109375
-208.740234375
-212.40234375
-209.65576171875
-216.064453125
-216.064453125
-216.97998046875
-208.740234375
-216.064453125
-214.2333984375
-202.33154296875
-210.5712890625
-207.82470703125
-210.5712890625
-210.5712890625
-205.99365234375
-211.48681640625
-209.65576171875
-206.9091796875
-216.064453125
-212.40234375
-214.2333984375
-223.388671875
-215.14892578125
-212.40234375
-216.97998046875
-212.40234375
-213.31787109375
-215.14892578125
-212.40234375
-211.48681640625
-214.2333984375
-216.064453125
-217.8955078125
-222.47314453125
-219.7265625
-217.8955078125
-223.388671875
-227.96630859375
-217.8955078125
-211.48681640625
-210.5712890625
-209.65576171875
-206.9091796875
-216.97998046875
-219.7265625
-203.2470703125
-205.99365234375
-206.9091796875
-204.16259765625
-208.740234375
-205.99365234375
-210.5712890625
-217.8955078125
-228.8818359375
-236.2060546875
-238.037109375
-231.62841796875
-227.05078125
-221.5576171875
-211.48681640625
-207.82470703125
-187.68310546875
-178.52783203125
-190.4296875
-209.65576171875
-215.14892578125
-219.7265625
-233.45947265625
-242.61474609375
-234.375
-217.8955078125
-214.2333984375
-211.48681640625
-204.16259765625
-201.416015625
-206.9091796875
-212.40234375
-205.99365234375
-195.9228515625
-202.33154296875
-208.740234375
-206.9091796875
-206.9091796875
-207.82470703125
-193.17626953125
-194.091796875
-193.17626953125
-197.75390625
-206.9091796875
-215.14892578125
-229.79736328125
-231.62841796875
-228.8818359375
-238.037109375
-237.12158203125
-227.96630859375
-229.79736328125
-228.8818359375
-229.79736328125
-227.96630859375
-227.05078125
-230.712890625
-225.2197265625
-215.14892578125
-214.2333984375
-206.9091796875
-210.5712890625
-215.14892578125
-219.7265625
-213.31787109375
-213.31787109375
-220.64208984375
-215.14892578125
-211.48681640625
-209.65576171875
-205.078125
-205.99365234375
-205.99365234375
-200.50048828125
-202.33154296875
-204.16259765625
-200.50048828125
-195.00732421875
-203.2470703125
-209.65576171875
-217.8955078125
-223.388671875
-236.2060546875
-243.5302734375
-252.685546875
-275.57373046875
-295.71533203125
-314.94140625
-303.955078125
-270.08056640625
-223.388671875
-136.41357421875
-9.1552734375
129.08935546875
272.8271484375
428.466796875
597.83935546875
738.83056640625
825.8056640625
883.48388671875
878.90625
870.66650390625
832.21435546875
780.94482421875
682.9833984375
474.2431640625
245.361328125
33.87451171875
-128.173828125
-246.27685546875
-270.08056640625
-254.5166015625
-219.7265625
-202.33154296875
-200.50048828125
-190.4296875
-157.470703125
-125.42724609375
-108.94775390625
-101.62353515625
-95.21484375
-97.96142578125
-97.96142578125
-97.96142578125
-101.62353515625
-106.201171875
-110.77880859375
-108.94775390625
-113.525390625
-111.6943359375
-115.3564453125
-115.3564453125
-113.525390625
-112.60986328125
-106.201171875
-108.0322265625
-110.77880859375
-108.94775390625
-73.2421875
-85.14404296875
-100.7080078125
-103.45458984375
-102.5390625
-95.21484375
-98.876953125
-97.0458984375
-102.5390625
-108.0322265625
-94.29931640625
-86.97509765625
-90.63720703125
-87.890625
-85.14404296875
-84.228515625
-77.81982421875
-77.81982421875
-78.7353515625
-79.65087890625
-73.2421875
-66.83349609375
-71.4111328125
-70.49560546875
-65.00244140625
-61.34033203125
-57.67822265625
-55.84716796875
-59.50927734375
-49.4384765625
-43.02978515625
-34.7900390625
-40.283203125
-34.7900390625
-22.88818359375
-17.39501953125
-18.310546875
-10.986328125
-7.32421875
4.57763671875
10.07080078125
19.22607421875
17.39501953125
32.04345703125
38.4521484375
43.02978515625
48.52294921875
49.4384765625
56.7626953125
72.32666015625
82.3974609375
94.29931640625
94.29931640625
103.45458984375
119.0185546875
126.3427734375
128.173828125
126.3427734375
136.41357421875
145.56884765625
158.38623046875
166.6259765625
165.71044921875
182.18994140625
184.02099609375
189.51416015625
195.00732421875
193.17626953125
196.83837890625
207.82470703125
211.48681640625
207.82470703125
205.078125
211.48681640625
217.8955078125
220.64208984375
215.14892578125
209.65576171875
196.83837890625
204.16259765625
204.16259765625
197.75390625
178.52783203125
171.20361328125
163.87939453125
151.06201171875
143.73779296875
122.6806640625
109.86328125
94.29931640625
79.65087890625
70.49560546875
50.35400390625
32.04345703125
14.6484375
7.32421875
-1.8310546875
-17.39501953125
-35.70556640625
-39.36767578125
-46.69189453125
-58.59375
-75.98876953125
-86.97509765625
-95.21484375
-101.62353515625
-110.77880859375
-117.1875
-119.0185546875
-124.51171875
-135.498046875
-137.3291015625
-143.73779296875
-146.484375
-149.23095703125
-146.484375
-147.39990234375
-148.3154296875
-154.72412109375
-157.470703125
-158.38623046875
-161.1328125
-164.794921875
-163.87939453125
-164.794921875
-166.6259765625
-169.37255859375
-163.87939453125
-162.04833984375
-156.55517578125
-156.55517578125
-151.9775390625
-162.04833984375
-167.54150390625
-163.87939453125
-155.6396484375
-148.3154296875
-142.822265625
-153.80859375
-154.72412109375
-146.484375
-147.39990234375
-155.6396484375
-150.146484375
-151.06201171875
-149.23095703125
-148.3154296875
-151.06201171875
-155.6396484375
-152.89306640625
-140.9912109375
-132.75146484375
-140.07568359375
-145.56884765625
-139.16015625
-139.16015625
-137.3291015625
-137.3291015625
-140.07568359375
-137.3291015625
-131.8359375
-130.0048828125
-136.41357421875
-147.39990234375
-146.484375
-137.3291015625
-135.498046875
-135.498046875
-137.3291015625
-130.92041015625
-125.42724609375
-125.42724609375
-134.58251953125
-140.07568359375
-140.9912109375
-134.58251953125
-133.6669921875
-140.9912109375
-142.822265625
-144.6533203125
-136.41357421875
-132.75146484375
-138.24462890625
-141.90673828125
-144.6533203125
-142.822265625
-141.90673828125
-141.90673828125
-148.3154296875
-146.484375
-148.3154296875
-140.9912109375
-145.56884765625
-151.06201171875
-149.23095703125
-154.72412109375
-154.72412109375
-149.23095703125
-151.06201171875
-154.72412109375
-158.38623046875
-158.38623046875
-159.3017578125
-165.71044921875
-161.1328125
-162.04833984375
-163.87939453125
-165.71044921875
-166.6259765625
-166.6259765625
-167.54150390625
-162.9638671875
-160.21728515625
-165.71044921875
-163.87939453125
-162.04833984375
-162.9638671875
-166.6259765625
-166.6259765625
-165.71044921875
-167.54150390625
-168.45703125
-172.119140625
-166.6259765625
-170.2880859375
-168.45703125
-167.54150390625
-172.119140625
-171.20361328125
-167.54150390625
-164.794921875
-169.37255859375
-173.03466796875
-175.78125
-173.9501953125
-171.20361328125
-173.9501953125
-180.35888671875
-179.443359375
-182.18994140625
-178.52783203125
-175.78125
-177.6123046875
-173.9501953125
-175.78125
-175.78125
-180.35888671875
-178.52783203125
-174.86572265625
-178.52783203125
-173.9501953125
-175.78125
-181.2744140625
-186.767578125
-175.78125
-175.78125
-175.78125
-175.78125
-175.78125
-178.52783203125
-177.6123046875
-179.443359375
-179.443359375
-173.9501953125
-175.78125
-173.9501953125
-176.69677734375
-180.35888671875
-183.10546875
-175.78125
-162.9638671875
-163.87939453125
-173.03466796875
-179.443359375
-180.35888671875
-173.9501953125
-182.18994140625
-196.83837890625
-204.16259765625
-190.4296875
-168.45703125
-163.87939453125
-157.470703125
-144.6533203125
-133.6669921875
-138.24462890625
-149.23095703125
-166.6259765625
-175.78125
-188.5986328125
-195.00732421875
-199.5849609375
-195.9228515625
-187.68310546875
-175.78125
-173.03466796875
-173.9501953125
-173.9501953125
-178.52783203125
-175.78125
-169.37255859375
-171.20361328125
-169.37255859375
-178.52783203125
-174.86572265625
-168.45703125
-164.794921875
-163.87939453125
-155.6396484375
-153.80859375
-146.484375
-160.21728515625
-175.78125
-195.00732421875
-200.50048828125
-196.83837890625
-187.68310546875
-188.5986328125
-195.00732421875
-195.9228515625
-195.9228515625
-189.51416015625
-188.5986328125
-188.5986328125
-191.34521484375
-188.5986328125
-184.02099609375
-187.68310546875
-194.091796875
-189.51416015625
-185.85205078125
-185.85205078125
-186.767578125
-185.85205078125
-185.85205078125
-185.85205078125
-180.35888671875
-178.52783203125
-184.9365234375
-182.18994140625
-175.78125
-173.9501953125
-180.35888671875
-184.9365234375
-181.2744140625
-174.86572265625
-174.86572265625
-181.2744140625
-193.17626953125
-200.50048828125
-209.65576171875
-215.14892578125
-227.05078125
-244.44580078125
-265.5029296875
-282.89794921875
-278.3203125
-255.43212890625
-214.2333984375
-123.59619140625
24.71923828125
169.37255859375
319.51904296875
464.17236328125
636.29150390625
785.5224609375
878.90625
923.76708984375
935.6689453125
935.6689453125
893.5546875
847.7783203125
753.47900390625
534.66796875
293.88427734375
73.2421875
-131.8359375
-271.91162109375
-279.23583984375
-249.93896484375
-197.75390625
-170.2880859375
-143.73779296875
-115.3564453125
-73.2421875
-54.931640625
-57.67822265625
-56.7626953125
-64.0869140625
-68.66455078125
-63.17138671875
-64.0869140625
-80.56640625
-82.3974609375
-80.56640625
-83.31298828125
-82.3974609375
-88.80615234375
-95.21484375
-92.46826171875
-90.63720703125
-87.890625
-90.63720703125
-92.46826171875
-96.13037109375
-91.552734375
-80.56640625
-84.228515625
-92.46826171875
-91.552734375
-84.228515625
-80.56640625
-75.98876953125
-82.3974609375
-78.7353515625
-75.98876953125
-75.98876953125
-70.49560546875
-75.98876953125
-69.580078125
-64.0869140625
-59.50927734375
-59.50927734375
-64.0869140625
-62.255859375
-58.59375
-55.84716796875
-50.35400390625
-52.18505859375
-52.18505859375
-46.69189453125
-38.4521484375
-33.87451171875
-35.70556640625
-29.296875
-24.71923828125
-22.88818359375
-26.55029296875
-23.8037109375
-17.39501953125
-2.74658203125
1.8310546875
0.91552734375
1.8310546875
11.90185546875
20.1416015625
28.38134765625
32.958984375
31.1279296875
42.1142578125
49.4384765625
57.67822265625
68.66455078125
75.0732421875
78.7353515625
83.31298828125
95.21484375
108.0322265625
114.44091796875
129.08935546875
140.9912109375
146.484375
149.23095703125
157.470703125
176.69677734375
184.9365234375
184.9365234375
191.34521484375
197.75390625
206.9091796875
211.48681640625
218.81103515625
226.13525390625
220.64208984375
227.96630859375
236.2060546875
248.10791015625
247.1923828125
244.44580078125
244.44580078125
239.8681640625
242.61474609375
243.5302734375
236.2060546875
227.05078125
221.5576171875
224.30419921875
232.5439453125
228.8818359375
211.48681640625
203.2470703125
184.02099609375
167.54150390625
156.55517578125
147.39990234375
131.8359375
109.86328125
86.0595703125
76.904296875
60.4248046875
50.35400390625
39.36767578125
21.05712890625
-1.8310546875
-8.23974609375
-17.39501953125
-28.38134765625
-40.283203125
-58.59375
-71.4111328125
-71.4111328125
-75.98876953125
-90.63720703125
-97.96142578125
-105.28564453125
-113.525390625
-114.44091796875
-112.60986328125
-113.525390625
-121.76513671875
-123.59619140625
-125.42724609375
-137.3291015625
-147.39990234375
-134.58251953125
-135.498046875
-140.07568359375
-139.16015625
-141.90673828125
-144.6533203125
-140.9912109375
-142.822265625
-144.6533203125
-154.72412109375
-155.6396484375
-148.3154296875
-146.484375
-148.3154296875
-145.56884765625
-140.07568359375
-137.3291015625
-139.16015625
-139.16015625
-142.822265625
-142.822265625
-139.16015625
-138.24462890625
-133.6669921875
-132.75146484375
-133.6669921875
-135.498046875
-136.41357421875
-129.08935546875
-135.498046875
-139.16015625
-132.75146484375
-123.59619140625
-128.173828125
-133.6669921875
-130.92041015625
-127.25830078125
-117.1875
-114.44091796875
-121.76513671875
-123.59619140625
-125.42724609375
-127.25830078125
-124.51171875
-119.93408203125
-118.10302734375
-123.59619140625
-123.59619140625
-118.10302734375
-120.849609375
-126.3427734375
-128.173828125
-124.51171875
-120.849609375
-125.42724609375
-129.08935546875
-119.0185546875
-110.77880859375
-119.0185546875
-128.173828125
-128.173828125
-130.92041015625
-130.92041015625
-128.173828125
-134.58251953125
-133.6669921875
-131.8359375
-123.59619140625
-127.25830078125
-125.42724609375
-120.849609375
-125.42724609375
-128.173828125
-125.42724609375
-130.0048828125
-135.498046875
-133.6669921875
-131.8359375
-135.498046875
-140.07568359375
-140.07568359375
-137.3291015625
-137.3291015625
-142.822265625
-149.23095703125
-144.6533203125
-129.08935546875
-130.92041015625
-137.3291015625
-139.16015625
-136.41357421875
-130.92041015625
-139.16015625
-141.90673828125
-140.07568359375
-145.56884765625
-147.39990234375
-148.3154296875
-143.73779296875
-140.9912109375
-146.484375
-142.822265625
-142.822265625
-146.484375
-151.9775390625
-155.6396484375
-150.146484375
-140.9912109375
-147.39990234375
-152.89306640625
-153.80859375
-149.23095703125
-145.56884765625
-146.484375
-155.6396484375
-157.470703125
-152.89306640625
-151.06201171875
-153.80859375
-160.21728515625
-162.04833984375
-155.6396484375
-143.73779296875
-146.484375
-158.38623046875
-157.470703125
-158.38623046875
-153.80859375
-150.146484375
-157.470703125
-162.9638671875
-155.6396484375
-144.6533203125
-154.72412109375
-159.3017578125
-154.72412109375
-154.72412109375
-149.23095703125
-158.38623046875
-160.21728515625
-157.470703125
-154.72412109375
-147.39990234375
-145.56884765625
-158.38623046875
-162.04833984375
-151.9775390625
-146.484375
-155.6396484375
-169.37255859375
-167.54150390625
-157.470703125
-146.484375
-148.3154296875
-152.89306640625
-158.38623046875
-157.470703125
-150.146484375
-143.73779296875
-152.89306640625
-156.55517578125
-151.9775390625
-140.9912109375
-144.6533203125
-156.55517578125
-168.45703125
-165.71044921875
-165.71044921875
-168.45703125
-174.86572265625
-173.03466796875
-155.6396484375
-135.498046875
-118.10302734375
-117.1875
-120.849609375
-130.0048828125
-142.822265625
-151.9775390625
-167.54150390625
-172.119140625
-174.86572265625
-165.71044921875
-153.80859375
-149.23095703125
-151.9775390625
-147.39990234375
-146.484375
-152.89306640625
-160.21728515625
-151.9775390625
-151.9775390625
-152.89306640625
-146.484375
-152.89306640625
-161.1328125
-150.146484375
-140.07568359375
-130.92041015625
-136.41357421875
-134.58251953125
-136.41357421875
-150.146484375
-159.3017578125
-175.78125
-186.767578125
-183.10546875
-174.86572265625
-173.03466796875
-177.6123046875
-176.69677734375
-173.9501953125
-171.20361328125
-174.86572265625
-172.119140625
-172.119140625
-171.20361328125
-159.3017578125
-166.6259765625
-173.03466796875
-171.20361328125
-169.37255859375
-162.04833984375
-162.04833984375
-173.03466796875
-169.37255859375
-157.470703125
-157.470703125
-158.38623046875
-162.9638671875
-157.470703125
-159.3017578125
-159.3017578125
-152.89306640625
-149.23095703125
-153.80859375
-159.3017578125
-160.21728515625
-163.87939453125
-179.443359375
-194.091796875
-199.5849609375
-205.078125
-226.13525390625
-243.5302734375
-264.58740234375
-256.34765625
-233.45947265625
-187.68310546875
-97.96142578125
43.9453125
195.9228515625
356.14013671875
511.77978515625
676.57470703125
822.1435546875
921.93603515625
963.134765625
972.2900390625
963.134765625
919.189453125
866.0888671875
764.46533203125
551.1474609375
297.54638671875
71.4111328125
-117.1875
-250.8544921875
-262.75634765625
-240.78369140625
-195.9228515625
-164.794921875
-140.07568359375
-103.45458984375
-66.83349609375
-50.35400390625
-44.86083984375
-41.19873046875
-43.9453125
-56.7626953125
-59.50927734375
-59.50927734375
-62.255859375
-67.7490234375
-70.49560546875
-64.0869140625
-58.59375
-66.83349609375
-69.580078125
-76.904296875
-75.98876953125
-75.98876953125
-68.66455078125
-71.4111328125
-72.32666015625
-72.32666015625
-70.49560546875
-59.50927734375
-64.0869140625
-68.66455078125
-65.91796875
-63.17138671875
-58.59375
-61.34033203125
-65.00244140625
-67.7490234375
-65.00244140625
-56.7626953125
-53.1005859375
-59.50927734375
-61.34033203125
-58.59375
-52.18505859375
-40.283203125
-42.1142578125
-43.9453125
-38.4521484375
-34.7900390625
-26.55029296875
-33.87451171875
-27.4658203125
-23.8037109375
-21.05712890625
-10.986328125
-14.6484375
-10.986328125
-11.90185546875
-4.57763671875
2.74658203125
-2.74658203125
0
8.23974609375
17.39501953125
18.310546875
25.634765625
32.958984375
40.283203125
47.607421875
54.01611328125
54.931640625
56.7626953125
66.83349609375
86.97509765625
95.21484375
93.3837890625
99.79248046875
108.94775390625
123.59619140625
133.6669921875
140.07568359375
145.56884765625
157.470703125
168.45703125
183.10546875
180.35888671875
190.4296875
204.16259765625
211.48681640625
216.97998046875
216.97998046875
227.96630859375
239.8681640625
246.27685546875
251.77001953125
247.1923828125
249.93896484375
260.92529296875
258.1787109375
265.5029296875
257.26318359375
255.43212890625
267.333984375
258.1787109375
249.0234375
254.5166015625
250.8544921875
250.8544921875
243.5302734375
238.95263671875
220.64208984375
205.99365234375
197.75390625
187.68310546875
167.54150390625
151.9775390625
131.8359375
125.42724609375
124.51171875
106.201171875
72.32666015625
59.50927734375
46.69189453125
32.958984375
22.88818359375
6.40869140625
-8.23974609375
-19.22607421875
-29.296875
-31.1279296875
-51.26953125
-57.67822265625
-65.91796875
-69.580078125
-81.48193359375
-82.3974609375
-90.63720703125
-105.28564453125
-100.7080078125
-104.3701171875
-114.44091796875
-114.44091796875
-112.60986328125
-114.44091796875
-112.60986328125
-129.08935546875
-131.8359375
-123.59619140625
-130.0048828125
-130.0048828125
-141.90673828125
-145.56884765625
-143.73779296875
-137.3291015625
-128.173828125
-131.8359375
-145.56884765625
-135.498046875
-132.75146484375
-121.76513671875
-134.58251953125
-136.41357421875
-129.08935546875
-124.51171875
-130.92041015625
-134.58251953125
-130.0048828125
-130.92041015625
-121.76513671875
-119.0185546875
-123.59619140625
-127.25830078125
-124.51171875
-115.3564453125
-114.44091796875
-118.10302734375
-120.849609375
-112.60986328125
-111.6943359375
-113.525390625
-112.60986328125
-114.44091796875
-119.93408203125
-119.93408203125
-123.59619140625
-125.42724609375
-124.51171875
-108.94775390625
-103.45458984375
-114.44091796875
-109.86328125
-119.0185546875
-119.93408203125
-121.76513671875
-120.849609375
-110.77880859375
-117.1875
-110.77880859375
-115.3564453125
-120.849609375
-140.9912109375
-128.173828125
-119.0185546875
-115.3564453125
-128.173828125
-130.92041015625
-127.25830078125
-114.44091796875
-110.77880859375
-114.44091796875
-130.92041015625
-119.93408203125
-113.525390625
-112.60986328125
-116.27197265625
-126.3427734375
-140.07568359375
-122.6806640625
-117.1875
-130.92041015625
-139.16015625
-125.42724609375
-124.51171875
-136.41357421875
-148.3154296875
-134.58251953125
-121.76513671875
-123.59619140625
-140.9912109375
-133.6669921875
-151.06201171875
-134.58251953125
-152.89306640625
-141.90673828125
-130.92041015625
-136.41357421875
-133.6669921875
-126.3427734375
-126.3427734375
-149.23095703125
-172.119140625
-162.04833984375
-135.498046875
-140.07568359375
-144.6533203125
-147.39990234375
-158.38623046875
-146.484375
-130.92041015625
-145.56884765625
-136.41357421875
-149.23095703125
-153.80859375
-157.470703125
-162.9638671875
-165.71044921875
-169.37255859375
-157.470703125
-135.498046875
-149.23095703125
-149.23095703125
-141.90673828125
-121.76513671875
-135.498046875
-135.498046875
-157.470703125
-160.21728515625
-151.06201171875
-142.822265625
-158.38623046875
-166.6259765625
-168.45703125
-177.6123046875
-158.38623046875
-151.9775390625
-157.470703125
-157.470703125
-156.55517578125
-138.24462890625
-120.849609375
-117.1875
-150.146484375
-166.6259765625
-195.9228515625
-194.091796875
-188.5986328125
-203.2470703125
-180.35888671875
-153.80859375
-153.80859375
-165.71044921875
-179.443359375
-197.75390625
-195.9228515625
-200.50048828125
-190.4296875
-188.5986328125
-199.5849609375
-201.416015625
-192.2607421875
-207.82470703125
-210.5712890625
-205.078125
-202.33154296875
-199.5849609375
-199.5849609375
-199.5849609375
-198.66943359375
-195.9228515625
-195.9228515625
-197.75390625
-200.50048828125
-200.50048828125
-198.66943359375
-207.82470703125
-216.064453125
-211.48681640625
-207.82470703125
-214.2333984375
-209.65576171875
-204.16259765625
-199.5849609375
-187.68310546875
-181.2744140625
-178.52783203125
-188.5986328125
-200.50048828125
-216.064453125
-219.7265625
-224.30419921875
-217.8955078125
-205.99365234375
-204.16259765625
-199.5849609375
-197.75390625
-194.091796875
-192.2607421875
-192.2607421875
-196.83837890625
-193.17626953125
-193.17626953125
-196.83837890625
-197.75390625
-198.66943359375
-195.00732421875
-186.767578125
-181.2744140625
-174.86572265625
-175.78125
-178.52783203125
-198.66943359375
-205.99365234375
-218.81103515625
-224.30419921875
-221.5576171875
-214.2333984375
-216.97998046875
-211.48681640625
-204.16259765625
-194.091796875
-209.65576171875
-216.064453125
-215.14892578125
-211.48681640625
-207.82470703125
-211.48681640625
-213.31787109375
-209.65576171875
-199.5849609375
-189.51416015625
-197.75390625
-203.2470703125
-195.00732421875
-189.51416015625
-193.17626953125
-201.416015625
-205.99365234375
-201.416015625
-191.34521484375
-191.34521484375
-188.5986328125
-192.2607421875
-193.17626953125
-184.9365234375
-192.2607421875
-193.17626953125
-187.68310546875
-195.00732421875
-204.16259765625
-217.8955078125
-224.30419921875
-225.2197265625
-249.93896484375
-273.74267578125
-270.08056640625
-269.1650390625
-241.69921875
-192.2607421875
-107.11669921875
24.71923828125
170.2880859375
310.36376953125
459.5947265625
628.96728515625
777.28271484375
866.0888671875
917.3583984375
920.10498046875
917.3583984375
883.48388671875
811.1572265625
713.19580078125
505.37109375
274.658203125
69.580078125
-91.552734375
-205.078125
-224.30419921875
-229.79736328125
-196.83837890625
-178.52783203125
-181.2744140625
-188.5986328125
-171.20361328125
-147.39990234375
-110.77880859375
-87.890625
-88.80615234375
-87.890625
-86.0595703125
-78.7353515625
-82.3974609375
-95.21484375
-90.63720703125
-79.65087890625
-97.96142578125
-101.62353515625
-107.11669921875
-99.79248046875
-87.890625
-100.7080078125
-104.3701171875
-102.5390625
-102.5390625
-97.96142578125
-89.7216796875
-89.7216796875
-82.3974609375
-84.228515625
-83.31298828125
-91.552734375
-88.80615234375
-86.0595703125
-83.31298828125
-86.97509765625
-91.552734375
-79.65087890625
-80.56640625
-76.904296875
-68.66455078125
-68.66455078125
-69.580078125
-75.0732421875
-68.66455078125
-62.255859375
-47.607421875
-51.26953125
-52.18505859375
-53.1005859375
-43.02978515625
-35.70556640625
-35.70556640625
-41.19873046875
-46.69189453125
-28.38134765625
-21.97265625
-19.22607421875
-21.05712890625
-21.97265625
-10.07080078125
-6.40869140625
11.90185546875
5.4931640625
-2.74658203125
2.74658203125
23.8037109375
25.634765625
40.283203125
46.69189453125
53.1005859375
50.35400390625
57.67822265625
65.00244140625
67.7490234375
96.13037109375
96.13037109375
95.21484375
100.7080078125
110.77880859375
125.42724609375
130.0048828125
141.90673828125
150.146484375
164.794921875
171.20361328125
171.20361328125
172.119140625
180.35888671875
189.51416015625
199.5849609375
207.82470703125
200.50048828125
216.97998046875
222.47314453125
216.064453125
216.97998046875
214.2333984375
212.40234375
218.81103515625
220.64208984375
220.64208984375
222.47314453125
221.5576171875
201.416015625
213.31787109375
211.48681640625
215.14892578125
193.17626953125
180.35888671875
163.87939453125
150.146484375
158.38623046875
132.75146484375
124.51171875
103.45458984375
87.890625
85.14404296875
60.4248046875
48.52294921875
36.62109375
32.958984375
-11.90185546875
15.56396484375
-17.39501953125
-43.02978515625
-45.7763671875
-54.01611328125
-64.0869140625
-63.17138671875
-63.17138671875
-90.63720703125
-93.3837890625
-96.13037109375
-116.27197265625
-117.1875
-111.6943359375
-119.93408203125
-130.0048828125
-136.41357421875
-137.3291015625
-139.16015625
-142.822265625
-121.76513671875
-128.173828125
-138.24462890625
-140.07568359375
-159.3017578125
-183.10546875
-130.0048828125
-147.39990234375
-162.04833984375
-168.45703125
-126.3427734375
-184.02099609375
-213.31787109375
-130.92041015625
-148.3154296875
-154.72412109375
-136.41357421875
-122.6806640625
-151.9775390625
-157.470703125
-137.3291015625
-140.07568359375
-156.55517578125
-142.822265625
-142.822265625
-128.173828125
-130.92041015625
-130.0048828125
-162.9638671875
-141.90673828125
-94.29931640625
-175.78125
-126.3427734375
-130.0048828125
-118.10302734375
-120.849609375
-149.23095703125
-133.6669921875
-125.42724609375
-132.75146484375
-105.28564453125
-93.3837890625
-95.21484375
-100.7080078125
-104.3701171875
-108.94775390625
-112.60986328125
-126.3427734375
-113.525390625
-119.0185546875
-85.14404296875
-86.97509765625
-94.29931640625
-97.96142578125
-108.94775390625
-102.5390625
-95.21484375
-92.46826171875
-96.13037109375
-101.62353515625
-101.62353515625
-92.46826171875
-102.5390625
-110.77880859375
-107.11669921875
-103.45458984375
-102.5390625
-102.5390625
-104.3701171875
-106.201171875
-109.86328125
-117.1875
-108.0322265625
-113.525390625
-118.10302734375
-120.849609375
-119.0185546875
-118.10302734375
-117.1875
-119.0185546875
-120.849609375
-119.93408203125
-122.6806640625
-119.93408203125
-130.92041015625
-115.3564453125
-124.51171875
-119.93408203125
-119.0185546875
-117.1875
-113.525390625
-118.10302734375
-113.525390625
-117.1875
-120.849609375
-116.27197265625
-119.0185546875
-128.173828125
-130.0048828125
-129.08935546875
-125.42724609375
-125.42724609375
-137.3291015625
-131.8359375
-125.42724609375
-137.3291015625
-134.58251953125
-140.07568359375
-136.41357421875
-137.3291015625
-127.25830078125
-134.58251953125
-131.8359375
-140.9912109375
-144.6533203125
-135.498046875
-140.9912109375
-140.07568359375
-136.41357421875
-140.9912109375
-146.484375
-139.16015625
-143.73779296875
-151.06201171875
-136.41357421875
-144.6533203125
-146.484375
-147.39990234375
-141.90673828125
-138.24462890625
-138.24462890625
-148.3154296875
-151.06201171875
-138.24462890625
-138.24462890625
-138.24462890625
-148.3154296875
-144.6533203125
-143.73779296875
-146.484375
-145.56884765625
-149.23095703125
-149.23095703125
-151.9775390625
-144.6533203125
-145.56884765625
-140.9912109375
-141.90673828125
-142.822265625
-146.484375
-146.484375
-139.16015625
-140.07568359375
-141.90673828125
-143.73779296875
-136.41357421875
-141.90673828125
-144.6533203125
-140.9912109375
-134.58251953125
-137.3291015625
-134.58251953125
-135.498046875
-130.0048828125
-140.9912109375
-150.146484375
-155.6396484375
-159.3017578125
-159.3017578125
-159.3017578125
-146.484375
-139.16015625
-127.25830078125
-107.11669921875
-100.7080078125
-115.3564453125
-131.8359375
-140.9912109375
-145.56884765625
-155.6396484375
-159.3017578125
-161.1328125
-149.23095703125
-137.3291015625
-132.75146484375
-146.484375
-137.3291015625
-129.08935546875
-130.92041015625
-132.75146484375
-135.498046875
-133.6669921875
-137.3291015625
-133.6669921875
-138.24462890625
-138.24462890625
-129.08935546875
-126.3427734375
-118.10302734375
-120.849609375
-125.42724609375
-140.07568359375
-148.3154296875
-152.89306640625
-156.55517578125
-165.71044921875
-170.2880859375
-163.87939453125
-152.89306640625
-151.9775390625
-150.146484375
-151.06201171875
-152.89306640625
-157.470703125
-145.56884765625
-146.484375
-148.3154296875
-155.6396484375
-154.72412109375
-145.56884765625
-141.90673828125
-150.146484375
-151.06201171875
-144.6533203125
-144.6533203125
-146.484375
-142.822265625
-141.90673828125
-140.9912109375
-141.90673828125
-145.56884765625
-142.822265625
-142.822265625
-137.3291015625
-140.9912109375
-149.23095703125
-156.55517578125
-155.6396484375
-149.23095703125
-162.04833984375
-179.443359375
-186.767578125
-204.16259765625
-220.64208984375
-244.44580078125
-245.361328125
-227.05078125
-194.091796875
-135.498046875
-11.90185546875
144.6533203125
301.20849609375
446.77734375
600.5859375
762.63427734375
883.48388671875
953.9794921875
988.76953125
991.51611328125
963.134765625
908.203125
858.7646484375
705.87158203125
448.6083984375
219.7265625
-0.91552734375
-174.86572265625
-242.61474609375
-219.7265625
-185.85205078125
-154.72412109375
-136.41357421875
-96.13037109375
-58.59375
-37.53662109375
-25.634765625
-20.1416015625
-19.22607421875
-32.04345703125
-27.4658203125
-30.21240234375
-35.70556640625
-43.9453125
-43.9453125
-50.35400390625
-46.69189453125
-53.1005859375
-57.67822265625
-58.59375
-64.0869140625
-60.4248046875
-63.17138671875
-63.17138671875
-63.17138671875
-55.84716796875
-53.1005859375
-46.69189453125
-45.7763671875
-43.02978515625
-50.35400390625
-50.35400390625
-47.607421875
-41.19873046875
-36.62109375
-41.19873046875
-40.283203125
-39.36767578125
-39.36767578125
-39.36767578125
-38.4521484375
-35.70556640625
-40.283203125
-30.21240234375
-20.1416015625
-19.22607421875
-18.310546875
-20.1416015625
-17.39501953125
-11.90185546875
-10.986328125
-12.8173828125
-4.57763671875
0
-3.662109375
2.74658203125
8.23974609375
9.1552734375
14.6484375
20.1416015625
28.38134765625
39.36767578125
35.70556640625
33.87451171875
28.38134765625
40.283203125
61.34033203125
68.66455078125
65.91796875
74.15771484375
80.56640625
87.890625
95.21484375
102.5390625
112.60986328125
121.76513671875
133.6669921875
143.73779296875
155.6396484375
162.04833984375
166.6259765625
167.54150390625
179.443359375
193.17626953125
203.2470703125
212.40234375
218.81103515625
232.5439453125
241.69921875
244.44580078125
250.8544921875
250.8544921875
255.43212890625
263.671875
265.5029296875
269.1650390625
272.8271484375
282.89794921875
290.22216796875
292.96875
281.06689453125
281.06689453125
290.22216796875
285.64453125
276.4892578125
267.333984375
264.58740234375
268.24951171875
263.671875
249.0234375
234.375
227.96630859375
227.05078125
203.2470703125
180.35888671875
168.45703125
154.72412109375
142.822265625
129.08935546875
105.28564453125
85.14404296875
72.32666015625
62.255859375
45.7763671875
40.283203125
33.87451171875
4.57763671875
-13.73291015625
-19.22607421875
-29.296875
-36.62109375
-49.4384765625
-54.01611328125
-57.67822265625
-69.580078125
-76.904296875
-81.48193359375
-94.29931640625
-89.7216796875
-88.80615234375
-91.552734375
-101.62353515625
-96.13037109375
-98.876953125
-108.0322265625
-112.60986328125
-116.27197265625
-113.525390625
-109.86328125
-117.1875
-121.76513671875
-111.6943359375
-105.28564453125
-108.0322265625
-113.525390625
-118.10302734375
-118.10302734375
-114.44091796875
-118.10302734375
-118.10302734375
-119.93408203125
-113.525390625
-105.28564453125
-106.201171875
-112.60986328125
-112.60986328125
-107.11669921875
-108.0322265625
-108.0322265625
-103.45458984375
-104.3701171875
-101.62353515625
-106.201171875
-106.201171875
-106.201171875
-101.62353515625
-107.11669921875
-108.0322265625
-101.62353515625
-94.29931640625
-94.29931640625
-96.13037109375
-97.96142578125
-100.7080078125
-100.7080078125
-104.3701171875
-103.45458984375
-97.96142578125
-96.13037109375
-98.876953125
-101.62353515625
-97.0458984375
-92.46826171875
-89.7216796875
-101.62353515625
-105.28564453125
-101.62353515625
-96.13037109375
-93.3837890625
-90.63720703125
-91.552734375
-98.876953125
-98.876953125
-98.876953125
-99.79248046875
-108.94775390625
-105.28564453125
-97.0458984375
-96.13037109375
-99.79248046875
-94.29931640625
-100.7080078125
-100.7080078125
-99.79248046875
-107.11669921875
-104.3701171875
-104.3701171875
-106.201171875
-105.28564453125
-101.62353515625
-108.0322265625
-104.3701171875
-103.45458984375
-103.45458984375
-108.94775390625
-111.6943359375
-110.77880859375
-110.77880859375
-115.3564453125
-118.10302734375
-119.93408203125
-113.525390625
-109.86328125
-106.201171875
-106.201171875
-115.3564453125
-116.27197265625
-118.10302734375
-113.525390625
-111.6943359375
-115.3564453125
-119.0185546875
-115.3564453125
-119.0185546875
-117.1875
-118.10302734375
-119.0185546875
-116.27197265625
-116.27197265625
-120.849609375
-125.42724609375
-123.59619140625
-124.51171875
-130.92041015625
-132.75146484375
-131.8359375
-119.0185546875
-115.3564453125
-121.76513671875
-123.59619140625
-126.3427734375
-125.42724609375
-127.25830078125
-125.42724609375
-126.3427734375
-125.42724609375
-128.173828125
-127.25830078125
-125.42724609375
-120.849609375
-125.42724609375
-127.25830078125
-121.76513671875
-123.59619140625
-122.6806640625
-125.42724609375
-127.25830078125
-120.849609375
-118.10302734375
-127.25830078125
-138.24462890625
-126.3427734375
-119.0185546875
-127.25830078125
-136.41357421875
-138.24462890625
-131.8359375
-126.3427734375
-127.25830078125
-124.51171875
-122.6806640625
-130.0048828125
-126.3427734375
-128.173828125
-133.6669921875
-130.0048828125
-131.8359375
-129.08935546875
-122.6806640625
-121.76513671875
-130.0048828125
-129.08935546875
-130.92041015625
-121.76513671875
-130.0048828125
-126.3427734375
-119.93408203125
-125.42724609375
-121.76513671875
-119.93408203125
-123.59619140625
-122.6806640625
-123.59619140625
-125.42724609375
-135.498046875
-147.39990234375
-155.6396484375
-145.56884765625
-134.58251953125
-120.849609375
-108.0322265625
-93.3837890625
-97.96142578125
-97.96142578125
-107.11669921875
-123.59619140625
-132.75146484375
-129.08935546875
-137.3291015625
-143.73779296875
-138.24462890625
-130.0048828125
-123.59619140625
-125.42724609375
-123.59619140625
-122.6806640625
-130.0048828125
-129.08935546875
-121.76513671875
-130.0048828125
-130.0048828125
-124.51171875
-119.0185546875
-115.3564453125
-114.44091796875
-108.0322265625
-108.94775390625
-104.3701171875
-108.0322265625
-118.10302734375
-127.25830078125
-139.16015625
-158.38623046875
-153.80859375
-151.06201171875
-148.3154296875
-147.39990234375
-145.56884765625
-146.484375
-154.72412109375
-144.6533203125
-138.24462890625
-139.16015625
-140.9912109375
-134.58251953125
-138.24462890625
-132.75146484375
-137.3291015625
-135.498046875
-131.8359375
-136.41357421875
-142.822265625
-137.3291015625
-135.498046875
-134.58251953125
-136.41357421875
-130.92041015625
-126.3427734375
-123.59619140625
-128.173828125
-128.173828125
-128.173828125
-127.25830078125
-130.0048828125
-130.0048828125
-137.3291015625
-143.73779296875
-148.3154296875
-158.38623046875
-171.20361328125
-189.51416015625
-206.9091796875
-218.81103515625
-232.5439453125
-227.96630859375
-206.9091796875
-141.90673828125
-31.1279296875
111.6943359375
259.09423828125
419.3115234375
569.4580078125
735.16845703125
877.99072265625
965.88134765625
1000.67138671875
1002.50244140625
997.9248046875
942.07763671875
888.97705078125
767.2119140625
531.92138671875
300.29296875
71.4111328125
-120.849609375
-237.12158203125
-226.13525390625
-195.00732421875
-162.04833984375
-137.3291015625
-96.13037109375
-54.01611328125
-24.71923828125
-20.1416015625
-14.6484375
-17.39501953125
-18.310546875
-21.05712890625
-24.71923828125
-29.296875
-32.04345703125
-39.36767578125
-45.7763671875
-40.283203125
-43.9453125
-50.35400390625
-50.35400390625
-55.84716796875
-51.26953125
-43.9453125
-45.7763671875
-47.607421875
-46.69189453125
-46.69189453125
-47.607421875
-48.52294921875
-55.84716796875
-55.84716796875
-30.21240234375
-32.04345703125
-42.1142578125
-35.70556640625
-33.87451171875
-33.87451171875
-35.70556640625
-32.04345703125
-29.296875
-29.296875
-28.38134765625
-33.87451171875
-26.55029296875
-24.71923828125
-21.97265625
-11.90185546875
-12.8173828125
-16.4794921875
-15.56396484375
-8.23974609375
0
2.74658203125
0.91552734375
3.662109375
10.07080078125
11.90185546875
15.56396484375
25.634765625
32.958984375
43.9453125
38.4521484375
39.36767578125
49.4384765625
56.7626953125
60.4248046875
61.34033203125
65.00244140625
67.7490234375
74.15771484375
85.14404296875
86.97509765625
92.46826171875
102.5390625
116.27197265625
129.08935546875
146.484375
147.39990234375
151.9775390625
163.87939453125
173.9501953125
181.2744140625
193.17626953125
194.091796875
208.740234375
217.8955078125
233.45947265625
240.78369140625
243.5302734375
251.77001953125
257.26318359375
273.74267578125
286.56005859375
281.06689453125
283.8134765625
297.54638671875
296.630859375
300.29296875
303.03955078125
298.4619140625
294.7998046875
301.20849609375
303.955078125
293.88427734375
298.4619140625
293.88427734375
285.64453125
288.39111328125
279.23583984375
267.333984375
259.09423828125
249.0234375
240.78369140625
221.5576171875
204.16259765625
187.68310546875
172.119140625
147.39990234375
133.6669921875
121.76513671875
108.0322265625
97.0458984375
81.48193359375
64.0869140625
48.52294921875
31.1279296875
19.22607421875
4.57763671875
-13.73291015625
-15.56396484375
-21.05712890625
-32.958984375
-41.19873046875
-54.01611328125
-69.580078125
-71.4111328125
-73.2421875
-81.48193359375
-78.7353515625
-85.14404296875
-88.80615234375
-89.7216796875
-89.7216796875
-90.63720703125
-91.552734375
-92.46826171875
-100.7080078125
-103.45458984375
-105.28564453125
-110.77880859375
-112.60986328125
-108.94775390625
-109.86328125
-103.45458984375
-104.3701171875
-105.28564453125
-106.201171875
-107.11669921875
-115.3564453125
-114.44091796875
-108.94775390625
-108.0322265625
-108.94775390625
-105.28564453125
-102.5390625
-96.13037109375
-98.876953125
-103.45458984375
-103.45458984375
-107.11669921875
-101.62353515625
-98.876953125
-106.201171875
-106.201171875
-99.79248046875
-93.3837890625
-97.96142578125
-102.5390625
-105.28564453125
-99.79248046875
-98.876953125
-95.21484375
-91.552734375
-94.29931640625
-94.29931640625
-92.46826171875
-91.552734375
-94.29931640625
-96.13037109375
-93.3837890625
-95.21484375
-92.46826171875
-91.552734375
-92.46826171875
-87.890625
-92.46826171875
-90.63720703125
-88.80615234375
-90.63720703125
-92.46826171875
-92.46826171875
-90.63720703125
-87.890625
-89.7216796875
-93.3837890625
-93.3837890625
-93.3837890625
-92.46826171875
-95.21484375
-93.3837890625
-96.13037109375
-98.876953125
-97.96142578125
-93.3837890625
-95.21484375
-96.13037109375
-97.0458984375
-100.7080078125
-105.28564453125
-108.0322265625
-108.0322265625
-102.5390625
-98.876953125
-105.28564453125
-97.0458984375
-95.21484375
-91.552734375
-97.96142578125
-105.28564453125
-109.86328125
-109.86328125
-102.5390625
-101.62353515625
-115.3564453125
-114.44091796875
-106.201171875
-105.28564453125
-102.5390625
-106.201171875
-109.86328125
-108.94775390625
-104.3701171875
-109.86328125
-118.10302734375
-115.3564453125
-110.77880859375
-112.60986328125
-115.3564453125
-117.1875
-117.1875
-117.1875
-119.93408203125
-121.76513671875
-118.10302734375
-118.10302734375
-122.6806640625
-119.0185546875
-120.849609375
-121.76513671875
-116.27197265625
-119.0185546875
-125.42724609375
-126.3427734375
-128.173828125
-124.51171875
-121.76513671875
-126.3427734375
-126.3427734375
-130.92041015625
-138.24462890625
-131.8359375
-114.44091796875
-111.6943359375
-120.849609375
-118.10302734375
-117.1875
-135.498046875
-123.59619140625
-124.51171875
-129.08935546875
-131.8359375
-128.173828125
-121.76513671875
-126.3427734375
-130.0048828125
-127.25830078125
-128.173828125
-133.6669921875
-131.8359375
-130.92041015625
-127.25830078125
-126.3427734375
-138.24462890625
-137.3291015625
-130.0048828125
-127.25830078125
-127.25830078125
-125.42724609375
-130.92041015625
-135.498046875
-125.42724609375
-125.42724609375
-126.3427734375
-130.92041015625
-131.8359375
-132.75146484375
-127.25830078125
-130.0048828125
-128.173828125
-133.6669921875
-130.92041015625
-129.08935546875
-124.51171875
-124.51171875
-130.0048828125
-125.42724609375
-128.173828125
-124.51171875
-118.10302734375
-124.51171875
-130.92041015625
-133.6669921875
-139.16015625
-144.6533203125
-143.73779296875
-144.6533203125
-132.75146484375
-127.25830078125
-117.1875
-98.876953125
-97.96142578125
-98.876953125
-114.44091796875
-126.3427734375
-133.6669921875
-143.73779296875
-146.484375
-145.56884765625
-140.07568359375
-126.3427734375
-119.0185546875
-117.1875
-120.849609375
-121.76513671875
-123.59619140625
-121.76513671875
-118.10302734375
-120.849609375
-123.59619140625
-120.849609375
-120.849609375
-117.1875
-112.60986328125
-108.94775390625
-98.876953125
-105.28564453125
-118.10302734375
-132.75146484375
-142.822265625
-149.23095703125
-158.38623046875
-153.80859375
-148.3154296875
-150.146484375
-146.484375
-149.23095703125
-150.146484375
-148.3154296875
-141.90673828125
-144.6533203125
-141.90673828125
-133.6669921875
-131.8359375
-137.3291015625
-137.3291015625
-137.3291015625
-141.90673828125
-143.73779296875
-142.822265625
-138.24462890625
-137.3291015625
-140.9912109375
-137.3291015625
-140.9912109375
-140.9912109375
-136.41357421875
-129.08935546875
-132.75146484375
-138.24462890625
-136.41357421875
-130.0048828125
-130.92041015625
-127.25830078125
-134.58251953125
-149.23095703125
-153.80859375
-168.45703125
-176.69677734375
-190.4296875
-212.40234375
-229.79736328125
-242.61474609375
-234.375
-212.40234375
-155.6396484375
-45.7763671875
103.45458984375
254.5166015625
411.07177734375
572.20458984375
747.98583984375
890.80810546875
973.20556640625
990.6005859375
1004.33349609375
997.00927734375
938.41552734375
878.90625
759.8876953125
521.8505859375
285.64453125
57.67822265625
-128.173828125
-245.361328125
-237.12158203125
-200.50048828125
-162.9638671875
-142.822265625
-113.525390625
-75.0732421875
-43.02978515625
-29.296875
-21.05712890625
-21.05712890625
-25.634765625
-29.296875
-31.1279296875
-36.62109375
-43.9453125
-44.86083984375
-38.4521484375
-43.9453125
-51.26953125
-50.35400390625
-50.35400390625
-53.1005859375
-45.7763671875
-49.4384765625
-51.26953125
-56.7626953125
-55.84716796875
-46.69189453125
-43.9453125
-51.26953125
-48.52294921875
-41.19873046875
-40.283203125
-43.02978515625
-39.36767578125
-40.283203125
-37.53662109375
-37.53662109375
-33.87451171875
-36.62109375
-32.958984375
-30.21240234375
-33.87451171875
-34.7900390625
-26.55029296875
-20.1416015625
-17.39501953125
-17.39501953125
-16.4794921875
-18.310546875
-13.73291015625
-13.73291015625
-11.90185546875
-4.57763671875
-4.57763671875
-0.91552734375
4.57763671875
14.6484375
24.71923828125
17.39501953125
21.05712890625
32.04345703125
32.04345703125
43.9453125
45.7763671875
51.26953125
65.00244140625
66.83349609375
63.17138671875
68.66455078125
80.56640625
85.14404296875
86.97509765625
91.552734375
106.201171875
121.76513671875
129.08935546875
133.6669921875
140.9912109375
147.39990234375
158.38623046875
173.9501953125
182.18994140625
197.75390625
202.33154296875
206.9091796875
216.97998046875
229.79736328125
241.69921875
243.5302734375
245.361328125
256.34765625
265.5029296875
267.333984375
265.5029296875
276.4892578125
281.982421875
279.23583984375
292.96875
299.37744140625
298.4619140625
297.54638671875
298.4619140625
295.71533203125
298.4619140625
295.71533203125
295.71533203125
292.96875
288.39111328125
277.40478515625
267.333984375
249.93896484375
235.29052734375
227.96630859375
221.5576171875
195.9228515625
173.9501953125
165.71044921875
156.55517578125
145.56884765625
124.51171875
102.5390625
88.80615234375
70.49560546875
54.931640625
43.02978515625
33.87451171875
10.986328125
0.91552734375
-8.23974609375
-17.39501953125
-25.634765625
-33.87451171875
-43.9453125
-55.84716796875
-55.84716796875
-58.59375
-65.91796875
-75.0732421875
-83.31298828125
-86.0595703125
-90.63720703125
-87.890625
-89.7216796875
-100.7080078125
-99.79248046875
-108.0322265625
-105.28564453125
-97.0458984375
-107.11669921875
-109.86328125
-110.77880859375
-112.60986328125
-114.44091796875
-108.94775390625
-108.94775390625
-108.0322265625
-107.11669921875
-112.60986328125
-117.1875
-114.44091796875
-110.77880859375
-105.28564453125
-102.5390625
-109.86328125
-108.0322265625
-107.11669921875
-111.6943359375
-102.5390625
-106.201171875
-108.94775390625
-106.201171875
-108.0322265625
-97.0458984375
-97.96142578125
-105.28564453125
-102.5390625
-95.21484375
-93.3837890625
-102.5390625
-102.5390625
-103.45458984375
-103.45458984375
-102.5390625
-97.96142578125
-97.0458984375
-96.13037109375
-84.228515625
-93.3837890625
-97.0458984375
-94.29931640625
-93.3837890625
-87.890625
-84.228515625
-86.97509765625
-93.3837890625
-98.876953125
-86.0595703125
-81.48193359375
-89.7216796875
-97.96142578125
-93.3837890625
-86.0595703125
-86.97509765625
-93.3837890625
-96.13037109375
-92.46826171875
-82.3974609375
-96.13037109375
-99.79248046875
-96.13037109375
-97.0458984375
-92.46826171875
-94.29931640625
-99.79248046875
-97.96142578125
-95.21484375
-101.62353515625
-103.45458984375
-101.62353515625
-102.5390625
-99.79248046875
-101.62353515625
-108.0322265625
-109.86328125
-104.3701171875
-107.11669921875
-106.201171875
-105.28564453125
-108.0322265625
-114.44091796875
-110.77880859375
-113.525390625
-115.3564453125
-113.525390625
-108.94775390625
-109.86328125
-114.44091796875
-125.42724609375
-124.51171875
-118.10302734375
-114.44091796875
-113.525390625
-118.10302734375
-118.10302734375
-129.08935546875
-130.0048828125
-125.42724609375
-119.0185546875
-116.27197265625
-122.6806640625
-130.0048828125
-126.3427734375
-124.51171875
-122.6806640625
-125.42724609375
-119.93408203125
-113.525390625
-109.86328125
-123.59619140625
-127.25830078125
-123.59619140625
-130.92041015625
-129.08935546875
-125.42724609375
-125.42724609375
-119.93408203125
-121.76513671875
-130.0048828125
-140.9912109375
-131.8359375
-123.59619140625
-130.92041015625
-131.8359375
-127.25830078125
-128.173828125
-133.6669921875
-136.41357421875
-139.16015625
-141.90673828125
-133.6669921875
-128.173828125
-125.42724609375
-130.0048828125
-130.0048828125
-136.41357421875
-132.75146484375
-126.3427734375
-129.08935546875
-132.75146484375
-138.24462890625
-131.8359375
-129.08935546875
-126.3427734375
-130.0048828125
-145.56884765625
-140.9912109375
-137.3291015625
-132.75146484375
-136.41357421875
-140.9912109375
-128.173828125
-124.51171875
-130.0048828125
-134.58251953125
-138.24462890625
-137.3291015625
-135.498046875
-136.41357421875
-136.41357421875
-151.9775390625
-140.9912109375
-143.73779296875
-141.90673828125
-138.24462890625
-137.3291015625
-134.58251953125
-137.3291015625
-133.6669921875
-135.498046875
-140.9912109375
-141.90673828125
-132.75146484375
-134.58251953125
-134.58251953125
-131.8359375
-142.822265625
-139.16015625
-135.498046875
-135.498046875
-124.51171875
-121.76513671875
-125.42724609375
-127.25830078125
-126.3427734375
-127.25830078125
-141.90673828125
-155.6396484375
-161.1328125
-160.21728515625
-149.23095703125
-147.39990234375
-142.822265625
-127.25830078125
-103.45458984375
-106.201171875
-104.3701171875
-111.6943359375
-125.42724609375
-138.24462890625
-150.146484375
-150.146484375
-148.3154296875
-150.146484375
-138.24462890625
-129.08935546875
-131.8359375
-138.24462890625
-130.92041015625
-130.92041015625
-136.41357421875
-139.16015625
-134.58251953125
-131.8359375
-136.41357421875
-144.6533203125
-132.75146484375
-121.76513671875
-119.93408203125
-115.3564453125
-119.93408203125
-112.60986328125
-134.58251953125
-151.06201171875
-156.55517578125
-162.04833984375
-166.6259765625
-151.9775390625
-146.484375
-153.80859375
-159.3017578125
-154.72412109375
-149.23095703125
-151.9775390625
-159.3017578125
-151.06201171875
-148.3154296875
-147.39990234375
-150.146484375
-154.72412109375
-158.38623046875
-152.89306640625
-140.9912109375
-150.146484375
-158.38623046875
-157.470703125
-149.23095703125
-142.822265625
-146.484375
-142.822265625
-143.73779296875
-141.90673828125
-136.41357421875
-137.3291015625
-140.9912109375
-146.484375
-155.6396484375
-160.21728515625
-149.23095703125
-149.23095703125
-165.71044921875
-170.2880859375
-191.34521484375
-200.50048828125
-214.2333984375
-228.8818359375
-247.1923828125
-234.375
-200.50048828125
-153.80859375
-62.255859375
74.15771484375
219.7265625
372.61962890625
540.1611328125
704.9560546875
850.52490234375
939.3310546875
989.68505859375
986.02294921875
977.783203125
926.513671875
878.90625
780.029296875
543.8232421875
300.29296875
86.97509765625
-94.29931640625
-207.82470703125
-227.05078125
-207.82470703125
-174.86572265625
-158.38623046875
-142.822265625
-118.10302734375
-88.80615234375
-65.00244140625
-56.7626953125
-54.931640625
-49.4384765625
-45.7763671875
-43.9453125
-52.18505859375
-50.35400390625
-57.67822265625
-59.50927734375
-57.67822265625
-64.0869140625
-56.7626953125
-69.580078125
-66.83349609375
-58.59375
-61.34033203125
-56.7626953125
-63.17138671875
-65.91796875
-68.66455078125
-64.0869140625
-60.4248046875
-69.580078125
-70.49560546875
-64.0869140625
-57.67822265625
-47.607421875
-44.86083984375
-47.607421875
-52.18505859375
-50.35400390625
-50.35400390625
-64.0869140625
-56.7626953125
-51.26953125
-40.283203125
-38.4521484375
-42.1142578125
-37.53662109375
-43.9453125
-36.62109375
-33.87451171875
-34.7900390625
-30.21240234375
-21.97265625
-13.73291015625
-17.39501953125
-2.74658203125
0
-5.4931640625
-4.57763671875
0.91552734375
0.91552734375
6.40869140625
9.1552734375
15.56396484375
21.97265625
30.21240234375
35.70556640625
32.958984375
45.7763671875
49.4384765625
59.50927734375
65.91796875
74.15771484375
72.32666015625
80.56640625
81.48193359375
90.63720703125
100.7080078125
117.1875
132.75146484375
134.58251953125
137.3291015625
147.39990234375
160.21728515625
172.119140625
184.02099609375
185.85205078125
184.02099609375
195.00732421875
210.5712890625
213.31787109375
224.30419921875
236.2060546875
246.27685546875
249.0234375
245.361328125
241.69921875
242.61474609375
249.0234375
253.60107421875
257.26318359375
266.41845703125
256.34765625
260.009765625
261.8408203125
257.26318359375
250.8544921875
257.26318359375
248.10791015625
241.69921875
233.45947265625
220.64208984375
205.078125
199.5849609375
183.10546875
162.04833984375
144.6533203125
133.6669921875
128.173828125
109.86328125
88.80615234375
62.255859375
52.18505859375
54.01611328125
39.36767578125
12.8173828125
-5.4931640625
-12.8173828125
-18.310546875
-30.21240234375
-45.7763671875
-56.7626953125
-60.4248046875
-70.49560546875
-78.7353515625
-89.7216796875
-97.96142578125
-102.5390625
-103.45458984375
-114.44091796875
-118.10302734375
-121.76513671875
-118.10302734375
-122.6806640625
-119.93408203125
-120.849609375
-123.59619140625
-125.42724609375
-130.0048828125
-135.498046875
-133.6669921875
-131.8359375
-140.9912109375
-138.24462890625
-138.24462890625
-141.90673828125
-142.822265625
-145.56884765625
-150.146484375
-142.822265625
-140.9912109375
-146.484375
-144.6533203125
-139.16015625
-135.498046875
-130.0048828125
-131.8359375
-130.0048828125
-128.173828125
-137.3291015625
-133.6669921875
-135.498046875
-140.9912109375
-129.08935546875
-126.3427734375
-123.59619140625
-125.42724609375
-124.51171875
-126.3427734375
-136.41357421875
-125.42724609375
-126.3427734375
-131.8359375
-124.51171875
-116.27197265625
-123.59619140625
-123.59619140625
-119.0185546875
-116.27197265625
-124.51171875
-125.42724609375
-123.59619140625
-122.6806640625
-119.0185546875
-117.1875
-123.59619140625
-130.0048828125
-117.1875
-111.6943359375
-104.3701171875
-112.60986328125
-119.0185546875
-119.93408203125
-119.93408203125
-118.10302734375
-115.3564453125
-112.60986328125
-113.525390625
-122.6806640625
-120.849609375
-119.0185546875
-131.8359375
-129.08935546875
-114.44091796875
-118.10302734375
-127.25830078125
-128.173828125
-130.0048828125
-128.173828125
-126.3427734375
-120.849609375
-129.08935546875
-133.6669921875
-135.498046875
-129.08935546875
-118.10302734375
-130.92041015625
-131.8359375
-135.498046875
-141.90673828125
-141.90673828125
-131.8359375
-133.6669921875
-135.498046875
-127.25830078125
-136.41357421875
-139.16015625
-137.3291015625
-138.24462890625
-142.822265625
-130.92041015625
-129.08935546875
-139.16015625
-137.3291015625
-138.24462890625
-141.90673828125
-141.90673828125
-139.16015625
-136.41357421875
-134.58251953125
-140.07568359375
-140.9912109375
-144.6533203125
-142.822265625
-143.73779296875
-143.73779296875
-143.73779296875
-148.3154296875
-150.146484375
-141.90673828125
-146.484375
-150.146484375
-151.06201171875
-147.39990234375
-143.73779296875
-145.56884765625
-146.484375
-146.484375
-151.06201171875
-148.3154296875
-151.06201171875
-148.3154296875
-147.39990234375
-140.9912109375
-143.73779296875
-146.484375
-156.55517578125
-155.6396484375
-155.6396484375
-153.80859375
-150.146484375
-153.80859375
-157.470703125
-152.89306640625
-149.23095703125
-153.80859375
-156.55517578125
-152.89306640625
-147.39990234375
-148.3154296875
-150.146484375
-147.39990234375
-151.9775390625
-155.6396484375
-153.80859375
-150.146484375
-157.470703125
-153.80859375
-148.3154296875
-145.56884765625
-155.6396484375
-156.55517578125
-153.80859375
-144.6533203125
-146.484375
-152.89306640625
-155.6396484375
-153.80859375
-153.80859375
-146.484375
-157.470703125
-162.04833984375
-155.6396484375
-145.56884765625
-141.90673828125
-152.89306640625
-159.3017578125
-146.484375
-148.3154296875
-151.06201171875
-145.56884765625
-149.23095703125
-151.06201171875
-138.24462890625
-133.6669921875
-143.73779296875
-147.39990234375
-143.73779296875
-142.822265625
-134.58251953125
-142.822265625
-165.71044921875
-171.20361328125
-159.3017578125
-154.72412109375
-155.6396484375
-151.06201171875
-143.73779296875
-133.6669921875
-118.10302734375
-117.1875
-130.0048828125
-144.6533203125
-149.23095703125
-154.72412109375
-156.55517578125
-162.9638671875
-156.55517578125
-147.39990234375
-140.07568359375
-136.41357421875
-144.6533203125
-141.90673828125
-141.90673828125
-150.146484375
-149.23095703125
-151.06201171875
-148.3154296875
-149.23095703125
-150.146484375
-141.90673828125
-143.73779296875
-134.58251953125
-119.0185546875
-116.27197265625
-118.10302734375
-134.58251953125
-148.3154296875
-155.6396484375
-162.9638671875
-164.794921875
-165.71044921875
-170.2880859375
-167.54150390625
-169.37255859375
-171.20361328125
-170.2880859375
-165.71044921875
-160.21728515625
-156.55517578125
-152.89306640625
-156.55517578125
-162.9638671875
-162.04833984375
-161.1328125
-159.3017578125
-162.04833984375
-156.55517578125
-151.9775390625
-147.39990234375
-149.23095703125
-160.21728515625
-160.21728515625
-152.89306640625
-145.56884765625
-145.56884765625
-149.23095703125
-153.80859375
-151.9775390625
-145.56884765625
-146.484375
-150.146484375
-156.55517578125
-162.9638671875
-160.21728515625
-170.2880859375
-191.34521484375
-186.767578125
-197.75390625
-216.064453125
-236.2060546875
-258.1787109375
-240.78369140625
-195.00732421875
-132.75146484375
-17.39501953125
117.1875
263.671875
424.8046875
591.4306640625
754.39453125
877.99072265625
950.3173828125
976.86767578125
985.107421875
963.134765625
910.94970703125
842.28515625
693.9697265625
446.77734375
215.14892578125
11.90185546875
-151.9775390625
-241.69921875
-234.375
-203.2470703125
-172.119140625
-156.55517578125
-137.3291015625
-103.45458984375
-66.83349609375
-57.67822265625
-47.607421875
-45.7763671875
-45.7763671875
-39.36767578125
-50.35400390625
-55.84716796875
-53.1005859375
-51.26953125
-45.7763671875
-55.84716796875
-60.4248046875
-64.0869140625
-58.59375
-61.34033203125
-65.00244140625
-65.91796875
-65.91796875
-59.50927734375
-62.255859375
-63.17138671875
-59.50927734375
-55.84716796875
-58.59375
-58.59375
-61.34033203125
-67.7490234375
-54.01611328125
-57.67822265625
-45.7763671875
-45.7763671875
-50.35400390625
-44.86083984375
-38.4521484375
-46.69189453125
-46.69189453125
-43.9453125
-35.70556640625
-25.634765625
-23.8037109375
-28.38134765625
-32.04345703125
-23.8037109375
-15.56396484375
-18.310546875
-20.1416015625
-18.310546875
-9.1552734375
-6.40869140625
0
2.74658203125
2.74658203125
5.4931640625
10.07080078125
10.986328125
21.05712890625
28.38134765625
32.958984375
37.53662109375
43.02978515625
46.69189453125
48.52294921875
59.50927734375
67.7490234375
71.4111328125
73.2421875
90.63720703125
97.96142578125
108.0322265625
111.6943359375
115.3564453125
120.849609375
135.498046875
153.80859375
156.55517578125
162.04833984375
173.9501953125
194.091796875
202.33154296875
204.16259765625
208.740234375
218.81103515625
226.13525390625
248.10791015625
254.5166015625
249.93896484375
249.93896484375
256.34765625
263.671875
270.08056640625
265.5029296875
271.91162109375
275.57373046875
274.658203125
276.4892578125
274.658203125
274.658203125
272.8271484375
268.24951171875
272.8271484375
265.5029296875
262.75634765625
244.44580078125
239.8681640625
230.712890625
207.82470703125
195.00732421875
186.767578125
180.35888671875
164.794921875
139.16015625
126.3427734375
112.60986328125
96.13037109375
81.48193359375
61.34033203125
50.35400390625
37.53662109375
21.97265625
12.8173828125
-9.1552734375
-21.05712890625
-27.4658203125
-34.7900390625
-50.35400390625
-62.255859375
-68.66455078125
-73.2421875
-79.65087890625
-82.3974609375
-86.0595703125
-93.3837890625
-97.0458984375
-95.21484375
-100.7080078125
-109.86328125
-109.86328125
-111.6943359375
-113.525390625
-121.76513671875
-130.0048828125
-130.92041015625
-127.25830078125
-127.25830078125
-130.0048828125
-132.75146484375
-128.173828125
-128.173828125
-126.3427734375
-122.6806640625
-135.498046875
-139.16015625
-133.6669921875
-124.51171875
-121.76513671875
-130.0048828125
-134.58251953125
-128.173828125
-125.42724609375
-129.08935546875
-132.75146484375
-121.76513671875
-119.0185546875
-126.3427734375
-123.59619140625
-124.51171875
-118.10302734375
-117.1875
-122.6806640625
-119.93408203125
-119.93408203125
-123.59619140625
-122.6806640625
-114.44091796875
-113.525390625
-114.44091796875
-112.60986328125
-112.60986328125
-111.6943359375
-112.60986328125
-113.525390625
-112.60986328125
-107.11669921875
-111.6943359375
-119.93408203125
-118.10302734375
-114.44091796875
-106.201171875
-101.62353515625
-106.201171875
-108.94775390625
-112.60986328125
-115.3564453125
-107.11669921875
-103.45458984375
-97.96142578125
-103.45458984375
-108.0322265625
-105.28564453125
-101.62353515625
-110.77880859375
-109.86328125
-108.0322265625
-108.94775390625
-108.94775390625
-119.0185546875
-118.10302734375
-117.1875
-119.0185546875
-119.93408203125
-127.25830078125
-123.59619140625
-118.10302734375
-119.93408203125
-114.44091796875
-117.1875
-114.44091796875
-113.525390625
-118.10302734375
-112.60986328125
-127.25830078125
-126.3427734375
-119.0185546875
-118.10302734375
-123.59619140625
-130.0048828125
-129.08935546875
-128.173828125
-128.173828125
-127.25830078125
-136.41357421875
-136.41357421875
-131.8359375
-132.75146484375
-135.498046875
-140.9912109375
-135.498046875
-131.8359375
-130.0048828125
-131.8359375
-140.07568359375
-141.90673828125
-133.6669921875
-135.498046875
-133.6669921875
-144.6533203125
-144.6533203125
-142.822265625
-138.24462890625
-143.73779296875
-148.3154296875
-144.6533203125
-142.822265625
-140.9912109375
-143.73779296875
-146.484375
-147.39990234375
-144.6533203125
-149.23095703125
-153.80859375
-151.9775390625
-147.39990234375
-141.90673828125
-143.73779296875
-140.9912109375
-132.75146484375
-132.75146484375
-133.6669921875
-141.90673828125
-143.73779296875
-145.56884765625
-136.41357421875
-138.24462890625
-141.90673828125
-146.484375
-145.56884765625
-138.24462890625
-134.58251953125
-129.08935546875
-136.41357421875
-151.9775390625
-146.484375
-136.41357421875
-129.08935546875
-130.92041015625
-143.73779296875
-153.80859375
-143.73779296875
-132.75146484375
-133.6669921875
-135.498046875
-139.16015625
-148.3154296875
-144.6533203125
-140.9912109375
-140.07568359375
-139.16015625
-144.6533203125
-139.16015625
-140.9912109375
-141.90673828125
-139.16015625
-140.9912109375
-145.56884765625
-140.9912109375
-136.41357421875
-133.6669921875
-130.0048828125
-128.173828125
-133.6669921875
-151.9775390625
-153.80859375
-142.822265625
-147.39990234375
-151.9775390625
-149.23095703125
-148.3154296875
-139.16015625
-132.75146484375
-129.08935546875
-133.6669921875
-132.75146484375
-130.92041015625
-123.59619140625
-132.75146484375
-130.92041015625
-114.44091796875
-101.62353515625
-100.7080078125
-119.93408203125
-114.44091796875
-104.3701171875
-103.45458984375
-97.96142578125
-118.10302734375
-154.72412109375
-160.21728515625
-149.23095703125
-125.42724609375
-109.86328125
-106.201171875
-94.29931640625
-85.14404296875
-84.228515625
-92.46826171875
-120.849609375
-126.3427734375
-119.0185546875
-128.173828125
-132.75146484375
-134.58251953125
-133.6669921875
-130.92041015625
-133.6669921875
-128.173828125
-136.41357421875
-133.6669921875
-132.75146484375
-140.07568359375
-137.3291015625
-139.16015625
-133.6669921875
-130.0048828125
-125.42724609375
-123.59619140625
-125.42724609375
-127.25830078125
-130.92041015625
-134.58251953125
-147.39990234375
-167.54150390625
-177.6123046875
-184.9365234375
-186.767578125
-182.18994140625
-182.18994140625
-182.18994140625
-176.69677734375
-173.03466796875
-177.6123046875
-188.5986328125
-185.85205078125
-177.6123046875
-168.45703125
-172.119140625
-176.69677734375
-183.10546875
-179.443359375
-173.9501953125
-175.78125
-181.2744140625
-179.443359375
-187.68310546875
-167.54150390625
-175.78125
-180.35888671875
-177.6123046875
-173.9501953125
-164.794921875
-165.71044921875
-175.78125
-173.9501953125
-173.9501953125
-169.37255859375
-176.69677734375
-189.51416015625
-190.4296875
-182.18994140625
-194.091796875
-210.5712890625
-221.5576171875
-232.5439453125
-247.1923828125
-270.08056640625
-261.8408203125
-245.361328125
-213.31787109375
-131.8359375
-10.986328125
134.58251953125
281.982421875
437.6220703125
606.99462890625
769.95849609375
880.7373046875
937.5
964.9658203125
971.37451171875
949.40185546875
901.79443359375
830.38330078125
661.0107421875
411.07177734375
182.18994140625
-31.1279296875
-212.40234375
-278.3203125
-256.34765625
-219.7265625
-190.4296875
-173.9501953125
-122.6806640625
-80.56640625
-58.59375
-53.1005859375
-56.7626953125
-52.18505859375
-54.01611328125
-54.931640625
-60.4248046875
-68.66455078125
-74.15771484375
-75.0732421875
-74.15771484375
-75.0732421875
-88.80615234375
-84.228515625
-79.65087890625
-78.7353515625
-78.7353515625
-83.31298828125
-81.48193359375
-77.81982421875
-75.0732421875
-75.0732421875
-70.49560546875
-77.81982421875
-76.904296875
-69.580078125
-65.00244140625
-69.580078125
-75.0732421875
-77.81982421875
-75.0732421875
-66.83349609375
-72.32666015625
-67.7490234375
-62.255859375
-52.18505859375
-46.69189453125
-57.67822265625
-57.67822265625
-50.35400390625
-52.18505859375
-46.69189453125
-48.52294921875
-43.02978515625
-37.53662109375
-32.04345703125
-27.4658203125
-32.04345703125
-32.958984375
-23.8037109375
-14.6484375
-10.986328125
-7.32421875
-3.662109375
0
2.74658203125
5.4931640625
6.40869140625
12.8173828125
19.22607421875
31.1279296875
33.87451171875
39.36767578125
41.19873046875
54.931640625
67.7490234375
70.49560546875
77.81982421875
77.81982421875
79.65087890625
94.29931640625
112.60986328125
119.0185546875
125.42724609375
136.41357421875
150.146484375
162.9638671875
154.72412109375
169.37255859375
184.9365234375
190.4296875
208.740234375
211.48681640625
216.064453125
230.712890625
240.78369140625
247.1923828125
242.61474609375
253.60107421875
261.8408203125
267.333984375
270.99609375
261.8408203125
266.41845703125
276.4892578125
280.1513671875
280.1513671875
275.57373046875
275.57373046875
277.40478515625
272.8271484375
268.24951171875
256.34765625
250.8544921875
245.361328125
241.69921875
223.388671875
201.416015625
185.85205078125
174.86572265625
164.794921875
149.23095703125
130.0048828125
115.3564453125
97.96142578125
79.65087890625
65.00244140625
38.4521484375
22.88818359375
12.8173828125
5.4931640625
-6.40869140625
-22.88818359375
-32.958984375
-44.86083984375
-51.26953125
-58.59375
-74.15771484375
-84.228515625
-83.31298828125
-86.0595703125
-96.13037109375
-103.45458984375
-113.525390625
-114.44091796875
-115.3564453125
-121.76513671875
-123.59619140625
-125.42724609375
-128.173828125
-122.6806640625
-129.08935546875
-140.9912109375
-134.58251953125
-130.92041015625
-127.25830078125
-133.6669921875
-144.6533203125
-140.07568359375
-142.822265625
-139.16015625
-137.3291015625
-140.9912109375
-142.822265625
-142.822265625
-136.41357421875
-133.6669921875
-142.822265625
-151.06201171875
-146.484375
-137.3291015625
-143.73779296875
-148.3154296875
-141.90673828125
-129.08935546875
-127.25830078125
-129.08935546875
-134.58251953125
-136.41357421875
-128.173828125
-127.25830078125
-124.51171875
-130.0048828125
-140.9912109375
-130.92041015625
-126.3427734375
-122.6806640625
-125.42724609375
-130.92041015625
-124.51171875
-113.525390625
-114.44091796875
-122.6806640625
-125.42724609375
-120.849609375
-122.6806640625
-119.93408203125
-122.6806640625
-121.76513671875
-117.1875
-110.77880859375
-114.44091796875
-120.849609375
-119.93408203125
-119.93408203125
-126.3427734375
-120.849609375
-109.86328125
-108.0322265625
-105.28564453125
-113.525390625
-118.10302734375
-121.76513671875
-116.27197265625
-115.3564453125
-114.44091796875
-116.27197265625
-119.93408203125
-124.51171875
-120.849609375
-126.3427734375
-121.76513671875
-121.76513671875
-128.173828125
-120.849609375
-116.27197265625
-121.76513671875
-130.92041015625
-127.25830078125
-129.08935546875
-130.92041015625
-130.0048828125
-138.24462890625
-128.173828125
-119.0185546875
-127.25830078125
-130.0048828125
-138.24462890625
-130.92041015625
-132.75146484375
-136.41357421875
-126.3427734375
-130.0048828125
-133.6669921875
-134.58251953125
-124.51171875
-116.27197265625
-133.6669921875
-140.07568359375
-141.90673828125
-137.3291015625
-137.3291015625
-138.24462890625
-144.6533203125
-140.07568359375
-132.75146484375
-136.41357421875
-140.9912109375
-144.6533203125
-141.90673828125
-136.41357421875
-140.07568359375
-142.822265625
-147.39990234375
-140.9912109375
-134.58251953125
-138.24462890625
-147.39990234375
-146.484375
-143.73779296875
-141.90673828125
-142.822265625
-148.3154296875
-150.146484375
-146.484375
-144.6533203125
-149.23095703125
-148.3154296875
-145.56884765625
-147.39990234375
-144.6533203125
-145.56884765625
-150.146484375
-144.6533203125
-142.822265625
-144.6533203125
-140.9912109375
-151.9775390625
-156.55517578125
-151.9775390625
-144.6533203125
-139.16015625
-149.23095703125
-148.3154296875
-144.6533203125
-142.822265625
-142.822265625
-149.23095703125
-155.6396484375
-157.470703125
-147.39990234375
-151.9775390625
-153.80859375
-151.06201171875
-140.9912109375
-144.6533203125
-145.56884765625
-151.06201171875
-151.06201171875
-150.146484375
-145.56884765625
-146.484375
-150.146484375
-147.39990234375
-141.90673828125
-143.73779296875
-145.56884765625
-149.23095703125
-150.146484375
-151.9775390625
-150.146484375
-150.146484375
-152.89306640625
-151.06201171875
-150.146484375
-152.89306640625
-152.89306640625
-146.484375
-149.23095703125
-147.39990234375
-149.23095703125
-147.39990234375
-151.06201171875
-151.06201171875
-157.470703125
-151.06201171875
-147.39990234375
-150.146484375
-147.39990234375
-140.9912109375
-136.41357421875
-134.58251953125
-140.07568359375
-146.484375
-149.23095703125
-156.55517578125
-158.38623046875
-157.470703125
-154.72412109375
-155.6396484375
-146.484375
-135.498046875
-123.59619140625
-104.3701171875
-108.94775390625
-129.08935546875
-137.3291015625
-151.9775390625
-160.21728515625
-169.37255859375
-165.71044921875
-157.470703125
-148.3154296875
-140.9912109375
-138.24462890625
-138.24462890625
-133.6669921875
-140.07568359375
-143.73779296875
-140.07568359375
-138.24462890625
-137.3291015625
-140.07568359375
-140.07568359375
-137.3291015625
-124.51171875
-116.27197265625
-117.1875
-119.93408203125
-121.76513671875
-127.25830078125
-139.16015625
-151.06201171875
-164.794921875
-166.6259765625
-163.87939453125
-162.04833984375
-171.20361328125
-167.54150390625
-159.3017578125
-152.89306640625
-154.72412109375
-155.6396484375
-157.470703125
-152.89306640625
-153.80859375
-151.06201171875
-153.80859375
-151.9775390625
-151.06201171875
-147.39990234375
-143.73779296875
-154.72412109375
-157.470703125
-150.146484375
-146.484375
-140.9912109375
-147.39990234375
-143.73779296875
-140.9912109375
-141.90673828125
-139.16015625
-139.16015625
-138.24462890625
-140.9912109375
-146.484375
-149.23095703125
-158.38623046875
-165.71044921875
-174.86572265625
-179.443359375
-194.091796875
-222.47314453125
-241.69921875
-242.61474609375
-218.81103515625
-192.2607421875
-152.89306640625
-38.4521484375
109.86328125
256.34765625
422.9736328125
585.02197265625
748.9013671875
888.0615234375
964.05029296875
993.34716796875
991.51611328125
972.2900390625
921.0205078125
867.00439453125
736.99951171875
490.72265625
254.5166015625
29.296875
-143.73779296875
-243.5302734375
-250.8544921875
-216.064453125
-173.9501953125
-150.146484375
-118.10302734375
-80.56640625
-49.4384765625
-40.283203125
-40.283203125
-31.1279296875
-37.53662109375
-34.7900390625
-37.53662109375
-40.283203125
-41.19873046875
-49.4384765625
-51.26953125
-52.18505859375
-51.26953125
-50.35400390625
-58.59375
-55.84716796875
-62.255859375
-56.7626953125
-50.35400390625
-55.84716796875
-58.59375
-55.84716796875
-49.4384765625
-41.19873046875
-53.1005859375
-55.84716796875
-49.4384765625
-47.607421875
-42.1142578125
-43.9453125
-43.9453125
-44.86083984375
-41.19873046875
-39.36767578125
-50.35400390625
-41.19873046875
-29.296875
-29.296875
-24.71923828125
-23.8037109375
-24.71923828125
-21.05712890625
-17.39501953125
-16.4794921875
-9.1552734375
-12.8173828125
-7.32421875
-0.91552734375
1.8310546875
-2.74658203125
1.8310546875
7.32421875
14.6484375
23.8037109375
19.22607421875
18.310546875
29.296875
43.9453125
49.4384765625
42.1142578125
48.52294921875
53.1005859375
66.83349609375
79.65087890625
72.32666015625
83.31298828125
98.876953125
97.96142578125
96.13037109375
103.45458984375
114.44091796875
131.8359375
152.89306640625
159.3017578125
159.3017578125
173.03466796875
180.35888671875
194.091796875
211.48681640625
213.31787109375
214.2333984375
222.47314453125
231.62841796875
236.2060546875
236.2060546875
246.27685546875
259.09423828125
266.41845703125
269.1650390625
260.009765625
267.333984375
283.8134765625
298.4619140625
312.19482421875
311.279296875
313.1103515625
321.35009765625
326.84326171875
333.251953125
339.66064453125
338.7451171875
306.70166015625
273.74267578125
275.57373046875
269.1650390625
269.1650390625
268.24951171875
246.27685546875
236.2060546875
217.8955078125
197.75390625
190.4296875
178.52783203125
150.146484375
116.27197265625
101.62353515625
94.29931640625
83.31298828125
75.0732421875
65.91796875
65.91796875
54.931640625
33.87451171875
25.634765625
10.07080078125
0.91552734375
-37.53662109375
-73.2421875
-64.0869140625
-55.84716796875
-56.7626953125
-65.00244140625
-52.18505859375
-45.7763671875
-75.0732421875
-95.21484375
-82.3974609375
-93.3837890625
-134.58251953125
-128.173828125
-116.27197265625
-108.94775390625
-91.552734375
-75.0732421875
-70.49560546875
-62.255859375
-55.84716796875
-91.552734375
-169.37255859375
-191.34521484375
-140.07568359375
-110.77880859375
-115.3564453125
-114.44091796875
-118.10302734375
-114.44091796875
-118.10302734375
-120.849609375
-118.10302734375
-108.94775390625
-114.44091796875
-117.1875
-120.849609375
-108.0322265625
-102.5390625
-102.5390625
-106.201171875
-94.29931640625
-92.46826171875
-97.0458984375
-107.11669921875
-108.0322265625
-108.0322265625
-99.79248046875
-98.876953125
-86.97509765625
-81.48193359375
-75.98876953125
-69.580078125
-72.32666015625
-75.98876953125
-95.21484375
-103.45458984375
-99.79248046875
-107.11669921875
-111.6943359375
-117.1875
-108.94775390625
-107.11669921875
-102.5390625
-95.21484375
-86.97509765625
-72.32666015625
-63.17138671875
-69.580078125
-82.3974609375
-124.51171875
-101.62353515625
-65.91796875
-85.14404296875
-89.7216796875
-69.580078125
-93.3837890625
-130.92041015625
-135.498046875
-97.0458984375
-81.48193359375
-70.49560546875
-63.17138671875
-71.4111328125
-106.201171875
-144.6533203125
-123.59619140625
-91.552734375
-97.96142578125
-107.11669921875
-111.6943359375
-110.77880859375
-101.62353515625
-101.62353515625
-112.60986328125
-114.44091796875
-116.27197265625
-109.86328125
-113.525390625
-114.44091796875
-118.10302734375
-119.93408203125
-108.94775390625
-107.11669921875
-106.201171875
-98.876953125
-83.31298828125
-80.56640625
-80.56640625
-79.65087890625
-90.63720703125
-115.3564453125
-130.92041015625
-141.90673828125
-147.39990234375
-119.0185546875
-113.525390625
-108.94775390625
-105.28564453125
-108.0322265625
-105.28564453125
-103.45458984375
-110.77880859375
-135.498046875
-125.42724609375
-130.92041015625
-131.8359375
-119.0185546875
-112.60986328125
-113.525390625
-105.28564453125
-98.876953125
-104.3701171875
-114.44091796875
-139.16015625
-148.3154296875
-126.3427734375
-113.525390625
-117.1875
-127.25830078125
-124.51171875
-117.1875
-118.10302734375
-122.6806640625
-123.59619140625
-118.10302734375
-117.1875
-128.173828125
-127.25830078125
-126.3427734375
-125.42724609375
-121.76513671875
-117.1875
-128.173828125
-133.6669921875
-122.6806640625
-111.6943359375
-114.44091796875
-130.0048828125
-135.498046875
-117.1875
-113.525390625
-118.10302734375
-137.3291015625
-123.59619140625
-129.08935546875
-132.75146484375
-141.90673828125
-144.6533203125
-142.822265625
-129.08935546875
-126.3427734375
-127.25830078125
-125.42724609375
-120.849609375
-121.76513671875
-117.1875
-114.44091796875
-112.60986328125
-113.525390625
-113.525390625
-111.6943359375
-120.849609375
-122.6806640625
-113.525390625
-113.525390625
-111.6943359375
-110.77880859375
-119.0185546875
-118.10302734375
-116.27197265625
-119.93408203125
-111.6943359375
-109.86328125
-113.525390625
-119.0185546875
-126.3427734375
-118.10302734375
-120.849609375
-125.42724609375
-121.76513671875
-111.6943359375
-110.77880859375
-108.0322265625
-104.3701171875
-100.7080078125
-96.13037109375
-91.552734375
-94.29931640625
-119.0185546875
-140.07568359375
-120.849609375
-109.86328125
-112.60986328125
-128.173828125
-136.41357421875
-138.24462890625
-131.8359375
-121.76513671875
-107.11669921875
-106.201171875
-97.0458984375
-86.0595703125
-88.80615234375
-98.876953125
-103.45458984375
-130.92041015625
-144.6533203125
-151.06201171875
-150.146484375
-136.41357421875
-122.6806640625
-114.44091796875
-124.51171875
-130.0048828125
-136.41357421875
-154.72412109375
-149.23095703125
-131.8359375
-130.92041015625
-128.173828125
-130.92041015625
-141.90673828125
-140.9912109375
-132.75146484375
-112.60986328125
-109.86328125
-107.11669921875
-105.28564453125
-117.1875
-119.93408203125
-139.16015625
-158.38623046875
-155.6396484375
-161.1328125
-162.04833984375
-151.9775390625
-152.89306640625
-145.56884765625
-147.39990234375
-151.9775390625
-140.07568359375
-143.73779296875
-148.3154296875
-146.484375
-146.484375
-144.6533203125
-143.73779296875
-147.39990234375
-150.146484375
-148.3154296875
-140.07568359375
-143.73779296875
-151.06201171875
-144.6533203125
-143.73779296875
-145.56884765625
-150.146484375
-147.39990234375
-139.16015625
-124.51171875
-128.173828125
-132.75146484375
-130.92041015625
-136.41357421875
-140.07568359375
-149.23095703125
-152.89306640625
-163.87939453125
-181.2744140625
-195.00732421875
-209.65576171875
-235.29052734375
-250.8544921875
-230.712890625
-199.5849609375
-149.23095703125
-48.52294921875
91.552734375
238.037109375
401.0009765625
568.54248046875
746.15478515625
880.7373046875
965.88134765625
1003.41796875
1012.5732421875
1007.99560546875
962.21923828125
923.76708984375
802.91748046875
556.640625
315.85693359375
96.13037109375
-88.80615234375
-221.5576171875
-236.2060546875
-212.40234375
-165.71044921875
-160.21728515625
-140.07568359375
-103.45458984375
-72.32666015625
-53.1005859375
-39.36767578125
-23.8037109375
-28.38134765625
-31.1279296875
-24.71923828125
-32.04345703125
-42.1142578125
-44.86083984375
-46.69189453125
-52.18505859375
-53.1005859375
-46.69189453125
-47.607421875
-54.01611328125
-54.931640625
-55.84716796875
-48.52294921875
-56.7626953125
-55.84716796875
-57.67822265625
-57.67822265625
-52.18505859375
-46.69189453125
-43.9453125
-43.9453125
-40.283203125
-41.19873046875
-37.53662109375
-47.607421875
-50.35400390625
-39.36767578125
-34.7900390625
-31.1279296875
-24.71923828125
-29.296875
-29.296875
-19.22607421875
-19.22607421875
-21.97265625
-21.05712890625
-17.39501953125
-20.1416015625
-16.4794921875
-12.8173828125
-9.1552734375
-11.90185546875
0
-3.662109375
-1.8310546875
5.4931640625
12.8173828125
30.21240234375
31.1279296875
30.21240234375
29.296875
29.296875
44.86083984375
50.35400390625
49.4384765625
56.7626953125
61.34033203125
70.49560546875
75.0732421875
86.0595703125
96.13037109375
99.79248046875
107.11669921875
118.10302734375
120.849609375
130.92041015625
143.73779296875
146.484375
151.9775390625
162.9638671875
181.2744140625
185.85205078125
198.66943359375
197.75390625
205.99365234375
210.5712890625
224.30419921875
244.44580078125
247.1923828125
254.5166015625
260.92529296875
266.41845703125
277.40478515625
286.56005859375
290.22216796875
284.72900390625
291.1376953125
296.630859375
293.88427734375
291.1376953125
300.29296875
295.71533203125
291.1376953125
291.1376953125
294.7998046875
293.88427734375
281.982421875
274.658203125
272.8271484375
268.24951171875
249.0234375
230.712890625
221.5576171875
213.31787109375
187.68310546875
168.45703125
150.146484375
137.3291015625
130.92041015625
122.6806640625
101.62353515625
84.228515625
58.59375
54.931640625
37.53662109375
11.90185546875
3.662109375
-7.32421875
-16.4794921875
-30.21240234375
-32.958984375
-43.9453125
-51.26953125
-61.34033203125
-69.580078125
-79.65087890625
-90.63720703125
-93.3837890625
-89.7216796875
-97.0458984375
-98.876953125
-91.552734375
-101.62353515625
-108.0322265625
-108.94775390625
-110.77880859375
-113.525390625
-119.93408203125
-122.6806640625
-120.849609375
-118.10302734375
-122.6806640625
-119.93408203125
-119.93408203125
-121.76513671875
-128.173828125
-115.3564453125
-108.94775390625
-119.0185546875
-129.08935546875
-129.08935546875
-120.849609375
-117.1875
-115.3564453125
-106.201171875
-110.77880859375
-115.3564453125
-115.3564453125
-109.86328125
-108.0322265625
-116.27197265625
-123.59619140625
-115.3564453125
-117.1875
-109.86328125
-114.44091796875
-112.60986328125
-112.60986328125
-107.11669921875
-106.201171875
-113.525390625
-109.86328125
-107.11669921875
-104.3701171875
-106.201171875
-103.45458984375
-103.45458984375
-100.7080078125
-99.79248046875
-101.62353515625
-104.3701171875
-107.11669921875
-101.62353515625
-98.876953125
-108.0322265625
-101.62353515625
-85.14404296875
-94.29931640625
-91.552734375
-92.46826171875
-100.7080078125
-99.79248046875
-105.28564453125
-103.45458984375
-96.13037109375
-101.62353515625
-108.0322265625
-104.3701171875
-101.62353515625
-102.5390625
-105.28564453125
-102.5390625
-111.6943359375
-102.5390625
-97.96142578125
-105.28564453125
-108.94775390625
-104.3701171875
-106.201171875
-104.3701171875
-103.45458984375
-107.11669921875
-111.6943359375
-108.94775390625
-107.11669921875
-111.6943359375
-114.44091796875
-113.525390625
-110.77880859375
-109.86328125
-107.11669921875
-111.6943359375
-119.93408203125
-115.3564453125
-111.6943359375
-113.525390625
-111.6943359375
-116.27197265625
-118.10302734375
-111.6943359375
-111.6943359375
-121.76513671875
-125.42724609375
-121.76513671875
-118.10302734375
-121.76513671875
-124.51171875
-122.6806640625
-119.0185546875
-119.0185546875
-116.27197265625
-119.93408203125
-121.76513671875
-120.849609375
-124.51171875
-131.8359375
-128.173828125
-120.849609375
-113.525390625
-119.93408203125
-128.173828125
-136.41357421875
-128.173828125
-124.51171875
-122.6806640625
-126.3427734375
-127.25830078125
-125.42724609375
-129.08935546875
-130.0048828125
-128.173828125
-121.76513671875
-128.173828125
-130.92041015625
-135.498046875
-134.58251953125
-131.8359375
-123.59619140625
-120.849609375
-122.6806640625
-125.42724609375
-123.59619140625
-132.75146484375
-134.58251953125
-131.8359375
-128.173828125
-130.92041015625
-135.498046875
-137.3291015625
-130.0048828125
-125.42724609375
-126.3427734375
-130.92041015625
-129.08935546875
-133.6669921875
-135.498046875
-134.58251953125
-130.92041015625
-131.8359375
-145.56884765625
-141.90673828125
-134.58251953125
-130.92041015625
-130.0048828125
-138.24462890625
-134.58251953125
-131.8359375
-132.75146484375
-137.3291015625
-133.6669921875
-119.0185546875
-119.93408203125
-126.3427734375
-135.498046875
-135.498046875
-130.92041015625
-130.0048828125
-133.6669921875
-127.25830078125
-122.6806640625
-125.42724609375
-123.59619140625
-120.849609375
-119.93408203125
-119.0185546875
-117.1875
-133.6669921875
-138.24462890625
-141.90673828125
-145.56884765625
-140.07568359375
-139.16015625
-132.75146484375
-127.25830078125
-111.6943359375
-97.0458984375
-95.21484375
-107.11669921875
-119.93408203125
-126.3427734375
-136.41357421875
-143.73779296875
-147.39990234375
-140.07568359375
-130.92041015625
-128.173828125
-127.25830078125
-123.59619140625
-121.76513671875
-128.173828125
-130.0048828125
-128.173828125
-117.1875
-121.76513671875
-123.59619140625
-118.10302734375
-118.10302734375
-119.93408203125
-115.3564453125
-104.3701171875
-97.96142578125
-102.5390625
-122.6806640625
-131.8359375
-136.41357421875
-148.3154296875
