ECG
101.62353515625
107.11669921875
113.525390625
119.0185546875
126.3427734375
133.6669921875
142.822265625
151.06201171875
162.04833984375
176.69677734375
189.51416015625
199.5849609375
209.65576171875
222.47314453125
224.30419921875
229.79736328125
244.44580078125
255.43212890625
265.5029296875
270.08056640625
279.23583984375
281.982421875
291.1376953125
296.630859375
295.71533203125
298.4619140625
302.1240234375
306.70166015625
306.70166015625
305.7861328125
314.02587890625
315.85693359375
316.7724609375
315.85693359375
315.85693359375
308.53271484375
304.87060546875
301.20849609375
296.630859375
283.8134765625
271.91162109375
258.1787109375
247.1923828125
228.8818359375
210.5712890625
193.17626953125
182.18994140625
165.71044921875
146.484375
130.0048828125
105.28564453125
82.3974609375
65.00244140625
53.1005859375
40.283203125
27.4658203125
11.90185546875
-0.91552734375
-15.56396484375
-28.38134765625
-37.53662109375
-45.7763671875
-51.26953125
-65.00244140625
-76.904296875
-85.14404296875
-91.552734375
-91.552734375
-94.29931640625
-90.63720703125
-96.13037109375
-97.0458984375
-102.5390625
-105.28564453125
-102.5390625
-112.60986328125
-112.60986328125
-110.77880859375
-114.44091796875
-114.44091796875
-119.0185546875
-120.849609375
-121.76513671875
-120.849609375
-128.173828125
-125.42724609375
-125.42724609375
-127.25830078125
-126.3427734375
-125.42724609375
-120.849609375
-130.0048828125
-127.25830078125
-126.3427734375
-120.849609375
-119.93408203125
-119.0185546875
-119.93408203125
-119.0185546875
-122.6806640625
-120.849609375
-120.849609375
-115.3564453125
-117.1875
-117.1875
-116.27197265625
-111.6943359375
-115.3564453125
-118.10302734375
-113.525390625
-112.60986328125
-111.6943359375
-115.3564453125
-115.3564453125
-112.60986328125
-112.60986328125
-112.60986328125
-106.201171875
-98.876953125
-105.28564453125
-104.3701171875
-103.45458984375
-108.94775390625
-111.6943359375
-108.94775390625
-103.45458984375
-104.3701171875
-98.876953125
-105.28564453125
-107.11669921875
-101.62353515625
-101.62353515625
-104.3701171875
-106.201171875
-102.5390625
-105.28564453125
-104.3701171875
-105.28564453125
-107.11669921875
-104.3701171875
-102.5390625
-105.28564453125
-101.62353515625
-105.28564453125
-107.11669921875
-108.94775390625
-108.94775390625
-109.86328125
-113.525390625
-115.3564453125
-113.525390625
-118.10302734375
-115.3564453125
-112.60986328125
-111.6943359375
-118.10302734375
-118.10302734375
-115.3564453125
-118.10302734375
-116.27197265625
-118.10302734375
-119.0185546875
-116.27197265625
-119.0185546875
-120.849609375
-125.42724609375
-122.6806640625
-119.0185546875
-118.10302734375
-119.0185546875
-125.42724609375
-122.6806640625
-126.3427734375
-119.93408203125
-114.44091796875
-124.51171875
-130.0048828125
-125.42724609375
-125.42724609375
-124.51171875
-127.25830078125
-128.173828125
-131.8359375
-130.92041015625
-129.08935546875
-128.173828125
-131.8359375
-125.42724609375
-126.3427734375
-130.0048828125
-129.08935546875
-130.92041015625
-136.41357421875
-138.24462890625
-130.0048828125
-132.75146484375
-132.75146484375
-135.498046875
-130.0048828125
-130.0048828125
-129.08935546875
-125.42724609375
-130.0048828125
-134.58251953125
-137.3291015625
-138.24462890625
-129.08935546875
-130.92041015625
-137.3291015625
-141.90673828125
-135.498046875
-137.3291015625
-135.498046875
-138.24462890625
-142.822265625
-140.9912109375
-132.75146484375
-138.24462890625
-138.24462890625
-138.24462890625
-140.9912109375
-132.75146484375
-133.6669921875
-134.58251953125
-138.24462890625
-135.498046875
-136.41357421875
-137.3291015625
-134.58251953125
-136.41357421875
-140.07568359375
-138.24462890625
-138.24462890625
-139.16015625
-140.07568359375
-135.498046875
-137.3291015625
-137.3291015625
-134.58251953125
-134.58251953125
-136.41357421875
-135.498046875
-137.3291015625
-138.24462890625
-134.58251953125
-134.58251953125
-140.07568359375
-137.3291015625
-130.0048828125
-133.6669921875
-138.24462890625
-139.16015625
-134.58251953125
-131.8359375
-138.24462890625
-134.58251953125
-136.41357421875
-138.24462890625
-142.822265625
-134.58251953125
-138.24462890625
-140.07568359375
-130.92041015625
-134.58251953125
-139.16015625
-133.6669921875
-130.92041015625
-133.6669921875
-135.498046875
-134.58251953125
-134.58251953125
-134.58251953125
-137.3291015625
-136.41357421875
-141.90673828125
-140.07568359375
-135.498046875
-136.41357421875
-133.6669921875
-138.24462890625
-129.08935546875
-130.92041015625
-133.6669921875
-137.3291015625
-136.41357421875
-133.6669921875
-133.6669921875
-134.58251953125
-132.75146484375
-137.3291015625
-136.41357421875
-124.51171875
-56.7626953125
-75.0732421875
-102.5390625
-102.5390625
-107.11669921875
-98.876953125
-86.97509765625
-83.31298828125
-83.31298828125
-86.0595703125
-85.14404296875
-82.3974609375
-83.31298828125
-90.63720703125
-94.29931640625
-96.13037109375
-97.96142578125
-97.0458984375
-94.29931640625
-86.0595703125
-75.0732421875
-73.2421875
-75.0732421875
-73.2421875
-75.98876953125
-76.904296875
-75.98876953125
-75.0732421875
-71.4111328125
-73.2421875
-75.98876953125
-86.97509765625
-92.46826171875
-91.552734375
-90.63720703125
-88.80615234375
-94.29931640625
-101.62353515625
-107.11669921875
-115.3564453125
-130.0048828125
-130.0048828125
-134.58251953125
-138.24462890625
-148.3154296875
-150.146484375
-144.6533203125
-146.484375
-142.822265625
-143.73779296875
-142.822265625
-140.9912109375
-142.822265625
-148.3154296875
-147.39990234375
-143.73779296875
-142.822265625
-139.16015625
-140.9912109375
-145.56884765625
-146.484375
-138.24462890625
-135.498046875
-138.24462890625
-141.90673828125
-146.484375
-138.24462890625
-139.16015625
-137.3291015625
-132.75146484375
-133.6669921875
-129.08935546875
-129.08935546875
-130.92041015625
-132.75146484375
-140.07568359375
-140.9912109375
-139.16015625
-145.56884765625
-150.146484375
-159.3017578125
-174.86572265625
-178.52783203125
-200.50048828125
-219.7265625
-236.2060546875
-234.375
-214.2333984375
-184.02099609375
-111.6943359375
17.39501953125
172.119140625
334.16748046875
505.37109375
674.74365234375
847.7783203125
990.6005859375
1072.08251953125
1116.02783203125
1130.67626953125
1116.943359375
1064.75830078125
998.84033203125
822.1435546875
564.88037109375
311.279296875
87.890625
-103.45458984375
-214.2333984375
-211.48681640625
-178.52783203125
-147.39990234375
-140.07568359375
-115.3564453125
-82.3974609375
-54.01611328125
-41.19873046875
-34.7900390625
-39.36767578125
-30.21240234375
-32.958984375
-38.4521484375
-42.1142578125
-49.4384765625
-50.35400390625
-53.1005859375
-60.4248046875
-57.67822265625
-56.7626953125
-55.84716796875
-59.50927734375
-58.59375
-55.84716796875
-62.255859375
-63.17138671875
-63.17138671875
-59.50927734375
-57.67822265625
-54.931640625
-53.1005859375
-52.18505859375
-54.931640625
-54.01611328125
-50.35400390625
-53.1005859375
-51.26953125
-45.7763671875
-43.9453125
-42.1142578125
-36.62109375
-32.04345703125
-34.7900390625
-34.7900390625
-31.1279296875
-32.958984375
-42.1142578125
-30.21240234375
-25.634765625
-21.05712890625
-17.39501953125
-9.1552734375
-6.40869140625
-0.91552734375
1.8310546875
0.91552734375
0
-0.91552734375
10.986328125
16.4794921875
19.22607421875
23.8037109375
30.21240234375
42.1142578125
37.53662109375
40.283203125
43.02978515625
51.26953125
58.59375
61.34033203125
72.32666015625
80.56640625
86.97509765625
97.96142578125
103.45458984375
105.28564453125
116.27197265625
128.173828125
138.24462890625
144.6533203125
160.21728515625
169.37255859375
173.9501953125
186.767578125
195.00732421875
205.99365234375
217.8955078125
233.45947265625
238.037109375
250.8544921875
268.24951171875
273.74267578125
281.982421875
292.96875
304.87060546875
304.87060546875
307.6171875
315.85693359375
320.4345703125
327.7587890625
334.16748046875
337.82958984375
330.50537109375
333.251953125
338.7451171875
350.64697265625
347.900390625
341.49169921875
339.66064453125
333.251953125
327.7587890625
329.58984375
326.84326171875
311.279296875
298.4619140625
287.4755859375
272.8271484375
263.671875
241.69921875
227.05078125
212.40234375
190.4296875
173.03466796875
160.21728515625
138.24462890625
125.42724609375
112.60986328125
93.3837890625
73.2421875
60.4248046875
41.19873046875
24.71923828125
15.56396484375
9.1552734375
-9.1552734375
-21.97265625
-32.04345703125
-33.87451171875
-32.958984375
-43.9453125
-52.18505859375
-56.7626953125
-64.0869140625
-71.4111328125
-76.904296875
-78.7353515625
-77.81982421875
-82.3974609375
-86.0595703125
-89.7216796875
-86.97509765625
-88.80615234375
-92.46826171875
-97.0458984375
-100.7080078125
-104.3701171875
-108.0322265625
-108.0322265625
-108.94775390625
-101.62353515625
-102.5390625
-99.79248046875
-91.552734375
-92.46826171875
-101.62353515625
-104.3701171875
-103.45458984375
-101.62353515625
-96.13037109375
-96.13037109375
-97.96142578125
-100.7080078125
-103.45458984375
-105.28564453125
-104.3701171875
-104.3701171875
-97.96142578125
-95.21484375
-93.3837890625
-93.3837890625
-95.21484375
-88.80615234375
-93.3837890625
-87.890625
-94.29931640625
-101.62353515625
-95.21484375
-95.21484375
-99.79248046875
-96.13037109375
-89.7216796875
-89.7216796875
-93.3837890625
-88.80615234375
-90.63720703125
-92.46826171875
-91.552734375
-85.14404296875
-84.228515625
-90.63720703125
-89.7216796875
-83.31298828125
-91.552734375
-91.552734375
-96.13037109375
-91.552734375
-92.46826171875
-95.21484375
-92.46826171875
-89.7216796875
-86.97509765625
-86.0595703125
-91.552734375
-87.890625
-89.7216796875
-86.97509765625
-92.46826171875
-90.63720703125
-94.29931640625
-92.46826171875
-90.63720703125
-90.63720703125
-92.46826171875
-87.890625
-86.0595703125
-96.13037109375
-98.876953125
-102.5390625
-100.7080078125
-101.62353515625
-94.29931640625
-91.552734375
-91.552734375
-94.29931640625
-93.3837890625
-95.21484375
-96.13037109375
-97.96142578125
-102.5390625
-103.45458984375
-100.7080078125
-103.45458984375
-103.45458984375
-105.28564453125
-108.0322265625
-105.28564453125
-101.62353515625
-105.28564453125
-108.0322265625
-111.6943359375
-109.86328125
-100.7080078125
-99.79248046875
-114.44091796875
-120.849609375
-120.849609375
-117.1875
-116.27197265625
-115.3564453125
-111.6943359375
-108.94775390625
-110.77880859375
-109.86328125
-109.86328125
-113.525390625
-117.1875
-116.27197265625
-116.27197265625
-118.10302734375
-114.44091796875
-114.44091796875
-113.525390625
-120.849609375
-114.44091796875
-113.525390625
-117.1875
-119.0185546875
-116.27197265625
-117.1875
-113.525390625
-118.10302734375
-119.0185546875
-118.10302734375
-112.60986328125
-117.1875
-122.6806640625
-120.849609375
-121.76513671875
-122.6806640625
-119.0185546875
-115.3564453125
-110.77880859375
-111.6943359375
-123.59619140625
-123.59619140625
-127.25830078125
-123.59619140625
-117.1875
-122.6806640625
-125.42724609375
-125.42724609375
-128.173828125
-122.6806640625
-108.94775390625
-117.1875
-119.0185546875
-120.849609375
-119.0185546875
-119.0185546875
-121.76513671875
-118.10302734375
-120.849609375
-125.42724609375
-121.76513671875
-123.59619140625
-127.25830078125
-125.42724609375
-127.25830078125
-123.59619140625
-119.0185546875
-115.3564453125
-118.10302734375
-120.849609375
-119.93408203125
-123.59619140625
-124.51171875
-128.173828125
-123.59619140625
-121.76513671875
-128.173828125
-126.3427734375
-121.76513671875
-119.93408203125
-121.76513671875
-128.173828125
-131.8359375
-130.92041015625
-127.25830078125
-122.6806640625
-122.6806640625
-114.44091796875
-115.3564453125
-117.1875
-119.0185546875
-127.25830078125
-121.76513671875
-125.42724609375
-128.173828125
-129.08935546875
-127.25830078125
-122.6806640625
-115.3564453125
-117.1875
-119.93408203125
-124.51171875
-124.51171875
-122.6806640625
-126.3427734375
-122.6806640625
-120.849609375
-113.525390625
-112.60986328125
-111.6943359375
-118.10302734375
-116.27197265625
-118.10302734375
-125.42724609375
-126.3427734375
-121.76513671875
-122.6806640625
-118.10302734375
-112.60986328125
-104.3701171875
-107.11669921875
-104.3701171875
-104.3701171875
-96.13037109375
-82.3974609375
-72.32666015625
-68.66455078125
-71.4111328125
-75.0732421875
-71.4111328125
-76.904296875
-82.3974609375
-85.14404296875
-86.97509765625
-82.3974609375
-83.31298828125
-78.7353515625
-72.32666015625
-68.66455078125
-63.17138671875
-66.83349609375
-66.83349609375
-72.32666015625
-68.66455078125
-61.34033203125
-59.50927734375
-62.255859375
-63.17138671875
-71.4111328125
-78.7353515625
-79.65087890625
-70.49560546875
-75.0732421875
-74.15771484375
-83.31298828125
-95.21484375
-97.96142578125
-108.0322265625
-127.25830078125
-127.25830078125
-126.3427734375
-124.51171875
-130.0048828125
-134.58251953125
-139.16015625
-140.07568359375
-136.41357421875
-135.498046875
-138.24462890625
-137.3291015625
-134.58251953125
-129.08935546875
-131.8359375
-132.75146484375
-140.07568359375
-143.73779296875
-138.24462890625
-131.8359375
-130.0048828125
-135.498046875
-141.90673828125
-143.73779296875
-146.484375
-141.90673828125
-137.3291015625
-136.41357421875
-130.92041015625
-129.08935546875
-135.498046875
-138.24462890625
-135.498046875
-138.24462890625
-139.16015625
-141.90673828125
-145.56884765625
-136.41357421875
-138.24462890625
-140.07568359375
-152.89306640625
-172.119140625
-182.18994140625
-202.33154296875
-217.8955078125
-231.62841796875
-230.712890625
-204.16259765625
-172.119140625
-87.890625
40.283203125
193.17626953125
357.0556640625
530.09033203125
704.04052734375
877.0751953125
1010.7421875
1080.322265625
1123.35205078125
1135.25390625
1110.53466796875
1057.43408203125
985.107421875
792.8466796875
529.1748046875
287.4755859375
64.0869140625
-126.3427734375
-219.7265625
-201.416015625
-171.20361328125
-143.73779296875
-132.75146484375
-110.77880859375
-83.31298828125
-46.69189453125
-34.7900390625
-34.7900390625
-36.62109375
-34.7900390625
-33.87451171875
-32.958984375
-43.9453125
-51.26953125
-56.7626953125
-57.67822265625
-53.1005859375
-56.7626953125
-54.931640625
-56.7626953125
-60.4248046875
-58.59375
-60.4248046875
-55.84716796875
-61.34033203125
-63.17138671875
-60.4248046875
-56.7626953125
-54.931640625
-54.01611328125
-47.607421875
-49.4384765625
-51.26953125
-48.52294921875
-44.86083984375
-48.52294921875
-44.86083984375
-40.283203125
-40.283203125
-41.19873046875
-40.283203125
-31.1279296875
-26.55029296875
-32.04345703125
-30.21240234375
-32.04345703125
-29.296875
-25.634765625
-21.05712890625
-15.56396484375
-15.56396484375
-9.1552734375
-2.74658203125
-4.57763671875
-1.8310546875
3.662109375
1.8310546875
0.91552734375
11.90185546875
18.310546875
26.55029296875
28.38134765625
34.7900390625
35.70556640625
38.4521484375
45.7763671875
48.52294921875
63.17138671875
68.66455078125
72.32666015625
79.65087890625
83.31298828125
91.552734375
95.21484375
98.876953125
104.3701171875
119.0185546875
134.58251953125
143.73779296875
155.6396484375
163.87939453125
165.71044921875
176.69677734375
188.5986328125
201.416015625
214.2333984375
226.13525390625
237.12158203125
241.69921875
244.44580078125
251.77001953125
269.1650390625
281.06689453125
282.89794921875
288.39111328125
299.37744140625
313.1103515625
317.68798828125
317.68798828125
326.84326171875
328.67431640625
333.251953125
330.50537109375
338.7451171875
338.7451171875
336.9140625
336.9140625
327.7587890625
328.67431640625
333.251953125
325.927734375
311.279296875
302.1240234375
296.630859375
281.982421875
269.1650390625
258.1787109375
239.8681640625
224.30419921875
208.740234375
184.9365234375
166.6259765625
148.3154296875
128.173828125
112.60986328125
97.0458984375
80.56640625
64.0869140625
47.607421875
33.87451171875
17.39501953125
3.662109375
-0.91552734375
-10.986328125
-21.05712890625
-30.21240234375
-48.52294921875
-53.1005859375
-60.4248046875
-67.7490234375
-65.00244140625
-67.7490234375
-72.32666015625
-76.904296875
-81.48193359375
-91.552734375
-92.46826171875
-99.79248046875
-102.5390625
-95.21484375
-95.21484375
-101.62353515625
-99.79248046875
-97.96142578125
-107.11669921875
-108.94775390625
-106.201171875
-112.60986328125
-109.86328125
-110.77880859375
-109.86328125
-111.6943359375
-110.77880859375
-109.86328125
-106.201171875
-103.45458984375
-102.5390625
-108.94775390625
-117.1875
-120.849609375
-117.1875
-108.94775390625
-110.77880859375
-108.94775390625
-98.876953125
-100.7080078125
-99.79248046875
-99.79248046875
-97.96142578125
-98.876953125
-101.62353515625
-104.3701171875
-101.62353515625
-107.11669921875
-99.79248046875
-107.11669921875
-103.45458984375
-103.45458984375
-99.79248046875
-100.7080078125
-102.5390625
-97.96142578125
-94.29931640625
-95.21484375
-97.0458984375
-95.21484375
-97.0458984375
-95.21484375
-97.96142578125
-93.3837890625
-97.96142578125
-97.0458984375
-98.876953125
-96.13037109375
-97.96142578125
-94.29931640625
-95.21484375
-101.62353515625
-97.96142578125
-101.62353515625
-108.94775390625
-107.11669921875
-109.86328125
-104.3701171875
-104.3701171875
-94.29931640625
-97.96142578125
-105.28564453125
-106.201171875
-103.45458984375
-102.5390625
-110.77880859375
-108.0322265625
-108.94775390625
-111.6943359375
-113.525390625
-114.44091796875
-114.44091796875
-117.1875
-115.3564453125
-114.44091796875
-119.0185546875
-123.59619140625
-120.849609375
-125.42724609375
-120.849609375
-116.27197265625
-123.59619140625
-119.93408203125
-126.3427734375
-128.173828125
-129.08935546875
-127.25830078125
-121.76513671875
-129.08935546875
-130.0048828125
-133.6669921875
-140.9912109375
-126.3427734375
-129.08935546875
-136.41357421875
-131.8359375
-132.75146484375
-121.76513671875
-125.42724609375
-138.24462890625
-130.0048828125
-132.75146484375
-131.8359375
-132.75146484375
-132.75146484375
-126.3427734375
-125.42724609375
-126.3427734375
-133.6669921875
-132.75146484375
-137.3291015625
-140.07568359375
-138.24462890625
-137.3291015625
-127.25830078125
-123.59619140625
-131.8359375
-141.90673828125
-144.6533203125
-142.822265625
-148.3154296875
-150.146484375
-146.484375
-132.75146484375
-126.3427734375
-120.849609375
-132.75146484375
-140.07568359375
-149.23095703125
-149.23095703125
-153.80859375
-149.23095703125
-139.16015625
-132.75146484375
-128.173828125
-125.42724609375
-130.0048828125
-138.24462890625
-145.56884765625
-154.72412109375
-152.89306640625
-139.16015625
-131.8359375
-127.25830078125
-119.0185546875
-119.93408203125
-125.42724609375
-143.73779296875
-157.470703125
-163.87939453125
-163.87939453125
-157.470703125
-140.9912109375
-134.58251953125
-124.51171875
-120.849609375
-128.173828125
-140.07568359375
-152.89306640625
-170.2880859375
-162.04833984375
-143.73779296875
-142.822265625
-131.8359375
-125.42724609375
-125.42724609375
-131.8359375
-142.822265625
-155.6396484375
-162.04833984375
-155.6396484375
-149.23095703125
-145.56884765625
-139.16015625
-127.25830078125
-119.93408203125
-127.25830078125
-140.9912109375
-146.484375
-156.55517578125
-157.470703125
-147.39990234375
-145.56884765625
-140.07568359375
-132.75146484375
-130.0048828125
-135.498046875
-142.822265625
-148.3154296875
-151.06201171875
-156.55517578125
-152.89306640625
-150.146484375
-137.3291015625
-130.0048828125
-135.498046875
-144.6533203125
-147.39990234375
-152.89306640625
-153.80859375
-148.3154296875
-147.39990234375
-144.6533203125
-142.822265625
-135.498046875
-127.25830078125
-124.51171875
-127.25830078125
-130.92041015625
-131.8359375
-111.6943359375
-104.3701171875
-101.62353515625
-100.7080078125
-98.876953125
-97.96142578125
-106.201171875
-116.27197265625
-119.93408203125
-108.94775390625
-106.201171875
-99.79248046875
-97.0458984375
-92.46826171875
-75.98876953125
-64.0869140625
-69.580078125
-79.65087890625
-94.29931640625
-97.0458984375
-93.3837890625
-91.552734375
-86.97509765625
-81.48193359375
-78.7353515625
-83.31298828125
-86.0595703125
-100.7080078125
-113.525390625
-114.44091796875
-113.525390625
-121.76513671875
-128.173828125
-135.498046875
-143.73779296875
-138.24462890625
-137.3291015625
-146.484375
-166.6259765625
-180.35888671875
-180.35888671875
-175.78125
-171.20361328125
-159.3017578125
-150.146484375
-134.58251953125
-142.822265625
-151.06201171875
-169.37255859375
-182.18994140625
-184.02099609375
-177.6123046875
-169.37255859375
-163.87939453125
-147.39990234375
-133.6669921875
-137.3291015625
-153.80859375
-175.78125
-189.51416015625
-179.443359375
-172.119140625
-162.04833984375
-151.06201171875
-137.3291015625
-130.92041015625
-140.07568359375
-155.6396484375
-179.443359375
-198.66943359375
-188.5986328125
-184.9365234375
-178.52783203125
-169.37255859375
-155.6396484375
-167.54150390625
-179.443359375
-206.9091796875
-240.78369140625
-279.23583984375
-294.7998046875
-270.99609375
-226.13525390625
-152.89306640625
-33.87451171875
114.44091796875
260.92529296875
408.3251953125
544.73876953125
709.53369140625
860.595703125
964.05029296875
1040.0390625
1069.3359375
1096.8017578125
1074.8291015625
1002.50244140625
854.18701171875
593.26171875
336.9140625
103.45458984375
-78.7353515625
-202.33154296875
-214.2333984375
-178.52783203125
-131.8359375
-127.25830078125
-156.55517578125
-177.6123046875
-164.794921875
-134.58251953125
-108.0322265625
-86.0595703125
-71.4111328125
-45.7763671875
-32.04345703125
-36.62109375
-65.00244140625
-98.876953125
-121.76513671875
-127.25830078125
-115.3564453125
-97.96142578125
-82.3974609375
-63.17138671875
-51.26953125
-57.67822265625
-85.14404296875
-110.77880859375
-125.42724609375
-131.8359375
-119.93408203125
-106.201171875
-84.228515625
-56.7626953125
-36.62109375
-38.4521484375
-65.00244140625
-95.21484375
-116.27197265625
-114.44091796875
-104.3701171875
-77.81982421875
-59.50927734375
-44.86083984375
-23.8037109375
-24.71923828125
-46.69189453125
-81.48193359375
-103.45458984375
-100.7080078125
-86.0595703125
-65.00244140625
-33.87451171875
-8.23974609375
8.23974609375
4.57763671875
-25.634765625
-50.35400390625
-69.580078125
-64.0869140625
-48.52294921875
-30.21240234375
-8.23974609375
17.39501953125
38.4521484375
37.53662109375
7.32421875
-18.310546875
-33.87451171875
-33.87451171875
-10.986328125
16.4794921875
50.35400390625
75.98876953125
109.86328125
105.28564453125
79.65087890625
46.69189453125
36.62109375
43.02978515625
62.255859375
98.876953125
137.3291015625
173.03466796875
210.5712890625
202.33154296875
176.69677734375
145.56884765625
129.08935546875
138.24462890625
169.37255859375
205.99365234375
242.61474609375
278.3203125
303.03955078125
299.37744140625
265.5029296875
228.8818359375
213.31787109375
217.8955078125
241.69921875
271.91162109375
302.1240234375
338.7451171875
357.97119140625
346.98486328125
312.19482421875
270.99609375
246.27685546875
245.361328125
262.75634765625
285.64453125
309.4482421875
328.67431640625
339.66064453125
317.68798828125
274.658203125
219.7265625
181.2744140625
169.37255859375
168.45703125
181.2744140625
190.4296875
198.66943359375
203.2470703125
174.86572265625
122.6806640625
61.34033203125
21.05712890625
3.662109375
2.74658203125
14.6484375
31.1279296875
43.9453125
45.7763671875
25.634765625
-28.38134765625
-77.81982421875
-111.6943359375
-121.76513671875
-111.6943359375
-93.3837890625
-67.7490234375
-50.35400390625
-31.1279296875
-51.26953125
-95.21484375
-152.89306640625
-184.9365234375
-178.52783203125
-167.54150390625
-140.07568359375
-116.27197265625
-80.56640625
-58.59375
-76.904296875
-116.27197265625
-162.9638671875
-191.34521484375
-194.091796875
-182.18994140625
-152.89306640625
-121.76513671875
-90.63720703125
-73.2421875
-85.14404296875
-126.3427734375
-163.87939453125
-188.5986328125
-200.50048828125
-181.2744140625
-148.3154296875
-112.60986328125
-76.904296875
-64.0869140625
-75.98876953125
-116.27197265625
-162.9638671875
-191.34521484375
-195.00732421875
-171.20361328125
-138.24462890625
-106.201171875
-69.580078125
-53.1005859375
-68.66455078125
-112.60986328125
-160.21728515625
-182.18994140625
-184.9365234375
-161.1328125
-133.6669921875
-103.45458984375
-68.66455078125
-47.607421875
-63.17138671875
-107.11669921875
-151.9775390625
-180.35888671875
-178.52783203125
-159.3017578125
-131.8359375
-103.45458984375
-68.66455078125
-46.69189453125
-61.34033203125
-108.0322265625
-156.55517578125
-181.2744140625
-183.10546875
-163.87939453125
-130.0048828125
-98.876953125
-64.0869140625
-43.02978515625
-63.17138671875
-108.0322265625
-156.55517578125
-181.2744140625
-181.2744140625
-164.794921875
-135.498046875
-104.3701171875
-72.32666015625
-50.35400390625
-66.83349609375
-108.94775390625
-157.470703125
-191.34521484375
-194.091796875
-173.03466796875
-141.90673828125
-109.86328125
-75.0732421875
-53.1005859375
-69.580078125
-111.6943359375
-165.71044921875
-197.75390625
-197.75390625
-178.52783203125
-144.6533203125
-110.77880859375
-79.65087890625
-58.59375
-75.0732421875
-117.1875
-167.54150390625
-197.75390625
-200.50048828125
-184.02099609375
-154.72412109375
-125.42724609375
-94.29931640625
-75.98876953125
-86.0595703125
-119.0185546875
-168.45703125
-202.33154296875
-204.16259765625
-190.4296875
-158.38623046875
-121.76513671875
-87.890625
-66.83349609375
-86.97509765625
-124.51171875
-169.37255859375
-203.2470703125
-207.82470703125
-190.4296875
-161.1328125
-131.8359375
-96.13037109375
-70.49560546875
-87.890625
-127.25830078125
-178.52783203125
-205.99365234375
-206.9091796875
-193.17626953125
-158.38623046875
-130.92041015625
-99.79248046875
-75.0732421875
-86.0595703125
-133.6669921875
-183.10546875
-212.40234375
-217.8955078125
-196.83837890625
-168.45703125
-139.16015625
-100.7080078125
-80.56640625
-92.46826171875
-130.92041015625
-177.6123046875
-211.48681640625
-216.064453125
-201.416015625
-163.87939453125
-137.3291015625
-103.45458984375
-75.98876953125
-92.46826171875
-133.6669921875
-173.03466796875
-205.078125
-219.7265625
-196.83837890625
-153.80859375
-130.0048828125
-104.3701171875
-80.56640625
-85.14404296875
-127.25830078125
-182.18994140625
-215.14892578125
-220.64208984375
-201.416015625
-170.2880859375
-136.41357421875
-103.45458984375
-80.56640625
-85.14404296875
-130.0048828125
-184.9365234375
-214.2333984375
-214.2333984375
-196.83837890625
-161.1328125
-140.07568359375
-109.86328125
-85.14404296875
-91.552734375
-127.25830078125
-184.02099609375
-217.8955078125
-221.5576171875
-201.416015625
-174.86572265625
-140.9912109375
-102.5390625
-68.66455078125
-77.81982421875
-123.59619140625
-173.03466796875
-204.16259765625
-203.2470703125
-178.52783203125
-145.56884765625
-98.876953125
-54.01611328125
-25.634765625
-32.958984375
-67.7490234375
-119.93408203125
-156.55517578125
-164.794921875
-158.38623046875
-125.42724609375
-85.14404296875
-54.931640625
-19.22607421875
-17.39501953125
-65.00244140625
-110.77880859375
-149.23095703125
-147.39990234375
-126.3427734375
-100.7080078125
-63.17138671875
-25.634765625
-3.662109375
-11.90185546875
-59.50927734375
-119.0185546875
-161.1328125
-162.9638671875
-144.6533203125
-113.525390625
-80.56640625
-54.01611328125
-45.7763671875
-64.0869140625
-113.525390625
-173.9501953125
-214.2333984375
-226.13525390625
-210.5712890625
-175.78125
-144.6533203125
-121.76513671875
-96.13037109375
-105.28564453125
-146.484375
-197.75390625
-224.30419921875
-226.13525390625
-211.48681640625
-178.52783203125
-143.73779296875
-112.60986328125
-84.228515625
-101.62353515625
-144.6533203125
-207.82470703125
-240.78369140625
-242.61474609375
-225.2197265625
-191.34521484375
-158.38623046875
-121.76513671875
-96.13037109375
-98.876953125
-135.498046875
-190.4296875
-223.388671875
-232.5439453125
-219.7265625
-185.85205078125
-149.23095703125
-119.93408203125
-99.79248046875
-113.525390625
-155.6396484375
-210.5712890625
-262.75634765625
-281.06689453125
-274.658203125
-261.8408203125
-246.27685546875
-222.47314453125
-185.85205078125
-163.87939453125
-165.71044921875
-116.27197265625
-6.40869140625
141.90673828125
325.927734375
525.5126953125
743.408203125
945.73974609375
1081.23779296875
1120.60546875
1099.54833984375
1056.5185546875
973.20556640625
908.203125
810.24169921875
612.48779296875
388.18359375
181.2744140625
9.1552734375
-156.55517578125
-230.712890625
-260.92529296875
-258.1787109375
-244.44580078125
-210.5712890625
-145.56884765625
-76.904296875
-21.05712890625
10.986328125
0
-39.36767578125
-90.63720703125
-128.173828125
-140.07568359375
-123.59619140625
-101.62353515625
-70.49560546875
-35.70556640625
-12.8173828125
-21.05712890625
-63.17138671875
-113.525390625
-156.55517578125
-163.87939453125
-150.146484375
-112.60986328125
-69.580078125
-36.62109375
-13.73291015625
-21.97265625
-52.18505859375
-108.0322265625
-150.146484375
-154.72412109375
-126.3427734375
-90.63720703125
-61.34033203125
-21.97265625
6.40869140625
-3.662109375
-43.9453125
-90.63720703125
-127.25830078125
-138.24462890625
-118.10302734375
-86.97509765625
-52.18505859375
-4.57763671875
31.1279296875
26.55029296875
-9.1552734375
-60.4248046875
-97.96142578125
-103.45458984375
-86.0595703125
-55.84716796875
-21.05712890625
20.1416015625
52.18505859375
52.18505859375
19.22607421875
-29.296875
-65.91796875
-69.580078125
-46.69189453125
-13.73291015625
26.55029296875
67.7490234375
105.28564453125
98.876953125
73.2421875
31.1279296875
1.8310546875
0.91552734375
15.56396484375
54.931640625
86.0595703125
130.92041015625
173.03466796875
184.02099609375
164.794921875
128.173828125
97.0458984375
91.552734375
114.44091796875
149.23095703125
187.68310546875
229.79736328125
267.333984375
269.1650390625
256.34765625
234.375
210.5712890625
218.81103515625
229.79736328125
253.60107421875
280.1513671875
314.94140625
346.98486328125
351.5625
331.4208984375
298.4619140625
270.99609375
261.8408203125
276.4892578125
298.4619140625
327.7587890625
349.7314453125
373.53515625
373.53515625
338.7451171875
295.71533203125
254.5166015625
238.037109375
240.78369140625
245.361328125
256.34765625
270.08056640625
281.06689453125
260.009765625
215.14892578125
161.1328125
112.60986328125
86.97509765625
78.7353515625
78.7353515625
89.7216796875
97.0458984375
100.7080078125
89.7216796875
48.52294921875
-2.74658203125
-44.86083984375
-68.66455078125
-66.83349609375
-59.50927734375
-45.7763671875
-24.71923828125
-10.07080078125
-21.97265625
-55.84716796875
-93.3837890625
-131.8359375
-143.73779296875
-135.498046875
-119.93408203125
-102.5390625
-77.81982421875
-54.931640625
-59.50927734375
-78.7353515625
-120.849609375
-162.9638671875
-175.78125
-167.54150390625
-140.9912109375
-118.10302734375
-97.96142578125
-75.0732421875
-70.49560546875
-93.3837890625
-140.9912109375
-173.9501953125
-181.2744140625
-173.9501953125
-153.80859375
-130.0048828125
-94.29931640625
-67.7490234375
-67.7490234375
-89.7216796875
-132.75146484375
-167.54150390625
-181.2744140625
-169.37255859375
-141.90673828125
-118.10302734375
-92.46826171875
-63.17138671875
-64.0869140625
-83.31298828125
-128.173828125
-164.794921875
-173.03466796875
-158.38623046875
-131.8359375
-106.201171875
-84.228515625
-60.4248046875
-61.34033203125
-81.48193359375
-120.849609375
-157.470703125
-170.2880859375
-154.72412109375
-132.75146484375
-106.201171875
-77.81982421875
-57.67822265625
-48.52294921875
-72.32666015625
-111.6943359375
-150.146484375
-160.21728515625
-151.06201171875
-130.0048828125
-103.45458984375
-75.0732421875
-53.1005859375
-51.26953125
-74.15771484375
-117.1875
-153.80859375
-164.794921875
-155.6396484375
-132.75146484375
-104.3701171875
-71.4111328125
-47.607421875
-43.02978515625
-75.0732421875
-128.173828125
-165.71044921875
-173.03466796875
-160.21728515625
-130.92041015625
-108.0322265625
-79.65087890625
-57.67822265625
-54.931640625
-75.0732421875
-115.3564453125
-157.470703125
-173.9501953125
-168.45703125
-148.3154296875
-121.76513671875
-83.31298828125
-56.7626953125
-62.255859375
-87.890625
-131.8359375
-167.54150390625
-180.35888671875
-177.6123046875
-156.55517578125
-124.51171875
-96.13037109375
-66.83349609375
-67.7490234375
-91.552734375
-139.16015625
-179.443359375
-187.68310546875
-180.35888671875
-160.21728515625
-127.25830078125
-99.79248046875
-71.4111328125
-69.580078125
-97.96142578125
-144.6533203125
-186.767578125
-198.66943359375
-186.767578125
-162.9638671875
-132.75146484375
-99.79248046875
-71.4111328125
-70.49560546875
-100.7080078125
-143.73779296875
-184.9365234375
-198.66943359375
-186.767578125
-167.54150390625
-137.3291015625
-107.11669921875
-75.98876953125
-73.2421875
-102.5390625
-146.484375
-192.2607421875
-200.50048828125
-193.17626953125
-164.794921875
-135.498046875
-107.11669921875
-77.81982421875
-72.32666015625
-102.5390625
-148.3154296875
-189.51416015625
-199.5849609375
-197.75390625
-170.2880859375
-140.9912109375
-108.0322265625
-75.0732421875
-78.7353515625
-102.5390625
-145.56884765625
-185.85205078125
-203.2470703125
-199.5849609375
-173.9501953125
-145.56884765625
-108.0322265625
-75.98876953125
-76.904296875
-104.3701171875
-154.72412109375
-195.9228515625
-205.99365234375
-195.00732421875
-174.86572265625
-145.56884765625
-114.44091796875
-86.97509765625
-78.7353515625
-106.201171875
-151.06201171875
-196.83837890625
-207.82470703125
-198.66943359375
-176.69677734375
-146.484375
-109.86328125
-77.81982421875
-70.49560546875
-100.7080078125
-155.6396484375
-194.091796875
-203.2470703125
-194.091796875
-172.119140625
-143.73779296875
-111.6943359375
-81.48193359375
-80.56640625
-110.77880859375
-154.72412109375
-194.091796875
-209.65576171875
-202.33154296875
-178.52783203125
-143.73779296875
-107.11669921875
-82.3974609375
-83.31298828125
-108.94775390625
-154.72412109375
-195.00732421875
-210.5712890625
-202.33154296875
-173.9501953125
-140.07568359375
-98.876953125
-65.91796875
-54.931640625
-75.98876953125
-108.0322265625
-134.58251953125
-151.06201171875
-142.822265625
-121.76513671875
-91.552734375
-59.50927734375
-35.70556640625
-28.38134765625
-60.4248046875
-105.28564453125
-138.24462890625
-149.23095703125
-141.90673828125
-112.60986328125
-74.15771484375
-44.86083984375
-16.4794921875
-5.4931640625
-24.71923828125
-69.580078125
-116.27197265625
-133.6669921875
-129.08935546875
-108.0322265625
-96.13037109375
-61.34033203125
-29.296875
-24.71923828125
-47.607421875
-98.876953125
-156.55517578125
-181.2744140625
-183.10546875
-173.9501953125
-149.23095703125
-112.60986328125
-87.890625
-84.228515625
-115.3564453125
-166.6259765625
-208.740234375
-227.05078125
-212.40234375
-189.51416015625
-162.04833984375
-128.173828125
-100.7080078125
-91.552734375
-111.6943359375
-166.6259765625
-215.14892578125
-228.8818359375
-222.47314453125
-201.416015625
-167.54150390625
-135.498046875
-103.45458984375
-91.552734375
-116.27197265625
-160.21728515625
-201.416015625
-220.64208984375
-216.97998046875
-193.17626953125
-165.71044921875
-132.75146484375
-100.7080078125
-89.7216796875
-114.44091796875
-161.1328125
-205.078125
-223.388671875
-219.7265625
-204.16259765625
-183.10546875
-168.45703125
-151.06201171875
-154.72412109375
-188.5986328125
-257.26318359375
-306.70166015625
-314.02587890625
-272.8271484375
-168.45703125
-6.40869140625
171.20361328125
359.80224609375
539.24560546875
688.4765625
819.39697265625
915.52734375
971.37451171875
1021.728515625
1050.10986328125
1068.42041015625
1051.025390625
1017.15087890625
857.84912109375
584.1064453125
289.306640625
15.56396484375
-189.51416015625
-297.54638671875
-280.1513671875
-218.81103515625
-148.3154296875
-104.3701171875
-71.4111328125
-62.255859375
-75.98876953125
-104.3701171875
-110.77880859375
-108.94775390625
-88.80615234375
-64.0869140625
-36.62109375
-9.1552734375
4.57763671875
-22.88818359375
-75.98876953125
-123.59619140625
-145.56884765625
-141.90673828125
-119.93408203125
-87.890625
-52.18505859375
-20.1416015625
-12.8173828125
-32.958984375
-75.98876953125
-121.76513671875
-138.24462890625
-137.3291015625
-113.525390625
-83.31298828125
-51.26953125
-13.73291015625
0.91552734375
-22.88818359375
-70.49560546875
-114.44091796875
-130.92041015625
-124.51171875
-99.79248046875
-67.7490234375
-35.70556640625
-6.40869140625
10.986328125
-6.40869140625
-48.52294921875
-86.97509765625
-108.94775390625
-101.62353515625
-82.3974609375
-47.607421875
1.8310546875
39.36767578125
53.1005859375
28.38134765625
-21.97265625
-60.4248046875
-79.65087890625
-67.7490234375
-38.4521484375
1.8310546875
35.70556640625
65.91796875
87.890625
70.49560546875
24.71923828125
-16.4794921875
-26.55029296875
-15.56396484375
10.986328125
49.4384765625
96.13037109375
135.498046875
151.06201171875
134.58251953125
94.29931640625
54.931640625
43.02978515625
58.59375
92.46826171875
140.07568359375
184.9365234375
225.2197265625
246.27685546875
234.375
197.75390625
154.72412109375
147.39990234375
162.04833984375
195.9228515625
238.95263671875
289.306640625
330.50537109375
349.7314453125
330.50537109375
294.7998046875
247.1923828125
231.62841796875
241.69921875
265.5029296875
305.7861328125
349.7314453125
384.521484375
405.57861328125
384.521484375
332.33642578125
286.56005859375
260.92529296875
267.333984375
281.982421875
314.02587890625
342.4072265625
361.63330078125
360.7177734375
324.0966796875
257.26318359375
192.2607421875
159.3017578125
148.3154296875
152.89306640625
172.119140625
185.85205078125
200.50048828125
195.9228515625
160.21728515625
99.79248046875
29.296875
-20.1416015625
-24.71923828125
-15.56396484375
3.662109375
30.21240234375
54.01611328125
52.18505859375
15.56396484375
-44.86083984375
-95.21484375
-125.42724609375
-129.08935546875
-113.525390625
-84.228515625
-57.67822265625
-29.296875
-21.05712890625
-48.52294921875
-99.79248046875
-154.72412109375
-173.03466796875
-173.9501953125
-149.23095703125
-110.77880859375
-75.98876953125
-41.19873046875
-33.87451171875
-62.255859375
-113.525390625
-167.54150390625
-192.2607421875
-182.18994140625
-153.80859375
-125.42724609375
-87.890625
-54.931640625
-40.283203125
-65.91796875
-113.525390625
-164.794921875
-181.2744140625
-169.37255859375
-154.72412109375
-122.6806640625
-82.3974609375
-46.69189453125
-29.296875
-48.52294921875
-104.3701171875
-161.1328125
-187.68310546875
-176.69677734375
-151.9775390625
-114.44091796875
-75.98876953125
-41.19873046875
-30.21240234375
-52.18505859375
-105.28564453125
-156.55517578125
-174.86572265625
-168.45703125
-143.73779296875
-105.28564453125
-65.00244140625
-32.04345703125
-18.310546875
-46.69189453125
-99.79248046875
-145.56884765625
-171.20361328125
-170.2880859375
-147.39990234375
-100.7080078125
-70.49560546875
-33.87451171875
-18.310546875
-42.1142578125
-98.876953125
-153.80859375
-183.10546875
-170.2880859375
-141.90673828125
-103.45458984375
-67.7490234375
-28.38134765625
-20.1416015625
-53.1005859375
-110.77880859375
-156.55517578125
-173.9501953125
-168.45703125
-144.6533203125
-113.525390625
-77.81982421875
-38.4521484375
-23.8037109375
-54.01611328125
-110.77880859375
-162.04833984375
-184.9365234375
-181.2744140625
-157.470703125
-121.76513671875
-86.97509765625
-54.01611328125
-36.62109375
-54.01611328125
-111.6943359375
-167.54150390625
-184.02099609375
-176.69677734375
-157.470703125
-123.59619140625
-88.80615234375
-51.26953125
-37.53662109375
-62.255859375
-115.3564453125
-174.86572265625
-196.83837890625
-192.2607421875
-166.6259765625
-128.173828125
-87.890625
-54.01611328125
-44.86083984375
-67.7490234375
-121.76513671875
-170.2880859375
-191.34521484375
-191.34521484375
-175.78125
-135.498046875
-97.96142578125
-60.4248046875
-53.1005859375
-72.32666015625
-122.6806640625
-179.443359375
-205.99365234375
-202.33154296875
-181.2744140625
-142.822265625
-108.0322265625
-72.32666015625
-57.67822265625
-78.7353515625
-133.6669921875
-185.85205078125
-210.5712890625
-198.66943359375
-173.03466796875
-144.6533203125
-108.0322265625
-75.0732421875
-59.50927734375
-82.3974609375
-129.08935546875
-186.767578125
-214.2333984375
-207.82470703125
-184.02099609375
-145.56884765625
-107.11669921875
-69.580078125
-53.1005859375
-77.81982421875
-132.75146484375
-185.85205078125
-212.40234375
-205.99365234375
-184.02099609375
-155.6396484375
-120.849609375
-81.48193359375
-61.34033203125
-83.31298828125
-133.6669921875
-191.34521484375
-220.64208984375
-216.064453125
-189.51416015625
-152.89306640625
-121.76513671875
-87.890625
-69.580078125
-76.904296875
-134.58251953125
-191.34521484375
-221.5576171875
-216.064453125
-186.767578125
-150.146484375
-116.27197265625
-76.904296875
-61.34033203125
-89.7216796875
-141.90673828125
-195.9228515625
-222.47314453125
-215.14892578125
-195.9228515625
-159.3017578125
-119.0185546875
-75.98876953125
-63.17138671875
-80.56640625
-136.41357421875
-192.2607421875
-218.81103515625
-209.65576171875
-182.18994140625
-148.3154296875
-113.525390625
-80.56640625
-61.34033203125
-87.890625
-140.9912109375
-197.75390625
-222.47314453125
-216.97998046875
-184.02099609375
-148.3154296875
-118.10302734375
-83.31298828125
-59.50927734375
-86.0595703125
-143.73779296875
-191.34521484375
-224.30419921875
-218.81103515625
-192.2607421875
-142.822265625
-107.11669921875
-65.00244140625
-32.04345703125
-33.87451171875
-80.56640625
-138.24462890625
-166.6259765625
-162.04833984375
-137.3291015625
-106.201171875
-75.98876953125
-38.4521484375
-16.4794921875
-34.7900390625
-85.14404296875
-134.58251953125
-162.04833984375
-151.9775390625
-123.59619140625
-92.46826171875
-57.67822265625
-20.1416015625
16.4794921875
-1.8310546875
-55.84716796875
-122.6806640625
-154.72412109375
-166.6259765625
-154.72412109375
-119.0185546875
-76.904296875
-29.296875
-9.1552734375
-49.4384765625
-113.525390625
-174.86572265625
-216.97998046875
-222.47314453125
-205.078125
-172.119140625
-133.6669921875
-94.29931640625
-71.4111328125
-107.11669921875
-162.9638671875
-210.5712890625
-238.95263671875
-239.8681640625
-213.31787109375
-175.78125
-131.8359375
-99.79248046875
-84.228515625
-110.77880859375
-162.9638671875
-216.064453125
-246.27685546875
-238.95263671875
-215.14892578125
-176.69677734375
-140.9912109375
-97.96142578125
-82.3974609375
-104.3701171875
-152.89306640625
-205.99365234375
-238.95263671875
-236.2060546875
-212.40234375
-172.119140625
-134.58251953125
-103.45458984375
-81.48193359375
-104.3701171875
-162.9638671875
-224.30419921875
-259.09423828125
-258.1787109375
-246.27685546875
-213.31787109375
-195.00732421875
-173.9501953125
-173.9501953125
-202.33154296875
-240.78369140625
-265.5029296875
-245.361328125
-148.3154296875
10.986328125
201.416015625
399.169921875
611.572265625
823.974609375
957.6416015625
1011.65771484375
1006.16455078125
991.51611328125
1012.5732421875
1000.67138671875
975.9521484375
898.13232421875
701.2939453125
472.412109375
220.64208984375
-29.296875
-238.95263671875
-313.1103515625
-300.29296875
-244.44580078125
-185.85205078125
-146.484375
-89.7216796875
-39.36767578125
-27.4658203125
-67.7490234375
-115.3564453125
-139.16015625
-137.3291015625
-124.51171875
-86.97509765625
-49.4384765625
-15.56396484375
2.74658203125
-22.88818359375
-73.2421875
-134.58251953125
-173.03466796875
-176.69677734375
-150.146484375
-104.3701171875
-61.34033203125
-22.88818359375
0
-25.634765625
-78.7353515625
-131.8359375
-165.71044921875
-165.71044921875
-137.3291015625
-103.45458984375
-59.50927734375
-4.57763671875
11.90185546875
-15.56396484375
-62.255859375
-119.0185546875
-153.80859375
-153.80859375
-126.3427734375
-77.81982421875
-35.70556640625
10.986328125
31.1279296875
9.1552734375
-45.7763671875
-93.3837890625
-117.1875
-110.77880859375
-84.228515625
-51.26953125
-8.23974609375
36.62109375
55.84716796875
36.62109375
-14.6484375
-59.50927734375
-85.14404296875
-84.228515625
-55.84716796875
-6.40869140625
34.7900390625
75.0732421875
95.21484375
86.0595703125
38.4521484375
-9.1552734375
-35.70556640625
-29.296875
-8.23974609375
49.4384765625
97.0458984375
140.07568359375
167.54150390625
155.6396484375
111.6943359375
66.83349609375
48.52294921875
55.84716796875
79.65087890625
127.25830078125
182.18994140625
239.8681640625
272.8271484375
261.8408203125
215.14892578125
175.78125
155.6396484375
161.1328125
193.17626953125
234.375
281.06689453125
328.67431640625
354.30908203125
344.23828125
303.03955078125
252.685546875
227.96630859375
222.47314453125
250.8544921875
292.05322265625
333.251953125
374.45068359375
401.0009765625
374.45068359375
317.68798828125
259.09423828125
218.81103515625
215.14892578125
237.12158203125
269.1650390625
304.87060546875
333.251953125
341.49169921875
307.6171875
236.2060546875
149.23095703125
97.96142578125
89.7216796875
103.45458984375
118.10302734375
148.3154296875
176.69677734375
175.78125
137.3291015625
65.00244140625
-12.8173828125
-58.59375
-74.15771484375
-62.255859375
-30.21240234375
0.91552734375
36.62109375
45.7763671875
11.90185546875
-54.931640625
-121.76513671875
-164.794921875
-165.71044921875
-136.41357421875
-94.29931640625
-68.66455078125
-32.958984375
-14.6484375
-40.283203125
-99.79248046875
-167.54150390625
-197.75390625
-195.9228515625
-173.9501953125
-134.58251953125
-83.31298828125
-45.7763671875
-26.55029296875
-49.4384765625
-103.45458984375
-179.443359375
-224.30419921875
-212.40234375
-177.6123046875
-140.07568359375
-97.96142578125
-60.4248046875
-36.62109375
-53.1005859375
-110.77880859375
-181.2744140625
-213.31787109375
-201.416015625
-169.37255859375
-123.59619140625
-81.48193359375
-43.02978515625
-25.634765625
-53.1005859375
-110.77880859375
-175.78125
-212.40234375
-204.16259765625
-173.03466796875
-129.08935546875
-82.3974609375
-40.283203125
-21.05712890625
-43.9453125
-105.28564453125
-175.78125
-216.064453125
-205.078125
-173.03466796875
-127.25830078125
-80.56640625
-34.7900390625
-16.4794921875
-45.7763671875
-100.7080078125
-169.37255859375
-206.9091796875
-200.50048828125
-162.9638671875
-120.849609375
-85.14404296875
-40.283203125
-11.90185546875
-45.7763671875
-103.45458984375
-169.37255859375
-205.078125
-203.2470703125
-178.52783203125
-133.6669921875
-90.63720703125
-42.1142578125
-22.88818359375
-53.1005859375
-109.86328125
-173.9501953125
-211.48681640625
-195.9228515625
-166.6259765625
-125.42724609375
-92.46826171875
-47.607421875
-19.22607421875
-43.02978515625
-106.201171875
-181.2744140625
-215.14892578125
-209.65576171875
-185.85205078125
-141.90673828125
-94.29931640625
-44.86083984375
-26.55029296875
-60.4248046875
-121.76513671875
-186.767578125
-223.388671875
-218.81103515625
-187.68310546875
-141.90673828125
-103.45458984375
-63.17138671875
-39.36767578125
-65.00244140625
-122.6806640625
-188.5986328125
-229.79736328125
-226.13525390625
-195.9228515625
-150.146484375
-108.94775390625
-67.7490234375
-43.02978515625
-70.49560546875
-132.75146484375
-195.00732421875
-230.712890625
-230.712890625
-204.16259765625
-156.55517578125
-115.3564453125
-65.00244140625
-44.86083984375
-66.83349609375
-130.0048828125
-204.16259765625
-244.44580078125
-233.45947265625
-202.33154296875
-160.21728515625
-120.849609375
-75.0732421875
-54.01611328125
-80.56640625
-140.07568359375
-206.9091796875
-241.69921875
-235.29052734375
-207.82470703125
-163.87939453125
-126.3427734375
-83.31298828125
-56.7626953125
-82.3974609375
-143.73779296875
-209.65576171875
-238.037109375
-236.2060546875
-213.31787109375
-169.37255859375
-124.51171875
-86.97509765625
-61.34033203125
-75.0732421875
-131.8359375
-201.416015625
-237.12158203125
-234.375
-211.48681640625
-162.04833984375
-122.6806640625
-76.904296875
-58.59375
-86.0595703125
-147.39990234375
-209.65576171875
-238.95263671875
-230.712890625
-205.078125
-165.71044921875
-119.93408203125
-79.65087890625
-54.01611328125
-81.48193359375
-144.6533203125
-208.740234375
-243.5302734375
-235.29052734375
-212.40234375
-168.45703125
-122.6806640625
-81.48193359375
-62.255859375
-86.97509765625
-140.07568359375
-205.99365234375
-247.1923828125
-240.78369140625
-208.740234375
-167.54150390625
-125.42724609375
-86.97509765625
-58.59375
-80.56640625
-140.9912109375
-207.82470703125
-236.2060546875
-233.45947265625
-203.2470703125
-162.04833984375
-123.59619140625
-78.7353515625
-50.35400390625
-72.32666015625
-140.9912109375
-199.5849609375
-241.69921875
-242.61474609375
-224.30419921875
-177.6123046875
-128.173828125
-76.904296875
-50.35400390625
-69.580078125
-123.59619140625
-189.51416015625
-212.40234375
-193.17626953125
-153.80859375
-115.3564453125
-75.98876953125
-35.70556640625
-7.32421875
-30.21240234375
-87.890625
-159.3017578125
-201.416015625
-199.5849609375
-173.03466796875
-116.27197265625
-75.98876953125
-27.4658203125
6.40869140625
-10.986328125
-68.66455078125
-133.6669921875
-176.69677734375
-168.45703125
-140.9912109375
-96.13037109375
-58.59375
-22.88818359375
-5.4931640625
-28.38134765625
-92.46826171875
-160.21728515625
-192.2607421875
-186.767578125
-175.78125
-142.822265625
-108.94775390625
-74.15771484375
-49.4384765625
-73.2421875
-140.9912109375
-211.48681640625
-250.8544921875
-249.0234375
-225.2197265625
-184.02099609375
-137.3291015625
-95.21484375
-65.91796875
-88.80615234375
-150.146484375
-214.2333984375
-253.60107421875
-249.93896484375
-220.64208984375
-178.52783203125
-132.75146484375
-88.80615234375
-61.34033203125
-86.0595703125
-151.9775390625
-216.97998046875
-256.34765625
-248.10791015625
-213.31787109375
-173.9501953125
-136.41357421875
-95.21484375
-65.00244140625
-81.48193359375
-138.24462890625
-205.99365234375
-243.5302734375
-243.5302734375
-221.5576171875
-183.10546875
-139.16015625
-97.0458984375
-79.65087890625
-121.76513671875
-189.51416015625
-270.99609375
-324.0966796875
-343.32275390625
-316.7724609375
-252.685546875
-178.52783203125
-67.7490234375
79.65087890625
203.2470703125
299.37744140625
395.5078125
528.25927734375
711.36474609375
886.23046875
1004.33349609375
1081.23779296875
1139.83154296875
1155.3955078125
1090.39306640625
963.134765625
718.68896484375
421.142578125
176.69677734375
-21.05712890625
-159.3017578125
-212.40234375
-162.9638671875
-107.11669921875
-104.3701171875
-153.80859375
-204.16259765625
-220.64208984375
-184.9365234375
-130.92041015625
-79.65087890625
-39.36767578125
3.662109375
31.1279296875
8.23974609375
-48.52294921875
-119.93408203125
-167.54150390625
-164.794921875
-137.3291015625
-102.5390625
-52.18505859375
-8.23974609375
16.4794921875
-3.662109375
-62.255859375
-131.8359375
-172.119140625
-168.45703125
-139.16015625
-96.13037109375
-53.1005859375
-5.4931640625
25.634765625
3.662109375
-48.52294921875
-120.849609375
-164.794921875
-160.21728515625
-127.25830078125
-89.7216796875
-37.53662109375
12.8173828125
37.53662109375
20.1416015625
-38.4521484375
-96.13037109375
-127.25830078125
-131.8359375
-103.45458984375
-60.4248046875
-16.4794921875
27.4658203125
62.255859375
44.86083984375
-7.32421875
-71.4111328125
-110.77880859375
-102.5390625
-75.0732421875
-30.21240234375
11.90185546875
54.01611328125
94.29931640625
77.81982421875
33.87451171875
-24.71923828125
-66.83349609375
-63.17138671875
-26.55029296875
22.88818359375
65.00244140625
113.525390625
150.146484375
137.3291015625
93.3837890625
46.69189453125
8.23974609375
14.6484375
43.9453125
93.3837890625
133.6669921875
192.2607421875
234.375
231.62841796875
198.66943359375
151.06201171875
118.10302734375
113.525390625
146.484375
198.66943359375
251.77001953125
303.955078125
335.0830078125
328.67431640625
297.54638671875
247.1923828125
216.97998046875
208.740234375
230.712890625
277.40478515625
325.01220703125
363.46435546875
399.169921875
394.59228515625
353.3935546875
298.4619140625
254.5166015625
249.93896484375
260.009765625
292.96875
331.4208984375
363.46435546875
393.6767578125
379.94384765625
319.51904296875
250.8544921875
199.5849609375
174.86572265625
175.78125
197.75390625
221.5576171875
245.361328125
256.34765625
233.45947265625
173.9501953125
98.876953125
40.283203125
7.32421875
16.4794921875
29.296875
51.26953125
78.7353515625
99.79248046875
76.904296875
19.22607421875
-54.931640625
-108.0322265625
-127.25830078125
-119.0185546875
-86.0595703125
-48.52294921875
-19.22607421875
6.40869140625
-4.57763671875
-55.84716796875
-122.6806640625
-172.119140625
-182.18994140625
-162.9638671875
-124.51171875
-89.7216796875
-53.1005859375
-24.71923828125
-33.87451171875
-80.56640625
-142.822265625
-192.2607421875
-199.5849609375
-184.02099609375
-147.39990234375
-107.11669921875
-58.59375
-32.04345703125
-40.283203125
-88.80615234375
-146.484375
-190.4296875
-195.9228515625
-177.6123046875
-145.56884765625
-100.7080078125
-63.17138671875
-29.296875
-36.62109375
-75.98876953125
-135.498046875
-180.35888671875
-189.51416015625
-173.9501953125
-140.9912109375
-97.0458984375
-45.7763671875
-12.8173828125
-27.4658203125
-69.580078125
-131.8359375
-177.6123046875
-184.9365234375
-165.71044921875
-129.08935546875
-88.80615234375
-49.4384765625
-13.73291015625
-21.97265625
-66.83349609375
-126.3427734375
-173.03466796875
-180.35888671875
-162.9638671875
-124.51171875
-80.56640625
-35.70556640625
-7.32421875
-18.310546875
-63.17138671875
-119.93408203125
-169.37255859375
-179.443359375
-160.21728515625
-126.3427734375
-87.890625
-44.86083984375
-10.07080078125
-10.07080078125
-60.4248046875
-131.8359375
-176.69677734375
-183.10546875
-159.3017578125
-120.849609375
-81.48193359375
-43.9453125
-15.56396484375
-16.4794921875
-58.59375
-124.51171875
-176.69677734375
-183.10546875
-166.6259765625
-131.8359375
-87.890625
-48.52294921875
-13.73291015625
-20.1416015625
-66.83349609375
-127.25830078125
-184.02099609375
-197.75390625
-176.69677734375
-141.90673828125
-102.5390625
-64.0869140625
-34.7900390625
-33.87451171875
-76.904296875
-137.3291015625
-181.2744140625
-195.9228515625
-180.35888671875
-143.73779296875
-107.11669921875
-66.83349609375
-29.296875
-38.4521484375
-80.56640625
-144.6533203125
-189.51416015625
-198.66943359375
-182.18994140625
-150.146484375
-112.60986328125
-71.4111328125
-40.283203125
-47.607421875
-85.14404296875
-144.6533203125
-189.51416015625
-198.66943359375
-183.10546875
-150.146484375
-110.77880859375
-69.580078125
-34.7900390625
-41.19873046875
-85.14404296875
-151.06201171875
-200.50048828125
-209.65576171875
-186.767578125
-151.9775390625
-112.60986328125
-75.98876953125
-42.1142578125
-49.4384765625
-91.552734375
-151.9775390625
-201.416015625
-213.31787109375
-189.51416015625
-154.72412109375
-117.1875
-77.81982421875
-38.4521484375
-49.4384765625
-97.0458984375
-159.3017578125
-209.65576171875
-220.64208984375
-194.091796875
-157.470703125
-110.77880859375
-65.00244140625
-33.87451171875
-44.86083984375
-88.80615234375
-156.55517578125
-206.9091796875
-213.31787109375
-194.091796875
-152.89306640625
-117.1875
-75.0732421875
-44.86083984375
-46.69189453125
-90.63720703125
-151.9775390625
-201.416015625
-211.48681640625
-195.9228515625
-151.9775390625
-116.27197265625
-78.7353515625
-45.7763671875
-49.4384765625
-94.29931640625
-160.21728515625
-208.740234375
-221.5576171875
-197.75390625
-159.3017578125
-124.51171875
-79.65087890625
-40.283203125
-43.9453125
-85.14404296875
-154.72412109375
-206.9091796875
-214.2333984375
-194.091796875
-161.1328125
-122.6806640625
-77.81982421875
-39.36767578125
-51.26953125
-97.96142578125
-162.04833984375
-207.82470703125
-215.14892578125
-195.00732421875
-157.470703125
-116.27197265625
-75.98876953125
-40.283203125
-43.9453125
-87.890625
-151.9775390625
-203.2470703125
-216.064453125
-195.9228515625
-160.21728515625
-120.849609375
-75.0732421875
-27.4658203125
-27.4658203125
-69.580078125
-119.93408203125
-152.89306640625
-151.06201171875
-134.58251953125
-108.0322265625
-67.7490234375
-25.634765625
8.23974609375
4.57763671875
-44.86083984375
-110.77880859375
-159.3017578125
-169.37255859375
-146.484375
-110.77880859375
-68.66455078125
-11.90185546875
24.71923828125
14.6484375
-32.04345703125
-88.80615234375
-141.90673828125
-151.9775390625
-139.16015625
-101.62353515625
-56.7626953125
-20.1416015625
12.8173828125
-2.74658203125
-44.86083984375
-101.62353515625
-155.6396484375
-180.35888671875
-165.71044921875
-137.3291015625
-109.86328125
-71.4111328125
-45.7763671875
-54.01611328125
-96.13037109375
-164.794921875
-216.064453125
-228.8818359375
-205.078125
-166.6259765625
-122.6806640625
-79.65087890625
-54.931640625
-51.26953125
-99.79248046875
-162.04833984375
-214.2333984375
-225.2197265625
-204.16259765625
-172.119140625
-129.08935546875
-86.0595703125
-54.01611328125
-56.7626953125
-104.3701171875
-167.54150390625
-216.97998046875
-216.97998046875
-199.5849609375
-171.20361328125
-126.3427734375
-80.56640625
-47.607421875
-56.7626953125
-100.7080078125
-166.6259765625
-210.5712890625
-221.5576171875
-204.16259765625
-177.6123046875
-142.822265625
-108.94775390625
-86.97509765625
-104.3701171875
-162.04833984375
-243.5302734375
-313.1103515625
-325.01220703125
-290.22216796875
-218.81103515625
-99.79248046875
68.66455078125
259.09423828125
419.3115234375
542.90771484375
650.0244140625
776.3671875
894.47021484375
980.52978515625
1054.6875
1108.70361328125
1133.4228515625
1116.02783203125
1043.701171875
833.1298828125
519.10400390625
216.97998046875
-23.8037109375
-193.17626953125
-247.1923828125
-204.16259765625
-129.08935546875
-65.00244140625
-53.1005859375
-63.17138671875
-92.46826171875
-117.1875
-122.6806640625
-95.21484375
-64.0869140625
-23.8037109375
13.73291015625
44.86083984375
35.70556640625
-10.07080078125
-82.3974609375
-131.8359375
-140.9912109375
-126.3427734375
-91.552734375
-46.69189453125
-5.4931640625
29.296875
24.71923828125
-17.39501953125
-86.97509765625
-140.9912109375
-150.146484375
-124.51171875
-95.21484375
-51.26953125
-7.32421875
33.87451171875
32.958984375
-10.07080078125
-68.66455078125
-116.27197265625
-135.498046875
-117.1875
-70.49560546875
-29.296875
15.56396484375
54.01611328125
54.931640625
6.40869140625
-57.67822265625
-105.28564453125
-112.60986328125
-87.890625
-50.35400390625
-6.40869140625
43.02978515625
75.0732421875
79.65087890625
42.1142578125
-13.73291015625
-69.580078125
-85.14404296875
-56.7626953125
-18.310546875
26.55029296875
74.15771484375
109.86328125
112.60986328125
75.0732421875
20.1416015625
-25.634765625
-33.87451171875
-9.1552734375
27.4658203125
73.2421875
129.08935546875
164.794921875
179.443359375
143.73779296875
79.65087890625
37.53662109375
28.38134765625
53.1005859375
101.62353515625
155.6396484375
215.14892578125
266.41845703125
269.1650390625
239.8681640625
189.51416015625
139.16015625
138.24462890625
165.71044921875
211.48681640625
260.009765625
312.19482421875
357.97119140625
363.46435546875
334.16748046875
285.64453125
238.037109375
223.388671875
249.0234375
289.306640625
336.9140625
386.3525390625
422.05810546875
426.6357421875
387.26806640625
326.84326171875
268.24951171875
253.60107421875
266.41845703125
296.630859375
340.576171875
382.6904296875
405.57861328125
398.25439453125
357.0556640625
281.982421875
205.99365234375
173.9501953125
176.69677734375
195.00732421875
216.064453125
239.8681640625
259.09423828125
238.95263671875
175.78125
92.46826171875
31.1279296875
-0.91552734375
0
21.05712890625
50.35400390625
79.65087890625
99.79248046875
86.0595703125
37.53662109375
-29.296875
-98.876953125
-125.42724609375
-110.77880859375
-87.890625
-47.607421875
-10.986328125
21.05712890625
14.6484375
-32.04345703125
-98.876953125
-158.38623046875
-178.52783203125
-161.1328125
-130.0048828125
-91.552734375
-37.53662109375
0.91552734375
-11.90185546875
-50.35400390625
-116.27197265625
-174.86572265625
-186.767578125
-175.78125
-140.07568359375
-98.876953125
-55.84716796875
-21.97265625
-29.296875
-66.83349609375
-123.59619140625
-183.10546875
-186.767578125
-171.20361328125
-139.16015625
-91.552734375
-45.7763671875
-10.986328125
-10.07080078125
-55.84716796875
-117.1875
-171.20361328125
-186.767578125
-170.2880859375
-138.24462890625
-104.3701171875
-44.86083984375
-6.40869140625
-7.32421875
-43.02978515625
-109.86328125
-161.1328125
-185.85205078125
-169.37255859375
-127.25830078125
-86.97509765625
-39.36767578125
-1.8310546875
6.40869140625
-43.02978515625
-109.86328125
-162.9638671875
-181.2744140625
-162.9638671875
-128.173828125
-85.14404296875
-41.19873046875
-0.91552734375
1.8310546875
-47.607421875
-109.86328125
-162.9638671875
-181.2744140625
-167.54150390625
-132.75146484375
-87.890625
-45.7763671875
0
0.91552734375
-41.19873046875
-108.0322265625
-171.20361328125
-184.02099609375
-172.119140625
-135.498046875
-90.63720703125
-56.7626953125
-16.4794921875
-6.40869140625
-52.18505859375
-127.25830078125
-179.443359375
-193.17626953125
-174.86572265625
-139.16015625
-95.21484375
-46.69189453125
-12.8173828125
-10.986328125
-55.84716796875
-119.0185546875
-176.69677734375
-193.17626953125
-180.35888671875
-152.89306640625
-110.77880859375
-64.0869140625
-28.38134765625
-21.05712890625
-54.931640625
-125.42724609375
-186.767578125
-205.078125
-188.5986328125
-153.80859375
-113.525390625
-71.4111328125
-30.21240234375
-25.634765625
-69.580078125
-130.92041015625
-192.2607421875
-205.99365234375
-186.767578125
-157.470703125
-119.93408203125
-75.0732421875
-33.87451171875
-42.1142578125
-77.81982421875
-144.6533203125
-199.5849609375
-213.31787109375
-195.00732421875
-155.6396484375
-119.0185546875
-76.904296875
-41.19873046875
-40.283203125
-83.31298828125
-140.9912109375
-203.2470703125
-222.47314453125
-203.2470703125
-172.119140625
-126.3427734375
-69.580078125
-31.1279296875
-35.70556640625
-75.98876953125
-149.23095703125
-203.2470703125
-224.30419921875
-204.16259765625
-176.69677734375
-128.173828125
-85.14404296875
-47.607421875
-48.52294921875
-87.890625
-152.89306640625
-210.5712890625
-224.30419921875
-205.99365234375
-171.20361328125
-126.3427734375
-83.31298828125
-48.52294921875
-46.69189453125
-82.3974609375
-149.23095703125
-212.40234375
-224.30419921875
-199.5849609375
-171.20361328125
-132.75146484375
-81.48193359375
-43.9453125
-45.7763671875
-86.97509765625
-151.9775390625
-211.48681640625
-226.13525390625
-210.5712890625
-176.69677734375
-134.58251953125
-86.0595703125
-43.9453125
-42.1142578125
-86.0595703125
-153.80859375
-214.2333984375
-232.5439453125
-205.99365234375
-170.2880859375
-132.75146484375
-88.80615234375
-50.35400390625
-45.7763671875
-84.228515625
-145.56884765625
-209.65576171875
-229.79736328125
-210.5712890625
-175.78125
-137.3291015625
-90.63720703125
-51.26953125
-49.4384765625
-78.7353515625
-140.9912109375
-198.66943359375
-219.7265625
-202.33154296875
-171.20361328125
-127.25830078125
-89.7216796875
-53.1005859375
-45.7763671875
-80.56640625
-148.3154296875
-213.31787109375
-223.388671875
-203.2470703125
-162.9638671875
-115.3564453125
-63.17138671875
-17.39501953125
-4.57763671875
-35.70556640625
-101.62353515625
-167.54150390625
-184.02099609375
-164.794921875
-135.498046875
-97.96142578125
-53.1005859375
-21.05712890625
-14.6484375
-55.84716796875
-109.86328125
-164.794921875
-174.86572265625
-154.72412109375
-121.76513671875
-81.48193359375
-43.02978515625
-1.8310546875
4.57763671875
-33.87451171875
-94.29931640625
-147.39990234375
-167.54150390625
-164.794921875
-137.3291015625
-94.29931640625
-52.18505859375
-15.56396484375
-18.310546875
-56.7626953125
-122.6806640625
-195.9228515625
-233.45947265625
-225.2197265625
-189.51416015625
-150.146484375
-108.0322265625
-66.83349609375
-70.49560546875
-103.45458984375
-163.87939453125
-220.64208984375
-237.12158203125
-231.62841796875
-204.16259765625
-158.38623046875
-116.27197265625
-69.580078125
-73.2421875
-102.5390625
-164.794921875
-216.97998046875
-240.78369140625
-229.79736328125
-189.51416015625
-145.56884765625
-106.201171875
-75.0732421875
-69.580078125
-100.7080078125
-162.04833984375
-225.2197265625
-231.62841796875
-225.2197265625
-197.75390625
-155.6396484375
-113.525390625
-75.98876953125
-76.904296875
-108.0322265625
-173.9501953125
-234.375
-265.5029296875
-251.77001953125
-231.62841796875
-207.82470703125
-179.443359375
-163.87939453125
-170.2880859375
-183.10546875
-208.740234375
-205.99365234375
-115.3564453125
41.19873046875
221.5576171875
426.6357421875
638.12255859375
856.93359375
1008.9111328125
1060.1806640625
1038.2080078125
985.107421875
968.6279296875
945.73974609375
919.189453125
821.22802734375
612.48779296875
413.818359375
195.00732421875
-25.634765625
-206.9091796875
-285.64453125
-289.306640625
-242.61474609375
-201.416015625
-162.9638671875
-97.0458984375
-33.87451171875
4.57763671875
-11.90185546875
-76.904296875
-137.3291015625
-145.56884765625
-130.0048828125
-106.201171875
-65.91796875
-22.88818359375
3.662109375
6.40869140625
-23.8037109375
-93.3837890625
-153.80859375
-164.794921875
-160.21728515625
-135.498046875
-91.552734375
-43.9453125
-4.57763671875
15.56396484375
-12.8173828125
-86.0595703125
-139.16015625
-156.55517578125
-140.07568359375
-111.6943359375
-68.66455078125
-31.1279296875
11.90185546875
19.22607421875
-20.1416015625
-85.14404296875
-140.07568359375
-150.146484375
-121.76513671875
-94.29931640625
-48.52294921875
-7.32421875
31.1279296875
43.02978515625
7.32421875
-56.7626953125
-119.93408203125
-131.8359375
-105.28564453125
-73.2421875
-27.4658203125
24.71923828125
56.7626953125
69.580078125
39.36767578125
-18.310546875
-73.2421875
-86.97509765625
-66.83349609375
-34.7900390625
15.56396484375
57.67822265625
100.7080078125
119.93408203125
96.13037109375
33.87451171875
-31.1279296875
-35.70556640625
-18.310546875
20.1416015625
72.32666015625
128.173828125
170.2880859375
187.68310546875
162.04833984375
104.3701171875
61.34033203125
56.7626953125
79.65087890625
120.849609375
166.6259765625
218.81103515625
270.08056640625
291.1376953125
263.671875
210.5712890625
156.55517578125
147.39990234375
169.37255859375
219.7265625
266.41845703125
314.02587890625
353.3935546875
373.53515625
345.15380859375
281.982421875
228.8818359375
213.31787109375
231.62841796875
264.58740234375
309.4482421875
360.7177734375
400.08544921875
406.494140625
367.12646484375
294.7998046875
231.62841796875
205.99365234375
213.31787109375
241.69921875
271.91162109375
298.4619140625
317.68798828125
313.1103515625
269.1650390625
185.85205078125
107.11669921875
73.2421875
79.65087890625
91.552734375
114.44091796875
138.24462890625
163.87939453125
153.80859375
102.5390625
21.97265625
-54.01611328125
-80.56640625
-77.81982421875
-64.0869140625
-32.958984375
0
32.958984375
32.04345703125
-7.32421875
-74.15771484375
-151.06201171875
-176.69677734375
-173.03466796875
-143.73779296875
-105.28564453125
-61.34033203125
-22.88818359375
-18.310546875
-57.67822265625
-126.3427734375
-195.00732421875
-214.2333984375
-201.416015625
-172.119140625
-118.10302734375
-75.0732421875
-41.19873046875
-29.296875
-63.17138671875
-125.42724609375
-188.5986328125
-207.82470703125
-199.5849609375
-172.119140625
-130.0048828125
-80.56640625
-36.62109375
-28.38134765625
-65.00244140625
-132.75146484375
-195.00732421875
-216.97998046875
-197.75390625
-163.87939453125
-115.3564453125
-71.4111328125
-29.296875
-23.8037109375
-58.59375
-122.6806640625
-183.10546875
-206.9091796875
-189.51416015625
-158.38623046875
-113.525390625
-70.49560546875
-37.53662109375
-22.88818359375
-50.35400390625
-121.76513671875
-185.85205078125
-199.5849609375
-179.443359375
-145.56884765625
-98.876953125
-58.59375
-26.55029296875
-11.90185546875
-45.7763671875
-118.10302734375
-178.52783203125
-198.66943359375
-184.9365234375
-151.06201171875
-106.201171875
-67.7490234375
-20.1416015625
-13.73291015625
-53.1005859375
-119.0185546875
-181.2744140625
-201.416015625
-185.85205078125
-154.72412109375
-113.525390625
-70.49560546875
-28.38134765625
-14.6484375
-48.52294921875
-118.10302734375
-185.85205078125
-210.5712890625
-199.5849609375
-162.9638671875
-114.44091796875
-74.15771484375
-27.4658203125
-22.88818359375
-62.255859375
-126.3427734375
-187.68310546875
-207.82470703125
-197.75390625
-174.86572265625
-124.51171875
-76.904296875
-43.02978515625
-30.21240234375
-65.91796875
-136.41357421875
-197.75390625
-221.5576171875
-202.33154296875
-174.86572265625
-124.51171875
-83.31298828125
-54.01611328125
-43.9453125
-81.48193359375
-145.56884765625
-201.416015625
-221.5576171875
-209.65576171875
-182.18994140625
-140.07568359375
-94.29931640625
-41.19873046875
-27.4658203125
-72.32666015625
-140.9912109375
-201.416015625
-223.388671875
-209.65576171875
-181.2744140625
-137.3291015625
-90.63720703125
-49.4384765625
-41.19873046875
-77.81982421875
-147.39990234375
-214.2333984375
-234.375
-223.388671875
-193.17626953125
-149.23095703125
-98.876953125
-54.01611328125
-44.86083984375
-83.31298828125
-151.06201171875
-216.064453125
-227.96630859375
-219.7265625
-189.51416015625
-146.484375
-100.7080078125
-65.00244140625
-41.19873046875
-81.48193359375
-151.9775390625
-214.2333984375
-231.62841796875
-217.8955078125
-188.5986328125
-140.07568359375
-99.79248046875
-65.91796875
-43.9453125
-78.7353515625
-147.39990234375
-212.40234375
-232.5439453125
-219.7265625
-189.51416015625
-146.484375
-95.21484375
-59.50927734375
-54.01611328125
-86.0595703125
-155.6396484375
-221.5576171875
-239.8681640625
-221.5576171875
-192.2607421875
-149.23095703125
-107.11669921875
-68.66455078125
-54.01611328125
-77.81982421875
-142.822265625
-210.5712890625
-233.45947265625
-222.47314453125
-186.767578125
-148.3154296875
-98.876953125
-54.931640625
-43.9453125
-79.65087890625
-150.146484375
-207.82470703125
-229.79736328125
-217.8955078125
-187.68310546875
-140.9912109375
-93.3837890625
-62.255859375
-48.52294921875
-78.7353515625
-150.146484375
-209.65576171875
-228.8818359375
-212.40234375
-184.9365234375
-130.92041015625
-75.0732421875
-31.1279296875
-5.4931640625
-27.4658203125
-94.29931640625
-163.87939453125
-195.00732421875
-179.443359375
-151.06201171875
-110.77880859375
-64.0869140625
-17.39501953125
-8.23974609375
-42.1142578125
-101.62353515625
-165.71044921875
-188.5986328125
-172.119140625
-135.498046875
-90.63720703125
-50.35400390625
-9.1552734375
2.74658203125
-28.38134765625
-86.0595703125
-150.146484375
-178.52783203125
-162.9638671875
-140.07568359375
-104.3701171875
-55.84716796875
-15.56396484375
2.74658203125
-31.1279296875
-108.0322265625
-181.2744140625
-220.64208984375
-222.47314453125
-195.00732421875
-151.06201171875
-107.11669921875
-76.904296875
-68.66455078125
-97.0458984375
-159.3017578125
-225.2197265625
-251.77001953125
-231.62841796875
-201.416015625
-156.55517578125
-111.6943359375
-65.00244140625
-48.52294921875
-84.228515625
-154.72412109375
-220.64208984375
-246.27685546875
-230.712890625
-199.5849609375
-156.55517578125
-114.44091796875
-71.4111328125
-58.59375
-88.80615234375
-151.06201171875
-211.48681640625
-237.12158203125
-231.62841796875
-195.9228515625
-153.80859375
-102.5390625
-54.931640625
-47.607421875
-78.7353515625
-151.9775390625
-220.64208984375
-245.361328125
-239.8681640625
-223.388671875
-191.34521484375
-156.55517578125
-137.3291015625
-134.58251953125
-176.69677734375
-237.12158203125
-276.4892578125
-269.1650390625
-168.45703125
4.57763671875
192.2607421875
394.59228515625
599.67041015625
790.10009765625
926.513671875
981.4453125
982.36083984375
991.51611328125
1013.48876953125
1012.5732421875
1000.67138671875
961.3037109375
802.91748046875
555.72509765625
281.06689453125
12.8173828125
-220.64208984375
-317.68798828125
-292.96875
-232.5439453125
-157.470703125
-105.28564453125
-49.4384765625
-4.57763671875
-4.57763671875
-52.18505859375
-117.1875
-136.41357421875
-119.0185546875
-94.29931640625
-51.26953125
-13.73291015625
20.1416015625
32.04345703125
-1.8310546875
-69.580078125
-133.6669921875
-158.38623046875
-142.822265625
-111.6943359375
-72.32666015625
-32.04345703125
10.07080078125
27.4658203125
-6.40869140625
-62.255859375
-119.93408203125
-149.23095703125
-139.16015625
-112.60986328125
-58.59375
-16.4794921875
20.1416015625
39.36767578125
14.6484375
-49.4384765625
-115.3564453125
-137.3291015625
-122.6806640625
-92.46826171875
-45.7763671875
0.91552734375
40.283203125
53.1005859375
32.04345703125
-25.634765625
-86.97509765625
-109.86328125
-96.13037109375
-64.0869140625
-21.05712890625
24.71923828125
72.32666015625
89.7216796875
62.255859375
4.57763671875
-58.59375
-79.65087890625
-66.83349609375
-34.7900390625
14.6484375
60.4248046875
102.5390625
130.0048828125
110.77880859375
54.01611328125
0
-21.97265625
-9.1552734375
23.8037109375
75.98876953125
130.92041015625
176.69677734375
197.75390625
183.10546875
129.08935546875
70.49560546875
51.26953125
77.81982421875
119.0185546875
162.04833984375
214.2333984375
267.333984375
299.37744140625
288.39111328125
229.79736328125
174.86572265625
158.38623046875
175.78125
210.5712890625
262.75634765625
317.68798828125
368.95751953125
390.93017578125
360.7177734375
307.6171875
253.60107421875
231.62841796875
248.10791015625
287.4755859375
332.33642578125
368.95751953125
411.07177734375
435.791015625
411.9873046875
346.0693359375
277.40478515625
243.5302734375
250.8544921875
273.74267578125
309.4482421875
347.900390625
372.61962890625
369.873046875
325.01220703125
249.0234375
173.03466796875
125.42724609375
118.10302734375
133.6669921875
155.6396484375
180.35888671875
205.99365234375
201.416015625
156.55517578125
79.65087890625
0.91552734375
-38.4521484375
-39.36767578125
-29.296875
1.8310546875
34.7900390625
65.00244140625
68.66455078125
32.04345703125
-32.04345703125
-104.3701171875
-145.56884765625
-137.3291015625
-111.6943359375
-76.904296875
-35.70556640625
-0.91552734375
13.73291015625
-12.8173828125
-85.14404296875
-156.55517578125
-183.10546875
-173.9501953125
-140.07568359375
-100.7080078125
-60.4248046875
-20.1416015625
-2.74658203125
-32.04345703125
-100.7080078125
-175.78125
-195.00732421875
-186.767578125
-162.9638671875
-104.3701171875
-67.7490234375
-31.1279296875
2.74658203125
-22.88818359375
-87.890625
-160.21728515625
-184.02099609375
-176.69677734375
-146.484375
-108.94775390625
-59.50927734375
-18.310546875
-1.8310546875
-32.958984375
-94.29931640625
-158.38623046875
-188.5986328125
-169.37255859375
-143.73779296875
-102.5390625
-56.7626953125
-15.56396484375
2.74658203125
-23.8037109375
-91.552734375
-156.55517578125
-186.767578125
-178.52783203125
-147.39990234375
-97.0458984375
-54.931640625
-17.39501953125
4.57763671875
-25.634765625
-97.96142578125
-165.71044921875
-190.4296875
-176.69677734375
-151.06201171875
-97.96142578125
-47.607421875
-1.8310546875
8.23974609375
-25.634765625
-88.80615234375
-155.6396484375
-183.10546875
-178.52783203125
-149.23095703125
-101.62353515625
-45.7763671875
-3.662109375
5.4931640625
-21.05712890625
-92.46826171875
-163.87939453125
-185.85205078125
-175.78125
-147.39990234375
-99.79248046875
-52.18505859375
-12.8173828125
2.74658203125
-33.87451171875
-103.45458984375
-171.20361328125
-187.68310546875
-188.5986328125
-159.3017578125
-114.44091796875
-68.66455078125
-25.634765625
-4.57763671875
-34.7900390625
-108.0322265625
-173.9501953125
-196.83837890625
-193.17626953125
-164.794921875
-116.27197265625
-75.0732421875
-34.7900390625
-13.73291015625
-38.4521484375
-103.45458984375
-171.20361328125
-199.5849609375
-191.34521484375
-161.1328125
-122.6806640625
-76.904296875
-36.62109375
-21.05712890625
-45.7763671875
-111.6943359375
-178.52783203125
-208.740234375
-198.66943359375
-169.37255859375
-122.6806640625
-80.56640625
-39.36767578125
-19.22607421875
-49.4384765625
-118.10302734375
-187.68310546875
-216.064453125
-205.99365234375
-173.9501953125
-129.08935546875
-86.0595703125
-46.69189453125
-30.21240234375
-55.84716796875
-123.59619140625
-188.5986328125
-215.14892578125
-201.416015625
-175.78125
-135.498046875
-97.0458984375
-53.1005859375
-27.4658203125
-56.7626953125
-119.93408203125
-179.443359375
-213.31787109375
-211.48681640625
-184.02099609375
-137.3291015625
-90.63720703125
-47.607421875
-27.4658203125
-54.01611328125
-120.849609375
-184.9365234375
-216.064453125
-211.48681640625
-184.9365234375
-140.07568359375
-97.0458984375
-53.1005859375
-33.87451171875
-60.4248046875
-119.0185546875
-190.4296875
-217.8955078125
-205.99365234375
-181.2744140625
-137.3291015625
-86.97509765625
-48.52294921875
-29.296875
-54.931640625
-120.849609375
-191.34521484375
-221.5576171875
-208.740234375
-179.443359375
-136.41357421875
-92.46826171875
-52.18505859375
-32.04345703125
-61.34033203125
-130.92041015625
-196.83837890625
-221.5576171875
-213.31787109375
-188.5986328125
-142.822265625
-94.29931640625
-57.67822265625
-28.38134765625
-50.35400390625
-111.6943359375
-185.85205078125
-217.8955078125
-205.99365234375
-177.6123046875
-131.8359375
-87.890625
-51.26953125
-29.296875
-54.931640625
-115.3564453125
-176.69677734375
-203.2470703125
-186.767578125
-143.73779296875
-85.14404296875
-29.296875
18.310546875
31.1279296875
-5.4931640625
-70.49560546875
-140.07568359375
-168.45703125
-162.9638671875
-130.0048828125
-83.31298828125
-36.62109375
2.74658203125
20.1416015625
0
-55.84716796875
-125.42724609375
-161.1328125
-146.484375
-115.3564453125
-69.580078125
-27.4658203125
14.6484375
35.70556640625
10.986328125
-66.83349609375
-140.07568359375
-175.78125
-164.794921875
-130.92041015625
-79.65087890625
-42.1142578125
-16.4794921875
-7.32421875
-44.86083984375
-118.10302734375
-194.091796875
-226.13525390625
-216.97998046875
-191.34521484375
-147.39990234375
-104.3701171875
-67.7490234375
-47.607421875
-66.83349609375
-130.92041015625
-201.416015625
-229.79736328125
-218.81103515625
-191.34521484375
-149.23095703125
-108.94775390625
-63.17138671875
-42.1142578125
-71.4111328125
-142.822265625
-205.99365234375
-232.5439453125
-223.388671875
-202.33154296875
-160.21728515625
-107.11669921875
-61.34033203125
-39.36767578125
-72.32666015625
-140.9912109375
-205.078125
-239.8681640625
-217.8955078125
-189.51416015625
-144.6533203125
-105.28564453125
-73.2421875
-57.67822265625
-89.7216796875
-155.6396484375
-239.8681640625
-282.89794921875
-279.23583984375
-260.92529296875
-236.2060546875
-205.99365234375
-149.23095703125
-94.29931640625
-73.2421875
-15.56396484375
61.34033203125
187.68310546875
365.29541015625
563.96484375
787.353515625
977.783203125
1099.54833984375
1162.7197265625
1159.0576171875
1088.56201171875
964.9658203125
874.32861328125
769.04296875
569.4580078125
366.2109375
167.54150390625
12.8173828125
-111.6943359375
-162.9638671875
-202.33154296875
-240.78369140625
-249.93896484375
-201.416015625
-132.75146484375
-54.931640625
0.91552734375
42.1142578125
60.4248046875
33.87451171875
-30.21240234375
-106.201171875
-142.822265625
-133.6669921875
-109.86328125
-68.66455078125
-28.38134765625
12.8173828125
34.7900390625
10.986328125
-54.931640625
-129.08935546875
-162.04833984375
-154.72412109375
-119.93408203125
-73.2421875
-32.04345703125
9.1552734375
31.1279296875
13.73291015625
-46.69189453125
-117.1875
-147.39990234375
-134.58251953125
-105.28564453125
-49.4384765625
-7.32421875
31.1279296875
50.35400390625
32.958984375
-39.36767578125
-107.11669921875
-132.75146484375
-119.0185546875
-86.0595703125
-43.9453125
4.57763671875
52.18505859375
78.7353515625
52.18505859375
-10.07080078125
-75.98876953125
-108.0322265625
-88.80615234375
-58.59375
-12.8173828125
34.7900390625
81.48193359375
106.201171875
86.97509765625
23.8037109375
-41.19873046875
-64.0869140625
-45.7763671875
-19.22607421875
31.1279296875
82.3974609375
125.42724609375
153.80859375
140.9912109375
82.3974609375
17.39501953125
-12.8173828125
11.90185546875
47.607421875
101.62353515625
155.6396484375
209.65576171875
237.12158203125
222.47314453125
163.87939453125
110.77880859375
89.7216796875
108.0322265625
151.06201171875
202.33154296875
258.1787109375
315.85693359375
348.81591796875
328.67431640625
270.99609375
212.40234375
187.68310546875
203.2470703125
238.037109375
298.4619140625
352.47802734375
390.93017578125
413.818359375
390.93017578125
333.251953125
279.23583984375
249.0234375
261.8408203125
292.05322265625
333.251953125
380.859375
421.142578125
442.19970703125
412.90283203125
343.32275390625
267.333984375
225.2197265625
225.2197265625
241.69921875
272.8271484375
300.29296875
328.67431640625
333.251953125
293.88427734375
208.740234375
120.849609375
74.15771484375
66.83349609375
74.15771484375
97.96142578125
122.6806640625
142.822265625
152.89306640625
116.27197265625
34.7900390625
-43.02978515625
-79.65087890625
-86.97509765625
-70.49560546875
-40.283203125
-0.91552734375
33.87451171875
44.86083984375
21.05712890625
-49.4384765625
-120.849609375
-159.3017578125
-164.794921875
-149.23095703125
-95.21484375
-56.7626953125
-21.97265625
-4.57763671875
-25.634765625
-87.890625
-161.1328125
-187.68310546875
-177.6123046875
-153.80859375
-112.60986328125
-72.32666015625
-32.04345703125
-11.90185546875
-33.87451171875
-100.7080078125
-162.04833984375
-195.00732421875
-191.34521484375
-163.87939453125
-119.0185546875
-75.98876953125
-35.70556640625
-5.4931640625
-31.1279296875
-85.14404296875
-151.06201171875
-191.34521484375
-180.35888671875
-159.3017578125
-116.27197265625
-67.7490234375
-26.55029296875
1.8310546875
-24.71923828125
-87.890625
-156.55517578125
-191.34521484375
-176.69677734375
-155.6396484375
-115.3564453125
-72.32666015625
-25.634765625
5.4931640625
-18.310546875
-82.3974609375
-151.06201171875
-189.51416015625
-176.69677734375
-149.23095703125
-108.0322265625
-60.4248046875
-29.296875
-3.662109375
-24.71923828125
-86.0595703125
-153.80859375
-189.51416015625
-186.767578125
-161.1328125
-111.6943359375
-70.49560546875
-23.8037109375
0
-20.1416015625
-81.48193359375
-151.06201171875
-184.02099609375
-184.9365234375
-155.6396484375
-108.0322265625
-63.17138671875
-28.38134765625
-2.74658203125
-21.97265625
-84.228515625
-155.6396484375
-194.091796875
-188.5986328125
-158.38623046875
-119.93408203125
-75.98876953125
-34.7900390625
-5.4931640625
-23.8037109375
-87.890625
-161.1328125
-199.5849609375
-194.091796875
-166.6259765625
-125.42724609375
-86.0595703125
-44.86083984375
-11.90185546875
-39.36767578125
-101.62353515625
-169.37255859375
-195.00732421875
-196.83837890625
-175.78125
-134.58251953125
-91.552734375
-52.18505859375
-28.38134765625
-43.02978515625
-103.45458984375
-173.9501953125
-208.740234375
-211.48681640625
-188.5986328125
-143.73779296875
-99.79248046875
-43.9453125
-14.6484375
-36.62109375
-104.3701171875
-179.443359375
-213.31787109375
-205.99365234375
-184.02099609375
-145.56884765625
-107.11669921875
-62.255859375
-42.1142578125
-62.255859375
-119.93408203125
-173.9501953125
-213.31787109375
-215.14892578125
-187.68310546875
-146.484375
-100.7080078125
-59.50927734375
-39.36767578125
-58.59375
-113.525390625
-179.443359375
-226.13525390625
-220.64208984375
-188.5986328125
-149.23095703125
-115.3564453125
-76.904296875
-40.283203125
-54.931640625
-119.93408203125
-193.17626953125
-222.47314453125
-214.2333984375
-186.767578125
-151.06201171875
-108.94775390625
-78.7353515625
-50.35400390625
-62.255859375
-118.10302734375
-177.6123046875
-212.40234375
-212.40234375
-192.2607421875
-158.38623046875
-119.93408203125
-80.56640625
-51.26953125
-71.4111328125
-117.1875
-170.2880859375
-216.97998046875
-219.7265625
-205.078125
-165.71044921875
-117.1875
-76.904296875
-60.4248046875
-68.66455078125
-120.849609375
-184.9365234375
-219.7265625
-210.5712890625
-188.5986328125
-162.04833984375
-127.25830078125
-85.14404296875
-58.59375
-69.580078125
-122.6806640625
-173.03466796875
-202.33154296875
-199.5849609375
-186.767578125
-165.71044921875
-128.173828125
-95.21484375
-75.0732421875
-81.48193359375
-123.59619140625
-175.78125
-195.00732421875
-205.99365234375
-195.00732421875
-166.6259765625
-129.08935546875
-93.3837890625
-78.7353515625
-86.97509765625
-121.76513671875
-166.6259765625
-187.68310546875
-191.34521484375
-185.85205078125
-166.6259765625
-138.24462890625
-104.3701171875
-86.97509765625
-85.14404296875
-115.3564453125
-151.9775390625
-173.9501953125
-172.119140625
-151.9775390625
-112.60986328125
-78.7353515625
-52.18505859375
-30.21240234375
-29.296875
-64.0869140625
-109.86328125
-144.6533203125
-159.3017578125
-149.23095703125
-120.849609375
-89.7216796875
-64.0869140625
-38.4521484375
-30.21240234375
-52.18505859375
-98.876953125
-126.3427734375
-135.498046875
-129.08935546875
-104.3701171875
-76.904296875
-57.67822265625
-26.55029296875
-36.62109375
-71.4111328125
-109.86328125
-132.75146484375
-149.23095703125
-151.9775390625
-135.498046875
-119.0185546875
-94.29931640625
-91.552734375
-98.876953125
-121.76513671875
-163.87939453125
-191.34521484375
-201.416015625
-208.740234375
-195.00732421875
-166.6259765625
-135.498046875
-113.525390625
-113.525390625
-130.0048828125
-163.87939453125
-195.00732421875
-209.65576171875
-209.65576171875
-190.4296875
-162.04833984375
-139.16015625
-112.60986328125
-110.77880859375
-132.75146484375
-170.2880859375
-202.33154296875
-213.31787109375
-201.416015625
-185.85205078125
-162.04833984375
-137.3291015625
-114.44091796875
-112.60986328125
-130.0048828125
-170.2880859375
-196.83837890625
-212.40234375
-207.82470703125
-190.4296875
-161.1328125
-138.24462890625
-118.10302734375
-128.173828125
-168.45703125
-211.48681640625
-263.671875
-293.88427734375
-303.03955078125
-292.05322265625
-237.12158203125
-172.119140625
-89.7216796875
25.634765625
153.80859375
275.57373046875
413.818359375
564.88037109375
741.5771484375
897.216796875
999.755859375
1079.40673828125
1121.52099609375
1125.18310546875
1050.10986328125
953.9794921875
769.95849609375
495.30029296875
252.685546875
53.1005859375
-106.201171875
-192.2607421875
-184.02099609375
-160.21728515625
-151.06201171875
-177.6123046875
-207.82470703125
-191.34521484375
-151.9775390625
-95.21484375
-58.59375
-26.55029296875
-9.1552734375
-4.57763671875
-36.62109375
-84.228515625
-119.0185546875
-135.498046875
-130.92041015625
-112.60986328125
-89.7216796875
-54.01611328125
-34.7900390625
-36.62109375
-59.50927734375
-90.63720703125
-125.42724609375
-140.9912109375
-135.498046875
-113.525390625
-81.48193359375
-43.02978515625
-16.4794921875
-22.88818359375
-49.4384765625
-86.97509765625
-118.10302734375
-130.92041015625
-119.93408203125
-97.96142578125
-65.00244140625
-35.70556640625
-14.6484375
-6.40869140625
-33.87451171875
-78.7353515625
-110.77880859375
-110.77880859375
-101.62353515625
-77.81982421875
-49.4384765625
-10.986328125
19.22607421875
16.4794921875
-7.32421875
-42.1142578125
-78.7353515625
-86.0595703125
-70.49560546875
-54.931640625
-12.8173828125
21.05712890625
57.67822265625
61.34033203125
35.70556640625
-9.1552734375
-43.02978515625
-43.02978515625
-21.97265625
10.986328125
41.19873046875
72.32666015625
110.77880859375
120.849609375
91.552734375
59.50927734375
23.8037109375
21.05712890625
41.19873046875
67.7490234375
102.5390625
140.9912109375
182.18994140625
195.9228515625
181.2744140625
141.90673828125
119.0185546875
124.51171875
134.58251953125
165.71044921875
214.2333984375
259.09423828125
298.4619140625
307.6171875
281.06689453125
242.61474609375
215.14892578125
205.99365234375
219.7265625
248.10791015625
293.88427734375
330.50537109375
355.224609375
360.7177734375
333.251953125
291.1376953125
273.74267578125
260.92529296875
262.75634765625
284.72900390625
315.85693359375
344.23828125
368.0419921875
360.7177734375
327.7587890625
269.1650390625
216.97998046875
190.4296875
194.091796875
199.5849609375
211.48681640625
232.5439453125
240.78369140625
223.388671875
175.78125
122.6806640625
70.49560546875
34.7900390625
27.4658203125
33.87451171875
51.26953125
75.0732421875
82.3974609375
61.34033203125
15.56396484375
-36.62109375
-75.98876953125
-105.28564453125
-108.0322265625
-92.46826171875
-68.66455078125
-32.958984375
-17.39501953125
-22.88818359375
-56.7626953125
-103.45458984375
-151.06201171875
-163.87939453125
-162.04833984375
-140.9912109375
-115.3564453125
-83.31298828125
-50.35400390625
-53.1005859375
-86.0595703125
-140.07568359375
-172.119140625
-184.9365234375
-179.443359375
-154.72412109375
-118.10302734375
-85.14404296875
-65.91796875
-70.49560546875
-99.79248046875
-146.484375
-183.10546875
-195.00732421875
-184.9365234375
-156.55517578125
-126.3427734375
-89.7216796875
-58.59375
-60.4248046875
-86.97509765625
-133.6669921875
-174.86572265625
-181.2744140625
-177.6123046875
-152.89306640625
-120.849609375
-83.31298828125
-55.84716796875
-55.84716796875
-78.7353515625
-132.75146484375
-173.03466796875
-184.02099609375
-177.6123046875
-151.06201171875
-119.93408203125
-85.14404296875
-51.26953125
-42.1142578125
-75.98876953125
-123.59619140625
-164.794921875
-170.2880859375
-159.3017578125
-144.6533203125
-116.27197265625
-71.4111328125
-51.26953125
-46.69189453125
-74.15771484375
-127.25830078125
-172.119140625
-174.86572265625
-175.78125
-145.56884765625
-118.10302734375
-82.3974609375
-33.87451171875
-25.634765625
-66.83349609375
-129.08935546875
-173.03466796875
-184.9365234375
-165.71044921875
-136.41357421875
-99.79248046875
-54.01611328125
-21.97265625
-26.55029296875
-73.2421875
-145.56884765625
-193.17626953125
-196.83837890625
-175.78125
-137.3291015625
-95.21484375
-53.1005859375
-27.4658203125
-34.7900390625
-99.79248046875
-165.71044921875
-203.2470703125
-208.740234375
-183.10546875
-133.6669921875
-93.3837890625
-52.18505859375
-29.296875
-43.9453125
-97.96142578125
-162.9638671875
-205.078125
-214.2333984375
-184.9365234375
-148.3154296875
-106.201171875
-65.00244140625
-35.70556640625
-43.9453125
-100.7080078125
-171.20361328125
-216.064453125
-221.5576171875
-196.83837890625
-152.89306640625
-115.3564453125
-72.32666015625
-37.53662109375
-48.52294921875
-105.28564453125
-177.6123046875
-228.8818359375
-228.8818359375
-213.31787109375
-173.03466796875
-120.849609375
-68.66455078125
-39.36767578125
-52.18505859375
-112.60986328125
-183.10546875
-229.79736328125
-234.375
-206.9091796875
-166.6259765625
-124.51171875
-72.32666015625
-46.69189453125
-59.50927734375
-114.44091796875
-191.34521484375
-231.62841796875
-229.79736328125
-208.740234375
-165.71044921875
-125.42724609375
-79.65087890625
-43.02978515625
-59.50927734375
-118.10302734375
-190.4296875
-237.12158203125
-238.95263671875
-209.65576171875
-164.794921875
-122.6806640625
-86.0595703125
-49.4384765625
-67.7490234375
-124.51171875
-200.50048828125
-243.5302734375
-237.12158203125
-207.82470703125
-168.45703125
-122.6806640625
-79.65087890625
-41.19873046875
-56.7626953125
-112.60986328125
-184.9365234375
-225.2197265625
-228.8818359375
-199.5849609375
-166.6259765625
-125.42724609375
-75.98876953125
-45.7763671875
-58.59375
-119.93408203125
-189.51416015625
-236.2060546875
-240.78369140625
-210.5712890625
-164.794921875
-124.51171875
-80.56640625
-48.52294921875
-63.17138671875
-118.10302734375
-193.17626953125
-232.5439453125
-232.5439453125
-211.48681640625
-166.6259765625
-127.25830078125
-84.228515625
-45.7763671875
-60.4248046875
-115.3564453125
-188.5986328125
-236.2060546875
-237.12158203125
-207.82470703125
-167.54150390625
-126.3427734375
-73.2421875
-40.283203125
-59.50927734375
-124.51171875
-186.767578125
-228.8818359375
-225.2197265625
-194.091796875
-151.9775390625
-106.201171875
-54.01611328125
-12.8173828125
-9.1552734375
-65.91796875
-141.90673828125
-183.10546875
-182.18994140625
-155.6396484375
-113.525390625
-77.81982421875
-36.62109375
0.91552734375
-13.73291015625
-77.81982421875
-143.73779296875
-184.9365234375
-172.119140625
-138.24462890625
-97.96142578125
-48.52294921875
-5.4931640625
22.88818359375
15.56396484375
-43.9453125
-122.6806640625
-172.119140625
-178.52783203125
-162.04833984375
-124.51171875
-82.3974609375
-32.958984375
5.4931640625
-9.1552734375
-85.14404296875
-169.37255859375
-220.64208984375
-236.2060546875
-208.740234375
-169.37255859375
-132.75146484375
-84.228515625
-53.1005859375
-71.4111328125
-131.8359375
-207.82470703125
-257.26318359375
-254.5166015625
-218.81103515625
-172.119140625
-127.25830078125
-81.48193359375
-58.59375
-72.32666015625
-125.42724609375
-200.50048828125
-246.27685546875
-250.8544921875
-225.2197265625
-184.02099609375
-136.41357421875
-92.46826171875
-61.34033203125
-70.49560546875
-130.92041015625
-197.75390625
-248.10791015625
-251.77001953125
-219.7265625
-179.443359375
-130.0048828125
-80.56640625
-45.7763671875
-63.17138671875
-128.173828125
-205.078125
-253.60107421875
-261.8408203125
-250.8544921875
-214.2333984375
-184.9365234375
-157.470703125
-141.90673828125
-170.2880859375
-209.65576171875
-252.685546875
-241.69921875
-136.41357421875
29.296875
217.8955078125
423.88916015625
635.3759765625
847.7783203125
987.85400390625
1017.15087890625
1001.5869140625
972.2900390625
971.37451171875
965.88134765625
946.6552734375
872.49755859375
676.57470703125
454.1015625
206.9091796875
-41.19873046875
-254.5166015625
-332.33642578125
-305.7861328125
-238.95263671875
-175.78125
-129.08935546875
-63.17138671875
0.91552734375
17.39501953125
-34.7900390625
-104.3701171875
-149.23095703125
-145.56884765625
-121.76513671875
-86.0595703125
-37.53662109375
3.662109375
39.36767578125
29.296875
-38.4521484375
-115.3564453125
-160.21728515625
-162.04833984375
-140.07568359375
-98.876953125
-54.931640625
-8.23974609375
27.4658203125
21.05712890625
-36.62109375
-111.6943359375
-158.38623046875
-160.21728515625
-127.25830078125
-82.3974609375
-43.9453125
9.1552734375
41.19873046875
32.958984375
-21.97265625
-98.876953125
-141.90673828125
-141.90673828125
-108.94775390625
-67.7490234375
-25.634765625
26.55029296875
58.59375
53.1005859375
3.662109375
-70.49560546875
-116.27197265625
-117.1875
-84.228515625
-39.36767578125
10.986328125
56.7626953125
96.13037109375
88.80615234375
34.7900390625
-44.86083984375
-89.7216796875
-76.904296875
-52.18505859375
-9.1552734375
40.283203125
97.0458984375
140.07568359375
130.92041015625
75.98876953125
1.8310546875
-40.283203125
-29.296875
3.662109375
59.50927734375
109.86328125
164.794921875
201.416015625
202.33154296875
153.80859375
91.552734375
57.67822265625
62.255859375
100.7080078125
146.484375
196.83837890625
256.34765625
304.87060546875
307.6171875
254.5166015625
192.2607421875
150.146484375
160.21728515625
195.9228515625
247.1923828125
299.37744140625
360.7177734375
400.08544921875
389.09912109375
335.0830078125
265.5029296875
222.47314453125
223.388671875
257.26318359375
303.03955078125
349.7314453125
397.3388671875
432.12890625
427.55126953125
368.95751953125
286.56005859375
233.45947265625
233.45947265625
253.60107421875
287.4755859375
321.35009765625
352.47802734375
377.197265625
352.47802734375
273.74267578125
177.6123046875
115.3564453125
97.0458984375
108.94775390625
127.25830078125
153.80859375
192.2607421875
212.40234375
172.119140625
99.79248046875
10.07080078125
-54.01611328125
-64.0869140625
-48.52294921875
-19.22607421875
18.310546875
54.931640625
70.49560546875
53.1005859375
-9.1552734375
-89.7216796875
-148.3154296875
-159.3017578125
-142.822265625
-101.62353515625
-54.931640625
-11.90185546875
18.310546875
3.662109375
-50.35400390625
-130.92041015625
-185.85205078125
-182.18994140625
-162.04833984375
-115.3564453125
-71.4111328125
-33.87451171875
-0.91552734375
-10.07080078125
-68.66455078125
-155.6396484375
-198.66943359375
-200.50048828125
-175.78125
-131.8359375
-82.3974609375
-38.4521484375
-5.4931640625
-21.05712890625
-71.4111328125
-150.146484375
-195.9228515625
-196.83837890625
-166.6259765625
-127.25830078125
-82.3974609375
-30.21240234375
-0.91552734375
-10.986328125
-69.580078125
-148.3154296875
-191.34521484375
-193.17626953125
-164.794921875
-115.3564453125
-71.4111328125
-27.4658203125
10.07080078125
1.8310546875
-51.26953125
-133.6669921875
-184.02099609375
-184.02099609375
-154.72412109375
-117.1875
-68.66455078125
-22.88818359375
13.73291015625
-1.8310546875
-57.67822265625
-132.75146484375
-179.443359375
-176.69677734375
-156.55517578125
-116.27197265625
-73.2421875
-20.1416015625
10.07080078125
1.8310546875
-55.84716796875
-130.92041015625
-184.02099609375
-186.767578125
-157.470703125
-115.3564453125
-73.2421875
-22.88818359375
9.1552734375
-1.8310546875
-57.67822265625
-136.41357421875
-179.443359375
-186.767578125
-167.54150390625
-118.10302734375
-72.32666015625
-29.296875
2.74658203125
-5.4931640625
-62.255859375
-138.24462890625
-195.9228515625
-206.9091796875
-171.20361328125
-126.3427734375
-80.56640625
-31.1279296875
1.8310546875
-11.90185546875
-65.91796875
-142.822265625
-198.66943359375
-201.416015625
-175.78125
-133.6669921875
-92.46826171875
-49.4384765625
-13.73291015625
-25.634765625
-79.65087890625
-147.39990234375
-197.75390625
-204.16259765625
-183.10546875
-140.9912109375
-97.96142578125
-56.7626953125
-16.4794921875
-25.634765625
-79.65087890625
-150.146484375
-204.16259765625
-216.064453125
-183.10546875
-139.16015625
-99.79248046875
-58.59375
-27.4658203125
-26.55029296875
-85.14404296875
-158.38623046875
-203.2470703125
-211.48681640625
-189.51416015625
-152.89306640625
-102.5390625
-57.67822265625
-25.634765625
-31.1279296875
-92.46826171875
-167.54150390625
-210.5712890625
-207.82470703125
-186.767578125
-145.56884765625
-101.62353515625
-64.0869140625
-32.04345703125
-31.1279296875
-86.0595703125
-166.6259765625
-217.8955078125
-228.8818359375
-204.16259765625
-158.38623046875
-108.94775390625
-55.84716796875
-24.71923828125
-34.7900390625
-86.97509765625
-160.21728515625
-216.97998046875
-219.7265625
-197.75390625
-157.470703125
-113.525390625
-66.83349609375
-27.4658203125
-37.53662109375
-92.46826171875
-170.2880859375
-222.47314453125
-221.5576171875
-199.5849609375
-159.3017578125
-109.86328125
-67.7490234375
-37.53662109375
-43.9453125
-92.46826171875
-161.1328125
-212.40234375
-217.8955078125
-195.9228515625
-154.72412109375
-113.525390625
-71.4111328125
-35.70556640625
-34.7900390625
-88.80615234375
-171.20361328125
-219.7265625
-222.47314453125
-199.5849609375
-159.3017578125
-118.10302734375
-73.2421875
-26.55029296875
-33.87451171875
-90.63720703125
-168.45703125
-218.81103515625
-224.30419921875
-198.66943359375
-160.21728515625
-115.3564453125
-68.66455078125
-32.04345703125
-36.62109375
-84.228515625
-163.87939453125
-220.64208984375
-221.5576171875
-197.75390625
-156.55517578125
-110.77880859375
-68.66455078125
-33.87451171875
-40.283203125
-90.63720703125
-162.04833984375
-213.31787109375
-222.47314453125
-192.2607421875
-149.23095703125
-98.876953125
-39.36767578125
19.22607421875
23.8037109375
-27.4658203125
-97.96142578125
-157.470703125
-158.38623046875
-138.24462890625
-106.201171875
-69.580078125
-18.310546875
14.6484375
10.07080078125
-36.62109375
-108.0322265625
-157.470703125
-149.23095703125
-124.51171875
-83.31298828125
-44.86083984375
0.91552734375
36.62109375
32.04345703125
-21.97265625
-105.28564453125
-160.21728515625
-175.78125
-151.9775390625
-112.60986328125
-67.7490234375
-9.1552734375
13.73291015625
-5.4931640625
-63.17138671875
-145.56884765625
-217.8955078125
-227.05078125
-203.2470703125
-171.20361328125
-131.8359375
-84.228515625
-43.9453125
-49.4384765625
-100.7080078125
-179.443359375
-228.8818359375
-235.29052734375
-211.48681640625
-179.443359375
-136.41357421875
-83.31298828125
-46.69189453125
-53.1005859375
-105.28564453125
-173.03466796875
-225.2197265625
-231.62841796875
-223.388671875
-184.02099609375
-135.498046875
-87.890625
-52.18505859375
-60.4248046875
-114.44091796875
-174.86572265625
-226.13525390625
-236.2060546875
-213.31787109375
-169.37255859375
-132.75146484375
-79.65087890625
-43.02978515625
-52.18505859375
-109.86328125
-187.68310546875
-249.93896484375
-272.8271484375
-261.8408203125
-228.8818359375
-191.34521484375
-163.87939453125
-145.56884765625
-142.822265625
-173.9501953125
-206.9091796875
-165.71044921875
-28.38134765625
148.3154296875
349.7314453125
560.302734375
788.26904296875
986.9384765625
1088.56201171875
1092.22412109375
1052.8564453125
1004.33349609375
958.55712890625
928.3447265625
881.65283203125
726.9287109375
517.27294921875
306.70166015625
89.7216796875
-138.24462890625
-270.99609375
-312.19482421875
-286.56005859375
-234.375
-169.37255859375
-88.80615234375
-7.32421875
52.18505859375
54.01611328125
2.74658203125
-68.66455078125
-124.51171875
-140.9912109375
-118.10302734375
-86.97509765625
-45.7763671875
-0.91552734375
39.36767578125
26.55029296875
-23.8037109375
-91.552734375
-150.146484375
-162.9638671875
-141.90673828125
-102.5390625
-55.84716796875
-7.32421875
30.21240234375
32.04345703125
-17.39501953125
-89.7216796875
-143.73779296875
-149.23095703125
-128.173828125
-86.97509765625
-39.36767578125
9.1552734375
46.69189453125
41.19873046875
-1.8310546875
-73.2421875
-126.3427734375
-136.41357421875
-107.11669921875
-68.66455078125
-26.55029296875
24.71923828125
64.0869140625
64.0869140625
20.1416015625
-54.01611328125
-108.94775390625
-114.44091796875
-86.0595703125
-40.283203125
3.662109375
49.4384765625
86.97509765625
96.13037109375
59.50927734375
-15.56396484375
-60.4248046875
-64.0869140625
-42.1142578125
-3.662109375
46.69189453125
99.79248046875
139.16015625
140.9912109375
97.96142578125
32.04345703125
-15.56396484375
-14.6484375
11.90185546875
52.18505859375
105.28564453125
162.9638671875
204.16259765625
218.81103515625
179.443359375
119.0185546875
73.2421875
65.91796875
102.5390625
151.06201171875
206.9091796875
261.8408203125
313.1103515625
323.18115234375
284.72900390625
218.81103515625
173.9501953125
174.86572265625
206.9091796875
255.43212890625
308.53271484375
358.88671875
412.90283203125
413.818359375
367.12646484375
297.54638671875
243.5302734375
235.29052734375
270.08056640625
310.36376953125
353.3935546875
413.818359375
450.439453125
447.69287109375
393.6767578125
313.1103515625
251.77001953125
238.037109375
255.43212890625
281.982421875
315.85693359375
349.7314453125
379.0283203125
359.80224609375
292.96875
200.50048828125
125.42724609375
97.96142578125
116.27197265625
141.90673828125
155.6396484375
184.9365234375
206.9091796875
187.68310546875
115.3564453125
24.71923828125
-43.02978515625
-66.83349609375
-54.931640625
-34.7900390625
6.40869140625
50.35400390625
80.56640625
65.00244140625
6.40869140625
-80.56640625
-149.23095703125
-159.3017578125
-131.8359375
-102.5390625
-67.7490234375
-19.22607421875
17.39501953125
11.90185546875
-39.36767578125
-117.1875
-174.86572265625
-184.02099609375
-162.9638671875
-124.51171875
-75.0732421875
-28.38134765625
4.57763671875
-0.91552734375
-46.69189453125
-124.51171875
-180.35888671875
-185.85205078125
-160.21728515625
-126.3427734375
-83.31298828125
-38.4521484375
-0.91552734375
-2.74658203125
-54.931640625
-127.25830078125
-183.10546875
-197.75390625
-168.45703125
-130.92041015625
-85.14404296875
-40.283203125
-0.91552734375
-1.8310546875
-49.4384765625
-130.0048828125
-181.2744140625
-183.10546875
-162.9638671875
-133.6669921875
-88.80615234375
-36.62109375
4.57763671875
9.1552734375
-43.9453125
-126.3427734375
-175.78125
-173.03466796875
-154.72412109375
-119.93408203125
-70.49560546875
-21.05712890625
16.4794921875
11.90185546875
-38.4521484375
-110.77880859375
-171.20361328125
-178.52783203125
-158.38623046875
-112.60986328125
-69.580078125
-21.97265625
16.4794921875
12.8173828125
-42.1142578125
-116.27197265625
-172.119140625
-178.52783203125
-157.470703125
-118.10302734375
-77.81982421875
-24.71923828125
17.39501953125
12.8173828125
-36.62109375
-111.6943359375
-172.119140625
-181.2744140625
-162.9638671875
-124.51171875
-78.7353515625
-24.71923828125
9.1552734375
1.8310546875
-48.52294921875
-122.6806640625
-184.02099609375
-195.9228515625
-171.20361328125
-134.58251953125
-91.552734375
-43.02978515625
-3.662109375
-6.40869140625
-52.18505859375
-129.08935546875
-186.767578125
-196.83837890625
-176.69677734375
-138.24462890625
-96.13037109375
-44.86083984375
-1.8310546875
-4.57763671875
-55.84716796875
-132.75146484375
-189.51416015625
-201.416015625
-180.35888671875
-140.9912109375
-97.0458984375
-46.69189453125
-0.91552734375
-7.32421875
-56.7626953125
-138.24462890625
-191.34521484375
-200.50048828125
-177.6123046875
-147.39990234375
-108.0322265625
-48.52294921875
-10.986328125
-17.39501953125
-64.0869140625
-138.24462890625
-196.83837890625
-205.99365234375
-184.02099609375
-147.39990234375
-105.28564453125
-54.01611328125
-19.22607421875
-17.39501953125
-67.7490234375
-144.6533203125
-200.50048828125
-217.8955078125
-192.2607421875
-146.484375
-103.45458984375
-61.34033203125
-27.4658203125
-23.8037109375
-66.83349609375
-144.6533203125
-199.5849609375
-210.5712890625
-190.4296875
-155.6396484375
-110.77880859375
-60.4248046875
-17.39501953125
-17.39501953125
-73.2421875
-147.39990234375
-191.34521484375
-202.33154296875
-182.18994140625
-142.822265625
-105.28564453125
-57.67822265625
-23.8037109375
-23.8037109375
-70.49560546875
-140.9912109375
-199.5849609375
-213.31787109375
-194.091796875
-159.3017578125
-108.0322265625
-58.59375
-21.05712890625
-23.8037109375
-69.580078125
-142.822265625
-194.091796875
-213.31787109375
-194.091796875
-151.06201171875
-97.96142578125
-53.1005859375
-23.8037109375
-21.05712890625
-71.4111328125
-156.55517578125
-200.50048828125
-207.82470703125
-191.34521484375
-153.80859375
-106.201171875
-63.17138671875
-18.310546875
-11.90185546875
-60.4248046875
-145.56884765625
-205.99365234375
-209.65576171875
-189.51416015625
-152.89306640625
-115.3564453125
-66.83349609375
-26.55029296875
-23.8037109375
-66.83349609375
-145.56884765625
-205.078125
-213.31787109375
-190.4296875
-150.146484375
-107.11669921875
-65.00244140625
-25.634765625
-15.56396484375
-58.59375
-139.16015625
-200.50048828125
-212.40234375
-189.51416015625
-153.80859375
-107.11669921875
-65.91796875
-29.296875
-21.97265625
-67.7490234375
-137.3291015625
-191.34521484375
-198.66943359375
-179.443359375
-140.9912109375
-89.7216796875
-27.4658203125
29.296875
31.1279296875
-13.73291015625
-88.80615234375
-146.484375
-162.9638671875
-144.6533203125
-116.27197265625
-69.580078125
-22.88818359375
17.39501953125
30.21240234375
-7.32421875
-84.228515625
-140.07568359375
-149.23095703125
-123.59619140625
-90.63720703125
-47.607421875
-2.74658203125
36.62109375
38.4521484375
-3.662109375
-86.97509765625
-152.89306640625
-171.20361328125
-151.9775390625
-113.525390625
-59.50927734375
-8.23974609375
15.56396484375
3.662109375
-51.26953125
-136.41357421875
-203.2470703125
-225.2197265625
-205.078125
-167.54150390625
-130.0048828125
-81.48193359375
-43.02978515625
-38.4521484375
-80.56640625
-152.89306640625
-218.81103515625
-235.29052734375
-212.40234375
-176.69677734375
-138.24462890625
-89.7216796875
-47.607421875
-40.283203125
-81.48193359375
-160.21728515625
-226.13525390625
-238.95263671875
-216.064453125
-177.6123046875
-133.6669921875
-86.97509765625
-43.02978515625
-44.86083984375
-82.3974609375
-156.55517578125
-212.40234375
-227.96630859375
-205.99365234375
-164.794921875
-121.76513671875
-86.0595703125
-48.52294921875
-43.9453125
-84.228515625
-164.794921875
-233.45947265625
-269.1650390625
-259.09423828125
-239.8681640625
-212.40234375
-184.02099609375
-146.484375
-121.76513671875
-134.58251953125
-140.07568359375
-86.0595703125
41.19873046875
218.81103515625
425.72021484375
644.53125
865.17333984375
1044.61669921875
1138.00048828125
1145.32470703125
1077.57568359375
1013.48876953125
949.40185546875
904.541015625
801.08642578125
605.16357421875
406.494140625
213.31787109375
26.55029296875
-149.23095703125
-236.2060546875
-271.91162109375
-254.5166015625
-227.05078125
-163.87939453125
-84.228515625
-4.57763671875
58.59375
61.34033203125
13.73291015625
-63.17138671875
-125.42724609375
-139.16015625
-120.849609375
-89.7216796875
-43.9453125
-1.8310546875
32.958984375
33.87451171875
-5.4931640625
-76.904296875
-143.73779296875
-160.21728515625
-137.3291015625
-100.7080078125
-58.59375
-9.1552734375
36.62109375
34.7900390625
-10.986328125
-78.7353515625
-139.16015625
-154.72412109375
-135.498046875
-93.3837890625
-47.607421875
6.40869140625
53.1005859375
49.4384765625
1.8310546875
-76.904296875
-128.173828125
-137.3291015625
-111.6943359375
-76.904296875
-28.38134765625
26.55029296875
67.7490234375
66.83349609375
32.04345703125
-36.62109375
-102.5390625
-113.525390625
-90.63720703125
-42.1142578125
6.40869140625
54.01611328125
94.29931640625
102.5390625
71.4111328125
-9.1552734375
-66.83349609375
-76.904296875
-46.69189453125
-9.1552734375
48.52294921875
103.45458984375
144.6533203125
149.23095703125
115.3564453125
53.1005859375
-6.40869140625
-15.56396484375
8.23974609375
50.35400390625
106.201171875
155.6396484375
207.82470703125
220.64208984375
194.091796875
130.92041015625
81.48193359375
74.15771484375
111.6943359375
155.6396484375
206.9091796875
261.8408203125
307.6171875
325.927734375
298.4619140625
234.375
178.52783203125
172.119140625
197.75390625
241.69921875
292.96875
348.81591796875
390.0146484375
410.15625
375.3662109375
300.29296875
243.5302734375
237.12158203125
257.26318359375
296.630859375
346.98486328125
385.43701171875
423.88916015625
433.04443359375
394.59228515625
310.36376953125
245.361328125
223.388671875
233.45947265625
262.75634765625
292.05322265625
330.50537109375
356.14013671875
348.81591796875
290.22216796875
195.00732421875
122.6806640625
86.97509765625
86.0595703125
100.7080078125
130.0048828125
161.1328125
187.68310546875
175.78125
123.59619140625
28.38134765625
-47.607421875
-78.7353515625
-69.580078125
-42.1142578125
-5.4931640625
27.4658203125
57.67822265625
56.7626953125
4.57763671875
-81.48193359375
-147.39990234375
-161.1328125
-148.3154296875
-116.27197265625
-75.0732421875
-33.87451171875
-1.8310546875
0.91552734375
-45.7763671875
-118.10302734375
-179.443359375
-197.75390625
-174.86572265625
-134.58251953125
-84.228515625
-53.1005859375
-18.310546875
-6.40869140625
-39.36767578125
-116.27197265625
-183.10546875
-203.2470703125
-184.02099609375
-145.56884765625
-101.62353515625
-55.84716796875
-15.56396484375
-1.8310546875
-41.19873046875
-119.0185546875
-184.02099609375
-190.4296875
-181.2744140625
-144.6533203125
-98.876953125
-54.931640625
-10.986328125
0.91552734375
-50.35400390625
-121.76513671875
-183.10546875
-197.75390625
-176.69677734375
-132.75146484375
-93.3837890625
-52.18505859375
-5.4931640625
10.986328125
-34.7900390625
-113.525390625
-176.69677734375
-186.767578125
-173.03466796875
-134.58251953125
-91.552734375
-39.36767578125
15.56396484375
17.39501953125
-32.958984375
-107.11669921875
-173.03466796875
-193.17626953125
-174.86572265625
-140.07568359375
-86.0595703125
-33.87451171875
1.8310546875
11.90185546875
-34.7900390625
-116.27197265625
-175.78125
-192.2607421875
-174.86572265625
-133.6669921875
-84.228515625
-48.52294921875
-9.1552734375
3.662109375
-35.70556640625
-109.86328125
-170.2880859375
-191.34521484375
-178.52783203125
-144.6533203125
-95.21484375
-48.52294921875
-10.07080078125
-5.4931640625
-34.7900390625
-116.27197265625
-173.9501953125
-189.51416015625
-179.443359375
-140.9912109375
-94.29931640625
-54.931640625
-16.4794921875
0
-42.1142578125
-122.6806640625
-190.4296875
-204.16259765625
-180.35888671875
-147.39990234375
-108.94775390625
-58.59375
-18.310546875
-8.23974609375
-51.26953125
-127.25830078125
-195.9228515625
-206.9091796875
-184.02099609375
-155.6396484375
-113.525390625
-65.91796875
-23.8037109375
-6.40869140625
-45.7763671875
-136.41357421875
-199.5849609375
-211.48681640625
-196.83837890625
-164.794921875
-124.51171875
-75.0732421875
-30.21240234375
-13.73291015625
-53.1005859375
-130.0048828125
-195.9228515625
-222.47314453125
-199.5849609375
-169.37255859375
-126.3427734375
-76.904296875
-26.55029296875
-21.97265625
-65.91796875
-140.9912109375
-201.416015625
-227.05078125
-209.65576171875
-173.9501953125
-130.0048828125
-93.3837890625
-48.52294921875
-29.296875
-70.49560546875
-149.23095703125
-196.83837890625
-215.14892578125
-206.9091796875
-175.78125
-133.6669921875
-89.7216796875
-45.7763671875
-29.296875
-67.7490234375
-148.3154296875
-216.064453125
-235.29052734375
-210.5712890625
-163.87939453125
-128.173828125
-84.228515625
-45.7763671875
-30.21240234375
-67.7490234375
-150.146484375
-215.14892578125
-222.47314453125
-212.40234375
-183.10546875
-131.8359375
-85.14404296875
-44.86083984375
-35.70556640625
-76.904296875
-146.484375
-207.82470703125
-234.375
-214.2333984375
-184.9365234375
-136.41357421875
-95.21484375
-57.67822265625
-32.04345703125
-61.34033203125
-147.39990234375
-213.31787109375
-229.79736328125
-209.65576171875
-174.86572265625
-129.08935546875
-86.97509765625
-44.86083984375
-29.296875
-64.0869140625
-149.23095703125
-211.48681640625
-229.79736328125
-218.81103515625
-192.2607421875
-139.16015625
-93.3837890625
-54.01611328125
-28.38134765625
-65.00244140625
-145.56884765625
-205.99365234375
-228.8818359375
-213.31787109375
-167.54150390625
-124.51171875
-78.7353515625
-35.70556640625
-11.90185546875
-42.1142578125
-109.86328125
-169.37255859375
-193.17626953125
-174.86572265625
-132.75146484375
-87.890625
-38.4521484375
-11.90185546875
4.57763671875
-25.634765625
-103.45458984375
-164.794921875
-183.10546875
-158.38623046875
-121.76513671875
-68.66455078125
-21.97265625
19.22607421875
40.283203125
1.8310546875
-82.3974609375
-145.56884765625
-163.87939453125
-148.3154296875
-119.0185546875
-82.3974609375
-36.62109375
5.4931640625
17.39501953125
-20.1416015625
-102.5390625
-184.02099609375
-211.48681640625
-199.5849609375
-185.85205078125
-143.73779296875
-93.3837890625
-56.7626953125
-40.283203125
-86.97509765625
-162.9638671875
-219.7265625
-245.361328125
-229.79736328125
-195.00732421875
-153.80859375
-102.5390625
-64.0869140625
-42.1142578125
-83.31298828125
-164.794921875
-227.96630859375
-249.0234375
-225.2197265625
-188.5986328125
-145.56884765625
-108.0322265625
-68.66455078125
-50.35400390625
-79.65087890625
-158.38623046875
-214.2333984375
-237.12158203125
-226.13525390625
-190.4296875
-140.9912109375
-94.29931640625
-57.67822265625
-40.283203125
-78.7353515625
-167.54150390625
-233.45947265625
-257.26318359375
-244.44580078125
-210.5712890625
-179.443359375
-140.07568359375
-108.94775390625
-107.11669921875
-166.6259765625
-260.009765625
-308.53271484375
-298.4619140625
-236.2060546875
-106.201171875
74.15771484375
262.75634765625
458.67919921875
628.0517578125
772.705078125
849.609375
882.568359375
920.10498046875
952.1484375
988.76953125
1015.31982421875
1009.82666015625
942.9931640625
745.2392578125
465.087890625
159.3017578125
-84.228515625
-248.10791015625
-270.08056640625
-242.61474609375
-158.38623046875
-97.96142578125
-64.0869140625
-52.18505859375
-75.98876953125
-127.25830078125
-162.04833984375
-166.6259765625
-147.39990234375
-112.60986328125
-56.7626953125
-2.74658203125
37.53662109375
54.931640625
9.1552734375
-80.56640625
-148.3154296875
-161.1328125
-145.56884765625
-117.1875
-73.2421875
-20.1416015625
18.310546875
42.1142578125
3.662109375
-86.0595703125
-153.80859375
-170.2880859375
-150.146484375
-105.28564453125
-54.01611328125
-7.32421875
35.70556640625
54.01611328125
18.310546875
-63.17138671875
-127.25830078125
-141.90673828125
-127.25830078125
-96.13037109375
-44.86083984375
7.32421875
54.01611328125
75.98876953125
31.1279296875
-50.35400390625
-108.94775390625
-121.76513671875
-95.21484375
-57.67822265625
-13.73291015625
33.87451171875
76.904296875
101.62353515625
71.4111328125
-6.40869140625
-78.7353515625
-90.63720703125
-69.580078125
-35.70556640625
16.4794921875
67.7490234375
116.27197265625
143.73779296875
116.27197265625
36.62109375
-18.310546875
-42.1142578125
-20.1416015625
21.05712890625
78.7353515625
131.8359375
177.6123046875
209.65576171875
184.02099609375
107.11669921875
47.607421875
35.70556640625
64.0869140625
101.62353515625
160.21728515625
224.30419921875
274.658203125
301.20849609375
275.57373046875
202.33154296875
147.39990234375
137.3291015625
162.04833984375
207.82470703125
263.671875
307.6171875
360.7177734375
394.59228515625
375.3662109375
292.96875
226.13525390625
210.5712890625
228.8818359375
266.41845703125
317.68798828125
366.2109375
402.83203125
423.88916015625
390.0146484375
315.85693359375
248.10791015625
227.05078125
240.78369140625
262.75634765625
302.1240234375
343.32275390625
372.61962890625
382.6904296875
333.251953125
249.0234375
175.78125
140.07568359375
131.8359375
134.58251953125
163.87939453125
189.51416015625
216.97998046875
223.388671875
175.78125
88.80615234375
12.8173828125
-24.71923828125
-30.21240234375
-8.23974609375
7.32421875
6.40869140625
-6.40869140625
-19.22607421875
-34.7900390625
-44.86083984375
-58.59375
-62.255859375
-65.91796875
-65.91796875
-70.49560546875
-70.49560546875
-64.0869140625
-77.81982421875
-93.3837890625
-94.29931640625
-101.62353515625
-99.79248046875
-96.13037109375
-97.0458984375
-96.13037109375
-97.0458984375
-93.3837890625
-95.21484375
-108.0322265625
-111.6943359375
-112.60986328125
-111.6943359375
-108.94775390625
-108.94775390625
-103.45458984375
-100.7080078125
-97.96142578125
-100.7080078125
-104.3701171875
-111.6943359375
-109.86328125
-106.201171875
-102.5390625
-103.45458984375
-101.62353515625
-101.62353515625
-97.96142578125
-98.876953125
-103.45458984375
-103.45458984375
-106.201171875
-106.201171875
-97.0458984375
-96.13037109375
-96.13037109375
-94.29931640625
-76.904296875
-72.32666015625
26.55029296875
-34.7900390625
-126.3427734375
-173.9501953125
-173.9501953125
-134.58251953125
-95.21484375
-49.4384765625
-1.8310546875
3.662109375
-33.87451171875
-75.0732421875
-87.890625
-89.7216796875
-89.7216796875
-89.7216796875
-97.0458984375
-94.29931640625
-76.904296875
-85.14404296875
-86.97509765625
-92.46826171875
-90.63720703125
-86.0595703125
-79.65087890625
-84.228515625
-85.14404296875
-87.890625
-95.21484375
-94.29931640625
-88.80615234375
-94.29931640625
-95.21484375
-90.63720703125
-93.3837890625
-97.96142578125
-96.13037109375
-101.62353515625
-103.45458984375
-99.79248046875
-98.876953125
-100.7080078125
-99.79248046875
-100.7080078125
-86.97509765625
-98.876953125
-108.0322265625
-98.876953125
-98.876953125
-100.7080078125
-101.62353515625
-101.62353515625
-113.525390625
-115.3564453125
-109.86328125
-110.77880859375
-110.77880859375
-108.94775390625
-107.11669921875
-104.3701171875
-107.11669921875
-110.77880859375
-113.525390625
-114.44091796875
-111.6943359375
-111.6943359375
-108.0322265625
-112.60986328125
-117.1875
-118.10302734375
-121.76513671875
-119.0185546875
-113.525390625
-109.86328125
-108.94775390625
-119.0185546875
-123.59619140625
-121.76513671875
-119.0185546875
-120.849609375
-119.0185546875
-119.0185546875
-120.849609375
-115.3564453125
-123.59619140625
-123.59619140625
-119.93408203125
-120.849609375
-122.6806640625
-122.6806640625
-127.25830078125
-126.3427734375
-119.93408203125
-118.10302734375
-114.44091796875
-121.76513671875
-126.3427734375
-124.51171875
-122.6806640625
-123.59619140625
-123.59619140625
-113.525390625
-124.51171875
-120.849609375
-125.42724609375
-128.173828125
-124.51171875
-123.59619140625
-122.6806640625
-125.42724609375
-123.59619140625
-121.76513671875
-125.42724609375
-123.59619140625
-128.173828125
-131.8359375
-132.75146484375
-130.0048828125
-121.76513671875
-123.59619140625
-133.6669921875
-128.173828125
-123.59619140625
-128.173828125
-125.42724609375
-124.51171875
-130.0048828125
-131.8359375
-135.498046875
-128.173828125
-121.76513671875
-128.173828125
-126.3427734375
-123.59619140625
-127.25830078125
-131.8359375
-126.3427734375
-119.93408203125
-130.0048828125
-126.3427734375
-126.3427734375
-124.51171875
-123.59619140625
-119.93408203125
-121.76513671875
-122.6806640625
-121.76513671875
-123.59619140625
-124.51171875
-122.6806640625
-117.1875
-120.849609375
-128.173828125
-128.173828125
-135.498046875
-134.58251953125
-132.75146484375
-130.92041015625
-129.08935546875
-116.27197265625
-119.93408203125
-127.25830078125
-125.42724609375
-122.6806640625
-120.849609375
-114.44091796875
-106.201171875
-89.7216796875
-77.81982421875
-71.4111328125
-74.15771484375
-83.31298828125
-83.31298828125
-67.7490234375
-65.91796875
-74.15771484375
-74.15771484375
-75.98876953125
-75.98876953125
-76.904296875
-67.7490234375
-63.17138671875
-54.931640625
-48.52294921875
-51.26953125
-54.01611328125
-49.4384765625
-43.02978515625
-42.1142578125
-50.35400390625
-54.931640625
-52.18505859375
-51.26953125
-65.00244140625
-78.7353515625
-77.81982421875
-68.66455078125
-70.49560546875
-72.32666015625
-81.48193359375
-87.890625
-104.3701171875
-114.44091796875
-123.59619140625
-130.92041015625
-131.8359375
-132.75146484375
-136.41357421875
-140.07568359375
-142.822265625
-137.3291015625
-138.24462890625
-141.90673828125
-145.56884765625
-146.484375
-143.73779296875
-137.3291015625
-132.75146484375
-140.07568359375
-144.6533203125
-141.90673828125
-141.90673828125
-142.822265625
-142.822265625
-144.6533203125
