ECG
-53.1005859375
-47.607421875
-58.59375
-64.0869140625
-56.7626953125
-63.17138671875
-62.255859375
-54.01611328125
-75.98876953125
-71.4111328125
-75.98876953125
-81.48193359375
-81.48193359375
-81.48193359375
-75.98876953125
-59.50927734375
-60.4248046875
-60.4248046875
-55.84716796875
-66.83349609375
-62.255859375
-93.3837890625
-96.13037109375
-97.96142578125
-91.552734375
-94.29931640625
-82.3974609375
-82.3974609375
-86.0595703125
-97.96142578125
-95.21484375
-97.96142578125
-108.94775390625
-97.0458984375
-89.7216796875
-99.79248046875
-95.21484375
-92.46826171875
-90.63720703125
-110.77880859375
-112.60986328125
-112.60986328125
-119.0185546875
-97.0458984375
-96.13037109375
-107.11669921875
-95.21484375
-91.552734375
-89.7216796875
-93.3837890625
-86.97509765625
-83.31298828125
-91.552734375
-94.29931640625
-103.45458984375
-89.7216796875
-81.48193359375
-68.66455078125
-65.91796875
-65.91796875
-58.59375
-66.83349609375
-66.83349609375
-58.59375
-54.01611328125
-58.59375
-54.931640625
-57.67822265625
-46.69189453125
-43.02978515625
-39.36767578125
-43.02978515625
-34.7900390625
-38.4521484375
-41.19873046875
-52.18505859375
-59.50927734375
-70.49560546875
-79.65087890625
-79.65087890625
-64.0869140625
-48.52294921875
-46.69189453125
-58.59375
-58.59375
-51.26953125
-54.01611328125
-54.931640625
-54.01611328125
-57.67822265625
-46.69189453125
-54.931640625
-67.7490234375
-65.91796875
-52.18505859375
-49.4384765625
-48.52294921875
-34.7900390625
-32.04345703125
-21.97265625
-31.1279296875
-31.1279296875
-30.21240234375
-32.958984375
-17.39501953125
-13.73291015625
-13.73291015625
-10.07080078125
-10.986328125
-13.73291015625
-29.296875
-29.296875
-32.958984375
-36.62109375
-36.62109375
-39.36767578125
-29.296875
-38.4521484375
-28.38134765625
-20.1416015625
-17.39501953125
-22.88818359375
-33.87451171875
-28.38134765625
-28.38134765625
-37.53662109375
-32.958984375
-27.4658203125
-32.958984375
-28.38134765625
-22.88818359375
-21.97265625
-33.87451171875
-36.62109375
-24.71923828125
-34.7900390625
-43.9453125
-43.9453125
-38.4521484375
-30.21240234375
-26.55029296875
-23.8037109375
-34.7900390625
-30.21240234375
-30.21240234375
-33.87451171875
-32.958984375
-30.21240234375
-36.62109375
-52.18505859375
-49.4384765625
-52.18505859375
-52.18505859375
-62.255859375
-59.50927734375
-67.7490234375
-73.2421875
-61.34033203125
-54.931640625
-57.67822265625
-52.18505859375
-57.67822265625
-51.26953125
-32.958984375
-17.39501953125
-35.70556640625
-54.01611328125
-42.1142578125
-47.607421875
-76.904296875
-93.3837890625
-87.890625
-80.56640625
-68.66455078125
-70.49560546875
-66.83349609375
-73.2421875
-60.4248046875
-62.255859375
-67.7490234375
-74.15771484375
-72.32666015625
-58.59375
-66.83349609375
-64.0869140625
-78.7353515625
-69.580078125
-64.0869140625
-54.01611328125
-56.7626953125
-62.255859375
-59.50927734375
-70.49560546875
-75.98876953125
-81.48193359375
-80.56640625
-75.0732421875
-95.21484375
-90.63720703125
-86.0595703125
-89.7216796875
-73.2421875
-84.228515625
-85.14404296875
-77.81982421875
-75.98876953125
-80.56640625
-75.98876953125
-65.00244140625
-60.4248046875
-62.255859375
-70.49560546875
-67.7490234375
-65.91796875
-58.59375
-55.84716796875
-81.48193359375
-90.63720703125
-79.65087890625
-63.17138671875
-65.00244140625
-68.66455078125
-46.69189453125
-34.7900390625
-33.87451171875
-26.55029296875
-31.1279296875
-13.73291015625
0.91552734375
-12.8173828125
-11.90185546875
-15.56396484375
-28.38134765625
-24.71923828125
-30.21240234375
-45.7763671875
-47.607421875
-38.4521484375
-42.1142578125
-56.7626953125
-55.84716796875
-58.59375
-50.35400390625
-54.931640625
-75.98876953125
-88.80615234375
-82.3974609375
-74.15771484375
-85.14404296875
-85.14404296875
-76.904296875
-83.31298828125
-89.7216796875
-87.890625
-97.0458984375
-97.0458984375
-89.7216796875
-91.552734375
-94.29931640625
-102.5390625
-106.201171875
-97.0458984375
-85.14404296875
-86.97509765625
-92.46826171875
-94.29931640625
-101.62353515625
-106.201171875
-96.13037109375
-90.63720703125
-101.62353515625
-110.77880859375
-97.0458984375
-103.45458984375
-86.97509765625
-80.56640625
-84.228515625
-95.21484375
-83.31298828125
-87.890625
-107.11669921875
-135.498046875
-141.90673828125
-143.73779296875
-131.8359375
-111.6943359375
-79.65087890625
-29.296875
48.52294921875
169.37255859375
301.20849609375
461.42578125
647.27783203125
837.70751953125
965.88134765625
1077.57568359375
1196.59423828125
1309.2041015625
1379.69970703125
1359.55810546875
1303.7109375
1245.1171875
1138.916015625
958.55712890625
720.52001953125
451.35498046875
221.5576171875
154.72412109375
144.6533203125
122.6806640625
93.3837890625
65.91796875
30.21240234375
-9.1552734375
-54.931640625
-78.7353515625
-103.45458984375
-106.201171875
-95.21484375
-87.890625
-84.228515625
-83.31298828125
-77.81982421875
-70.49560546875
-75.0732421875
-96.13037109375
-94.29931640625
-86.0595703125
-91.552734375
-92.46826171875
-94.29931640625
-95.21484375
-97.96142578125
-98.876953125
-104.3701171875
-108.94775390625
-107.11669921875
-104.3701171875
-98.876953125
-100.7080078125
-108.94775390625
-97.96142578125
-86.97509765625
-83.31298828125
-80.56640625
-80.56640625
-75.0732421875
-67.7490234375
-84.228515625
-94.29931640625
-91.552734375
-87.890625
-108.94775390625
-113.525390625
-97.0458984375
-95.21484375
-89.7216796875
-83.31298828125
-84.228515625
-92.46826171875
-92.46826171875
-93.3837890625
-86.97509765625
-87.890625
-84.228515625
-82.3974609375
-86.0595703125
-76.904296875
-81.48193359375
-100.7080078125
-106.201171875
-93.3837890625
-82.3974609375
-86.0595703125
-76.904296875
-72.32666015625
-68.66455078125
-67.7490234375
-76.904296875
-72.32666015625
-67.7490234375
-62.255859375
-54.01611328125
-66.83349609375
-81.48193359375
-78.7353515625
-75.98876953125
-76.904296875
-72.32666015625
-66.83349609375
-70.49560546875
-67.7490234375
-64.0869140625
-66.83349609375
-75.98876953125
-82.3974609375
-77.81982421875
-75.98876953125
-77.81982421875
-72.32666015625
-64.0869140625
-64.0869140625
-69.580078125
-78.7353515625
-101.62353515625
-110.77880859375
-102.5390625
-102.5390625
-108.94775390625
-100.7080078125
-89.7216796875
-96.13037109375
-106.201171875
-101.62353515625
-90.63720703125
-90.63720703125
-97.96142578125
-103.45458984375
-103.45458984375
-97.0458984375
-99.79248046875
-106.201171875
-99.79248046875
-97.96142578125
-103.45458984375
-108.0322265625
-117.1875
-91.552734375
-82.3974609375
-85.14404296875
-100.7080078125
-101.62353515625
-104.3701171875
-95.21484375
-96.13037109375
-115.3564453125
-94.29931640625
-90.63720703125
-101.62353515625
-77.81982421875
-71.4111328125
-85.14404296875
-92.46826171875
-96.13037109375
-83.31298828125
-72.32666015625
-74.15771484375
-65.91796875
-57.67822265625
-50.35400390625
-56.7626953125
-59.50927734375
-49.4384765625
-57.67822265625
-75.0732421875
-63.17138671875
-59.50927734375
-65.91796875
-65.91796875
-62.255859375
-53.1005859375
-50.35400390625
-53.1005859375
-52.18505859375
-57.67822265625
-66.83349609375
-59.50927734375
-72.32666015625
-79.65087890625
-65.91796875
-57.67822265625
-50.35400390625
-49.4384765625
-54.931640625
-50.35400390625
-54.01611328125
-63.17138671875
-62.255859375
-51.26953125
-40.283203125
-47.607421875
-54.931640625
-49.4384765625
-39.36767578125
-32.04345703125
-33.87451171875
-37.53662109375
-41.19873046875
-31.1279296875
-39.36767578125
-53.1005859375
-35.70556640625
-14.6484375
-20.1416015625
-13.73291015625
-19.22607421875
-26.55029296875
-29.296875
-20.1416015625
-27.4658203125
-40.283203125
-23.8037109375
-20.1416015625
-25.634765625
-25.634765625
-21.97265625
-25.634765625
-16.4794921875
-22.88818359375
-22.88818359375
-18.310546875
-13.73291015625
-18.310546875
-4.57763671875
-1.8310546875
-16.4794921875
-32.958984375
-34.7900390625
-21.97265625
-25.634765625
-26.55029296875
-30.21240234375
-25.634765625
-27.4658203125
-21.97265625
-28.38134765625
-48.52294921875
-47.607421875
-36.62109375
-38.4521484375
-45.7763671875
-48.52294921875
-54.01611328125
-53.1005859375
-57.67822265625
-52.18505859375
-40.283203125
-41.19873046875
-56.7626953125
-55.84716796875
-53.1005859375
-55.84716796875
-48.52294921875
-42.1142578125
-26.55029296875
-32.04345703125
-29.296875
-26.55029296875
-50.35400390625
-79.65087890625
-77.81982421875
-71.4111328125
-73.2421875
-77.81982421875
-62.255859375
-64.0869140625
-63.17138671875
-59.50927734375
-51.26953125
-54.01611328125
-54.01611328125
-54.931640625
-55.84716796875
-53.1005859375
-60.4248046875
-71.4111328125
-82.3974609375
-74.15771484375
-74.15771484375
-65.00244140625
-65.91796875
-69.580078125
-70.49560546875
-71.4111328125
-75.0732421875
-68.66455078125
-75.98876953125
-89.7216796875
-74.15771484375
-69.580078125
-75.98876953125
-71.4111328125
-66.83349609375
-69.580078125
-64.0869140625
-68.66455078125
-60.4248046875
-55.84716796875
-54.01611328125
-65.00244140625
-66.83349609375
-75.98876953125
-83.31298828125
-87.890625
-91.552734375
-74.15771484375
-48.52294921875
-38.4521484375
-25.634765625
-27.4658203125
-27.4658203125
-29.296875
-35.70556640625
-41.19873046875
-51.26953125
-40.283203125
-10.07080078125
-2.74658203125
5.4931640625
-17.39501953125
-19.22607421875
4.57763671875
-3.662109375
-26.55029296875
-31.1279296875
-37.53662109375
-46.69189453125
-51.26953125
-54.931640625
-47.607421875
-45.7763671875
-46.69189453125
-42.1142578125
-46.69189453125
-49.4384765625
-51.26953125
-62.255859375
-47.607421875
-45.7763671875
-51.26953125
-56.7626953125
-67.7490234375
-74.15771484375
-72.32666015625
-82.3974609375
-102.5390625
-97.0458984375
-97.0458984375
-88.80615234375
-73.2421875
-83.31298828125
-93.3837890625
-86.97509765625
-73.2421875
-82.3974609375
-86.97509765625
-77.81982421875
-67.7490234375
-73.2421875
-75.0732421875
-64.0869140625
-59.50927734375
-82.3974609375
-104.3701171875
-100.7080078125
-85.14404296875
-88.80615234375
-84.228515625
-73.2421875
-76.904296875
-91.552734375
-97.96142578125
-111.6943359375
-120.849609375
-121.76513671875
-126.3427734375
-104.3701171875
-64.0869140625
5.4931640625
108.0322265625
207.82470703125
332.33642578125
505.37109375
697.6318359375
859.68017578125
985.107421875
1116.02783203125
1229.55322265625
1331.1767578125
1394.34814453125
1378.7841796875
1338.5009765625
1263.427734375
1130.67626953125
929.26025390625
662.841796875
401.0009765625
183.10546875
125.42724609375
110.77880859375
75.98876953125
43.9453125
14.6484375
-18.310546875
-46.69189453125
-52.18505859375
-56.7626953125
-64.0869140625
-72.32666015625
-56.7626953125
-62.255859375
-75.0732421875
-75.0732421875
-73.2421875
-79.65087890625
-95.21484375
-90.63720703125
-86.97509765625
-119.0185546875
-116.27197265625
-97.0458984375
-95.21484375
-93.3837890625
-91.552734375
-94.29931640625
-89.7216796875
-87.890625
-94.29931640625
-88.80615234375
-81.48193359375
-92.46826171875
-104.3701171875
-97.96142578125
-97.0458984375
-81.48193359375
-81.48193359375
-81.48193359375
-86.97509765625
-77.81982421875
-72.32666015625
-82.3974609375
-79.65087890625
-76.904296875
-85.14404296875
-92.46826171875
-83.31298828125
-90.63720703125
-90.63720703125
-82.3974609375
-77.81982421875
-80.56640625
-87.890625
-84.228515625
-85.14404296875
-87.890625
-92.46826171875
-89.7216796875
-77.81982421875
-74.15771484375
-69.580078125
-64.0869140625
-53.1005859375
-49.4384765625
-71.4111328125
-96.13037109375
-95.21484375
-85.14404296875
-85.14404296875
-81.48193359375
-75.98876953125
-81.48193359375
-91.552734375
-79.65087890625
-77.81982421875
-80.56640625
-76.904296875
-75.0732421875
-65.91796875
-54.01611328125
-51.26953125
-52.18505859375
-56.7626953125
-61.34033203125
-74.15771484375
-83.31298828125
-67.7490234375
-65.00244140625
-69.580078125
-75.0732421875
-65.00244140625
-66.83349609375
-71.4111328125
-61.34033203125
-59.50927734375
-54.931640625
-55.84716796875
-60.4248046875
-67.7490234375
-80.56640625
-81.48193359375
-87.890625
-74.15771484375
-67.7490234375
-71.4111328125
-85.14404296875
-84.228515625
-82.3974609375
-75.98876953125
-70.49560546875
-83.31298828125
-88.80615234375
-100.7080078125
-108.0322265625
-99.79248046875
-98.876953125
-104.3701171875
-96.13037109375
-93.3837890625
-99.79248046875
-104.3701171875
-97.96142578125
-86.97509765625
-91.552734375
-96.13037109375
-101.62353515625
-97.0458984375
-97.96142578125
-93.3837890625
-101.62353515625
-94.29931640625
-78.7353515625
-79.65087890625
-72.32666015625
-77.81982421875
-70.49560546875
-68.66455078125
-74.15771484375
-70.49560546875
-67.7490234375
-83.31298828125
-85.14404296875
-88.80615234375
-86.0595703125
-68.66455078125
-56.7626953125
-64.0869140625
-66.83349609375
-75.0732421875
-70.49560546875
-60.4248046875
-56.7626953125
-71.4111328125
-89.7216796875
-85.14404296875
-73.2421875
-75.0732421875
-73.2421875
-70.49560546875
-71.4111328125
-68.66455078125
-67.7490234375
-65.91796875
-74.15771484375
-83.31298828125
-81.48193359375
-75.98876953125
-77.81982421875
-74.15771484375
-76.904296875
-70.49560546875
-57.67822265625
-54.931640625
-58.59375
-82.3974609375
-76.904296875
-57.67822265625
-53.1005859375
-58.59375
-58.59375
-51.26953125
-57.67822265625
-49.4384765625
-49.4384765625
-58.59375
-70.49560546875
-57.67822265625
-49.4384765625
-43.9453125
-37.53662109375
-36.62109375
-37.53662109375
-33.87451171875
-32.958984375
-38.4521484375
-35.70556640625
-35.70556640625
-30.21240234375
-13.73291015625
-32.958984375
-44.86083984375
-43.9453125
-41.19873046875
-36.62109375
-29.296875
-18.310546875
-21.05712890625
-25.634765625
-20.1416015625
-19.22607421875
-22.88818359375
-41.19873046875
-54.931640625
-35.70556640625
-37.53662109375
-43.02978515625
-47.607421875
-47.607421875
-48.52294921875
-46.69189453125
-37.53662109375
-38.4521484375
-44.86083984375
-47.607421875
-58.59375
-50.35400390625
-48.52294921875
-51.26953125
-43.02978515625
-41.19873046875
-58.59375
-73.2421875
-75.98876953125
-67.7490234375
-65.00244140625
-63.17138671875
-67.7490234375
-84.228515625
-83.31298828125
-75.0732421875
-63.17138671875
-61.34033203125
-61.34033203125
-52.18505859375
-61.34033203125
-65.91796875
-76.904296875
-74.15771484375
-68.66455078125
-71.4111328125
-75.0732421875
-78.7353515625
-78.7353515625
-71.4111328125
-72.32666015625
-75.98876953125
-72.32666015625
-69.580078125
-66.83349609375
-73.2421875
-79.65087890625
-93.3837890625
-87.890625
-79.65087890625
-78.7353515625
-82.3974609375
-89.7216796875
-81.48193359375
-70.49560546875
-81.48193359375
-93.3837890625
-96.13037109375
-81.48193359375
-66.83349609375
-75.98876953125
-97.96142578125
-90.63720703125
-71.4111328125
-81.48193359375
-79.65087890625
-72.32666015625
-82.3974609375
-75.0732421875
-66.83349609375
-72.32666015625
-83.31298828125
-95.21484375
-97.0458984375
-99.79248046875
-104.3701171875
-94.29931640625
-92.46826171875
-91.552734375
-86.97509765625
-87.890625
-81.48193359375
-78.7353515625
-80.56640625
-83.31298828125
-87.890625
-98.876953125
-101.62353515625
-98.876953125
-91.552734375
-69.580078125
-70.49560546875
-65.91796875
-63.17138671875
-57.67822265625
-60.4248046875
-63.17138671875
-60.4248046875
-40.283203125
-29.296875
-30.21240234375
-32.04345703125
-19.22607421875
-9.1552734375
-5.4931640625
-13.73291015625
-34.7900390625
-42.1142578125
-51.26953125
-68.66455078125
-75.98876953125
-65.91796875
-55.84716796875
-52.18505859375
-54.01611328125
-54.931640625
-55.84716796875
-59.50927734375
-59.50927734375
-73.2421875
-82.3974609375
-64.0869140625
-61.34033203125
-71.4111328125
-83.31298828125
-95.21484375
-90.63720703125
-105.28564453125
-115.3564453125
-112.60986328125
-102.5390625
-98.876953125
-101.62353515625
-108.94775390625
-103.45458984375
-95.21484375
-92.46826171875
-85.14404296875
-98.876953125
-98.876953125
-92.46826171875
-102.5390625
-108.94775390625
-98.876953125
-84.228515625
-86.97509765625
-81.48193359375
-94.29931640625
-114.44091796875
-108.0322265625
-109.86328125
-108.94775390625
-98.876953125
-94.29931640625
-112.60986328125
-112.60986328125
-118.10302734375
-131.8359375
-123.59619140625
-100.7080078125
-66.83349609375
-1.8310546875
105.28564453125
222.47314453125
378.11279296875
547.4853515625
737.9150390625
881.65283203125
1013.48876953125
1138.916015625
1240.53955078125
1326.59912109375
1364.1357421875
1338.5009765625
1294.5556640625
1200.25634765625
1061.09619140625
848.69384765625
583.19091796875
342.4072265625
176.69677734375
127.25830078125
86.0595703125
42.1142578125
0
-29.296875
-63.17138671875
-68.66455078125
-77.81982421875
-71.4111328125
-68.66455078125
-73.2421875
-69.580078125
-70.49560546875
-76.904296875
-86.0595703125
-100.7080078125
-102.5390625
-90.63720703125
-92.46826171875
-88.80615234375
-102.5390625
-86.0595703125
-86.97509765625
-104.3701171875
-103.45458984375
-111.6943359375
-125.42724609375
-119.93408203125
-116.27197265625
-123.59619140625
-109.86328125
-109.86328125
-110.77880859375
-119.93408203125
-120.849609375
-108.94775390625
-103.45458984375
-110.77880859375
-104.3701171875
-96.13037109375
-97.0458984375
-100.7080078125
-106.201171875
-105.28564453125
-103.45458984375
-105.28564453125
-105.28564453125
-110.77880859375
-112.60986328125
-104.3701171875
-89.7216796875
-86.97509765625
-78.7353515625
-85.14404296875
-82.3974609375
-77.81982421875
-86.97509765625
-88.80615234375
-96.13037109375
-119.93408203125
-104.3701171875
-97.0458984375
-106.201171875
-97.96142578125
-93.3837890625
-93.3837890625
-99.79248046875
-97.0458984375
-91.552734375
-94.29931640625
-79.65087890625
-81.48193359375
-87.890625
-86.0595703125
-82.3974609375
-89.7216796875
-85.14404296875
-81.48193359375
-81.48193359375
-74.15771484375
-61.34033203125
-72.32666015625
-75.98876953125
-72.32666015625
-65.91796875
-65.91796875
-72.32666015625
-79.65087890625
-81.48193359375
-83.31298828125
-84.228515625
-81.48193359375
-75.0732421875
-66.83349609375
-67.7490234375
-54.931640625
-65.91796875
-81.48193359375
-86.0595703125
-86.97509765625
-94.29931640625
-113.525390625
-92.46826171875
-86.97509765625
-99.79248046875
-110.77880859375
-92.46826171875
-90.63720703125
-94.29931640625
-87.890625
-128.173828125
-119.93408203125
-108.0322265625
-108.94775390625
-117.1875
-129.08935546875
-122.6806640625
-121.76513671875
-132.75146484375
-130.0048828125
-119.93408203125
-119.0185546875
-118.10302734375
-117.1875
-110.77880859375
-110.77880859375
-114.44091796875
-110.77880859375
-119.0185546875
-114.44091796875
-114.44091796875
-105.28564453125
-92.46826171875
-93.3837890625
-89.7216796875
-85.14404296875
-84.228515625
-65.00244140625
-60.4248046875
-72.32666015625
-67.7490234375
-70.49560546875
-51.26953125
-58.59375
-76.904296875
-91.552734375
-83.31298828125
-106.201171875
-97.0458984375
-99.79248046875
-100.7080078125
-87.890625
-89.7216796875
-86.97509765625
-84.228515625
-82.3974609375
-89.7216796875
-94.29931640625
-104.3701171875
-93.3837890625
-92.46826171875
-84.228515625
-76.904296875
-86.0595703125
-90.63720703125
-83.31298828125
-83.31298828125
-88.80615234375
-97.0458984375
-103.45458984375
-97.0458984375
-108.0322265625
-102.5390625
-89.7216796875
-80.56640625
-74.15771484375
-67.7490234375
-72.32666015625
-75.98876953125
-65.91796875
-63.17138671875
-75.98876953125
-78.7353515625
-90.63720703125
-71.4111328125
-58.59375
-65.91796875
-69.580078125
-65.00244140625
-67.7490234375
-65.91796875
-57.67822265625
-65.91796875
-60.4248046875
-57.67822265625
-48.52294921875
-41.19873046875
-48.52294921875
-50.35400390625
-50.35400390625
-57.67822265625
-43.9453125
-43.9453125
-46.69189453125
-54.931640625
-64.0869140625
-60.4248046875
-73.2421875
-74.15771484375
-63.17138671875
-63.17138671875
-65.00244140625
-64.0869140625
-67.7490234375
-59.50927734375
-54.931640625
-54.01611328125
-41.19873046875
-45.7763671875
-51.26953125
-61.34033203125
-55.84716796875
-44.86083984375
-67.7490234375
-70.49560546875
-59.50927734375
-65.91796875
-72.32666015625
-61.34033203125
-53.1005859375
-60.4248046875
-67.7490234375
-94.29931640625
-111.6943359375
-116.27197265625
-96.13037109375
-95.21484375
-98.876953125
-96.13037109375
-96.13037109375
-97.0458984375
-78.7353515625
-80.56640625
-96.13037109375
-83.31298828125
-84.228515625
-81.48193359375
-92.46826171875
-89.7216796875
-75.0732421875
-77.81982421875
-92.46826171875
-96.13037109375
-87.890625
-83.31298828125
-80.56640625
-82.3974609375
-94.29931640625
-106.201171875
-102.5390625
-94.29931640625
-79.65087890625
-79.65087890625
-89.7216796875
-93.3837890625
-95.21484375
-81.48193359375
-93.3837890625
-126.3427734375
-118.10302734375
-98.876953125
-109.86328125
-118.10302734375
-119.93408203125
-125.42724609375
-117.1875
-102.5390625
-108.94775390625
-97.0458984375
-102.5390625
-97.0458984375
-97.0458984375
-96.13037109375
-104.3701171875
-113.525390625
-103.45458984375
-97.96142578125
-107.11669921875
-119.93408203125
-119.0185546875
-117.1875
-122.6806640625
-120.849609375
-109.86328125
-108.94775390625
-102.5390625
-91.552734375
-94.29931640625
-96.13037109375
-97.96142578125
-100.7080078125
-95.21484375
-108.94775390625
-101.62353515625
-93.3837890625
-101.62353515625
-106.201171875
-111.6943359375
-116.27197265625
-106.201171875
-101.62353515625
-99.79248046875
-108.94775390625
-118.10302734375
-120.849609375
-126.3427734375
-133.6669921875
-124.51171875
-108.94775390625
-105.28564453125
-108.0322265625
-98.876953125
-93.3837890625
-93.3837890625
-108.94775390625
-111.6943359375
-100.7080078125
-96.13037109375
-92.46826171875
-95.21484375
-87.890625
-79.65087890625
-70.49560546875
-66.83349609375
-51.26953125
-53.1005859375
-49.4384765625
-52.18505859375
-54.931640625
-62.255859375
-70.49560546875
-73.2421875
-86.0595703125
-86.0595703125
-91.552734375
-86.0595703125
-85.14404296875
-88.80615234375
-95.21484375
-77.81982421875
-78.7353515625
-83.31298828125
-83.31298828125
-100.7080078125
-102.5390625
-92.46826171875
-111.6943359375
-106.201171875
-105.28564453125
-96.13037109375
-100.7080078125
-105.28564453125
-119.0185546875
-132.75146484375
-133.6669921875
-126.3427734375
-124.51171875
-134.58251953125
-125.42724609375
-104.3701171875
-120.849609375
-120.849609375
-130.0048828125
-122.6806640625
-130.0048828125
-127.25830078125
-116.27197265625
-116.27197265625
-118.10302734375
-108.0322265625
-122.6806640625
-119.0185546875
-121.76513671875
-115.3564453125
-114.44091796875
-126.3427734375
-144.6533203125
-141.90673828125
-142.822265625
-151.9775390625
-143.73779296875
-116.27197265625
-75.98876953125
-11.90185546875
77.81982421875
180.35888671875
299.37744140625
468.75
686.6455078125
856.93359375
976.86767578125
1086.73095703125
1195.6787109375
1288.14697265625
1337.58544921875
1292.724609375
1244.20166015625
1191.10107421875
1040.95458984375
843.20068359375
596.00830078125
341.49169921875
151.9775390625
109.86328125
108.94775390625
97.0458984375
60.4248046875
16.4794921875
-29.296875
-83.31298828125
-109.86328125
-121.76513671875
-114.44091796875
-104.3701171875
-99.79248046875
-97.96142578125
-106.201171875
-119.0185546875
-108.0322265625
-119.0185546875
-126.3427734375
-130.0048828125
-119.0185546875
-122.6806640625
-112.60986328125
-108.94775390625
-108.0322265625
-126.3427734375
-135.498046875
-142.822265625
-152.89306640625
-141.90673828125
-129.08935546875
-130.92041015625
-130.92041015625
-119.0185546875
-109.86328125
-110.77880859375
-104.3701171875
-107.11669921875
-113.525390625
-107.11669921875
-98.876953125
-99.79248046875
-117.1875
-131.8359375
-125.42724609375
-129.08935546875
-139.16015625
-138.24462890625
-125.42724609375
-114.44091796875
-116.27197265625
-131.8359375
-123.59619140625
-125.42724609375
-131.8359375
-119.0185546875
-127.25830078125
-124.51171875
-114.44091796875
-114.44091796875
-101.62353515625
-113.525390625
-107.11669921875
-104.3701171875
-100.7080078125
-114.44091796875
-119.0185546875
-122.6806640625
-108.94775390625
-95.21484375
-92.46826171875
-102.5390625
-104.3701171875
-96.13037109375
-93.3837890625
-104.3701171875
-108.94775390625
-110.77880859375
-111.6943359375
-111.6943359375
-114.44091796875
-106.201171875
-97.0458984375
-86.97509765625
-97.0458984375
-102.5390625
-108.94775390625
-106.201171875
-120.849609375
-137.3291015625
-123.59619140625
-115.3564453125
-114.44091796875
-122.6806640625
-115.3564453125
-111.6943359375
-111.6943359375
-107.11669921875
-108.94775390625
-123.59619140625
-120.849609375
-117.1875
-111.6943359375
-122.6806640625
-120.849609375
-108.94775390625
-109.86328125
-102.5390625
-110.77880859375
-119.0185546875
-114.44091796875
-117.1875
-116.27197265625
-130.92041015625
-134.58251953125
-130.92041015625
-130.92041015625
-136.41357421875
-151.9775390625
-150.146484375
-150.146484375
-144.6533203125
-134.58251953125
-130.92041015625
-130.92041015625
-119.93408203125
-129.08935546875
-119.0185546875
-103.45458984375
-112.60986328125
-122.6806640625
-137.3291015625
-133.6669921875
-119.93408203125
-121.76513671875
-117.1875
-98.876953125
-116.27197265625
-128.173828125
-111.6943359375
-103.45458984375
-110.77880859375
-100.7080078125
-90.63720703125
-89.7216796875
-101.62353515625
-97.0458984375
-98.876953125
-97.0458984375
-99.79248046875
-94.29931640625
-86.97509765625
-79.65087890625
-82.3974609375
-82.3974609375
-85.14404296875
-82.3974609375
-99.79248046875
-104.3701171875
-95.21484375
-97.96142578125
-87.890625
-86.97509765625
-95.21484375
-92.46826171875
-94.29931640625
-111.6943359375
-102.5390625
-97.0458984375
-97.0458984375
-100.7080078125
-103.45458984375
-97.0458984375
-96.13037109375
-81.48193359375
-75.0732421875
-73.2421875
-68.66455078125
-65.91796875
-62.255859375
-74.15771484375
-86.0595703125
-96.13037109375
-108.94775390625
-100.7080078125
-85.14404296875
-82.3974609375
-82.3974609375
-61.34033203125
-51.26953125
-54.01611328125
-46.69189453125
-47.607421875
-50.35400390625
-64.0869140625
-74.15771484375
-78.7353515625
-64.0869140625
-55.84716796875
-64.0869140625
-63.17138671875
-60.4248046875
-70.49560546875
-64.0869140625
-53.1005859375
-46.69189453125
-59.50927734375
-64.0869140625
-56.7626953125
-46.69189453125
-43.9453125
-53.1005859375
-50.35400390625
-44.86083984375
-56.7626953125
-75.0732421875
-81.48193359375
-68.66455078125
-67.7490234375
-65.00244140625
-65.91796875
-68.66455078125
-52.18505859375
-66.83349609375
-77.81982421875
-79.65087890625
-86.0595703125
-82.3974609375
-75.98876953125
-79.65087890625
-83.31298828125
-87.890625
-95.21484375
-86.97509765625
-80.56640625
-90.63720703125
-87.890625
-97.96142578125
-109.86328125
-104.3701171875
-97.0458984375
-96.13037109375
-108.0322265625
-97.96142578125
-93.3837890625
-82.3974609375
-89.7216796875
-97.0458984375
-76.904296875
-81.48193359375
-88.80615234375
-86.97509765625
-95.21484375
-95.21484375
-94.29931640625
-87.890625
-97.0458984375
-111.6943359375
-114.44091796875
-95.21484375
-88.80615234375
-97.96142578125
-105.28564453125
-117.1875
-116.27197265625
-113.525390625
-114.44091796875
-110.77880859375
-105.28564453125
-110.77880859375
-108.94775390625
-94.29931640625
-83.31298828125
-97.96142578125
-103.45458984375
-97.96142578125
-114.44091796875
-101.62353515625
-101.62353515625
-101.62353515625
-101.62353515625
-97.96142578125
-88.80615234375
-90.63720703125
-84.228515625
-86.97509765625
-91.552734375
-82.3974609375
-79.65087890625
-81.48193359375
-75.0732421875
-72.32666015625
-59.50927734375
-46.69189453125
-42.1142578125
-30.21240234375
-37.53662109375
-38.4521484375
-26.55029296875
-43.02978515625
-62.255859375
-60.4248046875
-67.7490234375
-83.31298828125
-87.890625
-89.7216796875
-93.3837890625
-95.21484375
-86.97509765625
-96.13037109375
-99.79248046875
-94.29931640625
-104.3701171875
-105.28564453125
-104.3701171875
-107.11669921875
-104.3701171875
-97.0458984375
-115.3564453125
-132.75146484375
-130.92041015625
-128.173828125
-125.42724609375
-112.60986328125
-114.44091796875
-119.0185546875
-125.42724609375
-117.1875
-105.28564453125
-99.79248046875
-101.62353515625
-112.60986328125
-108.0322265625
-108.0322265625
-108.0322265625
-116.27197265625
-110.77880859375
-127.25830078125
-131.8359375
-127.25830078125
-139.16015625
-140.9912109375
-135.498046875
-124.51171875
-126.3427734375
-134.58251953125
-123.59619140625
-125.42724609375
-142.822265625
-154.72412109375
-154.72412109375
-149.23095703125
-150.146484375
-118.10302734375
-79.65087890625
-27.4658203125
64.0869140625
189.51416015625
338.7451171875
508.11767578125
698.54736328125
867.00439453125
981.4453125
1090.39306640625
1207.58056640625
1301.8798828125
1348.57177734375
1326.59912109375
1283.5693359375
1216.73583984375
1053.77197265625
824.89013671875
554.8095703125
314.94140625
163.87939453125
126.3427734375
109.86328125
76.904296875
38.4521484375
-1.8310546875
-45.7763671875
-95.21484375
-129.08935546875
-130.92041015625
-119.93408203125
-117.1875
-119.0185546875
-112.60986328125
-115.3564453125
-119.93408203125
-130.0048828125
-121.76513671875
-120.849609375
-125.42724609375
-124.51171875
-130.0048828125
-133.6669921875
-121.76513671875
-115.3564453125
-128.173828125
-130.0048828125
-135.498046875
-130.0048828125
-130.0048828125
-137.3291015625
-131.8359375
-133.6669921875
-131.8359375
-121.76513671875
-123.59619140625
-120.849609375
-127.25830078125
-133.6669921875
-127.25830078125
-136.41357421875
-147.39990234375
-138.24462890625
-127.25830078125
-128.173828125
-139.16015625
-140.9912109375
-130.92041015625
-126.3427734375
-119.0185546875
-125.42724609375
-114.44091796875
-123.59619140625
-124.51171875
-125.42724609375
-126.3427734375
-126.3427734375
-117.1875
-110.77880859375
-108.0322265625
-123.59619140625
-124.51171875
-100.7080078125
-97.96142578125
-106.201171875
-97.0458984375
-98.876953125
-113.525390625
-107.11669921875
-97.0458984375
-100.7080078125
-117.1875
-123.59619140625
-130.92041015625
-119.93408203125
-117.1875
-119.0185546875
-115.3564453125
-105.28564453125
-108.94775390625
-113.525390625
-115.3564453125
-103.45458984375
-105.28564453125
-101.62353515625
-110.77880859375
-108.94775390625
-105.28564453125
-102.5390625
-91.552734375
-86.0595703125
-96.13037109375
-97.96142578125
-97.0458984375
-95.21484375
-101.62353515625
-110.77880859375
-99.79248046875
-106.201171875
-88.80615234375
-98.876953125
-104.3701171875
-113.525390625
-121.76513671875
-124.51171875
-125.42724609375
-120.849609375
-126.3427734375
-130.92041015625
-136.41357421875
-140.07568359375
-138.24462890625
-130.0048828125
-130.0048828125
-136.41357421875
-130.0048828125
-135.498046875
-138.24462890625
-129.08935546875
-131.8359375
-129.08935546875
-135.498046875
-133.6669921875
-135.498046875
-128.173828125
-123.59619140625
-123.59619140625
-124.51171875
-125.42724609375
-122.6806640625
-126.3427734375
-126.3427734375
-119.0185546875
-113.525390625
-106.201171875
-97.0458984375
-95.21484375
-93.3837890625
-93.3837890625
-122.6806640625
-117.1875
-125.42724609375
-121.76513671875
-119.93408203125
-110.77880859375
-117.1875
-118.10302734375
-112.60986328125
-115.3564453125
-110.77880859375
-108.0322265625
-105.28564453125
-109.86328125
-109.86328125
-103.45458984375
-102.5390625
-109.86328125
-113.525390625
-111.6943359375
-108.0322265625
-110.77880859375
-106.201171875
-102.5390625
-99.79248046875
-107.11669921875
-108.0322265625
-113.525390625
-119.0185546875
-103.45458984375
-97.96142578125
-110.77880859375
-110.77880859375
-117.1875
-106.201171875
-106.201171875
-108.94775390625
-114.44091796875
-105.28564453125
-97.96142578125
-83.31298828125
-89.7216796875
-97.0458984375
-99.79248046875
-96.13037109375
-86.0595703125
-76.904296875
-75.98876953125
-80.56640625
-84.228515625
-88.80615234375
-87.890625
-86.97509765625
-86.97509765625
-70.49560546875
-72.32666015625
-74.15771484375
-72.32666015625
-78.7353515625
-75.0732421875
-65.91796875
-63.17138671875
-60.4248046875
-60.4248046875
-51.26953125
-55.84716796875
-48.52294921875
-43.02978515625
-52.18505859375
-66.83349609375
-75.0732421875
-62.255859375
-59.50927734375
-65.00244140625
-54.931640625
-60.4248046875
-61.34033203125
-64.0869140625
-70.49560546875
-65.00244140625
-72.32666015625
-65.00244140625
-66.83349609375
-68.66455078125
-88.80615234375
-76.904296875
-78.7353515625
-77.81982421875
-71.4111328125
-82.3974609375
-86.0595703125
-74.15771484375
-68.66455078125
-63.17138671875
-76.904296875
-92.46826171875
-96.13037109375
-104.3701171875
-102.5390625
-115.3564453125
-108.94775390625
-117.1875
-108.94775390625
-107.11669921875
-107.11669921875
-107.11669921875
-117.1875
-111.6943359375
-108.94775390625
-102.5390625
-96.13037109375
-99.79248046875
-106.201171875
-108.0322265625
-96.13037109375
-94.29931640625
-99.79248046875
-111.6943359375
-108.94775390625
-97.0458984375
-101.62353515625
-98.876953125
-95.21484375
-101.62353515625
-104.3701171875
-95.21484375
-108.94775390625
-116.27197265625
-125.42724609375
-117.1875
-114.44091796875
-112.60986328125
-104.3701171875
-101.62353515625
-102.5390625
-112.60986328125
-123.59619140625
-113.525390625
-106.201171875
-99.79248046875
-97.0458984375
-105.28564453125
-108.94775390625
-118.10302734375
-120.849609375
-109.86328125
-108.0322265625
-119.0185546875
-120.849609375
-112.60986328125
-106.201171875
-117.1875
-115.3564453125
-101.62353515625
-102.5390625
-108.0322265625
-120.849609375
-114.44091796875
-119.93408203125
-124.51171875
-121.76513671875
-111.6943359375
-111.6943359375
-118.10302734375
-105.28564453125
-102.5390625
-102.5390625
-113.525390625
-117.1875
-99.79248046875
-90.63720703125
-82.3974609375
-73.2421875
-76.904296875
-82.3974609375
-73.2421875
-60.4248046875
-51.26953125
-46.69189453125
-46.69189453125
-39.36767578125
-34.7900390625
-54.931640625
-65.91796875
-82.3974609375
-99.79248046875
-93.3837890625
-89.7216796875
-88.80615234375
-97.96142578125
-97.0458984375
-85.14404296875
-80.56640625
-93.3837890625
-92.46826171875
-97.0458984375
-91.552734375
-87.890625
-88.80615234375
-90.63720703125
-108.0322265625
-141.90673828125
-135.498046875
-134.58251953125
-138.24462890625
-137.3291015625
-128.173828125
-119.0185546875
-119.0185546875
-131.8359375
-131.8359375
-122.6806640625
-121.76513671875
-113.525390625
-113.525390625
-119.93408203125
-124.51171875
-120.849609375
-122.6806640625
-135.498046875
-132.75146484375
-127.25830078125
-126.3427734375
-118.10302734375
-121.76513671875
-111.6943359375
-107.11669921875
-105.28564453125
-105.28564453125
-119.93408203125
-149.23095703125
-173.9501953125
-181.2744140625
-177.6123046875
-175.78125
-154.72412109375
-101.62353515625
-27.4658203125
70.49560546875
178.52783203125
305.7861328125
476.07421875
661.92626953125
823.05908203125
948.486328125
1080.322265625
1196.59423828125
1291.80908203125
1348.57177734375
1347.65625
1321.10595703125
1239.6240234375
1106.87255859375
921.93603515625
675.6591796875
412.90283203125
186.767578125
90.63720703125
63.17138671875
30.21240234375
5.4931640625
-18.310546875
-65.91796875
-95.21484375
-95.21484375
-92.46826171875
-91.552734375
-103.45458984375
-119.0185546875
-128.173828125
-124.51171875
-119.93408203125
-127.25830078125
-130.0048828125
-111.6943359375
-104.3701171875
-112.60986328125
-119.93408203125
-119.0185546875
-125.42724609375
-125.42724609375
-113.525390625
-115.3564453125
-123.59619140625
-135.498046875
-155.6396484375
-151.9775390625
-140.07568359375
-134.58251953125
-132.75146484375
-122.6806640625
-115.3564453125
-116.27197265625
-119.0185546875
-127.25830078125
-126.3427734375
-119.93408203125
-119.93408203125
-124.51171875
-119.0185546875
-125.42724609375
-136.41357421875
-136.41357421875
-133.6669921875
-125.42724609375
-119.0185546875
-106.201171875
-98.876953125
-104.3701171875
-118.10302734375
-124.51171875
-124.51171875
-118.10302734375
-119.93408203125
-124.51171875
-127.25830078125
-121.76513671875
-123.59619140625
-116.27197265625
-108.0322265625
-112.60986328125
-105.28564453125
-115.3564453125
-112.60986328125
-106.201171875
-106.201171875
-106.201171875
-97.0458984375
-93.3837890625
-84.228515625
-93.3837890625
-96.13037109375
-89.7216796875
-88.80615234375
-107.11669921875
-112.60986328125
-105.28564453125
-98.876953125
-108.0322265625
-100.7080078125
-96.13037109375
-91.552734375
-95.21484375
-88.80615234375
-84.228515625
-92.46826171875
-86.0595703125
-82.3974609375
-78.7353515625
-93.3837890625
-91.552734375
-101.62353515625
-98.876953125
-95.21484375
-86.0595703125
-77.81982421875
-72.32666015625
-76.904296875
-70.49560546875
-70.49560546875
-78.7353515625
-82.3974609375
-102.5390625
-114.44091796875
-102.5390625
-98.876953125
-105.28564453125
-105.28564453125
-108.94775390625
-95.21484375
-96.13037109375
-100.7080078125
-99.79248046875
-94.29931640625
-91.552734375
-95.21484375
-97.96142578125
-106.201171875
-113.525390625
-102.5390625
-93.3837890625
-88.80615234375
-97.0458984375
-89.7216796875
-80.56640625
-89.7216796875
-107.11669921875
-112.60986328125
-124.51171875
-114.44091796875
-97.0458984375
-99.79248046875
-106.201171875
-112.60986328125
-106.201171875
-106.201171875
-104.3701171875
-95.21484375
-94.29931640625
-96.13037109375
-89.7216796875
-92.46826171875
-89.7216796875
-86.0595703125
-76.904296875
-88.80615234375
-84.228515625
-103.45458984375
-89.7216796875
-88.80615234375
-96.13037109375
-106.201171875
-112.60986328125
-104.3701171875
-108.94775390625
-109.86328125
-105.28564453125
-102.5390625
-93.3837890625
-94.29931640625
-96.13037109375
-100.7080078125
-97.96142578125
-105.28564453125
-105.28564453125
-95.21484375
-94.29931640625
-93.3837890625
-90.63720703125
-87.890625
-89.7216796875
-72.32666015625
-70.49560546875
-94.29931640625
-88.80615234375
-87.890625
-97.0458984375
-94.29931640625
-85.14404296875
-72.32666015625
-67.7490234375
-71.4111328125
-67.7490234375
-72.32666015625
-79.65087890625
-83.31298828125
-74.15771484375
-71.4111328125
-58.59375
-52.18505859375
-42.1142578125
-51.26953125
-78.7353515625
-77.81982421875
-62.255859375
-59.50927734375
-57.67822265625
-52.18505859375
-55.84716796875
-48.52294921875
-43.02978515625
-51.26953125
-42.1142578125
-34.7900390625
-43.02978515625
-67.7490234375
-55.84716796875
-45.7763671875
-56.7626953125
-56.7626953125
-46.69189453125
-47.607421875
-49.4384765625
-49.4384765625
-50.35400390625
-66.83349609375
-66.83349609375
-63.17138671875
-56.7626953125
-73.2421875
-73.2421875
-72.32666015625
-73.2421875
-68.66455078125
-68.66455078125
-67.7490234375
-74.15771484375
-75.0732421875
-75.0732421875
-63.17138671875
-64.0869140625
-86.97509765625
-77.81982421875
-75.98876953125
-68.66455078125
-70.49560546875
-75.98876953125
-75.98876953125
-86.97509765625
-84.228515625
-79.65087890625
-71.4111328125
-78.7353515625
-83.31298828125
-92.46826171875
-111.6943359375
-104.3701171875
-99.79248046875
-97.96142578125
-97.96142578125
-98.876953125
-100.7080078125
-100.7080078125
-97.0458984375
-84.228515625
-86.0595703125
-79.65087890625
-85.14404296875
-101.62353515625
-116.27197265625
-114.44091796875
-99.79248046875
-99.79248046875
-98.876953125
-97.0458984375
-104.3701171875
-108.0322265625
-100.7080078125
-100.7080078125
-108.0322265625
-94.29931640625
-95.21484375
-97.96142578125
-85.14404296875
-87.890625
-92.46826171875
-92.46826171875
-89.7216796875
-93.3837890625
-95.21484375
-96.13037109375
-88.80615234375
-82.3974609375
-93.3837890625
-119.93408203125
-100.7080078125
-88.80615234375
-95.21484375
-87.890625
-92.46826171875
-89.7216796875
-106.201171875
-119.93408203125
-130.0048828125
-130.0048828125
-111.6943359375
-106.201171875
-106.201171875
-99.79248046875
-92.46826171875
-86.0595703125
-85.14404296875
-102.5390625
-102.5390625
-108.94775390625
-103.45458984375
-112.60986328125
-101.62353515625
-95.21484375
-116.27197265625
-119.93408203125
-111.6943359375
-119.0185546875
-119.93408203125
-120.849609375
-107.11669921875
-107.11669921875
-111.6943359375
-108.94775390625
-102.5390625
-108.94775390625
-104.3701171875
-113.525390625
-117.1875
-120.849609375
-112.60986328125
-107.11669921875
-97.96142578125
-95.21484375
-95.21484375
-94.29931640625
-99.79248046875
-105.28564453125
-112.60986328125
-108.94775390625
-110.77880859375
-114.44091796875
-118.10302734375
-118.10302734375
-107.11669921875
-106.201171875
-97.0458984375
-97.96142578125
-91.552734375
-92.46826171875
-103.45458984375
-109.86328125
-105.28564453125
-98.876953125
-97.96142578125
-98.876953125
-100.7080078125
-92.46826171875
-101.62353515625
-102.5390625
-98.876953125
-86.97509765625
-83.31298828125
-77.81982421875
-79.65087890625
-85.14404296875
-92.46826171875
-73.2421875
-69.580078125
-58.59375
-48.52294921875
-42.1142578125
-35.70556640625
-32.04345703125
-29.296875
-33.87451171875
-44.86083984375
-62.255859375
-75.98876953125
-89.7216796875
-93.3837890625
-82.3974609375
-88.80615234375
-95.21484375
-84.228515625
-81.48193359375
-83.31298828125
-95.21484375
-115.3564453125
-109.86328125
-112.60986328125
-92.46826171875
-87.890625
-93.3837890625
-108.0322265625
-140.07568359375
-145.56884765625
-131.8359375
-122.6806640625
-123.59619140625
-121.76513671875
-126.3427734375
-134.58251953125
-130.0048828125
-120.849609375
-121.76513671875
-120.849609375
-108.0322265625
-116.27197265625
-119.0185546875
-115.3564453125
-117.1875
-112.60986328125
-108.0322265625
-96.13037109375
-91.552734375
-114.44091796875
-101.62353515625
-93.3837890625
-91.552734375
-101.62353515625
-111.6943359375
-114.44091796875
-120.849609375
-144.6533203125
-151.9775390625
-160.21728515625
-168.45703125
-149.23095703125
-119.93408203125
-60.4248046875
15.56396484375
107.11669921875
210.5712890625
358.88671875
539.24560546875
736.99951171875
897.216796875
1020.81298828125
1145.32470703125
1250.6103515625
1337.58544921875
1376.953125
1333.0078125
1276.2451171875
1179.19921875
1020.81298828125
791.93115234375
558.4716796875
313.1103515625
133.6669921875
69.580078125
36.62109375
13.73291015625
-15.56396484375
-55.84716796875
-85.14404296875
-94.29931640625
-95.21484375
-91.552734375
-89.7216796875
-80.56640625
-75.0732421875
-86.0595703125
-87.890625
-88.80615234375
-100.7080078125
-127.25830078125
-125.42724609375
-111.6943359375
-107.11669921875
-103.45458984375
-124.51171875
-142.822265625
-137.3291015625
-119.93408203125
-118.10302734375
-119.93408203125
-111.6943359375
-119.93408203125
-122.6806640625
-114.44091796875
-119.93408203125
-130.92041015625
-127.25830078125
-119.0185546875
-118.10302734375
-111.6943359375
-109.86328125
-116.27197265625
-115.3564453125
-117.1875
-122.6806640625
-125.42724609375
-125.42724609375
-119.93408203125
-107.11669921875
-108.0322265625
-114.44091796875
-123.59619140625
-127.25830078125
-119.93408203125
-118.10302734375
-117.1875
-103.45458984375
-105.28564453125
-97.0458984375
-96.13037109375
-96.13037109375
-101.62353515625
-90.63720703125
-100.7080078125
-101.62353515625
-119.93408203125
-127.25830078125
-109.86328125
-98.876953125
-97.0458984375
-100.7080078125
-92.46826171875
-79.65087890625
-74.15771484375
-92.46826171875
-108.0322265625
-118.10302734375
-113.525390625
-120.849609375
-110.77880859375
-112.60986328125
-121.76513671875
-109.86328125
-100.7080078125
-84.228515625
-89.7216796875
-95.21484375
-90.63720703125
-74.15771484375
-67.7490234375
-76.904296875
-75.0732421875
-73.2421875
-82.3974609375
-75.98876953125
-89.7216796875
-108.0322265625
-94.29931640625
-97.96142578125
-96.13037109375
-85.14404296875
-79.65087890625
-75.98876953125
-78.7353515625
-71.4111328125
-69.580078125
-72.32666015625
-79.65087890625
-76.904296875
-84.228515625
-94.29931640625
-93.3837890625
-102.5390625
-97.0458984375
-103.45458984375
-104.3701171875
-108.94775390625
-114.44091796875
-109.86328125
-114.44091796875
-116.27197265625
-107.11669921875
-99.79248046875
-97.0458984375
-102.5390625
-110.77880859375
-106.201171875
-100.7080078125
-110.77880859375
-114.44091796875
-115.3564453125
-109.86328125
-117.1875
-101.62353515625
-94.29931640625
-90.63720703125
-93.3837890625
-89.7216796875
-85.14404296875
-75.98876953125
-91.552734375
-93.3837890625
-82.3974609375
-93.3837890625
-97.96142578125
-100.7080078125
-101.62353515625
-101.62353515625
-85.14404296875
-108.0322265625
-117.1875
-107.11669921875
-115.3564453125
-106.201171875
-102.5390625
-106.201171875
-106.201171875
-97.96142578125
-95.21484375
-98.876953125
-104.3701171875
-89.7216796875
-97.96142578125
-114.44091796875
-113.525390625
-108.0322265625
-109.86328125
-88.80615234375
-94.29931640625
-108.0322265625
-97.0458984375
-86.0595703125
-86.0595703125
-87.890625
-82.3974609375
-68.66455078125
-63.17138671875
-87.890625
-105.28564453125
-98.876953125
-100.7080078125
-97.96142578125
-94.29931640625
-112.60986328125
-108.94775390625
-95.21484375
-84.228515625
-80.56640625
-94.29931640625
-85.14404296875
-72.32666015625
-86.0595703125
-97.96142578125
-87.890625
-88.80615234375
-82.3974609375
-102.5390625
-99.79248046875
-84.228515625
-82.3974609375
-75.98876953125
-74.15771484375
-65.00244140625
-65.00244140625
-67.7490234375
-64.0869140625
-69.580078125
-65.00244140625
-55.84716796875
-61.34033203125
-55.84716796875
-40.283203125
-31.1279296875
-46.69189453125
-56.7626953125
-75.0732421875
-69.580078125
-61.34033203125
-84.228515625
-106.201171875
-108.0322265625
-112.60986328125
-104.3701171875
-86.97509765625
-83.31298828125
-90.63720703125
-91.552734375
-78.7353515625
-78.7353515625
-87.890625
-80.56640625
-92.46826171875
-93.3837890625
-108.0322265625
-108.94775390625
-115.3564453125
-101.62353515625
-91.552734375
-90.63720703125
-87.890625
-90.63720703125
-97.0458984375
-93.3837890625
-97.0458984375
-102.5390625
-128.173828125
-141.90673828125
-138.24462890625
-134.58251953125
-120.849609375
-115.3564453125
-109.86328125
-105.28564453125
-114.44091796875
-121.76513671875
-116.27197265625
-116.27197265625
-119.0185546875
-120.849609375
-111.6943359375
-106.201171875
-113.525390625
-111.6943359375
-107.11669921875
-124.51171875
-137.3291015625
-140.07568359375
-140.9912109375
-131.8359375
-112.60986328125
-117.1875
-113.525390625
-105.28564453125
-105.28564453125
-100.7080078125
-98.876953125
-103.45458984375
-104.3701171875
-91.552734375
-108.0322265625
-120.849609375
-130.92041015625
-119.93408203125
-131.8359375
-144.6533203125
-150.146484375
-142.822265625
-135.498046875
-135.498046875
-126.3427734375
-129.08935546875
-126.3427734375
-123.59619140625
-111.6943359375
-109.86328125
-116.27197265625
-135.498046875
-139.16015625
-134.58251953125
-129.08935546875
-134.58251953125
-132.75146484375
-121.76513671875
-121.76513671875
-129.08935546875
-123.59619140625
-121.76513671875
-109.86328125
-107.11669921875
-105.28564453125
-111.6943359375
-119.0185546875
-126.3427734375
-130.0048828125
-131.8359375
-121.76513671875
-121.76513671875
-108.94775390625
-117.1875
-106.201171875
-113.525390625
-111.6943359375
-114.44091796875
-156.55517578125
-166.6259765625
-157.470703125
-150.146484375
-128.173828125
-133.6669921875
-118.10302734375
-119.93408203125
-122.6806640625
-114.44091796875
-113.525390625
-113.525390625
-110.77880859375
-116.27197265625
-130.92041015625
-133.6669921875
-141.90673828125
-148.3154296875
-136.41357421875
-140.9912109375
-115.3564453125
-125.42724609375
-125.42724609375
-116.27197265625
-108.0322265625
-111.6943359375
-103.45458984375
-120.849609375
-135.498046875
-130.92041015625
-126.3427734375
-109.86328125
-93.3837890625
-85.14404296875
-92.46826171875
-78.7353515625
-110.77880859375
-126.3427734375
-105.28564453125
-85.14404296875
-82.3974609375
-75.0732421875
-77.81982421875
-67.7490234375
-53.1005859375
-72.32666015625
-84.228515625
-81.48193359375
-101.62353515625
-110.77880859375
-106.201171875
-90.63720703125
-98.876953125
-89.7216796875
-85.14404296875
-98.876953125
-103.45458984375
-103.45458984375
-108.94775390625
-108.94775390625
-118.10302734375
-126.3427734375
-120.849609375
-112.60986328125
-133.6669921875
-133.6669921875
-132.75146484375
-121.76513671875
-130.0048828125
-133.6669921875
-131.8359375
-123.59619140625
-127.25830078125
-122.6806640625
-119.93408203125
-121.76513671875
-118.10302734375
-122.6806640625
-129.08935546875
-120.849609375
-127.25830078125
-136.41357421875
-135.498046875
-128.173828125
-121.76513671875
-127.25830078125
-108.94775390625
-119.0185546875
-113.525390625
-107.11669921875
-109.86328125
-118.10302734375
-142.822265625
-169.37255859375
-188.5986328125
-180.35888671875
-180.35888671875
-166.6259765625
-124.51171875
-79.65087890625
-7.32421875
87.890625
200.50048828125
341.49169921875
509.94873046875
698.54736328125
855.1025390625
966.796875
1062.01171875
1190.185546875
1287.2314453125
1330.26123046875
1315.61279296875
1273.49853515625
1197.509765625
1043.701171875
839.53857421875
592.34619140625
346.0693359375
183.10546875
129.08935546875
98.876953125
67.7490234375
41.19873046875
20.1416015625
-17.39501953125
-70.49560546875
-116.27197265625
-122.6806640625
-113.525390625
-117.1875
-113.525390625
-121.76513671875
-126.3427734375
-115.3564453125
-123.59619140625
-130.92041015625
-132.75146484375
-134.58251953125
-140.9912109375
-139.16015625
-136.41357421875
-137.3291015625
-121.76513671875
-114.44091796875
-125.42724609375
-121.76513671875
-120.849609375
-124.51171875
-124.51171875
-131.8359375
-144.6533203125
-129.08935546875
-122.6806640625
-113.525390625
-115.3564453125
-108.94775390625
-102.5390625
-99.79248046875
-105.28564453125
-110.77880859375
-123.59619140625
-116.27197265625
-128.173828125
-131.8359375
-129.08935546875
-133.6669921875
-125.42724609375
-108.0322265625
-121.76513671875
-143.73779296875
-140.9912109375
-145.56884765625
-137.3291015625
-127.25830078125
-117.1875
-120.849609375
-119.0185546875
-109.86328125
-119.93408203125
-118.10302734375
-107.11669921875
-97.0458984375
-97.0458984375
-104.3701171875
-112.60986328125
-111.6943359375
-124.51171875
-125.42724609375
-108.94775390625
-101.62353515625
-101.62353515625
-98.876953125
-90.63720703125
-97.96142578125
-90.63720703125
-83.31298828125
-103.45458984375
-116.27197265625
-124.51171875
-107.11669921875
-91.552734375
-92.46826171875
-93.3837890625
-82.3974609375
-88.80615234375
-89.7216796875
-114.44091796875
-130.0048828125
-126.3427734375
-108.94775390625
-107.11669921875
-98.876953125
-91.552734375
-90.63720703125
-101.62353515625
-97.0458984375
-97.96142578125
-98.876953125
-105.28564453125
-119.0185546875
-113.525390625
-108.0322265625
-108.94775390625
-104.3701171875
-103.45458984375
-91.552734375
-104.3701171875
-114.44091796875
-120.849609375
-114.44091796875
-116.27197265625
-128.173828125
-125.42724609375
-118.10302734375
-110.77880859375
-110.77880859375
-118.10302734375
-118.10302734375
-119.0185546875
-112.60986328125
-111.6943359375
-130.0048828125
-122.6806640625
-121.76513671875
-110.77880859375
-117.1875
-132.75146484375
-119.0185546875
-111.6943359375
-101.62353515625
-102.5390625
-113.525390625
-120.849609375
-101.62353515625
-97.96142578125
-111.6943359375
-96.13037109375
-95.21484375
-110.77880859375
-107.11669921875
-108.0322265625
-106.201171875
-104.3701171875
-103.45458984375
-103.45458984375
-105.28564453125
-101.62353515625
-106.201171875
-109.86328125
-106.201171875
-105.28564453125
-114.44091796875
-108.94775390625
-102.5390625
-111.6943359375
-121.76513671875
-109.86328125
-108.94775390625
-99.79248046875
-101.62353515625
-97.0458984375
-101.62353515625
-86.97509765625
-69.580078125
-65.00244140625
-67.7490234375
-86.97509765625
-93.3837890625
-97.0458984375
-116.27197265625
-118.10302734375
-111.6943359375
-106.201171875
-96.13037109375
-88.80615234375
-88.80615234375
-80.56640625
-75.0732421875
-65.91796875
-81.48193359375
-82.3974609375
-84.228515625
-92.46826171875
-95.21484375
-74.15771484375
-70.49560546875
-88.80615234375
-82.3974609375
-72.32666015625
-66.83349609375
-70.49560546875
-63.17138671875
-64.0869140625
-65.91796875
-70.49560546875
-53.1005859375
-43.9453125
-36.62109375
-43.02978515625
-36.62109375
-51.26953125
-73.2421875
-54.01611328125
-50.35400390625
-50.35400390625
-36.62109375
-37.53662109375
-43.02978515625
-47.607421875
-45.7763671875
-48.52294921875
-37.53662109375
-29.296875
-44.86083984375
-62.255859375
-52.18505859375
-47.607421875
-48.52294921875
-62.255859375
-65.91796875
-59.50927734375
-64.0869140625
-69.580078125
-76.904296875
-81.48193359375
-99.79248046875
-89.7216796875
-73.2421875
-62.255859375
-43.02978515625
-44.86083984375
-58.59375
-49.4384765625
-63.17138671875
-75.98876953125
-69.580078125
-64.0869140625
-66.83349609375
-77.81982421875
-73.2421875
-73.2421875
-75.98876953125
-78.7353515625
-69.580078125
-73.2421875
-71.4111328125
-70.49560546875
-77.81982421875
-84.228515625
-68.66455078125
-72.32666015625
-77.81982421875
-84.228515625
-82.3974609375
-88.80615234375
-108.94775390625
-107.11669921875
-97.0458984375
-86.97509765625
-82.3974609375
-89.7216796875
-96.13037109375
-94.29931640625
-90.63720703125
-85.14404296875
-82.3974609375
-82.3974609375
-84.228515625
-83.31298828125
-87.890625
-93.3837890625
-95.21484375
-86.0595703125
-93.3837890625
-95.21484375
-105.28564453125
-103.45458984375
-93.3837890625
-86.0595703125
-81.48193359375
-82.3974609375
-85.14404296875
-116.27197265625
-115.3564453125
-104.3701171875
-99.79248046875
-93.3837890625
-66.83349609375
-59.50927734375
-60.4248046875
-62.255859375
-59.50927734375
-65.91796875
-91.552734375
-100.7080078125
-90.63720703125
-98.876953125
-82.3974609375
-72.32666015625
-62.255859375
-54.931640625
-55.84716796875
-57.67822265625
-43.02978515625
-32.04345703125
-25.634765625
-30.21240234375
-36.62109375
-33.87451171875
-46.69189453125
-55.84716796875
-51.26953125
-65.91796875
-66.83349609375
-72.32666015625
-67.7490234375
-62.255859375
-57.67822265625
-78.7353515625
-86.0595703125
-90.63720703125
-94.29931640625
-84.228515625
-86.0595703125
-82.3974609375
-74.15771484375
-83.31298828125
-95.21484375
-105.28564453125
-106.201171875
-101.62353515625
-110.77880859375
-112.60986328125
-107.11669921875
-111.6943359375
-104.3701171875
-104.3701171875
-112.60986328125
-105.28564453125
-113.525390625
-119.0185546875
-117.1875
-124.51171875
-151.06201171875
-156.55517578125
-128.173828125
-112.60986328125
-126.3427734375
-130.0048828125
-116.27197265625
-116.27197265625
-120.849609375
-114.44091796875
-103.45458984375
-103.45458984375
-111.6943359375
-122.6806640625
-130.0048828125
-139.16015625
-147.39990234375
-155.6396484375
-167.54150390625
-176.69677734375
-164.794921875
-129.08935546875
-79.65087890625
-10.986328125
94.29931640625
205.078125
334.16748046875
497.13134765625
703.125
874.32861328125
992.431640625
1071.1669921875
1164.55078125
1270.751953125
1322.021484375
1300.048828125
1274.4140625
1209.41162109375
1044.61669921875
834.04541015625
570.37353515625
307.6171875
136.41357421875
94.29931640625
69.580078125
38.4521484375
7.32421875
-29.296875
-64.0869140625
-91.552734375
-104.3701171875
-112.60986328125
-107.11669921875
-112.60986328125
-116.27197265625
-120.849609375
-121.76513671875
-119.0185546875
-124.51171875
-130.92041015625
-126.3427734375
-132.75146484375
-127.25830078125
-114.44091796875
-125.42724609375
-123.59619140625
-119.93408203125
-140.07568359375
-150.146484375
-136.41357421875
-144.6533203125
-146.484375
-132.75146484375
-128.173828125
-130.0048828125
-129.08935546875
-125.42724609375
-130.92041015625
-122.6806640625
-126.3427734375
-115.3564453125
-130.92041015625
-158.38623046875
-138.24462890625
-133.6669921875
-136.41357421875
-126.3427734375
-119.93408203125
-125.42724609375
-130.92041015625
-137.3291015625
-138.24462890625
-132.75146484375
-132.75146484375
-130.0048828125
-126.3427734375
-127.25830078125
-122.6806640625
-120.849609375
-120.849609375
-125.42724609375
-117.1875
-128.173828125
-140.07568359375
-128.173828125
-119.93408203125
-126.3427734375
-129.08935546875
-121.76513671875
-119.0185546875
-114.44091796875
-110.77880859375
-110.77880859375
-115.3564453125
-119.0185546875
-113.525390625
-112.60986328125
-102.5390625
-92.46826171875
-79.65087890625
-74.15771484375
-80.56640625
-77.81982421875
-76.904296875
-108.0322265625
-127.25830078125
-112.60986328125
-107.11669921875
-94.29931640625
-99.79248046875
-114.44091796875
-123.59619140625
-110.77880859375
-111.6943359375
-119.0185546875
-112.60986328125
-105.28564453125
-108.0322265625
-113.525390625
-106.201171875
-104.3701171875
-105.28564453125
-99.79248046875
-105.28564453125
-113.525390625
-112.60986328125
-120.849609375
-119.0185546875
-114.44091796875
-118.10302734375
-121.76513671875
-118.10302734375
-114.44091796875
-119.93408203125
-126.3427734375
-129.08935546875
-119.93408203125
-133.6669921875
-118.10302734375
-128.173828125
-119.93408203125
-119.0185546875
-106.201171875
-114.44091796875
-108.0322265625
-100.7080078125
-96.13037109375
-86.0595703125
-86.0595703125
-97.0458984375
-126.3427734375
-125.42724609375
-124.51171875
-127.25830078125
-133.6669921875
-126.3427734375
-130.92041015625
-137.3291015625
-130.92041015625
-117.1875
-113.525390625
-111.6943359375
-112.60986328125
-121.76513671875
-113.525390625
-104.3701171875
-103.45458984375
-102.5390625
-108.0322265625
-108.94775390625
-110.77880859375
-102.5390625
-108.94775390625
-118.10302734375
-117.1875
-117.1875
-119.0185546875
-120.849609375
-113.525390625
-114.44091796875
-100.7080078125
-102.5390625
-93.3837890625
-93.3837890625
-95.21484375
-114.44091796875
-120.849609375
-126.3427734375
-121.76513671875
-105.28564453125
-98.876953125
-118.10302734375
-112.60986328125
-124.51171875
-121.76513671875
-119.0185546875
-118.10302734375
-117.1875
-99.79248046875
-98.876953125
-99.79248046875
-98.876953125
-100.7080078125
-100.7080078125
-119.0185546875
-109.86328125
-108.0322265625
-98.876953125
-86.0595703125
-88.80615234375
-87.890625
-71.4111328125
-65.00244140625
-67.7490234375
-75.98876953125
-86.97509765625
-84.228515625
-68.66455078125
-60.4248046875
-66.83349609375
-83.31298828125
-75.98876953125
-75.98876953125
-83.31298828125
-82.3974609375
-89.7216796875
-84.228515625
-66.83349609375
-71.4111328125
-60.4248046875
-63.17138671875
-66.83349609375
-64.0869140625
-69.580078125
-58.59375
-71.4111328125
-91.552734375
-83.31298828125
-77.81982421875
-71.4111328125
-75.0732421875
-70.49560546875
-75.98876953125
-79.65087890625
-74.15771484375
-72.32666015625
-76.904296875
-83.31298828125
-96.13037109375
-83.31298828125
-82.3974609375
-83.31298828125
-98.876953125
-103.45458984375
-101.62353515625
-104.3701171875
-103.45458984375
-107.11669921875
-114.44091796875
-117.1875
-111.6943359375
-110.77880859375
-93.3837890625
-91.552734375
-93.3837890625
-102.5390625
-97.0458984375
-106.201171875
-108.0322265625
-108.0322265625
-109.86328125
-112.60986328125
-125.42724609375
-125.42724609375
-121.76513671875
-112.60986328125
-94.29931640625
-102.5390625
-108.94775390625
-109.86328125
-108.94775390625
-110.77880859375
-119.0185546875
-134.58251953125
-138.24462890625
-114.44091796875
-106.201171875
-107.11669921875
-95.21484375
-92.46826171875
-99.79248046875
-105.28564453125
-101.62353515625
-108.0322265625
-129.08935546875
-123.59619140625
-114.44091796875
-99.79248046875
-99.79248046875
-108.0322265625
-116.27197265625
-109.86328125
-111.6943359375
-118.10302734375
-126.3427734375
-127.25830078125
-119.0185546875
-116.27197265625
-120.849609375
-121.76513671875
-124.51171875
-116.27197265625
-117.1875
-121.76513671875
-135.498046875
-148.3154296875
-138.24462890625
-131.8359375
-119.0185546875
-110.77880859375
-109.86328125
-121.76513671875
-123.59619140625
-140.07568359375
-134.58251953125
-117.1875
-119.93408203125
-124.51171875
-110.77880859375
-112.60986328125
-113.525390625
-114.44091796875
-119.0185546875
-127.25830078125
-110.77880859375
-115.3564453125
-99.79248046875
-106.201171875
-95.21484375
-79.65087890625
-71.4111328125
-75.0732421875
-80.56640625
-93.3837890625
-94.29931640625
-83.31298828125
-67.7490234375
-47.607421875
-53.1005859375
-58.59375
-54.01611328125
-54.931640625
-54.931640625
-63.17138671875
-77.81982421875
-81.48193359375
-93.3837890625
-94.29931640625
-88.80615234375
-89.7216796875
-83.31298828125
-79.65087890625
-85.14404296875
-82.3974609375
-84.228515625
-99.79248046875
-114.44091796875
-126.3427734375
-119.0185546875
-109.86328125
-106.201171875
-109.86328125
-115.3564453125
-132.75146484375
-136.41357421875
-127.25830078125
-129.08935546875
-140.07568359375
-139.16015625
-136.41357421875
-135.498046875
-142.822265625
-133.6669921875
-121.76513671875
-116.27197265625
-105.28564453125
-110.77880859375
-119.0185546875
-114.44091796875
-116.27197265625
-125.42724609375
-135.498046875
-128.173828125
-139.16015625
-130.92041015625
-132.75146484375
-134.58251953125
-128.173828125
-132.75146484375
-115.3564453125
-128.173828125
-146.484375
-148.3154296875
-159.3017578125
-168.45703125
-163.87939453125
-127.25830078125
-102.5390625
-39.36767578125
71.4111328125
182.18994140625
303.03955078125
461.42578125
647.27783203125
824.89013671875
956.72607421875
1080.322265625
1202.08740234375
1308.28857421875
1361.38916015625
1363.22021484375
1331.1767578125
1249.69482421875
1101.37939453125
903.62548828125
661.92626953125
411.9873046875
190.4296875
97.96142578125
68.66455078125
29.296875
4.57763671875
-34.7900390625
-80.56640625
-119.93408203125
-132.75146484375
-108.94775390625
-118.10302734375
-117.1875
-119.0185546875
-119.0185546875
-123.59619140625
-108.94775390625
-108.94775390625
-124.51171875
-130.92041015625
-133.6669921875
-144.6533203125
-154.72412109375
-149.23095703125
-146.484375
-152.89306640625
-142.822265625
-146.484375
-133.6669921875
-146.484375
-147.39990234375
-136.41357421875
-140.9912109375
-134.58251953125
-128.173828125
-123.59619140625
-127.25830078125
-127.25830078125
-133.6669921875
-132.75146484375
-125.42724609375
-116.27197265625
-116.27197265625
-112.60986328125
-109.86328125
-117.1875
-136.41357421875
-140.07568359375
-136.41357421875
-136.41357421875
-136.41357421875
-134.58251953125
-129.08935546875
-128.173828125
-123.59619140625
-116.27197265625
-108.94775390625
-116.27197265625
-110.77880859375
-119.0185546875
-134.58251953125
-150.146484375
-152.89306640625
-140.9912109375
-127.25830078125
-126.3427734375
-122.6806640625
-127.25830078125
-128.173828125
-119.0185546875
-100.7080078125
-107.11669921875
-110.77880859375
-104.3701171875
-111.6943359375
-108.0322265625
-108.0322265625
-102.5390625
-103.45458984375
-102.5390625
-101.62353515625
-99.79248046875
-91.552734375
-76.904296875
-80.56640625
-63.17138671875
-67.7490234375
-76.904296875
-93.3837890625
-86.0595703125
-95.21484375
-108.0322265625
-99.79248046875
-92.46826171875
-100.7080078125
-100.7080078125
-108.94775390625
-108.0322265625
-92.46826171875
-84.228515625
-82.3974609375
-89.7216796875
-88.80615234375
-88.80615234375
-78.7353515625
-76.904296875
-91.552734375
-86.0595703125
-90.63720703125
-93.3837890625
-103.45458984375
-105.28564453125
-120.849609375
-123.59619140625
-117.1875
-114.44091796875
-101.62353515625
-101.62353515625
-103.45458984375
-94.29931640625
-93.3837890625
-92.46826171875
-93.3837890625
-99.79248046875
-93.3837890625
-100.7080078125
-102.5390625
-115.3564453125
-114.44091796875
-97.96142578125
-91.552734375
-116.27197265625
-109.86328125
-100.7080078125
-84.228515625
-79.65087890625
-85.14404296875
-108.0322265625
-97.96142578125
-94.29931640625
-104.3701171875
-110.77880859375
-99.79248046875
-112.60986328125
-114.44091796875
-108.94775390625
-92.46826171875
-102.5390625
-119.93408203125
-123.59619140625
-107.11669921875
-93.3837890625
-106.201171875
-117.1875
-113.525390625
-117.1875
-109.86328125
-102.5390625
-102.5390625
-106.201171875
-99.79248046875
-97.96142578125
-96.13037109375
-90.63720703125
-95.21484375
-107.11669921875
-112.60986328125
-113.525390625
-122.6806640625
-129.08935546875
-109.86328125
-91.552734375
-95.21484375
-88.80615234375
-94.29931640625
-82.3974609375
-76.904296875
-96.13037109375
-116.27197265625
-108.94775390625
-102.5390625
-105.28564453125
-107.11669921875
-97.96142578125
-95.21484375
-94.29931640625
-85.14404296875
-79.65087890625
-88.80615234375
-96.13037109375
-92.46826171875
-75.0732421875
-70.49560546875
-75.98876953125
-75.98876953125
-70.49560546875
-68.66455078125
-72.32666015625
-86.97509765625
-83.31298828125
-85.14404296875
-84.228515625
-86.97509765625
-89.7216796875
-80.56640625
-73.2421875
-65.00244140625
-56.7626953125
-59.50927734375
-49.4384765625
-40.283203125
-49.4384765625
-48.52294921875
-40.283203125
-42.1142578125
-50.35400390625
-71.4111328125
-83.31298828125
-89.7216796875
-73.2421875
-81.48193359375
-74.15771484375
-58.59375
-65.91796875
-67.7490234375
-72.32666015625
-74.15771484375
-85.14404296875
-85.14404296875
-77.81982421875
-78.7353515625
-88.80615234375
-85.14404296875
-86.97509765625
-83.31298828125
-75.0732421875
-83.31298828125
-100.7080078125
-108.0322265625
-100.7080078125
-87.890625
-94.29931640625
-86.97509765625
-87.890625
-97.96142578125
-103.45458984375
-90.63720703125
-93.3837890625
-94.29931640625
-105.28564453125
-118.10302734375
-103.45458984375
-99.79248046875
-95.21484375
-87.890625
-86.0595703125
-87.890625
-99.79248046875
-125.42724609375
-119.93408203125
-105.28564453125
-104.3701171875
-100.7080078125
-103.45458984375
-102.5390625
-105.28564453125
-99.79248046875
-91.552734375
-104.3701171875
-112.60986328125
-113.525390625
-106.201171875
-105.28564453125
-104.3701171875
-108.0322265625
-107.11669921875
-112.60986328125
-111.6943359375
-119.93408203125
-125.42724609375
-128.173828125
-122.6806640625
-118.10302734375
-112.60986328125
-99.79248046875
-95.21484375
-105.28564453125
-112.60986328125
-119.0185546875
-131.8359375
-133.6669921875
-121.76513671875
-112.60986328125
-114.44091796875
-117.1875
-114.44091796875
-108.0322265625
-114.44091796875
-145.56884765625
-151.9775390625
-140.07568359375
-117.1875
-117.1875
-117.1875
-111.6943359375
-109.86328125
-124.51171875
-122.6806640625
-131.8359375
-137.3291015625
-131.8359375
-115.3564453125
-110.77880859375
-108.94775390625
-113.525390625
-115.3564453125
-109.86328125
-109.86328125
-117.1875
-119.93408203125
-111.6943359375
-103.45458984375
-104.3701171875
-109.86328125
-135.498046875
-130.0048828125
-115.3564453125
-109.86328125
-119.0185546875
-120.849609375
-114.44091796875
-123.59619140625
-118.10302734375
-118.10302734375
-119.0185546875
-118.10302734375
-116.27197265625
-109.86328125
-129.08935546875
-130.0048828125
-120.849609375
-128.173828125
-130.92041015625
-133.6669921875
-139.16015625
-140.07568359375
-127.25830078125
-127.25830078125
-122.6806640625
-122.6806640625
-107.11669921875
-109.86328125
-103.45458984375
-101.62353515625
-111.6943359375
-100.7080078125
-102.5390625
-99.79248046875
-94.29931640625
-91.552734375
-89.7216796875
-95.21484375
-79.65087890625
-79.65087890625
-55.84716796875
-34.7900390625
-46.69189453125
-64.0869140625
-68.66455078125
-52.18505859375
-36.62109375
-38.4521484375
-57.67822265625
-80.56640625
-99.79248046875
-97.96142578125
-81.48193359375
-81.48193359375
-78.7353515625
-95.21484375
-95.21484375
-92.46826171875
-99.79248046875
-112.60986328125
-112.60986328125
-103.45458984375
-96.13037109375
-96.13037109375
-105.28564453125
-113.525390625
-117.1875
-135.498046875
-138.24462890625
-129.08935546875
-124.51171875
-118.10302734375
-119.0185546875
-121.76513671875
-117.1875
-117.1875
-116.27197265625
-128.173828125
-130.92041015625
-136.41357421875
-145.56884765625
-142.822265625
-147.39990234375
-151.06201171875
-141.90673828125
-137.3291015625
-127.25830078125
-113.525390625
-95.21484375
-98.876953125
-105.28564453125
-109.86328125
-112.60986328125
-110.77880859375
-136.41357421875
-146.484375
-148.3154296875
-159.3017578125
-148.3154296875
-143.73779296875
-131.8359375
-74.15771484375
22.88818359375
129.08935546875
234.375
377.197265625
552.978515625
733.33740234375
885.31494140625
1018.06640625
1127.9296875
1234.130859375
1333.0078125
1382.4462890625
1354.06494140625
1303.7109375
1206.6650390625
1048.27880859375
791.015625
534.66796875
288.39111328125
131.8359375
72.32666015625
37.53662109375
11.90185546875
-22.88818359375
-65.91796875
-96.13037109375
-94.29931640625
-97.96142578125
-89.7216796875
-90.63720703125
-92.46826171875
-93.3837890625
-116.27197265625
-118.10302734375
-116.27197265625
-131.8359375
-133.6669921875
-134.58251953125
-132.75146484375
-123.59619140625
-119.93408203125
-119.93408203125
-128.173828125
-118.10302734375
-103.45458984375
-125.42724609375
-116.27197265625
-115.3564453125
-131.8359375
-119.0185546875
-111.6943359375
-105.28564453125
-99.79248046875
-101.62353515625
-108.0322265625
-122.6806640625
-130.92041015625
-142.822265625
-153.80859375
-146.484375
-124.51171875
-130.0048828125
-126.3427734375
-132.75146484375
-132.75146484375
-118.10302734375
-109.86328125
-130.0048828125
-140.9912109375
-137.3291015625
-138.24462890625
-137.3291015625
-130.92041015625
-128.173828125
-118.10302734375
-113.525390625
-129.08935546875
-112.60986328125
-101.62353515625
-117.1875
-126.3427734375
-124.51171875
-130.0048828125
-140.9912109375
-118.10302734375
-97.0458984375
-107.11669921875
-117.1875
-110.77880859375
-95.21484375
-104.3701171875
-113.525390625
-96.13037109375
-91.552734375
-98.876953125
-103.45458984375
-101.62353515625
-104.3701171875
-109.86328125
-110.77880859375
-100.7080078125
-97.0458984375
-87.890625
-94.29931640625
-96.13037109375
-98.876953125
-94.29931640625
-83.31298828125
-87.890625
-87.890625
-102.5390625
-105.28564453125
-98.876953125
-103.45458984375
-100.7080078125
-93.3837890625
-107.11669921875
-98.876953125
-90.63720703125
-89.7216796875
-93.3837890625
-94.29931640625
-103.45458984375
-115.3564453125
-100.7080078125
-98.876953125
-102.5390625
-110.77880859375
-117.1875
-108.0322265625
-87.890625
-94.29931640625
-85.14404296875
-100.7080078125
-97.96142578125
-108.94775390625
-97.0458984375
-95.21484375
-102.5390625
-121.76513671875
-121.76513671875
-98.876953125
-108.0322265625
-123.59619140625
-130.0048828125
-110.77880859375
-99.79248046875
-92.46826171875
-94.29931640625
-88.80615234375
-86.0595703125
-88.80615234375
-88.80615234375
-95.21484375
-112.60986328125
-116.27197265625
-120.849609375
-103.45458984375
-94.29931640625
-97.96142578125
-97.96142578125
-97.0458984375
-101.62353515625
-120.849609375
-113.525390625
-99.79248046875
-98.876953125
-104.3701171875
-96.13037109375
-104.3701171875
-110.77880859375
-103.45458984375
-107.11669921875
-110.77880859375
-86.0595703125
-82.3974609375
-96.13037109375
-108.94775390625
-117.1875
-112.60986328125
-114.44091796875
-116.27197265625
-110.77880859375
-108.0322265625
-108.94775390625
-116.27197265625
-136.41357421875
-126.3427734375
-107.11669921875
-108.94775390625
-111.6943359375
-90.63720703125
-84.228515625
-78.7353515625
-85.14404296875
-98.876953125
-96.13037109375
-94.29931640625
-99.79248046875
-97.96142578125
-92.46826171875
-99.79248046875
-104.3701171875
-98.876953125
-99.79248046875
-97.96142578125
-97.0458984375
-90.63720703125
-90.63720703125
-94.29931640625
-84.228515625
-76.904296875
-77.81982421875
-79.65087890625
-83.31298828125
-87.890625
-80.56640625
-72.32666015625
-73.2421875
-65.00244140625
-69.580078125
-64.0869140625
-69.580078125
-93.3837890625
-92.46826171875
-75.98876953125
-69.580078125
-86.97509765625
-85.14404296875
-80.56640625
-82.3974609375
-86.0595703125
-101.62353515625
-92.46826171875
-110.77880859375
-106.201171875
-83.31298828125
-74.15771484375
-71.4111328125
-76.904296875
-72.32666015625
-75.98876953125
-81.48193359375
-87.890625
-83.31298828125
-83.31298828125
-91.552734375
-103.45458984375
-104.3701171875
-97.96142578125
-88.80615234375
-96.13037109375
-104.3701171875
-112.60986328125
-103.45458984375
-100.7080078125
-92.46826171875
-94.29931640625
-99.79248046875
-102.5390625
-103.45458984375
-104.3701171875
-114.44091796875
-120.849609375
-117.1875
-125.42724609375
-119.0185546875
-118.10302734375
-120.849609375
-119.93408203125
-110.77880859375
-115.3564453125
-119.93408203125
-130.92041015625
-135.498046875
-136.41357421875
-123.59619140625
-116.27197265625
-111.6943359375
-103.45458984375
-113.525390625
-110.77880859375
-105.28564453125
-120.849609375
-131.8359375
-140.9912109375
-137.3291015625
-132.75146484375
-119.0185546875
-117.1875
-130.0048828125
-118.10302734375
-120.849609375
-127.25830078125
-117.1875
-112.60986328125
-117.1875
-117.1875
-108.0322265625
-108.94775390625
-118.10302734375
-126.3427734375
-132.75146484375
-119.0185546875
-115.3564453125
-126.3427734375
-108.0322265625
-108.0322265625
-105.28564453125
-108.94775390625
-133.6669921875
-129.08935546875
-130.92041015625
-139.16015625
-130.92041015625
-131.8359375
-131.8359375
-126.3427734375
-127.25830078125
-120.849609375
-131.8359375
-127.25830078125
-119.93408203125
-115.3564453125
-117.1875
-134.58251953125
-138.24462890625
-131.8359375
-141.90673828125
-152.89306640625
-165.71044921875
-157.470703125
-132.75146484375
-136.41357421875
-124.51171875
-113.525390625
-120.849609375
-133.6669921875
-139.16015625
-132.75146484375
-123.59619140625
-128.173828125
-125.42724609375
-131.8359375
-135.498046875
-125.42724609375
-128.173828125
-132.75146484375
-131.8359375
-124.51171875
-116.27197265625
-109.86328125
-105.28564453125
-113.525390625
-140.07568359375
-140.9912109375
-140.07568359375
-130.92041015625
-118.10302734375
-109.86328125
-114.44091796875
-108.94775390625
-108.94775390625
-104.3701171875
-103.45458984375
-97.0458984375
-108.0322265625
-99.79248046875
-82.3974609375
-80.56640625
-77.81982421875
-69.580078125
-75.0732421875
-65.00244140625
-60.4248046875
-58.59375
-75.98876953125
-87.890625
-127.25830078125
-117.1875
-97.96142578125
-97.0458984375
-109.86328125
-100.7080078125
-96.13037109375
-106.201171875
-118.10302734375
-125.42724609375
-118.10302734375
-113.525390625
-104.3701171875
-107.11669921875
-113.525390625
-107.11669921875
-115.3564453125
-123.59619140625
-140.07568359375
-151.9775390625
-150.146484375
-143.73779296875
-132.75146484375
-124.51171875
-138.24462890625
-140.07568359375
-116.27197265625
-110.77880859375
-122.6806640625
-128.173828125
-133.6669921875
-137.3291015625
-142.822265625
-139.16015625
-135.498046875
-131.8359375
-140.9912109375
-141.90673828125
-152.89306640625
-142.822265625
-140.9912109375
-127.25830078125
-129.08935546875
-128.173828125
-145.56884765625
-157.470703125
-173.9501953125
-162.9638671875
-161.1328125
-172.119140625
-163.87939453125
-127.25830078125
-54.01611328125
54.01611328125
163.87939453125
292.05322265625
469.66552734375
679.3212890625
842.28515625
946.6552734375
1045.5322265625
1165.46630859375
1278.076171875
1329.345703125
1311.03515625
1264.34326171875
1204.833984375
1086.73095703125
877.99072265625
630.79833984375
366.2109375
184.02099609375
117.1875
86.0595703125
69.580078125
31.1279296875
-5.4931640625
-54.931640625
-105.28564453125
-136.41357421875
-128.173828125
-126.3427734375
-126.3427734375
-109.86328125
-108.0322265625
-120.849609375
-129.08935546875
-101.62353515625
-110.77880859375
-122.6806640625
-155.6396484375
-181.2744140625
-150.146484375
-142.822265625
-145.56884765625
-129.08935546875
-130.92041015625
-132.75146484375
-120.849609375
-116.27197265625
-124.51171875
-140.07568359375
-140.07568359375
-133.6669921875
-130.0048828125
-131.8359375
-140.07568359375
-134.58251953125
-124.51171875
-135.498046875
-138.24462890625
-133.6669921875
-146.484375
-145.56884765625
-130.92041015625
-135.498046875
-137.3291015625
-132.75146484375
-136.41357421875
-150.146484375
-133.6669921875
-124.51171875
-120.849609375
-121.76513671875
-126.3427734375
-122.6806640625
-113.525390625
-140.9912109375
-162.04833984375
-146.484375
-130.0048828125
-115.3564453125
-124.51171875
-131.8359375
-121.76513671875
-125.42724609375
-127.25830078125
-124.51171875
-108.0322265625
-114.44091796875
-128.173828125
-136.41357421875
-129.08935546875
-121.76513671875
-131.8359375
-139.16015625
-127.25830078125
-124.51171875
-126.3427734375
-114.44091796875
-113.525390625
-117.1875
-125.42724609375
-119.93408203125
-106.201171875
-103.45458984375
-96.13037109375
-113.525390625
-117.1875
-95.21484375
-79.65087890625
-96.13037109375
-87.890625
-80.56640625
-89.7216796875
-101.62353515625
-107.11669921875
-107.11669921875
-102.5390625
-98.876953125
-88.80615234375
-80.56640625
-72.32666015625
-77.81982421875
-85.14404296875
-85.14404296875
-87.890625
-103.45458984375
-140.07568359375
-148.3154296875
-135.498046875
-121.76513671875
-109.86328125
-119.93408203125
-125.42724609375
-130.0048828125
-129.08935546875
-106.201171875
-108.0322265625
-127.25830078125
-129.08935546875
-131.8359375
-135.498046875
-133.6669921875
-131.8359375
-115.3564453125
-119.93408203125
-113.525390625
-118.10302734375
-131.8359375
-122.6806640625
-111.6943359375
-121.76513671875
-121.76513671875
-126.3427734375
-121.76513671875
-102.5390625
-96.13037109375
-86.0595703125
-84.228515625
-80.56640625
-84.228515625
-83.31298828125
-71.4111328125
-89.7216796875
-123.59619140625
-122.6806640625
-123.59619140625
-116.27197265625
-123.59619140625
-112.60986328125
-109.86328125
-103.45458984375
-113.525390625
-110.77880859375
-102.5390625
-106.201171875
-109.86328125
-110.77880859375
-117.1875
-110.77880859375
-125.42724609375
-124.51171875
-118.10302734375
-124.51171875
-113.525390625
-106.201171875
-108.0322265625
-116.27197265625
-128.173828125
-124.51171875
-108.94775390625
-101.62353515625
-103.45458984375
-108.0322265625
-114.44091796875
-108.94775390625
-97.0458984375
-92.46826171875
-100.7080078125
-101.62353515625
-93.3837890625
-110.77880859375
-115.3564453125
-114.44091796875
-86.0595703125
-83.31298828125
-101.62353515625
-97.0458984375
-96.13037109375
-108.0322265625
-108.0322265625
-106.201171875
-110.77880859375
-117.1875
-107.11669921875
-98.876953125
-86.97509765625
-86.97509765625
-97.96142578125
-100.7080078125
-93.3837890625
-88.80615234375
-83.31298828125
-77.81982421875
-65.00244140625
-85.14404296875
-75.98876953125
-80.56640625
-92.46826171875
-80.56640625
-74.15771484375
-62.255859375
-65.91796875
-79.65087890625
-65.00244140625
-65.91796875
-73.2421875
-76.904296875
-70.49560546875
-89.7216796875
-113.525390625
-150.146484375
-126.3427734375
-130.0048828125
-130.0048828125
-120.849609375
-100.7080078125
-101.62353515625
-101.62353515625
-108.0322265625
-92.46826171875
-94.29931640625
-108.0322265625
-105.28564453125
-98.876953125
-113.525390625
-111.6943359375
-106.201171875
-97.96142578125
-96.13037109375
-103.45458984375
-99.79248046875
-96.13037109375
-98.876953125
-99.79248046875
-101.62353515625
-109.86328125
-102.5390625
-93.3837890625
-99.79248046875
-108.0322265625
-108.94775390625
-116.27197265625
-127.25830078125
-139.16015625
-126.3427734375
-120.849609375
-110.77880859375
-111.6943359375
-97.96142578125
-102.5390625
-130.0048828125
-125.42724609375
-132.75146484375
-140.9912109375
-137.3291015625
-123.59619140625
-133.6669921875
-124.51171875
-127.25830078125
-127.25830078125
-119.93408203125
-129.08935546875
-126.3427734375
-126.3427734375
-114.44091796875
-116.27197265625
-125.42724609375
-129.08935546875
-139.16015625
-127.25830078125
-128.173828125
-122.6806640625
-123.59619140625
-120.849609375
-124.51171875
-122.6806640625
-125.42724609375
-125.42724609375
-116.27197265625
-111.6943359375
-107.11669921875
-108.0322265625
-114.44091796875
-125.42724609375
-140.9912109375
-145.56884765625
-138.24462890625
-149.23095703125
-130.92041015625
-118.10302734375
-116.27197265625
-116.27197265625
-128.173828125
-131.8359375
-126.3427734375
-134.58251953125
-137.3291015625
-147.39990234375
-142.822265625
-136.41357421875
-139.16015625
-140.07568359375
-154.72412109375
-147.39990234375
-122.6806640625
-122.6806640625
-117.1875
-115.3564453125
-116.27197265625
-106.201171875
-117.1875
-116.27197265625
-115.3564453125
-108.0322265625
-106.201171875
-104.3701171875
-86.0595703125
-70.49560546875
-54.01611328125
-57.67822265625
-44.86083984375
-33.87451171875
-54.931640625
-77.81982421875
-90.63720703125
-85.14404296875
-88.80615234375
-100.7080078125
-111.6943359375
-110.77880859375
-108.94775390625
-108.0322265625
-108.0322265625
-108.94775390625
-114.44091796875
-119.0185546875
-115.3564453125
-126.3427734375
-113.525390625
-103.45458984375
-113.525390625
-116.27197265625
-118.10302734375
-133.6669921875
-135.498046875
-133.6669921875
-131.8359375
-130.92041015625
-130.0048828125
-126.3427734375
-130.0048828125
-142.822265625
-151.9775390625
-149.23095703125
-148.3154296875
-146.484375
-141.90673828125
-140.9912109375
-128.173828125
-137.3291015625
-146.484375
-148.3154296875
-142.822265625
-138.24462890625
-140.9912109375
-137.3291015625
-142.822265625
-139.16015625
-136.41357421875
-130.92041015625
-132.75146484375
-172.119140625
-186.767578125
-179.443359375
-186.767578125
-173.9501953125
-164.794921875
-163.87939453125
-108.94775390625
-55.84716796875
32.958984375
143.73779296875
269.1650390625
433.9599609375
631.7138671875
805.6640625
950.3173828125
1055.60302734375
1154.47998046875
1262.51220703125
1343.07861328125
1353.1494140625
1308.28857421875
1248.779296875
1131.591796875
936.58447265625
688.4765625
427.55126953125
205.99365234375
100.7080078125
66.83349609375
43.9453125
9.1552734375
-41.19873046875
-67.7490234375
-97.96142578125
-122.6806640625
-122.6806640625
-116.27197265625
-111.6943359375
-115.3564453125
-125.42724609375
-114.44091796875
-124.51171875
-151.06201171875
-140.07568359375
-137.3291015625
-143.73779296875
-149.23095703125
-147.39990234375
-153.80859375
-146.484375
-157.470703125
-155.6396484375
-148.3154296875
-144.6533203125
-147.39990234375
-135.498046875
-142.822265625
-132.75146484375
-125.42724609375
-130.0048828125
-129.08935546875
-133.6669921875
-135.498046875
-139.16015625
-147.39990234375
-141.90673828125
-132.75146484375
-141.90673828125
-140.9912109375
-131.8359375
-138.24462890625
-140.9912109375
-133.6669921875
-127.25830078125
-141.90673828125
-139.16015625
-137.3291015625
-126.3427734375
-114.44091796875
-87.890625
-96.13037109375
-114.44091796875
-130.92041015625
-133.6669921875
-134.58251953125
-129.08935546875
-125.42724609375
-114.44091796875
-114.44091796875
-122.6806640625
-123.59619140625
-117.1875
-113.525390625
-129.08935546875
-141.90673828125
-130.0048828125
-126.3427734375
-114.44091796875
-109.86328125
-111.6943359375
-111.6943359375
-114.44091796875
-101.62353515625
-107.11669921875
-118.10302734375
-109.86328125
-112.60986328125
-124.51171875
-110.77880859375
-113.525390625
-108.94775390625
-110.77880859375
-109.86328125
-114.44091796875
-118.10302734375
-129.08935546875
-119.93408203125
-109.86328125
-106.201171875
-88.80615234375
-79.65087890625
-86.0595703125
-89.7216796875
-90.63720703125
-86.97509765625
-90.63720703125
-96.13037109375
-97.96142578125
-98.876953125
-97.0458984375
-102.5390625
-113.525390625
-100.7080078125
-94.29931640625
-86.97509765625
-94.29931640625
-95.21484375
-92.46826171875
-88.80615234375
-96.13037109375
-105.28564453125
-108.0322265625
-108.94775390625
-109.86328125
-105.28564453125
-107.11669921875
-118.10302734375
-115.3564453125
-109.86328125
-112.60986328125
-114.44091796875
-114.44091796875
-119.0185546875
-115.3564453125
-119.93408203125
-120.849609375
-107.11669921875
-97.96142578125
-102.5390625
-97.0458984375
-96.13037109375
-105.28564453125
-108.94775390625
-114.44091796875
-109.86328125
-110.77880859375
-106.201171875
-112.60986328125
-111.6943359375
-97.96142578125
-113.525390625
-110.77880859375
-106.201171875
-105.28564453125
-109.86328125
-110.77880859375
-106.201171875
-108.94775390625
-105.28564453125
-104.3701171875
-114.44091796875
-110.77880859375
-113.525390625
-109.86328125
-108.0322265625
-106.201171875
-115.3564453125
-100.7080078125
-92.46826171875
-97.0458984375
-103.45458984375
-106.201171875
-96.13037109375
-107.11669921875
-112.60986328125
-128.173828125
-127.25830078125
-126.3427734375
-132.75146484375
-128.173828125
-102.5390625
-95.21484375
-97.0458984375
-106.201171875
-116.27197265625
-108.94775390625
-102.5390625
-106.201171875
-105.28564453125
-97.96142578125
-93.3837890625
-84.228515625
-84.228515625
-82.3974609375
-74.15771484375
-83.31298828125
-109.86328125
-115.3564453125
-94.29931640625
-92.46826171875
-94.29931640625
-89.7216796875
-84.228515625
-83.31298828125
-81.48193359375
-67.7490234375
-61.34033203125
-61.34033203125
-69.580078125
-76.904296875
-93.3837890625
-94.29931640625
-74.15771484375
-78.7353515625
-91.552734375
-91.552734375
-85.14404296875
-74.15771484375
-66.83349609375
-65.00244140625
-62.255859375
-67.7490234375
-71.4111328125
-77.81982421875
-80.56640625
-77.81982421875
-78.7353515625
-69.580078125
-73.2421875
-66.83349609375
-64.0869140625
-65.91796875
-72.32666015625
-85.14404296875
-106.201171875
-112.60986328125
-96.13037109375
-104.3701171875
-103.45458984375
-98.876953125
-97.0458984375
-109.86328125
-94.29931640625
-84.228515625
-94.29931640625
-100.7080078125
-104.3701171875
-113.525390625
-114.44091796875
-106.201171875
-103.45458984375
-101.62353515625
-100.7080078125
-94.29931640625
-86.97509765625
-98.876953125
-102.5390625
-108.0322265625
-103.45458984375
-104.3701171875
-97.0458984375
-100.7080078125
-116.27197265625
-108.94775390625
-98.876953125
-101.62353515625
-108.0322265625
-108.0322265625
-117.1875
-136.41357421875
-123.59619140625
-111.6943359375
-119.0185546875
-128.173828125
-119.0185546875
-123.59619140625
-125.42724609375
-120.849609375
-120.849609375
-119.0185546875
-124.51171875
-125.42724609375
-122.6806640625
-119.0185546875
-121.76513671875
-117.1875
-119.0185546875
-129.08935546875
-118.10302734375
-115.3564453125
-102.5390625
-110.77880859375
-112.60986328125
-110.77880859375
-103.45458984375
-104.3701171875
-100.7080078125
-106.201171875
-106.201171875
-103.45458984375
-101.62353515625
-107.11669921875
-131.8359375
-121.76513671875
-120.849609375
-129.08935546875
-130.0048828125
-140.07568359375
-137.3291015625
-115.3564453125
-123.59619140625
-123.59619140625
-113.525390625
-117.1875
-141.90673828125
-143.73779296875
-125.42724609375
-133.6669921875
-135.498046875
-130.0048828125
-128.173828125
-124.51171875
-122.6806640625
-107.11669921875
-118.10302734375
-125.42724609375
-133.6669921875
-140.9912109375
-121.76513671875
-119.93408203125
-125.42724609375
-119.93408203125
-117.1875
-104.3701171875
-110.77880859375
-122.6806640625
-110.77880859375
-115.3564453125
-121.76513671875
-115.3564453125
-130.92041015625
-139.16015625
-128.173828125
-124.51171875
-113.525390625
-111.6943359375
-111.6943359375
-108.94775390625
-122.6806640625
-137.3291015625
-132.75146484375
-134.58251953125
-130.92041015625
-121.76513671875
-128.173828125
-137.3291015625
-133.6669921875
-121.76513671875
-119.0185546875
-104.3701171875
-105.28564453125
-115.3564453125
-100.7080078125
-83.31298828125
-77.81982421875
-81.48193359375
-71.4111328125
-65.91796875
-70.49560546875
-70.49560546875
-74.15771484375
-73.2421875
-64.0869140625
-65.00244140625
-55.84716796875
-47.607421875
-63.17138671875
-75.98876953125
-75.98876953125
-94.29931640625
-105.28564453125
-108.0322265625
-89.7216796875
-81.48193359375
-71.4111328125
-86.0595703125
-85.14404296875
-91.552734375
-116.27197265625
-116.27197265625
-117.1875
-98.876953125
-108.0322265625
-116.27197265625
-112.60986328125
-113.525390625
-110.77880859375
-108.0322265625
-110.77880859375
-119.93408203125
-119.93408203125
-121.76513671875
-126.3427734375
-115.3564453125
-113.525390625
-130.0048828125
-142.822265625
-134.58251953125
-131.8359375
-130.0048828125
-132.75146484375
-147.39990234375
-141.90673828125
-126.3427734375
-119.0185546875
-125.42724609375
-127.25830078125
-128.173828125
-140.9912109375
-130.92041015625
-128.173828125
-126.3427734375
-132.75146484375
-139.16015625
-146.484375
-151.9775390625
-168.45703125
-173.9501953125
-168.45703125
-143.73779296875
-89.7216796875
-13.73291015625
104.3701171875
231.62841796875
369.873046875
527.34375
704.9560546875
866.0888671875
999.755859375
1115.1123046875
1217.6513671875
1312.8662109375
1370.54443359375
1347.65625
1307.373046875
1219.482421875
1074.8291015625
856.93359375
609.7412109375
357.97119140625
157.470703125
89.7216796875
43.02978515625
10.07080078125
-32.958984375
-62.255859375
-83.31298828125
-96.13037109375
-106.201171875
-97.0458984375
-105.28564453125
-95.21484375
-99.79248046875
-89.7216796875
-92.46826171875
-96.13037109375
-115.3564453125
-134.58251953125
-129.08935546875
-116.27197265625
-126.3427734375
-131.8359375
-134.58251953125
-139.16015625
-138.24462890625
-147.39990234375
-151.9775390625
-145.56884765625
-136.41357421875
-125.42724609375
-120.849609375
-121.76513671875
-116.27197265625
-113.525390625
-116.27197265625
-119.93408203125
-110.77880859375
-121.76513671875
-128.173828125
-126.3427734375
-121.76513671875
-128.173828125
-125.42724609375
-122.6806640625
-119.93408203125
-122.6806640625
-122.6806640625
-118.10302734375
-117.1875
-108.0322265625
-104.3701171875
-90.63720703125
-109.86328125
-112.60986328125
-102.5390625
-106.201171875
-111.6943359375
-116.27197265625
-117.1875
-109.86328125
-108.94775390625
-99.79248046875
-115.3564453125
-111.6943359375
-108.0322265625
-118.10302734375
-114.44091796875
-113.525390625
-116.27197265625
-107.11669921875
-104.3701171875
-99.79248046875
-105.28564453125
-110.77880859375
-110.77880859375
-106.201171875
-109.86328125
-105.28564453125
-94.29931640625
-91.552734375
-85.14404296875
-88.80615234375
-89.7216796875
-88.80615234375
-95.21484375
-78.7353515625
-88.80615234375
-93.3837890625
-83.31298828125
-81.48193359375
-82.3974609375
-68.66455078125
-67.7490234375
-68.66455078125
-62.255859375
-72.32666015625
-87.890625
-97.96142578125
-90.63720703125
-75.0732421875
-70.49560546875
-70.49560546875
-67.7490234375
-61.34033203125
-62.255859375
-64.0869140625
-65.91796875
-75.0732421875
-73.2421875
-81.48193359375
-86.97509765625
-66.83349609375
-54.931640625
-85.14404296875
-115.3564453125
-101.62353515625
-109.86328125
-110.77880859375
-96.13037109375
-86.97509765625
-84.228515625
-89.7216796875
-91.552734375
-90.63720703125
-93.3837890625
-80.56640625
-75.98876953125
-74.15771484375
-78.7353515625
-74.15771484375
-58.59375
-63.17138671875
-64.0869140625
-79.65087890625
-86.0595703125
-76.904296875
-73.2421875
-66.83349609375
-65.00244140625
-63.17138671875
-74.15771484375
-86.0595703125
-78.7353515625
-83.31298828125
-90.63720703125
-80.56640625
-75.0732421875
-67.7490234375
-71.4111328125
-70.49560546875
-71.4111328125
-80.56640625
-105.28564453125
-115.3564453125
-117.1875
-108.0322265625
-101.62353515625
-91.552734375
-94.29931640625
-89.7216796875
-84.228515625
-81.48193359375
-92.46826171875
-105.28564453125
-89.7216796875
-94.29931640625
-102.5390625
-89.7216796875
-94.29931640625
-91.552734375
-98.876953125
-92.46826171875
-80.56640625
-79.65087890625
-81.48193359375
-76.904296875
-76.904296875
-75.0732421875
-83.31298828125
-91.552734375
-83.31298828125
-83.31298828125
-72.32666015625
-69.580078125
-72.32666015625
-80.56640625
-73.2421875
-67.7490234375
-71.4111328125
-70.49560546875
-78.7353515625
-76.904296875
-70.49560546875
-62.255859375
-51.26953125
-66.83349609375
-64.0869140625
-57.67822265625
-64.0869140625
-60.4248046875
-49.4384765625
-46.69189453125
-50.35400390625
-39.36767578125
-44.86083984375
-42.1142578125
-42.1142578125
-64.0869140625
-81.48193359375
-63.17138671875
-62.255859375
-54.931640625
-61.34033203125
-56.7626953125
-58.59375
-58.59375
-55.84716796875
-49.4384765625
-52.18505859375
-67.7490234375
-69.580078125
-57.67822265625
-51.26953125
-56.7626953125
-56.7626953125
-46.69189453125
-38.4521484375
-44.86083984375
-57.67822265625
-58.59375
-52.18505859375
-54.931640625
-62.255859375
-73.2421875
-73.2421875
-75.98876953125
-70.49560546875
-62.255859375
-78.7353515625
-75.98876953125
-71.4111328125
-71.4111328125
-73.2421875
-75.98876953125
-99.79248046875
-94.29931640625
-86.0595703125
-91.552734375
-94.29931640625
-84.228515625
-73.2421875
-71.4111328125
-70.49560546875
-75.0732421875
-93.3837890625
-108.94775390625
-103.45458984375
-92.46826171875
-88.80615234375
-90.63720703125
-103.45458984375
-105.28564453125
-83.31298828125
-86.0595703125
-80.56640625
-87.890625
-121.76513671875
-98.876953125
-95.21484375
-97.0458984375
-100.7080078125
-104.3701171875
-104.3701171875
-111.6943359375
-117.1875
-117.1875
-112.60986328125
-120.849609375
-119.0185546875
-115.3564453125
-122.6806640625
-108.94775390625
-91.552734375
-91.552734375
-90.63720703125
-93.3837890625
-87.890625
-84.228515625
-81.48193359375
-88.80615234375
-91.552734375
-100.7080078125
-111.6943359375
-129.08935546875
-125.42724609375
-118.10302734375
-112.60986328125
-98.876953125
-93.3837890625
-104.3701171875
-110.77880859375
-97.0458984375
-92.46826171875
-82.3974609375
-92.46826171875
-117.1875
-131.8359375
-120.849609375
-114.44091796875
-126.3427734375
-134.58251953125
-124.51171875
-122.6806640625
-119.0185546875
-126.3427734375
-117.1875
-113.525390625
-113.525390625
-119.0185546875
-129.08935546875
-126.3427734375
-125.42724609375
-125.42724609375
-115.3564453125
-114.44091796875
-104.3701171875
-107.11669921875
-103.45458984375
-97.96142578125
-104.3701171875
-103.45458984375
-111.6943359375
-119.0185546875
-120.849609375
-115.3564453125
-108.0322265625
-99.79248046875
-97.96142578125
-96.13037109375
-90.63720703125
-102.5390625
-114.44091796875
-104.3701171875
-100.7080078125
-97.0458984375
-85.14404296875
-110.77880859375
-102.5390625
-91.552734375
-89.7216796875
-79.65087890625
-73.2421875
-68.66455078125
-68.66455078125
-84.228515625
-83.31298828125
-66.83349609375
-49.4384765625
-51.26953125
-50.35400390625
-47.607421875
-59.50927734375
-63.17138671875
-71.4111328125
-90.63720703125
-102.5390625
-96.13037109375
-88.80615234375
-84.228515625
-79.65087890625
-75.0732421875
-76.904296875
-75.0732421875
-86.97509765625
-99.79248046875
-109.86328125
-108.0322265625
-104.3701171875
-93.3837890625
-103.45458984375
-101.62353515625
-97.96142578125
-110.77880859375
-113.525390625
-117.1875
-126.3427734375
-154.72412109375
-136.41357421875
-135.498046875
-137.3291015625
-141.90673828125
-137.3291015625
-132.75146484375
-141.90673828125
-133.6669921875
-134.58251953125
-111.6943359375
-105.28564453125
-118.10302734375
-113.525390625
-117.1875
-124.51171875
-115.3564453125
-106.201171875
-114.44091796875
-118.10302734375
-118.10302734375
-123.59619140625
-136.41357421875
-141.90673828125
-154.72412109375
-174.86572265625
-184.02099609375
-168.45703125
-140.9912109375
-97.96142578125
-17.39501953125
93.3837890625
210.5712890625
350.64697265625
522.76611328125
714.111328125
873.4130859375
993.34716796875
1094.970703125
1198.42529296875
1300.96435546875
1350.40283203125
1330.26123046875
1300.96435546875
1202.08740234375
1040.95458984375
834.04541015625
605.16357421875
341.49169921875
148.3154296875
100.7080078125
77.81982421875
44.86083984375
24.71923828125
-18.310546875
-76.904296875
-105.28564453125
-115.3564453125
-133.6669921875
-129.08935546875
-120.849609375
-126.3427734375
-108.94775390625
-105.28564453125
-108.0322265625
-105.28564453125
-119.0185546875
-106.201171875
-117.1875
-120.849609375
-102.5390625
-108.94775390625
-119.0185546875
-111.6943359375
-123.59619140625
-126.3427734375
-123.59619140625
-130.92041015625
-130.0048828125
-138.24462890625
-126.3427734375
-137.3291015625
-133.6669921875
-120.849609375
-121.76513671875
-105.28564453125
-117.1875
-126.3427734375
-132.75146484375
-130.0048828125
-124.51171875
-130.0048828125
-139.16015625
-151.9775390625
-144.6533203125
-127.25830078125
-130.92041015625
-123.59619140625
-125.42724609375
-124.51171875
-106.201171875
-107.11669921875
-119.93408203125
-112.60986328125
-101.62353515625
-108.0322265625
-94.29931640625
-85.14404296875
-91.552734375
-93.3837890625
-101.62353515625
-113.525390625
-108.0322265625
-121.76513671875
-120.849609375
-112.60986328125
-119.93408203125
-112.60986328125
-106.201171875
-104.3701171875
-111.6943359375
-104.3701171875
-101.62353515625
-102.5390625
-109.86328125
-111.6943359375
-117.1875
-116.27197265625
-98.876953125
-98.876953125
-103.45458984375
-90.63720703125
-88.80615234375
-95.21484375
-92.46826171875
-99.79248046875
-92.46826171875
-97.96142578125
-98.876953125
-81.48193359375
-99.79248046875
-108.94775390625
-108.94775390625
-94.29931640625
-82.3974609375
-78.7353515625
-75.98876953125
-70.49560546875
-72.32666015625
-66.83349609375
-70.49560546875
-68.66455078125
-58.59375
-45.7763671875
-38.4521484375
-58.59375
-107.11669921875
-125.42724609375
-132.75146484375
-118.10302734375
-108.0322265625
-107.11669921875
-100.7080078125
-92.46826171875
-87.890625
-80.56640625
-78.7353515625
-93.3837890625
-102.5390625
-110.77880859375
-118.10302734375
-117.1875
-111.6943359375
-103.45458984375
-106.201171875
-116.27197265625
-119.93408203125
-111.6943359375
-104.3701171875
-95.21484375
-108.94775390625
-103.45458984375
-91.552734375
-96.13037109375
-89.7216796875
-87.890625
-94.29931640625
-94.29931640625
-92.46826171875
-96.13037109375
-102.5390625
-106.201171875
-109.86328125
-95.21484375
-109.86328125
-107.11669921875
-86.97509765625
-80.56640625
-86.0595703125
-80.56640625
-91.552734375
-105.28564453125
-104.3701171875
-86.0595703125
-83.31298828125
-107.11669921875
-131.8359375
-140.07568359375
-137.3291015625
-145.56884765625
-138.24462890625
-132.75146484375
-132.75146484375
-126.3427734375
-109.86328125
-108.94775390625
-111.6943359375
-122.6806640625
-127.25830078125
-110.77880859375
-112.60986328125
-99.79248046875
-107.11669921875
-108.94775390625
-101.62353515625
-108.0322265625
-104.3701171875
-107.11669921875
-111.6943359375
-111.6943359375
-109.86328125
-109.86328125
-109.86328125
-108.94775390625
-115.3564453125
-98.876953125
-98.876953125
-94.29931640625
-98.876953125
-77.81982421875
-82.3974609375
-83.31298828125
-75.0732421875
-75.0732421875
-75.0732421875
-83.31298828125
-81.48193359375
-86.97509765625
-83.31298828125
-74.15771484375
-70.49560546875
-72.32666015625
-62.255859375
-79.65087890625
-74.15771484375
-54.931640625
-54.931640625
-58.59375
-67.7490234375
-85.14404296875
-91.552734375
-90.63720703125
-83.31298828125
-76.904296875
-82.3974609375
-82.3974609375
-83.31298828125
-83.31298828125
-93.3837890625
-94.29931640625
-75.98876953125
-68.66455078125
-66.83349609375
-56.7626953125
-67.7490234375
-70.49560546875
-72.32666015625
-85.14404296875
-86.0595703125
-97.0458984375
-96.13037109375
-97.0458984375
-86.0595703125
-81.48193359375
-85.14404296875
-74.15771484375
-51.26953125
-65.91796875
-82.3974609375
-97.0458984375
-107.11669921875
-106.201171875
-114.44091796875
-108.0322265625
-119.0185546875
-122.6806640625
-108.94775390625
-108.0322265625
-108.94775390625
-117.1875
-107.11669921875
-97.96142578125
-92.46826171875
-99.79248046875
-97.96142578125
-97.0458984375
-100.7080078125
-96.13037109375
-104.3701171875
-124.51171875
-109.86328125
-108.94775390625
-114.44091796875
-124.51171875
-119.93408203125
-121.76513671875
-108.94775390625
-114.44091796875
-120.849609375
-106.201171875
-108.94775390625
-106.201171875
-98.876953125
-98.876953125
-112.60986328125
-103.45458984375
-109.86328125
-108.94775390625
-119.0185546875
-119.0185546875
-107.11669921875
-88.80615234375
-85.14404296875
-95.21484375
-115.3564453125
-110.77880859375
-97.0458984375
-116.27197265625
-122.6806640625
-111.6943359375
-119.93408203125
-109.86328125
-103.45458984375
-117.1875
-110.77880859375
-119.93408203125
-107.11669921875
-91.552734375
-81.48193359375
-82.3974609375
-70.49560546875
-50.35400390625
-50.35400390625
-58.59375
-55.84716796875
-37.53662109375
-50.35400390625
-54.931640625
-54.931640625
-79.65087890625
-76.904296875
-84.228515625
-90.63720703125
-91.552734375
-93.3837890625
-84.228515625
-80.56640625
-94.29931640625
-90.63720703125
-95.21484375
-98.876953125
-98.876953125
-98.876953125
-93.3837890625
-93.3837890625
-97.0458984375
-101.62353515625
-106.201171875
-116.27197265625
-126.3427734375
-130.0048828125
-132.75146484375
-127.25830078125
-128.173828125
-148.3154296875
-143.73779296875
-141.90673828125
-146.484375
-123.59619140625
-115.3564453125
-139.16015625
-140.07568359375
-122.6806640625
-115.3564453125
-113.525390625
-114.44091796875
-115.3564453125
-117.1875
-118.10302734375
-119.93408203125
-108.0322265625
-107.11669921875
-108.0322265625
-118.10302734375
-137.3291015625
-145.56884765625
-162.04833984375
-158.38623046875
-164.794921875
-160.21728515625
-135.498046875
-105.28564453125
-53.1005859375
38.4521484375
145.56884765625
286.56005859375
451.35498046875
655.517578125
830.38330078125
961.3037109375
1074.8291015625
1173.7060546875
1264.34326171875
1333.0078125
1325.68359375
1291.80908203125
1246.9482421875
1109.619140625
900.87890625
642.7001953125
373.53515625
170.2880859375
123.59619140625
100.7080078125
79.65087890625
35.70556640625
9.1552734375
-19.22607421875
-67.7490234375
-105.28564453125
-118.10302734375
-119.0185546875
-108.94775390625
-124.51171875
-125.42724609375
-115.3564453125
-109.86328125
-109.86328125
-119.0185546875
-115.3564453125
-122.6806640625
-119.0185546875
-134.58251953125
-143.73779296875
-152.89306640625
-152.89306640625
-139.16015625
-119.93408203125
-129.08935546875
-119.0185546875
-114.44091796875
-126.3427734375
-119.0185546875
-122.6806640625
-144.6533203125
-144.6533203125
-137.3291015625
-145.56884765625
-150.146484375
-140.9912109375
-146.484375
-138.24462890625
-135.498046875
-125.42724609375
-120.849609375
-120.849609375
-122.6806640625
-126.3427734375
-122.6806640625
-132.75146484375
-139.16015625
-120.849609375
-130.0048828125
-142.822265625
-143.73779296875
-131.8359375
-130.92041015625
-130.0048828125
-125.42724609375
-122.6806640625
-117.1875
-117.1875
-116.27197265625
-119.0185546875
-119.0185546875
-116.27197265625
-99.79248046875
-111.6943359375
-137.3291015625
-108.0322265625
-103.45458984375
-99.79248046875
-115.3564453125
-137.3291015625
-166.6259765625
-154.72412109375
-141.90673828125
-125.42724609375
-127.25830078125
-129.08935546875
-107.11669921875
-101.62353515625
-108.0322265625
-107.11669921875
-113.525390625
-110.77880859375
-110.77880859375
-103.45458984375
-97.96142578125
-103.45458984375
-101.62353515625
-97.0458984375
-93.3837890625
-86.97509765625
-88.80615234375
-90.63720703125
-96.13037109375
-108.94775390625
-121.76513671875
-120.849609375
-126.3427734375
-125.42724609375
-129.08935546875
-119.0185546875
-127.25830078125
-116.27197265625
-102.5390625
-113.525390625
-113.525390625
-110.77880859375
-101.62353515625
-109.86328125
-140.07568359375
-134.58251953125
-111.6943359375
-125.42724609375
-141.90673828125
-138.24462890625
-130.92041015625
-141.90673828125
-134.58251953125
-130.0048828125
-130.0048828125
-133.6669921875
-134.58251953125
-139.16015625
-142.822265625
-130.0048828125
-130.92041015625
-142.822265625
-128.173828125
-125.42724609375
-130.0048828125
-130.0048828125
-135.498046875
-132.75146484375
-130.92041015625
-120.849609375
-119.93408203125
-123.59619140625
-119.0185546875
-98.876953125
-102.5390625
-119.0185546875
-134.58251953125
-152.89306640625
-146.484375
-129.08935546875
-128.173828125
-130.92041015625
-122.6806640625
-116.27197265625
-116.27197265625
-130.92041015625
-134.58251953125
-131.8359375
-151.06201171875
-140.07568359375
-143.73779296875
-149.23095703125
-155.6396484375
-145.56884765625
-142.822265625
-142.822265625
-141.90673828125
-138.24462890625
-136.41357421875
-134.58251953125
-132.75146484375
-135.498046875
-147.39990234375
-147.39990234375
-146.484375
-139.16015625
-140.07568359375
-158.38623046875
-130.92041015625
-130.0048828125
-127.25830078125
-126.3427734375
-130.0048828125
-131.8359375
-126.3427734375
-122.6806640625
-115.3564453125
-106.201171875
-110.77880859375
-108.0322265625
-115.3564453125
-119.93408203125
-127.25830078125
-117.1875
-118.10302734375
-107.11669921875
-120.849609375
-117.1875
-103.45458984375
-102.5390625
-99.79248046875
-90.63720703125
-91.552734375
-97.96142578125
-108.0322265625
-108.94775390625
-108.0322265625
-117.1875
-118.10302734375
-108.94775390625
-108.94775390625
-105.28564453125
-106.201171875
-107.11669921875
-112.60986328125
-114.44091796875
-97.0458984375
-84.228515625
-84.228515625
-97.96142578125
-104.3701171875
-106.201171875
-130.0048828125
-130.92041015625
-127.25830078125
-108.94775390625
-107.11669921875
-108.94775390625
-108.94775390625
-113.525390625
-124.51171875
-117.1875
-111.6943359375
-110.77880859375
-97.0458984375
-86.0595703125
-83.31298828125
-82.3974609375
-103.45458984375
-106.201171875
-137.3291015625
-152.89306640625
-159.3017578125
-162.04833984375
-151.06201171875
-133.6669921875
-138.24462890625
-152.89306640625
-142.822265625
-130.0048828125
-122.6806640625
-123.59619140625
-123.59619140625
-140.9912109375
-134.58251953125
-124.51171875
-123.59619140625
-119.0185546875
-133.6669921875
-139.16015625
-141.90673828125
-144.6533203125
-144.6533203125
-148.3154296875
-140.9912109375
-137.3291015625
-135.498046875
-139.16015625
-140.07568359375
-137.3291015625
-146.484375
-145.56884765625
-145.56884765625
-135.498046875
-133.6669921875
-123.59619140625
-130.92041015625
-137.3291015625
-131.8359375
-139.16015625
-151.06201171875
-157.470703125
-151.06201171875
-135.498046875
-129.08935546875
-129.08935546875
-134.58251953125
-137.3291015625
-146.484375
-146.484375
-140.9912109375
-144.6533203125
-140.07568359375
-128.173828125
-131.8359375
-126.3427734375
-121.76513671875
-117.1875
-107.11669921875
-107.11669921875
-97.96142578125
-91.552734375
-89.7216796875
-73.2421875
-62.255859375
-69.580078125
-76.904296875
-71.4111328125
-74.15771484375
-86.97509765625
-63.17138671875
-57.67822265625
-58.59375
-51.26953125
-52.18505859375
-62.255859375
-73.2421875
-78.7353515625
-105.28564453125
-106.201171875
-102.5390625
-106.201171875
-102.5390625
-85.14404296875
-77.81982421875
-77.81982421875
-90.63720703125
-103.45458984375
-127.25830078125
-119.0185546875
-100.7080078125
-116.27197265625
-128.173828125
-124.51171875
-126.3427734375
-135.498046875
-154.72412109375
-143.73779296875
-110.77880859375
-94.29931640625
-92.46826171875
-101.62353515625
-99.79248046875
-95.21484375
-104.3701171875
-110.77880859375
-117.1875
-108.94775390625
-103.45458984375
-125.42724609375
-119.0185546875
-108.0322265625
-114.44091796875
-110.77880859375
-109.86328125
-117.1875
-114.44091796875
-107.11669921875
-99.79248046875
-89.7216796875
-102.5390625
-130.0048828125
-135.498046875
-139.16015625
-162.04833984375
-175.78125
-180.35888671875
-176.69677734375
-140.9912109375
-106.201171875
-44.86083984375
58.59375
164.794921875
310.36376953125
479.736328125
671.08154296875
832.21435546875
970.458984375
1089.4775390625
1207.58056640625
1315.61279296875
1375.1220703125
1376.03759765625
1334.8388671875
1260.68115234375
1127.01416015625
918.27392578125
669.25048828125
426.6357421875
206.9091796875
112.60986328125
75.98876953125
53.1005859375
20.1416015625
-13.73291015625
-55.84716796875
-77.81982421875
-82.3974609375
-84.228515625
-79.65087890625
-109.86328125
-97.0458984375
-90.63720703125
-86.97509765625
-86.0595703125
-96.13037109375
-111.6943359375
-103.45458984375
-109.86328125
-113.525390625
-122.6806640625
-121.76513671875
-121.76513671875
-119.0185546875
-124.51171875
-140.07568359375
-146.484375
-157.470703125
-151.9775390625
-134.58251953125
-130.92041015625
-130.0048828125
-123.59619140625
-111.6943359375
-116.27197265625
-115.3564453125
-110.77880859375
-108.0322265625
-113.525390625
-110.77880859375
-99.79248046875
-102.5390625
-103.45458984375
-104.3701171875
-104.3701171875
-103.45458984375
-125.42724609375
-114.44091796875
-109.86328125
-108.0322265625
-99.79248046875
-101.62353515625
-103.45458984375
-106.201171875
-100.7080078125
-99.79248046875
-108.94775390625
-124.51171875
-130.0048828125
-119.93408203125
-107.11669921875
-105.28564453125
-108.94775390625
-97.0458984375
-95.21484375
-89.7216796875
-91.552734375
-95.21484375
-93.3837890625
-86.0595703125
-67.7490234375
-65.00244140625
-72.32666015625
-65.91796875
-74.15771484375
-100.7080078125
-104.3701171875
-114.44091796875
-105.28564453125
-103.45458984375
-94.29931640625
-85.14404296875
-87.890625
-86.0595703125
-81.48193359375
-77.81982421875
-78.7353515625
-80.56640625
-74.15771484375
-75.98876953125
-76.904296875
-73.2421875
-71.4111328125
-58.59375
-41.19873046875
-45.7763671875
-53.1005859375
-49.4384765625
-59.50927734375
-64.0869140625
-66.83349609375
-66.83349609375
-78.7353515625
-83.31298828125
-80.56640625
-63.17138671875
-51.26953125
-55.84716796875
-54.01611328125
-54.01611328125
-48.52294921875
-47.607421875
-50.35400390625
-61.34033203125
-51.26953125
-51.26953125
-67.7490234375
-79.65087890625
-84.228515625
-68.66455078125
-83.31298828125
-86.97509765625
-90.63720703125
-75.98876953125
-70.49560546875
-71.4111328125
-73.2421875
-75.0732421875
-86.97509765625
-90.63720703125
-97.96142578125
-97.96142578125
-86.97509765625
-80.56640625
-84.228515625
-75.98876953125
-81.48193359375
-84.228515625
-86.97509765625
-81.48193359375
-80.56640625
-80.56640625
-75.98876953125
-81.48193359375
-71.4111328125
-73.2421875
-86.97509765625
-105.28564453125
-101.62353515625
-86.97509765625
-91.552734375
-93.3837890625
-82.3974609375
-80.56640625
-85.14404296875
-83.31298828125
-86.0595703125
-99.79248046875
-99.79248046875
-86.97509765625
-97.96142578125
-97.0458984375
-95.21484375
-94.29931640625
-104.3701171875
-104.3701171875
-97.0458984375
-114.44091796875
-118.10302734375
-110.77880859375
-118.10302734375
-110.77880859375
-108.94775390625
-116.27197265625
-116.27197265625
-111.6943359375
-107.11669921875
-99.79248046875
-93.3837890625
-101.62353515625
-86.97509765625
-82.3974609375
-95.21484375
-97.96142578125
-81.48193359375
-80.56640625
-73.2421875
-62.255859375
-57.67822265625
-64.0869140625
-70.49560546875
-61.34033203125
-47.607421875
-43.02978515625
-52.18505859375
-69.580078125
-74.15771484375
-78.7353515625
-71.4111328125
-73.2421875
-69.580078125
-66.83349609375
-66.83349609375
-60.4248046875
-50.35400390625
-32.04345703125
-35.70556640625
-35.70556640625
-33.87451171875
-40.283203125
-61.34033203125
-55.84716796875
-56.7626953125
-70.49560546875
-59.50927734375
-46.69189453125
-58.59375
-57.67822265625
-49.4384765625
-51.26953125
-50.35400390625
-50.35400390625
-42.1142578125
-37.53662109375
-30.21240234375
-42.1142578125
-59.50927734375
-75.98876953125
-71.4111328125
-67.7490234375
-72.32666015625
-78.7353515625
-75.98876953125
-75.98876953125
-81.48193359375
-75.0732421875
-81.48193359375
-79.65087890625
-75.98876953125
-81.48193359375
-81.48193359375
-83.31298828125
-75.98876953125
-73.2421875
-67.7490234375
-79.65087890625
-87.890625
-83.31298828125
-88.80615234375
-92.46826171875
-82.3974609375
-75.0732421875
-77.81982421875
-72.32666015625
-71.4111328125
-90.63720703125
-86.0595703125
-86.0595703125
-76.904296875
-71.4111328125
-85.14404296875
-86.0595703125
-80.56640625
-88.80615234375
-100.7080078125
-99.79248046875
-101.62353515625
-102.5390625
-105.28564453125
-94.29931640625
-94.29931640625
-93.3837890625
-92.46826171875
-93.3837890625
-99.79248046875
-96.13037109375
-95.21484375
-100.7080078125
-100.7080078125
-99.79248046875
-105.28564453125
-106.201171875
-97.96142578125
-97.0458984375
-97.96142578125
-87.890625
-87.890625
-84.228515625
-92.46826171875
-90.63720703125
-83.31298828125
-85.14404296875
-90.63720703125
-112.60986328125
-99.79248046875
-97.96142578125
-100.7080078125
-120.849609375
-121.76513671875
-111.6943359375
-101.62353515625
-101.62353515625
-97.96142578125
-91.552734375
-97.96142578125
-102.5390625
-119.0185546875
-120.849609375
-116.27197265625
-113.525390625
-91.552734375
-100.7080078125
-101.62353515625
-88.80615234375
-85.14404296875
-100.7080078125
-89.7216796875
-77.81982421875
-70.49560546875
-71.4111328125
-66.83349609375
-65.91796875
-52.18505859375
-63.17138671875
-80.56640625
-54.931640625
-30.21240234375
-31.1279296875
-28.38134765625
-10.07080078125
-2.74658203125
-15.56396484375
-56.7626953125
-72.32666015625
-85.14404296875
-81.48193359375
-88.80615234375
-90.63720703125
-78.7353515625
-69.580078125
-71.4111328125
-80.56640625
-82.3974609375
-84.228515625
-77.81982421875
-75.98876953125
-81.48193359375
-80.56640625
-87.890625
-98.876953125
-107.11669921875
-110.77880859375
-115.3564453125
-111.6943359375
-111.6943359375
-104.3701171875
-107.11669921875
-109.86328125
-111.6943359375
-116.27197265625
-108.0322265625
-100.7080078125
-105.28564453125
-106.201171875
-96.13037109375
-103.45458984375
-123.59619140625
-135.498046875
-132.75146484375
-127.25830078125
-117.1875
-125.42724609375
-128.173828125
-125.42724609375
-119.0185546875
-122.6806640625
-111.6943359375
-106.201171875
-101.62353515625
-95.21484375
-107.11669921875
-132.75146484375
-143.73779296875
-148.3154296875
-148.3154296875
-151.9775390625
-129.08935546875
-74.15771484375
-6.40869140625
92.46826171875
200.50048828125
331.4208984375
498.96240234375
663.75732421875
818.4814453125
964.9658203125
1090.39306640625
1201.171875
1311.03515625
1377.86865234375
1364.1357421875
1326.59912109375
1265.2587890625
1131.591796875
910.0341796875
652.77099609375
406.494140625
183.10546875
96.13037109375
56.7626953125
18.310546875
-5.4931640625
-36.62109375
-67.7490234375
-80.56640625
-90.63720703125
-91.552734375
-85.14404296875
-88.80615234375
-86.97509765625
-97.0458984375
-102.5390625
-119.93408203125
-113.525390625
-108.94775390625
-109.86328125
-113.525390625
-122.6806640625
-121.76513671875
-118.10302734375
-125.42724609375
-126.3427734375
-111.6943359375
-96.13037109375
-102.5390625
-110.77880859375
-111.6943359375
-106.201171875
-98.876953125
-92.46826171875
-93.3837890625
-97.0458984375
-90.63720703125
-106.201171875
-123.59619140625
-122.6806640625
-130.92041015625
-121.76513671875
-115.3564453125
-123.59619140625
-124.51171875
-131.8359375
-144.6533203125
-140.07568359375
-126.3427734375
-119.93408203125
-118.10302734375
-110.77880859375
-109.86328125
-115.3564453125
-99.79248046875
-98.876953125
-104.3701171875
-107.11669921875
-108.0322265625
-101.62353515625
-96.13037109375
-97.96142578125
-102.5390625
-113.525390625
-105.28564453125
-92.46826171875
-84.228515625
-88.80615234375
-84.228515625
-80.56640625
-81.48193359375
-98.876953125
-109.86328125
-107.11669921875
-108.0322265625
-117.1875
-104.3701171875
-115.3564453125
-106.201171875
-110.77880859375
-97.96142578125
-84.228515625
-85.14404296875
-81.48193359375
-79.65087890625
-69.580078125
-75.98876953125
-93.3837890625
-92.46826171875
-97.96142578125
-97.96142578125
-88.80615234375
-80.56640625
-80.56640625
-83.31298828125
-72.32666015625
-75.0732421875
-81.48193359375
-77.81982421875
-77.81982421875
-71.4111328125
-76.904296875
-75.98876953125
-70.49560546875
-78.7353515625
-69.580078125
-63.17138671875
-67.7490234375
-50.35400390625
-38.4521484375
-49.4384765625
-51.26953125
-47.607421875
-45.7763671875
-69.580078125
-65.00244140625
-79.65087890625
-81.48193359375
-84.228515625
-94.29931640625
-102.5390625
-108.0322265625
-88.80615234375
-80.56640625
-102.5390625
-108.0322265625
-103.45458984375
-105.28564453125
-93.3837890625
-79.65087890625
-78.7353515625
-75.98876953125
-78.7353515625
-93.3837890625
-109.86328125
-109.86328125
-98.876953125
-92.46826171875
-86.97509765625
-80.56640625
-87.890625
-77.81982421875
-74.15771484375
-77.81982421875
-85.14404296875
-91.552734375
-99.79248046875
-98.876953125
-92.46826171875
-108.94775390625
-100.7080078125
-89.7216796875
-78.7353515625
-80.56640625
-95.21484375
-99.79248046875
-97.96142578125
-105.28564453125
-119.93408203125
-108.0322265625
-105.28564453125
-115.3564453125
-127.25830078125
-122.6806640625
-109.86328125
-104.3701171875
-111.6943359375
-105.28564453125
-98.876953125
-111.6943359375
-127.25830078125
-140.9912109375
-118.10302734375
-104.3701171875
-97.0458984375
-96.13037109375
-91.552734375
-84.228515625
-83.31298828125
-87.890625
-87.890625
-93.3837890625
-94.29931640625
-86.0595703125
-89.7216796875
-86.97509765625
-81.48193359375
-82.3974609375
-82.3974609375
-80.56640625
-97.96142578125
-111.6943359375
-107.11669921875
-97.0458984375
-88.80615234375
-76.904296875
-65.00244140625
-66.83349609375
-61.34033203125
-66.83349609375
-75.98876953125
-80.56640625
-81.48193359375
-83.31298828125
-70.49560546875
-80.56640625
-86.97509765625
-81.48193359375
-91.552734375
-81.48193359375
-71.4111328125
-74.15771484375
-75.98876953125
-80.56640625
-83.31298828125
-91.552734375
-92.46826171875
-93.3837890625
-83.31298828125
-70.49560546875
-80.56640625
-81.48193359375
-73.2421875
-83.31298828125
-77.81982421875
-72.32666015625
-69.580078125
-65.00244140625
-65.00244140625
-78.7353515625
-95.21484375
-92.46826171875
-105.28564453125
-99.79248046875
-99.79248046875
-77.81982421875
-76.904296875
-74.15771484375
-90.63720703125
-96.13037109375
-99.79248046875
-119.0185546875
-116.27197265625
-117.1875
-105.28564453125
-109.86328125
-114.44091796875
-119.0185546875
-119.0185546875
-113.525390625
-111.6943359375
-111.6943359375
-119.93408203125
-129.08935546875
-128.173828125
-119.0185546875
-109.86328125
-121.76513671875
-114.44091796875
-110.77880859375
-108.0322265625
-110.77880859375
-107.11669921875
-118.10302734375
-121.76513671875
-117.1875
-107.11669921875
-104.3701171875
-105.28564453125
-116.27197265625
-130.92041015625
-121.76513671875
-123.59619140625
-113.525390625
-112.60986328125
-127.25830078125
-140.9912109375
-137.3291015625
-154.72412109375
-160.21728515625
-132.75146484375
-129.08935546875
-135.498046875
-123.59619140625
-117.1875
-121.76513671875
-122.6806640625
-123.59619140625
-130.0048828125
-127.25830078125
-139.16015625
-144.6533203125
-141.90673828125
-146.484375
-141.90673828125
-148.3154296875
-124.51171875
-122.6806640625
-128.173828125
-127.25830078125
-138.24462890625
-126.3427734375
-113.525390625
-135.498046875
-135.498046875
-132.75146484375
-121.76513671875
-103.45458984375
-117.1875
-121.76513671875
-147.39990234375
-145.56884765625
-135.498046875
-130.0048828125
-121.76513671875
-132.75146484375
-133.6669921875
-122.6806640625
-119.93408203125
-118.10302734375
-134.58251953125
-140.9912109375
-140.9912109375
-137.3291015625
-126.3427734375
-101.62353515625
-124.51171875
-130.92041015625
-129.08935546875
-137.3291015625
-145.56884765625
-138.24462890625
-136.41357421875
-135.498046875
-127.25830078125
-128.173828125
-120.849609375
-111.6943359375
-111.6943359375
-99.79248046875
-101.62353515625
-107.11669921875
-107.11669921875
-98.876953125
-100.7080078125
-86.97509765625
-72.32666015625
-70.49560546875
-83.31298828125
-77.81982421875
-61.34033203125
-56.7626953125
-65.00244140625
-79.65087890625
-107.11669921875
-117.1875
-130.0048828125
-110.77880859375
-101.62353515625
-110.77880859375
-115.3564453125
-105.28564453125
-87.890625
-97.96142578125
-108.94775390625
-116.27197265625
-109.86328125
-106.201171875
-116.27197265625
-134.58251953125
-140.9912109375
-146.484375
-137.3291015625
-129.08935546875
-125.42724609375
-131.8359375
-143.73779296875
-142.822265625
-146.484375
-135.498046875
-135.498046875
-135.498046875
-148.3154296875
-140.07568359375
-144.6533203125
-143.73779296875
-151.9775390625
-151.9775390625
-140.9912109375
-130.92041015625
-122.6806640625
-126.3427734375
-142.822265625
-149.23095703125
-140.9912109375
-136.41357421875
-124.51171875
-132.75146484375
-138.24462890625
-137.3291015625
-160.21728515625
-179.443359375
-195.00732421875
-189.51416015625
-184.02099609375
-168.45703125
-122.6806640625
-62.255859375
25.634765625
151.06201171875
281.982421875
453.18603515625
645.44677734375
813.90380859375
936.58447265625
1037.29248046875
1147.15576171875
1249.69482421875
1319.27490234375
1320.1904296875
1271.66748046875
1225.89111328125
1117.85888671875
934.75341796875
684.814453125
434.87548828125
219.7265625
105.28564453125
80.56640625
75.0732421875
28.38134765625
-3.662109375
-38.4521484375
-85.14404296875
-119.93408203125
-135.498046875
-136.41357421875
-130.0048828125
-122.6806640625
-108.0322265625
-109.86328125
-129.08935546875
-143.73779296875
-130.92041015625
-150.146484375
-153.80859375
-149.23095703125
-143.73779296875
-144.6533203125
-145.56884765625
-137.3291015625
-145.56884765625
-152.89306640625
-155.6396484375
-157.470703125
-152.89306640625
-156.55517578125
-151.06201171875
-145.56884765625
-134.58251953125
-137.3291015625
-137.3291015625
-136.41357421875
-133.6669921875
-121.76513671875
-128.173828125
-119.0185546875
-123.59619140625
-119.0185546875
-123.59619140625
