ECG
-515.44189453125
-510.8642578125
-504.45556640625
-506.28662109375
-502.62451171875
-501.708984375
-495.30029296875
-499.8779296875
-491.63818359375
-500.79345703125
-504.45556640625
-486.14501953125
-484.31396484375
-484.31396484375
-479.736328125
-488.8916015625
-488.8916015625
-487.060546875
-481.5673828125
-481.5673828125
-483.3984375
-486.14501953125
-492.5537109375
-497.13134765625
-506.28662109375
-492.5537109375
-488.8916015625
-496.2158203125
-495.30029296875
-480.65185546875
-475.15869140625
-487.060546875
-493.46923828125
-492.5537109375
-495.30029296875
-490.72265625
-490.72265625
-480.65185546875
-479.736328125
-480.65185546875
-487.060546875
-484.31396484375
-480.65185546875
-473.32763671875
-478.82080078125
-488.8916015625
-495.30029296875
-490.72265625
-475.15869140625
-473.32763671875
-476.07421875
-480.65185546875
-471.49658203125
-464.17236328125
-459.5947265625
-465.087890625
-465.087890625
-469.66552734375
-472.412109375
-476.07421875
-473.32763671875
-466.00341796875
-466.9189453125
-460.51025390625
-454.1015625
-456.84814453125
-463.2568359375
-466.9189453125
-474.2431640625
-479.736328125
-474.2431640625
-476.07421875
-461.42578125
-471.49658203125
-482.48291015625
-484.31396484375
-475.15869140625
-469.66552734375
-462.34130859375
-453.18603515625
-465.087890625
-462.34130859375
-467.83447265625
-465.087890625
-473.32763671875
-480.65185546875
-480.65185546875
-481.5673828125
-487.97607421875
-482.48291015625
-474.2431640625
-478.82080078125
-483.3984375
-480.65185546875
-484.31396484375
-488.8916015625
-489.80712890625
-488.8916015625
-488.8916015625
-487.97607421875
-485.2294921875
-487.97607421875
-486.14501953125
-487.060546875
-492.5537109375
-501.708984375
-505.37109375
-504.45556640625
-501.708984375
-499.8779296875
-498.046875
-500.79345703125
-496.2158203125
-503.5400390625
-505.37109375
-493.46923828125
-490.72265625
-496.2158203125
-502.62451171875
-501.708984375
-508.11767578125
-502.62451171875
-507.2021484375
-509.94873046875
-499.8779296875
-513.61083984375
-514.5263671875
-509.033203125
-516.357421875
-514.5263671875
-512.6953125
-510.8642578125
-510.8642578125
-502.62451171875
-508.11767578125
-519.10400390625
-511.77978515625
-512.6953125
-512.6953125
-512.6953125
-516.357421875
-516.357421875
-515.44189453125
-515.44189453125
-516.357421875
-513.61083984375
-517.27294921875
-525.5126953125
-513.61083984375
-517.27294921875
-513.61083984375
-521.8505859375
-526.42822265625
-526.42822265625
-518.1884765625
-514.5263671875
-516.357421875
-514.5263671875
-500.79345703125
-487.97607421875
-486.14501953125
-495.30029296875
-486.14501953125
-484.31396484375
-475.15869140625
-474.2431640625
-470.5810546875
-469.66552734375
-467.83447265625
-460.51025390625
-474.2431640625
-480.65185546875
-461.42578125
-465.087890625
-466.9189453125
-469.66552734375
-471.49658203125
-464.17236328125
-466.9189453125
-457.763671875
-449.52392578125
-453.18603515625
-448.6083984375
-463.2568359375
-480.65185546875
-482.48291015625
-495.30029296875
-501.708984375
-504.45556640625
-500.79345703125
-509.94873046875
-513.61083984375
-493.46923828125
-497.13134765625
-507.2021484375
-514.5263671875
-519.10400390625
-520.93505859375
-515.44189453125
-502.62451171875
-509.033203125
-516.357421875
-519.10400390625
-514.5263671875
-532.8369140625
-544.73876953125
-545.654296875
-543.8232421875
-541.07666015625
-542.90771484375
-539.24560546875
-540.1611328125
-543.8232421875
-542.90771484375
-537.41455078125
-541.07666015625
-542.90771484375
-540.1611328125
-547.4853515625
-543.8232421875
-545.654296875
-537.41455078125
-538.330078125
-541.07666015625
-538.330078125
-541.07666015625
-539.24560546875
-541.07666015625
-541.07666015625
-553.89404296875
-545.654296875
-558.4716796875
-571.2890625
-581.35986328125
-574.951171875
-573.1201171875
-541.07666015625
-494.384765625
-432.12890625
-330.50537109375
-211.48681640625
-68.66455078125
94.29931640625
281.06689453125
427.55126953125
534.66796875
640.869140625
760.80322265625
880.7373046875
920.10498046875
873.4130859375
828.55224609375
742.49267578125
586.85302734375
366.2109375
109.86328125
-139.16015625
-280.1513671875
-316.7724609375
-340.576171875
-364.3798828125
-401.0009765625
-435.791015625
-471.49658203125
-509.033203125
-525.5126953125
-545.654296875
-541.9921875
-522.76611328125
-520.01953125
-540.1611328125
-534.66796875
-521.8505859375
-529.1748046875
-532.8369140625
-543.8232421875
-544.73876953125
-537.41455078125
-538.330078125
-548.40087890625
-552.978515625
-549.31640625
-531.92138671875
-530.09033203125
-528.25927734375
-531.005859375
-533.75244140625
-545.654296875
-550.23193359375
-556.640625
-548.40087890625
-550.23193359375
-533.75244140625
-540.1611328125
-546.56982421875
-541.07666015625
-541.9921875
-535.58349609375
-532.8369140625
-544.73876953125
-543.8232421875
-548.40087890625
-534.66796875
-529.1748046875
-528.25927734375
-527.34375
-537.41455078125
-539.24560546875
-531.005859375
-530.09033203125
-528.25927734375
-531.92138671875
-521.8505859375
-522.76611328125
-529.1748046875
-532.8369140625
-539.24560546875
-534.66796875
-534.66796875
-535.58349609375
-534.66796875
-528.25927734375
-528.25927734375
-524.59716796875
-528.25927734375
-529.1748046875
-526.42822265625
-530.09033203125
-533.75244140625
-535.58349609375
-533.75244140625
-529.1748046875
-524.59716796875
-526.42822265625
-531.92138671875
-528.25927734375
-530.09033203125
-523.681640625
-516.357421875
-509.94873046875
-505.37109375
-515.44189453125
-514.5263671875
-512.6953125
-523.681640625
-523.681640625
-532.8369140625
-528.25927734375
-520.93505859375
-524.59716796875
-520.01953125
-516.357421875
-525.5126953125
-528.25927734375
-523.681640625
-526.42822265625
-545.654296875
-537.41455078125
-542.90771484375
-541.07666015625
-540.1611328125
-539.24560546875
-548.40087890625
-545.654296875
-544.73876953125
-547.4853515625
-546.56982421875
-542.90771484375
-550.23193359375
-545.654296875
-552.06298828125
-561.21826171875
-557.55615234375
-556.640625
-558.4716796875
-563.96484375
-563.04931640625
-554.8095703125
-550.23193359375
-541.07666015625
-539.24560546875
-540.1611328125
-531.92138671875
-539.24560546875
-537.41455078125
-531.92138671875
-537.41455078125
-539.24560546875
-531.005859375
-531.92138671875
-521.8505859375
-518.1884765625
-513.61083984375
-521.8505859375
-520.93505859375
-527.34375
-525.5126953125
-520.01953125
-516.357421875
-513.61083984375
-518.1884765625
-521.8505859375
-512.6953125
-509.033203125
-522.76611328125
-526.42822265625
-525.5126953125
-520.01953125
-525.5126953125
-524.59716796875
-533.75244140625
-530.09033203125
-530.09033203125
-532.8369140625
-537.41455078125
-536.4990234375
-527.34375
-531.005859375
-534.66796875
-532.8369140625
-523.681640625
-525.5126953125
-526.42822265625
-521.8505859375
-517.27294921875
-518.1884765625
-520.93505859375
-520.01953125
-513.61083984375
-510.8642578125
-509.94873046875
-515.44189453125
-505.37109375
-507.2021484375
-504.45556640625
-508.11767578125
-509.033203125
-509.033203125
-507.2021484375
-501.708984375
-509.033203125
-520.01953125
-506.28662109375
-508.11767578125
-507.2021484375
-501.708984375
-498.046875
-498.046875
-499.8779296875
-497.13134765625
-492.5537109375
-490.72265625
-486.14501953125
-495.30029296875
-498.046875
-499.8779296875
-515.44189453125
-505.37109375
-499.8779296875
-485.2294921875
-493.46923828125
-498.046875
-502.62451171875
-496.2158203125
-491.63818359375
-496.2158203125
-496.2158203125
-495.30029296875
-493.46923828125
-499.8779296875
-506.28662109375
-504.45556640625
-494.384765625
-491.63818359375
-499.8779296875
-500.79345703125
-500.79345703125
-499.8779296875
-507.2021484375
-508.11767578125
-505.37109375
-508.11767578125
-510.8642578125
-508.11767578125
-510.8642578125
-511.77978515625
-512.6953125
-520.01953125
-519.10400390625
-517.27294921875
-518.1884765625
-511.77978515625
-528.25927734375
-533.75244140625
-529.1748046875
-538.330078125
-531.92138671875
-529.1748046875
-529.1748046875
-520.93505859375
-520.01953125
-525.5126953125
-521.8505859375
-523.681640625
-528.25927734375
-525.5126953125
-534.66796875
-534.66796875
-534.66796875
-528.25927734375
-538.330078125
-535.58349609375
-537.41455078125
-537.41455078125
-528.25927734375
-521.8505859375
-530.09033203125
-530.09033203125
-535.58349609375
-534.66796875
-541.9921875
-543.8232421875
-531.005859375
-531.005859375
-533.75244140625
-529.1748046875
-541.07666015625
-530.09033203125
-531.92138671875
-532.8369140625
-532.8369140625
-535.58349609375
-539.24560546875
-534.66796875
-533.75244140625
-530.09033203125
-529.1748046875
-531.005859375
-536.4990234375
-531.92138671875
-537.41455078125
-533.75244140625
-531.005859375
-532.8369140625
-527.34375
-529.1748046875
-538.330078125
-536.4990234375
-540.1611328125
-530.09033203125
-538.330078125
-542.90771484375
-534.66796875
-541.9921875
-536.4990234375
-539.24560546875
-550.23193359375
-552.06298828125
-545.654296875
-544.73876953125
-543.8232421875
-544.73876953125
-539.24560546875
-540.1611328125
-534.66796875
-520.01953125
-512.6953125
-520.01953125
-532.8369140625
-519.10400390625
-506.28662109375
-485.2294921875
-479.736328125
-482.48291015625
-484.31396484375
-483.3984375
-477.9052734375
-476.07421875
-483.3984375
-496.2158203125
-478.82080078125
-479.736328125
-480.65185546875
-474.2431640625
-475.15869140625
-477.9052734375
-474.2431640625
-473.32763671875
-463.2568359375
-466.9189453125
-463.2568359375
-470.5810546875
-479.736328125
-498.046875
-518.1884765625
-525.5126953125
-532.8369140625
-522.76611328125
-518.1884765625
-511.77978515625
-514.5263671875
-525.5126953125
-529.1748046875
-536.4990234375
-542.90771484375
-545.654296875
-541.9921875
-536.4990234375
-532.8369140625
-532.8369140625
-538.330078125
-548.40087890625
-546.56982421875
-557.55615234375
-552.978515625
-557.55615234375
-568.54248046875
-568.54248046875
-559.38720703125
-557.55615234375
-556.640625
-559.38720703125
-571.2890625
-567.626953125
-569.4580078125
-557.55615234375
-551.1474609375
-541.9921875
-552.978515625
-553.89404296875
-558.4716796875
-557.55615234375
-560.302734375
-553.89404296875
-565.7958984375
-567.626953125
-559.38720703125
-576.7822265625
-597.83935546875
-600.5859375
-598.7548828125
-602.4169921875
-594.17724609375
-574.03564453125
-536.4990234375
-475.15869140625
-380.859375
-273.74267578125
-154.72412109375
-3.662109375
175.78125
346.0693359375
479.736328125
593.26171875
697.6318359375
787.353515625
849.609375
853.271484375
826.72119140625
767.2119140625
651.85546875
456.84814453125
218.81103515625
-39.36767578125
-277.40478515625
-360.7177734375
-397.3388671875
-433.9599609375
-476.98974609375
-506.28662109375
-537.41455078125
-558.4716796875
-558.4716796875
-560.302734375
-557.55615234375
-552.06298828125
-558.4716796875
-559.38720703125
-561.21826171875
-563.04931640625
-573.1201171875
-577.69775390625
-577.69775390625
-577.69775390625
-578.61328125
-578.61328125
-575.86669921875
-575.86669921875
-585.02197265625
-585.9375
-584.1064453125
-583.19091796875
-584.1064453125
-584.1064453125
-587.7685546875
-580.4443359375
-577.69775390625
-587.7685546875
-588.68408203125
-574.951171875
-583.19091796875
-580.4443359375
-575.86669921875
-574.03564453125
-567.626953125
-561.21826171875
-563.96484375
-572.20458984375
-584.1064453125
-578.61328125
-569.4580078125
-552.06298828125
-553.89404296875
-558.4716796875
-564.88037109375
-552.978515625
-562.1337890625
-569.4580078125
-566.71142578125
-567.626953125
-569.4580078125
-575.86669921875
-573.1201171875
-571.2890625
-567.626953125
-567.626953125
-572.20458984375
-586.85302734375
-569.4580078125
-570.37353515625
-574.03564453125
-573.1201171875
-579.52880859375
-571.2890625
-563.04931640625
-553.89404296875
-558.4716796875
-554.8095703125
-554.8095703125
-559.38720703125
-554.8095703125
-557.55615234375
-562.1337890625
-563.04931640625
-561.21826171875
-547.4853515625
-552.978515625
-552.06298828125
-547.4853515625
-542.90771484375
-540.1611328125
-542.90771484375
-541.9921875
-544.73876953125
-551.1474609375
-550.23193359375
-549.31640625
-553.89404296875
-551.1474609375
-553.89404296875
-552.978515625
-546.56982421875
-557.55615234375
-547.4853515625
-541.07666015625
-548.40087890625
-546.56982421875
-548.40087890625
-545.654296875
-550.23193359375
-555.72509765625
-558.4716796875
-559.38720703125
-562.1337890625
-563.04931640625
-560.302734375
-567.626953125
-575.86669921875
-574.03564453125
-573.1201171875
-574.951171875
-579.52880859375
-575.86669921875
-574.951171875
-572.20458984375
-573.1201171875
-568.54248046875
-568.54248046875
-562.1337890625
-556.640625
-561.21826171875
-564.88037109375
-553.89404296875
-555.72509765625
-556.640625
-553.89404296875
-552.06298828125
-547.4853515625
-543.8232421875
-549.31640625
-552.06298828125
-544.73876953125
-537.41455078125
-545.654296875
-545.654296875
-547.4853515625
-557.55615234375
-555.72509765625
-549.31640625
-539.24560546875
-534.66796875
-543.8232421875
-543.8232421875
-541.07666015625
-547.4853515625
-550.23193359375
-546.56982421875
-548.40087890625
-550.23193359375
-550.23193359375
-548.40087890625
-552.978515625
-549.31640625
-548.40087890625
-555.72509765625
-552.06298828125
-554.8095703125
-552.978515625
-543.8232421875
-536.4990234375
-534.66796875
-542.90771484375
-531.92138671875
-541.9921875
-553.89404296875
-541.07666015625
-540.1611328125
-552.978515625
-540.1611328125
-543.8232421875
-543.8232421875
-539.24560546875
-538.330078125
-524.59716796875
-520.01953125
-526.42822265625
-530.09033203125
-524.59716796875
-526.42822265625
-533.75244140625
-533.75244140625
-526.42822265625
-531.005859375
-532.8369140625
-532.8369140625
-529.1748046875
-528.25927734375
-522.76611328125
-520.01953125
-518.1884765625
-520.01953125
-517.27294921875
-515.44189453125
-527.34375
-527.34375
-514.5263671875
-520.01953125
-527.34375
-531.92138671875
-528.25927734375
-525.5126953125
-527.34375
-530.09033203125
-526.42822265625
-519.10400390625
-527.34375
-532.8369140625
-540.1611328125
-531.005859375
-527.34375
-532.8369140625
-535.58349609375
-534.66796875
-540.1611328125
-530.09033203125
-541.9921875
-542.90771484375
-535.58349609375
-540.1611328125
-541.07666015625
-529.1748046875
-531.005859375
-532.8369140625
-531.005859375
-534.66796875
-539.24560546875
-542.90771484375
-549.31640625
-550.23193359375
-548.40087890625
-544.73876953125
-545.654296875
-549.31640625
-545.654296875
-554.8095703125
-556.640625
-552.978515625
-558.4716796875
-562.1337890625
-557.55615234375
-558.4716796875
-556.640625
-549.31640625
-552.06298828125
-558.4716796875
-557.55615234375
-553.89404296875
-554.8095703125
-558.4716796875
-559.38720703125
-559.38720703125
-557.55615234375
-556.640625
-560.302734375
-556.640625
-562.1337890625
-566.71142578125
-568.54248046875
-573.1201171875
-572.20458984375
-571.2890625
-564.88037109375
-561.21826171875
-572.20458984375
-574.03564453125
-566.71142578125
-563.96484375
-562.1337890625
-558.4716796875
-561.21826171875
-570.37353515625
-561.21826171875
-558.4716796875
-556.640625
-554.8095703125
-554.8095703125
-559.38720703125
-570.37353515625
-568.54248046875
-564.88037109375
-570.37353515625
-570.37353515625
-569.4580078125
-574.03564453125
-571.2890625
-563.04931640625
-561.21826171875
-562.1337890625
-563.04931640625
-559.38720703125
-563.96484375
-563.96484375
-575.86669921875
-576.7822265625
-574.951171875
-571.2890625
-571.2890625
-565.7958984375
-563.04931640625
-568.54248046875
-566.71142578125
-568.54248046875
-570.37353515625
-571.2890625
-571.2890625
-571.2890625
-574.951171875
-570.37353515625
-577.69775390625
-584.1064453125
-579.52880859375
-577.69775390625
-574.03564453125
-573.1201171875
-581.35986328125
-583.19091796875
-577.69775390625
-565.7958984375
-566.71142578125
-574.951171875
-578.61328125
-568.54248046875
-576.7822265625
-577.69775390625
-582.275390625
-585.02197265625
-580.4443359375
-581.35986328125
-576.7822265625
-581.35986328125
-583.19091796875
-582.275390625
-585.02197265625
-585.9375
-576.7822265625
-569.4580078125
-579.52880859375
-565.7958984375
-559.38720703125
-560.302734375
-558.4716796875
-551.1474609375
-543.8232421875
-534.66796875
-538.330078125
-536.4990234375
-531.005859375
-534.66796875
-527.34375
-524.59716796875
-523.681640625
-523.681640625
-526.42822265625
-520.93505859375
-527.34375
-533.75244140625
-527.34375
-518.1884765625
-513.61083984375
-509.033203125
-504.45556640625
-513.61083984375
-520.93505859375
-533.75244140625
-552.06298828125
-561.21826171875
-560.302734375
-557.55615234375
-558.4716796875
-557.55615234375
-556.640625
-566.71142578125
-565.7958984375
-572.20458984375
-580.4443359375
-582.275390625
-580.4443359375
-571.2890625
-573.1201171875
-574.951171875
-585.02197265625
-587.7685546875
-589.599609375
-593.26171875
-593.26171875
-599.67041015625
-599.67041015625
-604.248046875
-607.91015625
-614.31884765625
-603.33251953125
-603.33251953125
-601.50146484375
-600.5859375
-603.33251953125
-610.65673828125
-600.5859375
-603.33251953125
-596.923828125
-595.0927734375
-601.50146484375
-602.4169921875
-604.248046875
-607.91015625
-606.0791015625
-605.16357421875
-594.17724609375
-599.67041015625
-614.31884765625
-622.55859375
-637.20703125
-643.61572265625
-634.46044921875
-614.31884765625
-577.69775390625
-519.10400390625
-435.791015625
-319.51904296875
-201.416015625
-59.50927734375
119.93408203125
288.39111328125
417.48046875
535.58349609375
631.7138671875
726.9287109375
802.001953125
812.07275390625
780.94482421875
723.2666015625
609.7412109375
428.466796875
187.68310546875
-55.84716796875
-290.22216796875
-390.0146484375
-427.55126953125
-464.17236328125
-498.96240234375
-534.66796875
-560.302734375
-592.34619140625
-605.16357421875
-604.248046875
-594.17724609375
-596.923828125
-594.17724609375
-594.17724609375
-588.68408203125
-598.7548828125
-598.7548828125
-600.5859375
-602.4169921875
-597.83935546875
-605.16357421875
-604.248046875
-607.91015625
-611.572265625
-614.31884765625
-611.572265625
-611.572265625
-617.98095703125
-612.48779296875
-617.0654296875
-615.234375
-612.48779296875
-621.64306640625
-620.7275390625
-624.3896484375
-617.98095703125
-610.65673828125
-608.82568359375
-608.82568359375
-605.16357421875
-605.16357421875
-598.7548828125
-604.248046875
-607.91015625
-607.91015625
-613.4033203125
-615.234375
-608.82568359375
-602.4169921875
-607.91015625
-600.5859375
-601.50146484375
-599.67041015625
-599.67041015625
-601.50146484375
-606.0791015625
-592.34619140625
-587.7685546875
-599.67041015625
-595.0927734375
-605.16357421875
-607.91015625
-606.99462890625
-599.67041015625
-596.923828125
-596.923828125
-599.67041015625
-603.33251953125
-599.67041015625
-590.51513671875
-585.9375
-591.4306640625
-597.83935546875
-586.85302734375
-589.599609375
-585.02197265625
-582.275390625
-584.1064453125
-588.68408203125
-587.7685546875
-584.1064453125
-581.35986328125
-585.9375
-585.9375
-581.35986328125
-577.69775390625
-581.35986328125
-577.69775390625
-574.03564453125
-576.7822265625
-585.02197265625
-574.03564453125
-581.35986328125
-580.4443359375
-588.68408203125
-581.35986328125
-579.52880859375
-566.71142578125
-568.54248046875
-582.275390625
-579.52880859375
-581.35986328125
-582.275390625
-575.86669921875
-583.19091796875
-579.52880859375
-572.20458984375
-577.69775390625
-580.4443359375
-585.02197265625
-591.4306640625
-590.51513671875
-599.67041015625
-596.923828125
-590.51513671875
-593.26171875
-596.923828125
-599.67041015625
-594.17724609375
-590.51513671875
-586.85302734375
-588.68408203125
-596.923828125
-599.67041015625
-605.16357421875
-605.16357421875
-585.9375
-592.34619140625
-588.68408203125
-585.9375
-579.52880859375
-585.9375
-580.4443359375
-582.275390625
-582.275390625
-575.86669921875
-575.86669921875
-573.1201171875
-568.54248046875
-567.626953125
-570.37353515625
-578.61328125
-574.951171875
-585.02197265625
-587.7685546875
-576.7822265625
-573.1201171875
-570.37353515625
-577.69775390625
-567.626953125
-575.86669921875
-573.1201171875
-573.1201171875
-582.275390625
-578.61328125
-572.20458984375
-571.2890625
-572.20458984375
-578.61328125
-574.03564453125
-580.4443359375
-584.1064453125
-585.02197265625
-583.19091796875
-574.951171875
-574.951171875
-585.02197265625
-574.03564453125
-581.35986328125
-578.61328125
-579.52880859375
-577.69775390625
-573.1201171875
-572.20458984375
-563.04931640625
-561.21826171875
-566.71142578125
-569.4580078125
-573.1201171875
-568.54248046875
-578.61328125
-572.20458984375
-576.7822265625
-569.4580078125
-563.96484375
-563.04931640625
-558.4716796875
-554.8095703125
-563.96484375
-552.06298828125
-550.23193359375
-554.8095703125
-554.8095703125
-563.96484375
-573.1201171875
-574.03564453125
-563.04931640625
-550.23193359375
-552.06298828125
-552.06298828125
-552.06298828125
-553.89404296875
-557.55615234375
-555.72509765625
-556.640625
-560.302734375
-550.23193359375
-563.96484375
-555.72509765625
-543.8232421875
-545.654296875
-542.90771484375
-552.978515625
-551.1474609375
-552.978515625
-551.1474609375
-554.8095703125
-550.23193359375
-547.4853515625
-551.1474609375
-553.89404296875
-549.31640625
-553.89404296875
-563.96484375
-559.38720703125
-560.302734375
-557.55615234375
-557.55615234375
-561.21826171875
-564.88037109375
-566.71142578125
-559.38720703125
-561.21826171875
-563.04931640625
-559.38720703125
-562.1337890625
-563.96484375
-569.4580078125
-565.7958984375
-565.7958984375
-572.20458984375
-570.37353515625
-572.20458984375
-570.37353515625
-561.21826171875
-567.626953125
-573.1201171875
-574.951171875
-582.275390625
-574.951171875
-574.951171875
-572.20458984375
-575.86669921875
-577.69775390625
-582.275390625
-581.35986328125
-583.19091796875
-582.275390625
-587.7685546875
-585.02197265625
-585.02197265625
-585.02197265625
-580.4443359375
-571.2890625
-574.951171875
-571.2890625
-574.03564453125
-586.85302734375
-585.02197265625
-585.02197265625
-585.9375
-579.52880859375
-585.9375
-585.9375
-577.69775390625
-580.4443359375
-573.1201171875
-569.4580078125
-566.71142578125
-576.7822265625
-581.35986328125
-580.4443359375
-582.275390625
-585.02197265625
-583.19091796875
-585.02197265625
-577.69775390625
-582.275390625
-581.35986328125
-583.19091796875
-579.52880859375
-580.4443359375
-577.69775390625
-578.61328125
-587.7685546875
-586.85302734375
-587.7685546875
-585.9375
-592.34619140625
-594.17724609375
-590.51513671875
-597.83935546875
-599.67041015625
-595.0927734375
-590.51513671875
-583.19091796875
-589.599609375
-588.68408203125
-596.00830078125
-593.26171875
-588.68408203125
-594.17724609375
-587.7685546875
-586.85302734375
-587.7685546875
-597.83935546875
-587.7685546875
-592.34619140625
-591.4306640625
-593.26171875
-588.68408203125
-585.9375
-589.599609375
-599.67041015625
-599.67041015625
-594.17724609375
-596.00830078125
-594.17724609375
-589.599609375
-595.0927734375
-596.00830078125
-597.83935546875
-593.26171875
-603.33251953125
-606.0791015625
-608.82568359375
-604.248046875
-599.67041015625
-602.4169921875
-604.248046875
-598.7548828125
-594.17724609375
-592.34619140625
-602.4169921875
-596.923828125
-598.7548828125
-604.248046875
-607.91015625
-612.48779296875
-599.67041015625
-590.51513671875
-588.68408203125
-582.275390625
-580.4443359375
-579.52880859375
-571.2890625
-564.88037109375
-563.96484375
-561.21826171875
-550.23193359375
-542.90771484375
-548.40087890625
-547.4853515625
-546.56982421875
-551.1474609375
-551.1474609375
-544.73876953125
-551.1474609375
-557.55615234375
-543.8232421875
-543.8232421875
-532.8369140625
-521.8505859375
-524.59716796875
-519.10400390625
-518.1884765625
-530.09033203125
-545.654296875
-553.89404296875
-570.37353515625
-570.37353515625
-579.52880859375
-583.19091796875
-582.275390625
-578.61328125
-578.61328125
-581.35986328125
-581.35986328125
-578.61328125
-574.951171875
-583.19091796875
-584.1064453125
-588.68408203125
-593.26171875
-596.923828125
-603.33251953125
-610.65673828125
-603.33251953125
-610.65673828125
-617.0654296875
-615.234375
-617.98095703125
-618.896484375
-618.896484375
-624.3896484375
-623.47412109375
-621.64306640625
-617.98095703125
-625.30517578125
-616.14990234375
-612.48779296875
-606.0791015625
-617.98095703125
-622.55859375
-619.81201171875
-620.7275390625
-623.47412109375
-617.98095703125
-626.220703125
-621.64306640625
-616.14990234375
-617.0654296875
-629.8828125
-635.3759765625
-645.44677734375
-651.85546875
-650.93994140625
-639.95361328125
-599.67041015625
-550.23193359375
-452.2705078125
-351.5625
-247.1923828125
-97.96142578125
76.904296875
253.60107421875
383.60595703125
485.2294921875
594.17724609375
696.71630859375
775.45166015625
798.33984375
762.63427734375
711.36474609375
599.67041015625
428.466796875
199.5849609375
-44.86083984375
-274.658203125
-396.42333984375
-442.19970703125
-471.49658203125
-505.37109375
-535.58349609375
-574.03564453125
-605.16357421875
-619.81201171875
-616.14990234375
-611.572265625
-606.99462890625
-605.16357421875
-613.4033203125
-614.31884765625
-621.64306640625
-630.79833984375
-626.220703125
-617.0654296875
-628.96728515625
-629.8828125
-621.64306640625
-624.3896484375
-617.0654296875
-625.30517578125
-627.13623046875
-634.46044921875
-634.46044921875
-619.81201171875
-620.7275390625
-628.96728515625
-631.7138671875
-628.96728515625
-635.3759765625
-637.20703125
-633.544921875
-622.55859375
-617.0654296875
-614.31884765625
-621.64306640625
-615.234375
-617.0654296875
-621.64306640625
-617.98095703125
-618.896484375
-617.98095703125
-615.234375
-624.3896484375
-620.7275390625
-622.55859375
-618.896484375
-615.234375
-610.65673828125
-610.65673828125
-619.81201171875
-615.234375
-609.7412109375
-613.4033203125
-612.48779296875
-606.0791015625
-606.99462890625
-604.248046875
-610.65673828125
-611.572265625
-607.91015625
-617.0654296875
-616.14990234375
-610.65673828125
-602.4169921875
-606.99462890625
-600.5859375
-608.82568359375
-612.48779296875
-603.33251953125
-592.34619140625
-597.83935546875
-601.50146484375
-600.5859375
-598.7548828125
-596.923828125
-608.82568359375
-596.923828125
-596.923828125
-600.5859375
-596.923828125
-586.85302734375
-589.599609375
-590.51513671875
-588.68408203125
-577.69775390625
-584.1064453125
-583.19091796875
-585.02197265625
-588.68408203125
-592.34619140625
-594.17724609375
-595.0927734375
-594.17724609375
-585.9375
-577.69775390625
-584.1064453125
-585.9375
-599.67041015625
-598.7548828125
-590.51513671875
-585.9375
-583.19091796875
-593.26171875
-592.34619140625
-601.50146484375
-607.91015625
-596.923828125
-600.5859375
-606.99462890625
-610.65673828125
-607.91015625
-602.4169921875
-608.82568359375
-610.65673828125
-606.99462890625
-611.572265625
-608.82568359375
-606.99462890625
-606.0791015625
-608.82568359375
-602.4169921875
-604.248046875
-600.5859375
-604.248046875
-603.33251953125
-611.572265625
-606.99462890625
-606.0791015625
-600.5859375
-601.50146484375
-595.0927734375
-592.34619140625
-597.83935546875
-589.599609375
-588.68408203125
-593.26171875
-586.85302734375
-593.26171875
-596.00830078125
-579.52880859375
-574.951171875
-578.61328125
-584.1064453125
-593.26171875
-591.4306640625
-593.26171875
-584.1064453125
-589.599609375
-596.923828125
-600.5859375
-588.68408203125
-592.34619140625
-585.02197265625
-585.9375
-588.68408203125
-587.7685546875
-588.68408203125
-593.26171875
-596.00830078125
-596.00830078125
-595.0927734375
-598.7548828125
-599.67041015625
-597.83935546875
-597.83935546875
-600.5859375
-601.50146484375
-593.26171875
-590.51513671875
-594.17724609375
-595.0927734375
-591.4306640625
-593.26171875
-595.0927734375
-594.17724609375
-590.51513671875
-593.26171875
-587.7685546875
-590.51513671875
-596.00830078125
-586.85302734375
-579.52880859375
-585.9375
-577.69775390625
-574.03564453125
-581.35986328125
-581.35986328125
-580.4443359375
-572.20458984375
-576.7822265625
-575.86669921875
-570.37353515625
-580.4443359375
-585.02197265625
-581.35986328125
-578.61328125
-575.86669921875
-579.52880859375
-576.7822265625
-585.9375
-588.68408203125
-586.85302734375
-581.35986328125
-578.61328125
-587.7685546875
-585.02197265625
-585.9375
-583.19091796875
-574.951171875
-578.61328125
-591.4306640625
-585.9375
-585.9375
-592.34619140625
-598.7548828125
-603.33251953125
-600.5859375
-596.00830078125
-602.4169921875
-593.26171875
-603.33251953125
-600.5859375
-600.5859375
-594.17724609375
-593.26171875
-600.5859375
-606.0791015625
-608.82568359375
-608.82568359375
-620.7275390625
-615.234375
-612.48779296875
-610.65673828125
-613.4033203125
-611.572265625
-611.572265625
-613.4033203125
-607.91015625
-614.31884765625
-617.0654296875
-625.30517578125
-620.7275390625
-614.31884765625
-614.31884765625
-620.7275390625
-624.3896484375
-616.14990234375
-610.65673828125
-615.234375
-618.896484375
-617.98095703125
-630.79833984375
-623.47412109375
-618.896484375
-617.0654296875
-623.47412109375
-617.98095703125
-620.7275390625
-622.55859375
-623.47412109375
-631.7138671875
-628.96728515625
-627.13623046875
-626.220703125
-625.30517578125
-625.30517578125
-633.544921875
-626.220703125
-623.47412109375
-626.220703125
-617.98095703125
-619.81201171875
-627.13623046875
-626.220703125
-631.7138671875
-636.29150390625
-631.7138671875
-627.13623046875
-640.869140625
-636.29150390625
-622.55859375
-613.4033203125
-617.0654296875
-617.98095703125
-636.29150390625
-626.220703125
-620.7275390625
-625.30517578125
-628.96728515625
-629.8828125
-627.13623046875
-619.81201171875
-616.14990234375
-624.3896484375
-625.30517578125
-615.234375
-620.7275390625
-640.869140625
-627.13623046875
-634.46044921875
-635.3759765625
-631.7138671875
-628.0517578125
-631.7138671875
-635.3759765625
-634.46044921875
-632.62939453125
-641.78466796875
-639.95361328125
-639.0380859375
-643.61572265625
-638.12255859375
-641.78466796875
-641.78466796875
-648.193359375
-660.09521484375
-646.3623046875
-639.0380859375
-632.62939453125
-628.96728515625
-619.81201171875
-613.4033203125
-605.16357421875
-604.248046875
-596.923828125
-594.17724609375
-597.83935546875
-594.17724609375
-605.16357421875
-604.248046875
-598.7548828125
-592.34619140625
-589.599609375
-586.85302734375
-593.26171875
-598.7548828125
-590.51513671875
-600.5859375
-588.68408203125
-586.85302734375
-583.19091796875
-566.71142578125
-565.7958984375
-563.04931640625
-585.02197265625
-603.33251953125
-608.82568359375
-618.896484375
-626.220703125
-623.47412109375
-628.0517578125
-626.220703125
-631.7138671875
-626.220703125
-632.62939453125
-643.61572265625
-638.12255859375
-624.3896484375
-641.78466796875
-652.77099609375
-639.0380859375
-641.78466796875
-644.53125
-660.09521484375
-663.75732421875
-660.09521484375
-657.3486328125
-663.75732421875
-659.1796875
-662.841796875
-660.09521484375
-664.6728515625
-660.09521484375
-650.0244140625
-653.6865234375
-659.1796875
-669.25048828125
-668.3349609375
-670.166015625
-671.08154296875
-665.58837890625
-657.3486328125
-672.91259765625
-676.57470703125
-665.58837890625
-664.6728515625
-663.75732421875
-670.166015625
-663.75732421875
-670.166015625
-676.57470703125
-683.89892578125
-687.56103515625
-689.39208984375
-697.6318359375
-699.462890625
-669.25048828125
-624.3896484375
-560.302734375
-455.01708984375
-334.16748046875
-192.2607421875
-39.36767578125
148.3154296875
288.39111328125
402.83203125
506.28662109375
611.572265625
699.462890625
748.9013671875
719.6044921875
678.40576171875
605.16357421875
443.115234375
224.30419921875
-8.23974609375
-240.78369140625
-400.08544921875
-443.115234375
-471.49658203125
-494.384765625
-532.8369140625
-580.4443359375
-616.14990234375
-658.26416015625
-685.72998046875
-695.80078125
-686.6455078125
-686.6455078125
-681.15234375
-674.74365234375
-678.40576171875
-672.91259765625
-675.6591796875
-689.39208984375
-689.39208984375
-691.22314453125
-688.4765625
-689.39208984375
-689.39208984375
-680.23681640625
-674.74365234375
-683.89892578125
-686.6455078125
-689.39208984375
-677.490234375
-685.72998046875
-682.9833984375
-680.23681640625
-682.9833984375
-674.74365234375
-680.23681640625
-682.06787109375
-689.39208984375
-682.9833984375
-680.23681640625
-685.72998046875
-680.23681640625
-673.828125
-660.09521484375
-666.50390625
-679.3212890625
-671.9970703125
-663.75732421875
-670.166015625
-671.08154296875
-672.91259765625
-683.89892578125
-678.40576171875
-680.23681640625
-674.74365234375
-672.91259765625
-668.3349609375
-665.58837890625
-662.841796875
-671.9970703125
-676.57470703125
-673.828125
-674.74365234375
-670.166015625
-661.0107421875
-668.3349609375
-665.58837890625
-653.6865234375
-650.0244140625
-662.841796875
-661.92626953125
-646.3623046875
-649.10888671875
-662.841796875
-658.26416015625
-644.53125
-653.6865234375
-657.3486328125
-651.85546875
-652.77099609375
-661.92626953125
-655.517578125
-655.517578125
-655.517578125
-649.10888671875
-654.60205078125
-653.6865234375
-655.517578125
-652.77099609375
-650.0244140625
-659.1796875
-657.3486328125
-660.09521484375
-650.93994140625
-646.3623046875
-654.60205078125
-660.09521484375
-661.92626953125
-658.26416015625
-658.26416015625
-662.841796875
-660.09521484375
-671.9970703125
-667.41943359375
-651.85546875
-671.9970703125
-663.75732421875
-665.58837890625
-665.58837890625
-676.57470703125
-678.40576171875
-682.9833984375
-674.74365234375
-687.56103515625
-693.05419921875
-670.166015625
-665.58837890625
-674.74365234375
-671.9970703125
-669.25048828125
-669.25048828125
-682.9833984375
-683.89892578125
-682.9833984375
-668.3349609375
-670.166015625
-666.50390625
-671.08154296875
-659.1796875
-651.85546875
-650.0244140625
-658.26416015625
-664.6728515625
-654.60205078125
-648.193359375
-654.60205078125
-646.3623046875
-652.77099609375
-645.44677734375
-637.20703125
-639.0380859375
-635.3759765625
-643.61572265625
-650.0244140625
-645.44677734375
-643.61572265625
-651.85546875
-654.60205078125
-658.26416015625
-662.841796875
-651.85546875
-656.43310546875
-655.517578125
-644.53125
-647.27783203125
-649.10888671875
-643.61572265625
-640.869140625
-639.95361328125
-643.61572265625
-655.517578125
-644.53125
-646.3623046875
-638.12255859375
-639.95361328125
-633.544921875
-635.3759765625
-640.869140625
-635.3759765625
-640.869140625
-645.44677734375
-644.53125
-634.46044921875
-639.95361328125
-634.46044921875
-630.79833984375
-635.3759765625
-640.869140625
-645.44677734375
-634.46044921875
-637.20703125
-632.62939453125
-634.46044921875
-637.20703125
-632.62939453125
-635.3759765625
-639.95361328125
-642.7001953125
-623.47412109375
-626.220703125
-623.47412109375
-628.96728515625
-631.7138671875
-620.7275390625
-627.13623046875
-617.0654296875
-619.81201171875
-617.0654296875
-614.31884765625
-615.234375
-620.7275390625
-628.96728515625
-636.29150390625
-632.62939453125
-625.30517578125
-613.4033203125
-616.14990234375
-617.98095703125
-621.64306640625
-625.30517578125
-628.96728515625
-626.220703125
-624.3896484375
-617.0654296875
-621.64306640625
-627.13623046875
-636.29150390625
-634.46044921875
-639.0380859375
-647.27783203125
-640.869140625
-630.79833984375
-624.3896484375
-638.12255859375
-642.7001953125
-644.53125
-644.53125
-642.7001953125
-645.44677734375
-643.61572265625
-643.61572265625
-644.53125
-639.95361328125
-645.44677734375
-653.6865234375
-653.6865234375
-654.60205078125
-646.3623046875
-644.53125
-647.27783203125
-647.27783203125
-647.27783203125
-649.10888671875
-655.517578125
-658.26416015625
-653.6865234375
-651.85546875
-655.517578125
-653.6865234375
-655.517578125
-658.26416015625
-656.43310546875
-662.841796875
-665.58837890625
-656.43310546875
-661.92626953125
-653.6865234375
-657.3486328125
-663.75732421875
-663.75732421875
-652.77099609375
-648.193359375
-650.93994140625
-653.6865234375
-666.50390625
-675.6591796875
-663.75732421875
-664.6728515625
-662.841796875
-664.6728515625
-670.166015625
-670.166015625
-670.166015625
-665.58837890625
-661.92626953125
-662.841796875
-666.50390625
-659.1796875
-662.841796875
-661.0107421875
-665.58837890625
-664.6728515625
-658.26416015625
-657.3486328125
-652.77099609375
-646.3623046875
-643.61572265625
-637.20703125
-631.7138671875
-622.55859375
-634.46044921875
-612.48779296875
-603.33251953125
-610.65673828125
-617.98095703125
-612.48779296875
-619.81201171875
-618.896484375
-622.55859375
-621.64306640625
-621.64306640625
-619.81201171875
-620.7275390625
-610.65673828125
-606.99462890625
-605.16357421875
-595.0927734375
-600.5859375
-620.7275390625
-625.30517578125
-637.20703125
-647.27783203125
-653.6865234375
-665.58837890625
-655.517578125
-647.27783203125
-648.193359375
-656.43310546875
-657.3486328125
-642.7001953125
-650.0244140625
-650.0244140625
-653.6865234375
-661.0107421875
-657.3486328125
-659.1796875
-664.6728515625
-679.3212890625
-691.22314453125
-687.56103515625
-685.72998046875
-675.6591796875
-678.40576171875
-681.15234375
-679.3212890625
-680.23681640625
-680.23681640625
-684.814453125
-695.80078125
-691.22314453125
-683.89892578125
-692.138671875
-692.138671875
-687.56103515625
-688.4765625
-684.814453125
-687.56103515625
-671.9970703125
-670.166015625
-665.58837890625
-672.91259765625
-680.23681640625
-685.72998046875
-687.56103515625
-688.4765625
-693.9697265625
-703.125
-707.70263671875
-718.68896484375
-723.2666015625
-704.9560546875
-667.41943359375
-618.896484375
-543.8232421875
-433.04443359375
-317.68798828125
-167.54150390625
3.662109375
193.17626953125
333.251953125
440.36865234375
546.56982421875
652.77099609375
747.98583984375
764.46533203125
726.9287109375
679.3212890625
578.61328125
397.3388671875
171.20361328125
-87.890625
-322.265625
-434.87548828125
-471.49658203125
-498.96240234375
-527.34375
-560.302734375
-596.923828125
-624.3896484375
-675.6591796875
-682.9833984375
-690.3076171875
-687.56103515625
-681.15234375
-674.74365234375
-679.3212890625
-685.72998046875
-671.08154296875
-670.166015625
-673.828125
-687.56103515625
-696.71630859375
-687.56103515625
-693.05419921875
-700.37841796875
-701.2939453125
-696.71630859375
-695.80078125
-682.06787109375
-693.05419921875
-696.71630859375
-684.814453125
-695.80078125
-700.37841796875
-693.9697265625
-689.39208984375
-671.9970703125
-672.91259765625
-680.23681640625
-687.56103515625
-682.06787109375
-685.72998046875
-683.89892578125
-682.9833984375
-687.56103515625
-688.4765625
-682.9833984375
-683.89892578125
-682.9833984375
-684.814453125
-693.05419921875
-679.3212890625
-676.57470703125
-681.15234375
-684.814453125
-678.40576171875
-681.15234375
-680.23681640625
-671.9970703125
-671.08154296875
-672.91259765625
-676.57470703125
-676.57470703125
-685.72998046875
-673.828125
-676.57470703125
-687.56103515625
-673.828125
-665.58837890625
-664.6728515625
-665.58837890625
-680.23681640625
-670.166015625
-674.74365234375
-664.6728515625
-657.3486328125
-667.41943359375
-666.50390625
-662.841796875
-665.58837890625
-670.166015625
-666.50390625
-670.166015625
-672.91259765625
-673.828125
-666.50390625
-661.92626953125
-661.92626953125
-653.6865234375
-661.92626953125
-660.09521484375
-656.43310546875
-662.841796875
-666.50390625
-659.1796875
-653.6865234375
-651.85546875
-659.1796875
-663.75732421875
-661.92626953125
-666.50390625
-660.09521484375
-658.26416015625
-669.25048828125
-665.58837890625
-669.25048828125
-670.166015625
-665.58837890625
-662.841796875
-657.3486328125
-666.50390625
-678.40576171875
-673.828125
-675.6591796875
-671.08154296875
-670.166015625
-680.23681640625
-682.06787109375
-690.3076171875
-690.3076171875
-679.3212890625
-676.57470703125
-681.15234375
-683.89892578125
-681.15234375
-676.57470703125
-671.08154296875
-672.91259765625
-662.841796875
-662.841796875
-656.43310546875
-664.6728515625
-666.50390625
-671.08154296875
-658.26416015625
-656.43310546875
-652.77099609375
-654.60205078125
-656.43310546875
-656.43310546875
-650.93994140625
-647.27783203125
-655.517578125
-651.85546875
-661.92626953125
-658.26416015625
-661.0107421875
-658.26416015625
-667.41943359375
-665.58837890625
-655.517578125
-647.27783203125
-653.6865234375
-654.60205078125
-656.43310546875
-660.09521484375
-655.517578125
-659.1796875
-654.60205078125
-660.09521484375
-660.09521484375
-661.0107421875
-663.75732421875
-667.41943359375
-654.60205078125
-651.85546875
-654.60205078125
-650.0244140625
-639.0380859375
-651.85546875
-649.10888671875
-647.27783203125
-647.27783203125
-643.61572265625
-637.20703125
-637.20703125
-635.3759765625
-642.7001953125
-638.12255859375
-640.869140625
-639.0380859375
-635.3759765625
-634.46044921875
-638.12255859375
-632.62939453125
-637.20703125
-635.3759765625
-639.0380859375
-635.3759765625
-629.8828125
-632.62939453125
-633.544921875
-638.12255859375
-632.62939453125
-628.96728515625
-621.64306640625
-619.81201171875
-622.55859375
-625.30517578125
-625.30517578125
-622.55859375
-624.3896484375
-625.30517578125
-623.47412109375
-630.79833984375
-618.896484375
-628.0517578125
-635.3759765625
-638.12255859375
-629.8828125
-634.46044921875
-618.896484375
-619.81201171875
-628.0517578125
-633.544921875
-624.3896484375
-623.47412109375
-628.96728515625
-635.3759765625
-639.0380859375
-645.44677734375
-645.44677734375
-644.53125
-634.46044921875
-627.13623046875
-628.0517578125
-637.20703125
-639.95361328125
-635.3759765625
-635.3759765625
-646.3623046875
-639.0380859375
-652.77099609375
-657.3486328125
-647.27783203125
-639.95361328125
-643.61572265625
-650.93994140625
-653.6865234375
-649.10888671875
-656.43310546875
-655.517578125
-655.517578125
-651.85546875
-663.75732421875
-655.517578125
-652.77099609375
-657.3486328125
-660.09521484375
-661.92626953125
-662.841796875
-665.58837890625
-671.08154296875
-668.3349609375
-665.58837890625
-661.0107421875
-662.841796875
-667.41943359375
-662.841796875
-661.92626953125
-659.1796875
-663.75732421875
-670.166015625
-671.08154296875
-662.841796875
-668.3349609375
-661.92626953125
-662.841796875
-662.841796875
-659.1796875
-660.09521484375
-662.841796875
-661.92626953125
-672.91259765625
-671.9970703125
-663.75732421875
-663.75732421875
-661.0107421875
-666.50390625
-671.08154296875
-673.828125
-667.41943359375
-675.6591796875
-669.25048828125
-667.41943359375
-671.08154296875
-676.57470703125
-672.91259765625
-678.40576171875
-678.40576171875
-671.08154296875
-669.25048828125
-658.26416015625
-647.27783203125
-647.27783203125
-655.517578125
-662.841796875
-649.10888671875
-636.29150390625
-624.3896484375
-626.220703125
-617.0654296875
-617.98095703125
-616.14990234375
-610.65673828125
-609.7412109375
-616.14990234375
-610.65673828125
-611.572265625
-617.0654296875
-619.81201171875
-621.64306640625
-617.0654296875
-615.234375
-616.14990234375
-616.14990234375
-605.16357421875
-600.5859375
-618.896484375
-632.62939453125
-643.61572265625
-655.517578125
-649.10888671875
-664.6728515625
-660.09521484375
-661.0107421875
-651.85546875
-649.10888671875
-650.0244140625
-657.3486328125
-658.26416015625
-662.841796875
-665.58837890625
-673.828125
-668.3349609375
-663.75732421875
-670.166015625
-676.57470703125
-677.490234375
-679.3212890625
-683.89892578125
-687.56103515625
-686.6455078125
-691.22314453125
-685.72998046875
-689.39208984375
-684.814453125
-683.89892578125
-682.06787109375
-690.3076171875
-689.39208984375
-692.138671875
-687.56103515625
-683.89892578125
-690.3076171875
-691.22314453125
-691.22314453125
-685.72998046875
-686.6455078125
-693.05419921875
-688.4765625
-676.57470703125
-682.9833984375
-681.15234375
-690.3076171875
-698.54736328125
-702.20947265625
-710.44921875
-720.52001953125
-727.84423828125
-721.435546875
-687.56103515625
-639.0380859375
-559.38720703125
-451.35498046875
-331.4208984375
-193.17626953125
-31.1279296875
146.484375
287.4755859375
405.57861328125
520.93505859375
625.30517578125
717.7734375
760.80322265625
735.16845703125
704.9560546875
613.4033203125
456.84814453125
231.62841796875
-5.4931640625
-263.671875
-435.791015625
-480.65185546875
-515.44189453125
-550.23193359375
-588.68408203125
-620.7275390625
-657.3486328125
-678.40576171875
-689.39208984375
-682.9833984375
-660.09521484375
-663.75732421875
-671.08154296875
-669.25048828125
-666.50390625
-662.841796875
-680.23681640625
-680.23681640625
-690.3076171875
-704.9560546875
-689.39208984375
-693.05419921875
-688.4765625
-697.6318359375
-702.20947265625
-693.05419921875
-685.72998046875
-691.22314453125
-689.39208984375
-685.72998046875
-686.6455078125
-687.56103515625
-686.6455078125
-680.23681640625
-674.74365234375
-682.9833984375
-697.6318359375
-689.39208984375
-691.22314453125
-690.3076171875
-691.22314453125
-686.6455078125
-685.72998046875
-682.06787109375
-675.6591796875
-676.57470703125
-678.40576171875
-676.57470703125
-683.89892578125
-687.56103515625
-680.23681640625
-683.89892578125
-680.23681640625
-670.166015625
-671.9970703125
-679.3212890625
-683.89892578125
-674.74365234375
-680.23681640625
-682.06787109375
-683.89892578125
-685.72998046875
-684.814453125
-685.72998046875
-681.15234375
-671.08154296875
-667.41943359375
-667.41943359375
-664.6728515625
-664.6728515625
-656.43310546875
-659.1796875
-660.09521484375
-650.93994140625
-660.09521484375
-657.3486328125
-658.26416015625
-658.26416015625
-657.3486328125
-662.841796875
-654.60205078125
-661.92626953125
-658.26416015625
-648.193359375
-645.44677734375
-644.53125
-651.85546875
-653.6865234375
-649.10888671875
-653.6865234375
-653.6865234375
-651.85546875
-642.7001953125
-646.3623046875
-645.44677734375
-642.7001953125
-650.0244140625
-648.193359375
-639.0380859375
-639.95361328125
-650.0244140625
-648.193359375
-647.27783203125
-645.44677734375
-638.12255859375
-645.44677734375
-649.10888671875
-651.85546875
-654.60205078125
-655.517578125
-654.60205078125
-654.60205078125
-656.43310546875
-657.3486328125
-661.0107421875
-653.6865234375
-663.75732421875
-674.74365234375
-672.91259765625
-668.3349609375
-670.166015625
-663.75732421875
-658.26416015625
-666.50390625
-661.92626953125
-658.26416015625
-661.92626953125
-652.77099609375
-657.3486328125
-654.60205078125
-649.10888671875
-650.0244140625
-648.193359375
-636.29150390625
-643.61572265625
-638.12255859375
-639.95361328125
-648.193359375
-649.10888671875
-643.61572265625
-647.27783203125
-646.3623046875
-641.78466796875
-648.193359375
-650.0244140625
-639.95361328125
-648.193359375
-650.0244140625
-654.60205078125
-651.85546875
-652.77099609375
-662.841796875
-660.09521484375
-658.26416015625
-660.09521484375
-655.517578125
-651.85546875
-660.09521484375
-653.6865234375
-656.43310546875
-654.60205078125
-650.0244140625
-650.0244140625
-650.0244140625
-651.85546875
-658.26416015625
-661.0107421875
-661.92626953125
-654.60205078125
-655.517578125
-658.26416015625
-653.6865234375
-653.6865234375
-656.43310546875
-642.7001953125
-641.78466796875
-653.6865234375
-643.61572265625
-631.7138671875
-639.95361328125
-638.12255859375
-640.869140625
-640.869140625
-629.8828125
-634.46044921875
-632.62939453125
-633.544921875
-628.96728515625
-628.0517578125
-633.544921875
-632.62939453125
-635.3759765625
-636.29150390625
-628.0517578125
-628.0517578125
-632.62939453125
-630.79833984375
-635.3759765625
-628.0517578125
-632.62939453125
-634.46044921875
-628.96728515625
-621.64306640625
-616.14990234375
-617.98095703125
-628.96728515625
-631.7138671875
-636.29150390625
-632.62939453125
-628.96728515625
-625.30517578125
-621.64306640625
-627.13623046875
-626.220703125
-620.7275390625
-626.220703125
-624.3896484375
-625.30517578125
-626.220703125
-629.8828125
-639.0380859375
-641.78466796875
-641.78466796875
-641.78466796875
-647.27783203125
-641.78466796875
-635.3759765625
-637.20703125
-643.61572265625
-642.7001953125
-639.0380859375
-650.0244140625
-643.61572265625
-641.78466796875
-637.20703125
-635.3759765625
-646.3623046875
-650.93994140625
-645.44677734375
-643.61572265625
-656.43310546875
-650.0244140625
-652.77099609375
-655.517578125
-655.517578125
-656.43310546875
-662.841796875
-665.58837890625
-667.41943359375
-666.50390625
-665.58837890625
-653.6865234375
-651.85546875
-652.77099609375
-664.6728515625
-663.75732421875
-652.77099609375
-660.09521484375
-665.58837890625
-664.6728515625
-658.26416015625
-661.0107421875
-662.841796875
-658.26416015625
-659.1796875
-658.26416015625
-665.58837890625
-656.43310546875
-661.92626953125
-671.08154296875
-669.25048828125
-677.490234375
-672.91259765625
-671.08154296875
-663.75732421875
-652.77099609375
-668.3349609375
-665.58837890625
-670.166015625
-666.50390625
-659.1796875
-660.09521484375
-665.58837890625
-664.6728515625
-660.09521484375
-661.92626953125
-671.08154296875
-667.41943359375
-673.828125
-680.23681640625
-677.490234375
-675.6591796875
-665.58837890625
-662.841796875
-656.43310546875
-662.841796875
-661.92626953125
-661.92626953125
-668.3349609375
-671.08154296875
-665.58837890625
-673.828125
-671.9970703125
-670.166015625
-670.166015625
-666.50390625
-669.25048828125
-664.6728515625
-682.9833984375
-680.23681640625
-670.166015625
-682.06787109375
-689.39208984375
-668.3349609375
-664.6728515625
-662.841796875
-661.92626953125
-668.3349609375
-675.6591796875
-682.9833984375
-678.40576171875
-672.91259765625
-662.841796875
-655.517578125
-653.6865234375
-648.193359375
-650.93994140625
-649.10888671875
-644.53125
-639.95361328125
-629.8828125
-629.8828125
-623.47412109375
-621.64306640625
-620.7275390625
-627.13623046875
-632.62939453125
-629.8828125
-634.46044921875
-636.29150390625
-632.62939453125
-629.8828125
-626.220703125
-618.896484375
-617.0654296875
-612.48779296875
-620.7275390625
-633.544921875
-654.60205078125
-661.0107421875
-669.25048828125
-667.41943359375
-660.09521484375
-653.6865234375
-657.3486328125
-657.3486328125
-655.517578125
-662.841796875
-673.828125
-666.50390625
-673.828125
-680.23681640625
-676.57470703125
-682.06787109375
-685.72998046875
-684.814453125
-695.80078125
-688.4765625
-687.56103515625
-693.05419921875
-690.3076171875
-689.39208984375
-698.54736328125
-700.37841796875
-699.462890625
-697.6318359375
-704.9560546875
-692.138671875
-694.88525390625
-700.37841796875
-703.125
-701.2939453125
-693.05419921875
-687.56103515625
-693.9697265625
-698.54736328125
-697.6318359375
-698.54736328125
-697.6318359375
-698.54736328125
-692.138671875
-693.05419921875
-705.87158203125
-713.19580078125
-723.2666015625
-723.2666015625
-739.74609375
-736.99951171875
-720.52001953125
-689.39208984375
-636.29150390625
-553.89404296875
-441.2841796875
-329.58984375
-177.6123046875
-7.32421875
167.54150390625
308.53271484375
415.6494140625
528.25927734375
633.544921875
715.02685546875
755.31005859375
724.18212890625
676.57470703125
578.61328125
399.169921875
171.20361328125
-77.81982421875
-325.927734375
-473.32763671875
-518.1884765625
-545.654296875
-580.4443359375
-604.248046875
-628.0517578125
-666.50390625
-682.9833984375
-680.23681640625
-682.06787109375
-678.40576171875
-677.490234375
-674.74365234375
-671.08154296875
-676.57470703125
-682.06787109375
-693.05419921875
-693.05419921875
-694.88525390625
-702.20947265625
-705.87158203125
-701.2939453125
-689.39208984375
-688.4765625
-691.22314453125
-698.54736328125
-703.125
-698.54736328125
-699.462890625
-702.20947265625
-698.54736328125
-701.2939453125
-697.6318359375
-703.125
-704.9560546875
-703.125
-704.04052734375
-702.20947265625
-698.54736328125
-693.05419921875
-691.22314453125
-694.88525390625
-693.05419921875
-693.9697265625
-692.138671875
-694.88525390625
-700.37841796875
-696.71630859375
-693.05419921875
-697.6318359375
-693.9697265625
-688.4765625
-686.6455078125
-693.05419921875
-697.6318359375
-682.9833984375
-678.40576171875
-680.23681640625
-684.814453125
-689.39208984375
-689.39208984375
-686.6455078125
-684.814453125
-695.80078125
-690.3076171875
-676.57470703125
-676.57470703125
-677.490234375
-669.25048828125
-673.828125
-682.06787109375
-683.89892578125
-676.57470703125
-677.490234375
-677.490234375
-666.50390625
-663.75732421875
-669.25048828125
-669.25048828125
-676.57470703125
-682.06787109375
-675.6591796875
-672.91259765625
-674.74365234375
-671.08154296875
-663.75732421875
-671.08154296875
-664.6728515625
-660.09521484375
-661.0107421875
-661.92626953125
-662.841796875
-663.75732421875
-651.85546875
-650.93994140625
-650.93994140625
-653.6865234375
-651.85546875
-647.27783203125
-650.0244140625
-651.85546875
-646.3623046875
-646.3623046875
-650.0244140625
-653.6865234375
-661.92626953125
-657.3486328125
-663.75732421875
-664.6728515625
-670.166015625
-672.91259765625
-671.08154296875
-655.517578125
-658.26416015625
-660.09521484375
-662.841796875
-661.0107421875
-668.3349609375
-668.3349609375
-664.6728515625
-669.25048828125
-667.41943359375
-668.3349609375
-661.92626953125
-658.26416015625
-659.1796875
-660.09521484375
-661.0107421875
-662.841796875
-662.841796875
-657.3486328125
-650.0244140625
-652.77099609375
-653.6865234375
-651.85546875
-649.10888671875
-657.3486328125
-658.26416015625
-655.517578125
-653.6865234375
-651.85546875
-645.44677734375
-650.0244140625
-649.10888671875
-650.0244140625
-649.10888671875
-654.60205078125
-658.26416015625
-661.0107421875
-657.3486328125
-656.43310546875
-654.60205078125
-661.92626953125
-659.1796875
-650.0244140625
-649.10888671875
-658.26416015625
-661.92626953125
-661.92626953125
-661.0107421875
-655.517578125
-657.3486328125
-655.517578125
-655.517578125
-672.91259765625
-673.828125
-669.25048828125
-662.841796875
-663.75732421875
-655.517578125
-650.0244140625
-648.193359375
-639.0380859375
-639.95361328125
-636.29150390625
-642.7001953125
-647.27783203125
-646.3623046875
-650.0244140625
-660.09521484375
-644.53125
-639.0380859375
-640.869140625
-639.95361328125
-633.544921875
-628.96728515625
-636.29150390625
-639.0380859375
-636.29150390625
-637.20703125
-628.96728515625
-629.8828125
-637.20703125
-637.20703125
-638.12255859375
-637.20703125
-644.53125
-648.193359375
-637.20703125
-632.62939453125
-627.13623046875
-623.47412109375
-631.7138671875
-628.96728515625
-629.8828125
-639.0380859375
-642.7001953125
-628.96728515625
-627.13623046875
-630.79833984375
-633.544921875
-636.29150390625
-637.20703125
-629.8828125
-629.8828125
-630.79833984375
-630.79833984375
-640.869140625
-639.95361328125
-642.7001953125
-644.53125
-636.29150390625
-627.13623046875
-637.20703125
-638.12255859375
-639.95361328125
-650.0244140625
-647.27783203125
-650.0244140625
-663.75732421875
-652.77099609375
-650.0244140625
-645.44677734375
-650.0244140625
-652.77099609375
-654.60205078125
-657.3486328125
-653.6865234375
-650.93994140625
-652.77099609375
-658.26416015625
-655.517578125
-663.75732421875
-652.77099609375
-656.43310546875
-650.93994140625
-655.517578125
-651.85546875
-657.3486328125
-661.0107421875
-658.26416015625
-660.09521484375
-664.6728515625
-664.6728515625
-665.58837890625
-663.75732421875
-670.166015625
-671.08154296875
-663.75732421875
-662.841796875
-661.92626953125
-667.41943359375
-671.08154296875
-669.25048828125
-667.41943359375
-666.50390625
-672.91259765625
-676.57470703125
-670.166015625
-669.25048828125
-672.91259765625
-675.6591796875
-672.91259765625
-681.15234375
-674.74365234375
-671.9970703125
-670.166015625
-669.25048828125
-671.08154296875
-667.41943359375
-667.41943359375
-666.50390625
-666.50390625
-665.58837890625
-664.6728515625
-665.58837890625
-667.41943359375
-672.91259765625
-667.41943359375
-663.75732421875
-665.58837890625
-676.57470703125
-675.6591796875
-675.6591796875
-684.814453125
-682.06787109375
-672.91259765625
-666.50390625
-674.74365234375
-678.40576171875
-674.74365234375
-675.6591796875
-673.828125
-666.50390625
-676.57470703125
-683.89892578125
-688.4765625
-683.89892578125
-674.74365234375
-675.6591796875
-675.6591796875
-672.91259765625
-668.3349609375
-682.06787109375
-678.40576171875
-676.57470703125
-685.72998046875
-684.814453125
-683.89892578125
-682.06787109375
-680.23681640625
-682.9833984375
-681.15234375
-682.06787109375
-689.39208984375
-688.4765625
-681.15234375
-683.89892578125
-690.3076171875
-680.23681640625
-675.6591796875
-671.9970703125
-664.6728515625
-666.50390625
-671.08154296875
-675.6591796875
-666.50390625
-650.93994140625
-637.20703125
-622.55859375
-613.4033203125
-619.81201171875
-635.3759765625
-636.29150390625
-631.7138671875
-626.220703125
-617.0654296875
-613.4033203125
-615.234375
-609.7412109375
-620.7275390625
-633.544921875
-650.0244140625
-659.1796875
-662.841796875
-661.92626953125
-659.1796875
-655.517578125
-653.6865234375
-653.6865234375
-658.26416015625
-661.0107421875
-654.60205078125
-670.166015625
-682.9833984375
-678.40576171875
-675.6591796875
-685.72998046875
-688.4765625
-693.9697265625
-697.6318359375
-700.37841796875
-699.462890625
-701.2939453125
-699.462890625
-682.06787109375
-678.40576171875
-687.56103515625
-692.138671875
-698.54736328125
-700.37841796875
-699.462890625
-693.9697265625
-689.39208984375
-693.05419921875
-700.37841796875
-692.138671875
-694.88525390625
-688.4765625
-684.814453125
-683.89892578125
-687.56103515625
-683.89892578125
-684.814453125
-692.138671875
-688.4765625
-692.138671875
-716.85791015625
-724.18212890625
-730.5908203125
-735.16845703125
-734.2529296875
-726.9287109375
-676.57470703125
-628.96728515625
-543.8232421875
-430.2978515625
-330.50537109375
-189.51416015625
-12.8173828125
154.72412109375
297.54638671875
407.40966796875
517.27294921875
618.896484375
700.37841796875
727.84423828125
694.88525390625
650.93994140625
549.31640625
376.28173828125
152.89306640625
-82.3974609375
-318.603515625
-457.763671875
-505.37109375
-540.1611328125
-572.20458984375
-609.7412109375
-646.3623046875
-682.9833984375
-677.490234375
-682.06787109375
-676.57470703125
-674.74365234375
-673.828125
-676.57470703125
-681.15234375
-680.23681640625
-679.3212890625
-687.56103515625
-697.6318359375
-704.9560546875
-703.125
-703.125
-708.6181640625
-703.125
-694.88525390625
-702.20947265625
-708.6181640625
-707.70263671875
-716.85791015625
-715.9423828125
-710.44921875
-715.02685546875
-714.111328125
-701.2939453125
-688.4765625
-692.138671875
-697.6318359375
-701.2939453125
-694.88525390625
-700.37841796875
-694.88525390625
-690.3076171875
-692.138671875
-698.54736328125
-695.80078125
-701.2939453125
-703.125
-704.9560546875
-703.125
-693.05419921875
-681.15234375
-690.3076171875
-691.22314453125
-689.39208984375
-684.814453125
-688.4765625
-688.4765625
-667.41943359375
-675.6591796875
-685.72998046875
-675.6591796875
-674.74365234375
-683.89892578125
-685.72998046875
-684.814453125
-681.15234375
-682.9833984375
-693.9697265625
-688.4765625
-678.40576171875
-668.3349609375
-677.490234375
-676.57470703125
-675.6591796875
-681.15234375
-681.15234375
-680.23681640625
-663.75732421875
-658.26416015625
-654.60205078125
-658.26416015625
-658.26416015625
-646.3623046875
-650.93994140625
-662.841796875
-654.60205078125
-655.517578125
-657.3486328125
-646.3623046875
-651.85546875
-653.6865234375
-653.6865234375
-648.193359375
-649.10888671875
-652.77099609375
-646.3623046875
-644.53125
-643.61572265625
-642.7001953125
-638.12255859375
-644.53125
-650.0244140625
-653.6865234375
-660.09521484375
-658.26416015625
-653.6865234375
-642.7001953125
-653.6865234375
-664.6728515625
-666.50390625
-668.3349609375
-670.166015625
-661.92626953125
-659.1796875
-667.41943359375
-671.9970703125
-671.9970703125
-678.40576171875
-674.74365234375
-671.08154296875
-682.9833984375
-681.15234375
-685.72998046875
-677.490234375
-662.841796875
-657.3486328125
-661.92626953125
-652.77099609375
-647.27783203125
-647.27783203125
-643.61572265625
-652.77099609375
-651.85546875
-652.77099609375
-648.193359375
-645.44677734375
-648.193359375
-654.60205078125
-646.3623046875
-639.95361328125
-640.869140625
-639.95361328125
-638.12255859375
-641.78466796875
-649.10888671875
-654.60205078125
-654.60205078125
-658.26416015625
-653.6865234375
-656.43310546875
-652.77099609375
-654.60205078125
-654.60205078125
-650.93994140625
-656.43310546875
-659.1796875
-661.0107421875
-654.60205078125
-662.841796875
-671.08154296875
-670.166015625
-666.50390625
-663.75732421875
-667.41943359375
-664.6728515625
-664.6728515625
-670.166015625
-671.9970703125
-661.0107421875
-668.3349609375
-656.43310546875
-646.3623046875
-650.0244140625
-647.27783203125
-640.869140625
-631.7138671875
-633.544921875
-639.0380859375
-643.61572265625
-629.8828125
-629.8828125
-620.7275390625
-625.30517578125
-630.79833984375
-633.544921875
-641.78466796875
-629.8828125
-631.7138671875
-630.79833984375
-628.0517578125
-629.8828125
-626.220703125
-632.62939453125
-634.46044921875
-628.96728515625
-629.8828125
-640.869140625
-646.3623046875
-645.44677734375
-631.7138671875
-629.8828125
-630.79833984375
-633.544921875
-623.47412109375
-621.64306640625
-630.79833984375
-631.7138671875
-630.79833984375
-635.3759765625
-631.7138671875
-628.96728515625
-637.20703125
-639.0380859375
-639.0380859375
-633.544921875
-644.53125
-631.7138671875
-640.869140625
-640.869140625
-650.0244140625
-650.0244140625
-639.95361328125
-647.27783203125
-640.869140625
-644.53125
-650.0244140625
-649.10888671875
-651.85546875
-647.27783203125
-648.193359375
-663.75732421875
-668.3349609375
-664.6728515625
-652.77099609375
-648.193359375
-652.77099609375
-655.517578125
-663.75732421875
-671.9970703125
-676.57470703125
-671.08154296875
-657.3486328125
-678.40576171875
-674.74365234375
-677.490234375
-680.23681640625
-671.9970703125
-682.06787109375
-682.9833984375
-685.72998046875
-690.3076171875
-686.6455078125
-684.814453125
-677.490234375
-681.15234375
-693.05419921875
-687.56103515625
-683.89892578125
-690.3076171875
-689.39208984375
-689.39208984375
-688.4765625
-693.05419921875
-700.37841796875
-699.462890625
-695.80078125
-699.462890625
-698.54736328125
-702.20947265625
-704.04052734375
-682.06787109375
-682.06787109375
-692.138671875
-703.125
-710.44921875
-709.53369140625
-704.04052734375
-695.80078125
-699.462890625
-693.05419921875
-696.71630859375
-704.04052734375
-691.22314453125
-706.787109375
-704.9560546875
-702.20947265625
-711.36474609375
-705.87158203125
-703.125
-704.04052734375
-697.6318359375
-689.39208984375
-700.37841796875
-711.36474609375
-699.462890625
-697.6318359375
-699.462890625
-694.88525390625
-712.2802734375
-714.111328125
-706.787109375
-701.2939453125
-707.70263671875
-711.36474609375
-695.80078125
-706.787109375
-710.44921875
-702.20947265625
-696.71630859375
-693.05419921875
-691.22314453125
-683.89892578125
-687.56103515625
-697.6318359375
-691.22314453125
-676.57470703125
-675.6591796875
-667.41943359375
-668.3349609375
-672.91259765625
-673.828125
-659.1796875
-652.77099609375
-652.77099609375
-647.27783203125
-651.85546875
-649.10888671875
-643.61572265625
-652.77099609375
-663.75732421875
-666.50390625
-673.828125
-675.6591796875
-675.6591796875
-673.828125
-671.9970703125
-682.06787109375
-691.22314453125
-692.138671875
-687.56103515625
-685.72998046875
-702.20947265625
-708.6181640625
-711.36474609375
-698.54736328125
-702.20947265625
-700.37841796875
-711.36474609375
-717.7734375
-713.19580078125
-704.04052734375
-712.2802734375
-718.68896484375
-735.16845703125
-731.50634765625
-730.5908203125
-727.84423828125
-730.5908203125
-723.2666015625
-714.111328125
-704.9560546875
-715.02685546875
-712.2802734375
-722.35107421875
-719.6044921875
-715.02685546875
-710.44921875
-718.68896484375
-723.2666015625
-720.52001953125
-724.18212890625
-702.20947265625
-706.787109375
-714.111328125
-732.421875
-743.408203125
-749.81689453125
-760.80322265625
-758.97216796875
-758.97216796875
-717.7734375
-674.74365234375
-622.55859375
-526.42822265625
-407.40966796875
-262.75634765625
-92.46826171875
87.890625
243.5302734375
357.97119140625
465.087890625
572.20458984375
663.75732421875
704.9560546875
684.814453125
645.44677734375
574.951171875
429.38232421875
213.31787109375
-42.1142578125
-290.22216796875
-453.18603515625
-499.8779296875
-523.681640625
-541.9921875
-582.275390625
-618.896484375
-658.26416015625
-700.37841796875
-730.5908203125
-742.49267578125
-727.84423828125
-726.01318359375
-724.18212890625
-716.85791015625
-716.85791015625
-720.52001953125
-721.435546875
-724.18212890625
-731.50634765625
-718.68896484375
-725.09765625
-731.50634765625
-737.9150390625
-739.74609375
-732.421875
-735.16845703125
-741.5771484375
-731.50634765625
-722.35107421875
-736.99951171875
-736.083984375
-738.83056640625
-734.2529296875
-725.09765625
-726.9287109375
-729.67529296875
-730.5908203125
-723.2666015625
-732.421875
-734.2529296875
-729.67529296875
-727.84423828125
-726.01318359375
-721.435546875
-735.16845703125
-740.66162109375
-722.35107421875
-722.35107421875
-725.09765625
-726.9287109375
-730.5908203125
-723.2666015625
-724.18212890625
-729.67529296875
-731.50634765625
-721.435546875
-716.85791015625
-706.787109375
-715.02685546875
-719.6044921875
-719.6044921875
-718.68896484375
-726.01318359375
-718.68896484375
-723.2666015625
-724.18212890625
-726.01318359375
-716.85791015625
-713.19580078125
-712.2802734375
-722.35107421875
-728.759765625
-719.6044921875
-708.6181640625
-715.9423828125
-727.84423828125
-709.53369140625
-714.111328125
-723.2666015625
-711.36474609375
-713.19580078125
-715.02685546875
-718.68896484375
-712.2802734375
-720.52001953125
-726.01318359375
-724.18212890625
-725.09765625
-726.01318359375
-717.7734375
-734.2529296875
-727.84423828125
-723.2666015625
-722.35107421875
-729.67529296875
-724.18212890625
-726.9287109375
-720.52001953125
-724.18212890625
-719.6044921875
-723.2666015625
-726.01318359375
-722.35107421875
-725.09765625
-725.09765625
-723.2666015625
-732.421875
-730.5908203125
-736.083984375
-731.50634765625
-740.66162109375
-737.9150390625
-736.083984375
-746.15478515625
-742.49267578125
-754.39453125
-747.98583984375
-734.2529296875
-736.99951171875
-742.49267578125
-740.66162109375
-742.49267578125
-747.98583984375
-749.81689453125
-750.732421875
-736.99951171875
-733.33740234375
-729.67529296875
-721.435546875
-721.435546875
-734.2529296875
-730.5908203125
-724.18212890625
-704.04052734375
-716.85791015625
-725.09765625
-718.68896484375
-706.787109375
-721.435546875
-715.02685546875
-713.19580078125
-701.2939453125
-704.9560546875
-698.54736328125
-711.36474609375
-713.19580078125
-705.87158203125
-710.44921875
-713.19580078125
-711.36474609375
-713.19580078125
-714.111328125
-714.111328125
-714.111328125
-711.36474609375
-712.2802734375
-718.68896484375
-715.02685546875
-707.70263671875
-705.87158203125
-705.87158203125
-713.19580078125
-715.9423828125
-714.111328125
-708.6181640625
-713.19580078125
-715.9423828125
-706.787109375
-709.53369140625
-705.87158203125
-700.37841796875
-705.87158203125
-715.9423828125
-707.70263671875
-709.53369140625
-702.20947265625
-693.05419921875
-693.05419921875
-702.20947265625
-698.54736328125
-690.3076171875
-693.9697265625
-692.138671875
-695.80078125
-689.39208984375
-680.23681640625
-682.06787109375
-683.89892578125
-685.72998046875
-682.9833984375
-684.814453125
-691.22314453125
-692.138671875
-695.80078125
-693.05419921875
-692.138671875
-680.23681640625
-670.166015625
-682.06787109375
-693.05419921875
-692.138671875
-700.37841796875
-686.6455078125
-671.9970703125
-668.3349609375
-680.23681640625
-683.89892578125
-680.23681640625
-682.06787109375
-687.56103515625
-688.4765625
-689.39208984375
-691.22314453125
-689.39208984375
-690.3076171875
-692.138671875
-693.9697265625
-690.3076171875
-690.3076171875
-693.9697265625
-693.9697265625
-694.88525390625
-701.2939453125
-697.6318359375
-700.37841796875
-710.44921875
-716.85791015625
-715.02685546875
-715.02685546875
-707.70263671875
-698.54736328125
-694.88525390625
-697.6318359375
-694.88525390625
-704.04052734375
-718.68896484375
-708.6181640625
-716.85791015625
-719.6044921875
-704.9560546875
-705.87158203125
-713.19580078125
-719.6044921875
-715.9423828125
-723.2666015625
-716.85791015625
-722.35107421875
-725.09765625
-718.68896484375
-726.9287109375
-726.01318359375
-720.52001953125
-715.02685546875
-719.6044921875
-722.35107421875
-732.421875
-726.01318359375
-715.9423828125
-718.68896484375
-725.09765625
-722.35107421875
-723.2666015625
-731.50634765625
-722.35107421875
-725.09765625
-715.02685546875
-721.435546875
-718.68896484375
-720.52001953125
-725.09765625
-717.7734375
-731.50634765625
-736.083984375
-731.50634765625
-726.9287109375
-719.6044921875
-722.35107421875
-726.01318359375
-716.85791015625
-722.35107421875
-722.35107421875
-720.52001953125
-726.9287109375
-715.9423828125
-713.19580078125
-715.02685546875
-706.787109375
-715.02685546875
-715.02685546875
-696.71630859375
-700.37841796875
-700.37841796875
-696.71630859375
-692.138671875
-684.814453125
-682.06787109375
-688.4765625
-681.15234375
-677.490234375
-671.08154296875
-658.26416015625
-659.1796875
-653.6865234375
-650.93994140625
-652.77099609375
-667.41943359375
-671.08154296875
-678.40576171875
-686.6455078125
-693.05419921875
-695.80078125
-693.9697265625
-690.3076171875
-699.462890625
-704.9560546875
-697.6318359375
-691.22314453125
-695.80078125
-706.787109375
-705.87158203125
-708.6181640625
-708.6181640625
-711.36474609375
-707.70263671875
-725.09765625
-736.083984375
-729.67529296875
-733.33740234375
-724.18212890625
-720.52001953125
-719.6044921875
-719.6044921875
-731.50634765625
-736.083984375
-724.18212890625
-728.759765625
-726.9287109375
-736.99951171875
-734.2529296875
-730.5908203125
-725.09765625
-725.09765625
-729.67529296875
-735.16845703125
-726.01318359375
-726.9287109375
-726.01318359375
-729.67529296875
-735.16845703125
-727.84423828125
-718.68896484375
-729.67529296875
-749.81689453125
-750.732421875
-770.8740234375
-774.5361328125
-773.62060546875
-757.14111328125
-726.01318359375
-683.89892578125
-615.234375
-507.2021484375
-390.93017578125
-253.60107421875
-86.0595703125
109.86328125
253.60107421875
386.3525390625
494.384765625
596.923828125
684.814453125
715.9423828125
669.25048828125
628.0517578125
541.9921875
387.26806640625
167.54150390625
-95.21484375
-334.16748046875
-479.736328125
-515.44189453125
-543.8232421875
-578.61328125
-623.47412109375
-664.6728515625
-700.37841796875
-738.83056640625
-742.49267578125
-738.83056640625
-737.9150390625
-733.33740234375
-744.32373046875
-746.15478515625
-732.421875
-726.01318359375
-732.421875
-736.083984375
-742.49267578125
-747.98583984375
-742.49267578125
-749.81689453125
-747.98583984375
-751.64794921875
-761.71875
-752.5634765625
-737.9150390625
-744.32373046875
-748.9013671875
-729.67529296875
-730.5908203125
-744.32373046875
-726.9287109375
-751.64794921875
-753.47900390625
-732.421875
-729.67529296875
-730.5908203125
-736.99951171875
-738.83056640625
-734.2529296875
-733.33740234375
-722.35107421875
-734.2529296875
-727.84423828125
-728.759765625
-726.01318359375
-732.421875
-735.16845703125
-731.50634765625
-729.67529296875
-732.421875
-726.9287109375
-731.50634765625
-737.9150390625
-737.9150390625
-736.99951171875
-728.759765625
-734.2529296875
-734.2529296875
-733.33740234375
-733.33740234375
-735.16845703125
-729.67529296875
-726.01318359375
-733.33740234375
-731.50634765625
-726.9287109375
-731.50634765625
-729.67529296875
-729.67529296875
-736.083984375
-730.5908203125
-731.50634765625
-732.421875
-730.5908203125
-728.759765625
-721.435546875
-715.9423828125
-704.04052734375
-701.2939453125
-707.70263671875
-708.6181640625
-713.19580078125
-709.53369140625
-717.7734375
-726.01318359375
-727.84423828125
-710.44921875
-713.19580078125
-706.787109375
-711.36474609375
-710.44921875
-713.19580078125
-712.2802734375
-711.36474609375
-710.44921875
-706.787109375
-706.787109375
-712.2802734375
-710.44921875
-715.02685546875
-713.19580078125
-724.18212890625
-724.18212890625
-720.52001953125
-725.09765625
-727.84423828125
-729.67529296875
-731.50634765625
-735.16845703125
-740.66162109375
-736.99951171875
-739.74609375
-745.2392578125
-742.49267578125
-747.0703125
-740.66162109375
-728.759765625
-720.52001953125
-736.083984375
-746.15478515625
-740.66162109375
-731.50634765625
-726.01318359375
-722.35107421875
-722.35107421875
-725.09765625
-719.6044921875
-715.02685546875
-719.6044921875
-711.36474609375
-716.85791015625
-718.68896484375
-721.435546875
-727.84423828125
-725.09765625
-712.2802734375
-716.85791015625
-704.9560546875
-704.9560546875
-706.787109375
-704.04052734375
-712.2802734375
-713.19580078125
-718.68896484375
-717.7734375
-721.435546875
-716.85791015625
-711.36474609375
-708.6181640625
-713.19580078125
-717.7734375
-719.6044921875
-715.9423828125
-715.9423828125
-717.7734375
-715.02685546875
-725.09765625
-726.01318359375
-722.35107421875
-717.7734375
-720.52001953125
-723.2666015625
-722.35107421875
-724.18212890625
-709.53369140625
-701.2939453125
-707.70263671875
-713.19580078125
-715.02685546875
-715.9423828125
-707.70263671875
-712.2802734375
-704.04052734375
-697.6318359375
-701.2939453125
-700.37841796875
-707.70263671875
-706.787109375
-701.2939453125
-695.80078125
-688.4765625
-695.80078125
-690.3076171875
-693.9697265625
-692.138671875
-695.80078125
-696.71630859375
-695.80078125
-691.22314453125
-688.4765625
-686.6455078125
-690.3076171875
-692.138671875
-684.814453125
-682.06787109375
-683.89892578125
-682.06787109375
-687.56103515625
-688.4765625
-690.3076171875
-680.23681640625
-681.15234375
-687.56103515625
-695.80078125
-687.56103515625
-687.56103515625
-698.54736328125
-694.88525390625
-679.3212890625
-673.828125
-684.814453125
-690.3076171875
-689.39208984375
-687.56103515625
-678.40576171875
-683.89892578125
-682.06787109375
-677.490234375
-688.4765625
-700.37841796875
-705.87158203125
-698.54736328125
-696.71630859375
-694.88525390625
-702.20947265625
-706.787109375
-703.125
-705.87158203125
-704.04052734375
-707.70263671875
-702.20947265625
-706.787109375
-704.04052734375
-706.787109375
-707.70263671875
-705.87158203125
-709.53369140625
-704.9560546875
-704.04052734375
-717.7734375
-729.67529296875
-716.85791015625
-711.36474609375
-705.87158203125
-704.04052734375
-710.44921875
-714.111328125
-720.52001953125
-714.111328125
-712.2802734375
-714.111328125
-714.111328125
-707.70263671875
-709.53369140625
-714.111328125
-721.435546875
-728.759765625
-714.111328125
-721.435546875
-722.35107421875
-721.435546875
-726.01318359375
-721.435546875
-719.6044921875
-712.2802734375
-720.52001953125
-721.435546875
-723.2666015625
-727.84423828125
-726.01318359375
-731.50634765625
-727.84423828125
-724.18212890625
-728.759765625
-728.759765625
-738.83056640625
-731.50634765625
-726.01318359375
-721.435546875
-723.2666015625
-710.44921875
-726.9287109375
-731.50634765625
-724.18212890625
-715.02685546875
-719.6044921875
-725.09765625
-720.52001953125
-714.111328125
-719.6044921875
-717.7734375
-725.09765625
-729.67529296875
-730.5908203125
-721.435546875
-726.01318359375
-726.9287109375
-719.6044921875
-724.18212890625
-729.67529296875
-728.759765625
-722.35107421875
-726.01318359375
-726.01318359375
-722.35107421875
-719.6044921875
-729.67529296875
-726.01318359375
-721.435546875
-720.52001953125
-721.435546875
-728.759765625
-734.2529296875
-730.5908203125
-726.9287109375
-742.49267578125
-736.99951171875
-726.9287109375
-715.9423828125
-707.70263671875
-702.20947265625
-716.85791015625
-707.70263671875
-704.04052734375
-690.3076171875
-677.490234375
-694.88525390625
-693.05419921875
-686.6455078125
-682.9833984375
-666.50390625
-671.9970703125
-681.15234375
-663.75732421875
-651.85546875
-670.166015625
-689.39208984375
-691.22314453125
-703.125
-709.53369140625
-706.787109375
-708.6181640625
-704.04052734375
-708.6181640625
-709.53369140625
-697.6318359375
-705.87158203125
-711.36474609375
-710.44921875
-731.50634765625
-726.01318359375
-721.435546875
-726.01318359375
-726.01318359375
-721.435546875
-733.33740234375
-739.74609375
-743.408203125
-749.81689453125
-743.408203125
-737.9150390625
-734.2529296875
-737.9150390625
-736.083984375
-740.66162109375
-749.81689453125
-740.66162109375
-741.5771484375
-739.74609375
-736.99951171875
-742.49267578125
-736.083984375
-747.0703125
-746.15478515625
-743.408203125
-742.49267578125
-736.99951171875
-736.083984375
-736.083984375
-745.2392578125
-745.2392578125
-749.81689453125
-759.8876953125
-775.45166015625
-784.60693359375
-781.8603515625
-779.11376953125
-747.98583984375
-715.02685546875
-651.85546875
-563.96484375
-446.77734375
-327.7587890625
-173.03466796875
12.8173828125
175.78125
308.53271484375
430.2978515625
531.92138671875
628.96728515625
694.88525390625
701.2939453125
664.6728515625
596.00830078125
488.8916015625
287.4755859375
42.1142578125
-202.33154296875
-433.04443359375
-539.24560546875
-578.61328125
-606.0791015625
-639.0380859375
-666.50390625
-702.20947265625
-726.01318359375
-742.49267578125
-741.5771484375
-734.2529296875
-737.9150390625
-725.09765625
-736.083984375
-732.421875
-735.16845703125
-739.74609375
-742.49267578125
-751.64794921875
-749.81689453125
-747.0703125
-745.2392578125
-745.2392578125
-748.9013671875
-754.39453125
-761.71875
-748.9013671875
-745.2392578125
-749.81689453125
-749.81689453125
-749.81689453125
-759.8876953125
-765.380859375
-763.5498046875
-760.80322265625
-758.056640625
-757.14111328125
-753.47900390625
-746.15478515625
-743.408203125
-752.5634765625
-759.8876953125
-751.64794921875
-750.732421875
-757.14111328125
-748.9013671875
-753.47900390625
-748.9013671875
-751.64794921875
-751.64794921875
-751.64794921875
-745.2392578125
-744.32373046875
-738.83056640625
-738.83056640625
-742.49267578125
-747.98583984375
-750.732421875
-758.97216796875
-755.31005859375
-737.9150390625
-729.67529296875
-732.421875
-738.83056640625
-736.083984375
-735.16845703125
-736.99951171875
-731.50634765625
-726.9287109375
-727.84423828125
-723.2666015625
-726.01318359375
-726.01318359375
-724.18212890625
-721.435546875
-726.9287109375
-722.35107421875
-708.6181640625
-713.19580078125
-718.68896484375
-715.9423828125
-707.70263671875
-702.20947265625
-707.70263671875
-720.52001953125
-712.2802734375
-715.9423828125
-715.02685546875
-711.36474609375
-710.44921875
-709.53369140625
-705.87158203125
-702.20947265625
-698.54736328125
-693.05419921875
-698.54736328125
-704.04052734375
-700.37841796875
-697.6318359375
-697.6318359375
-689.39208984375
-696.71630859375
-703.125
-702.20947265625
-708.6181640625
-711.36474609375
-704.9560546875
-702.20947265625
-708.6181640625
-708.6181640625
-710.44921875
-717.7734375
-720.52001953125
-720.52001953125
-720.52001953125
-715.9423828125
-721.435546875
-723.2666015625
-720.52001953125
-720.52001953125
-717.7734375
-716.85791015625
-711.36474609375
-709.53369140625
-705.87158203125
-711.36474609375
-721.435546875
-713.19580078125
-700.37841796875
-702.20947265625
-703.125
-704.04052734375
-708.6181640625
-713.19580078125
-715.9423828125
-705.87158203125
-715.02685546875
-706.787109375
-694.88525390625
-700.37841796875
-694.88525390625
-698.54736328125
-696.71630859375
-700.37841796875
-703.125
-704.04052734375
-704.9560546875
-704.9560546875
-701.2939453125
-704.04052734375
-704.9560546875
-713.19580078125
-712.2802734375
-713.19580078125
-707.70263671875
-708.6181640625
-715.9423828125
-715.9423828125
-717.7734375
-722.35107421875
-722.35107421875
-716.85791015625
-712.2802734375
-718.68896484375
-724.18212890625
-718.68896484375
-715.02685546875
-705.87158203125
-702.20947265625
-703.125
-705.87158203125
-706.787109375
-714.111328125
-708.6181640625
-708.6181640625
-711.36474609375
-711.36474609375
-699.462890625
-693.9697265625
-690.3076171875
-685.72998046875
-694.88525390625
-696.71630859375
-698.54736328125
-692.138671875
-682.06787109375
-676.57470703125
-689.39208984375
-691.22314453125
-690.3076171875
-691.22314453125
-683.89892578125
-682.06787109375
-681.15234375
-684.814453125
-684.814453125
-681.15234375
-679.3212890625
-676.57470703125
-679.3212890625
-674.74365234375
-671.9970703125
-673.828125
-682.9833984375
-682.9833984375
-675.6591796875
-670.166015625
-674.74365234375
-674.74365234375
-681.15234375
-679.3212890625
-681.15234375
-677.490234375
-679.3212890625
-688.4765625
-689.39208984375
-685.72998046875
-686.6455078125
-688.4765625
-693.9697265625
-695.80078125
-688.4765625
-689.39208984375
-686.6455078125
-684.814453125
-690.3076171875
-697.6318359375
-698.54736328125
-699.462890625
-701.2939453125
-699.462890625
-699.462890625
-697.6318359375
-701.2939453125
-697.6318359375
-695.80078125
-703.125
-705.87158203125
-710.44921875
-702.20947265625
-694.88525390625
-695.80078125
-707.70263671875
-711.36474609375
-714.111328125
-714.111328125
-709.53369140625
-710.44921875
-703.125
-707.70263671875
-708.6181640625
-720.52001953125
-726.9287109375
-716.85791015625
-725.09765625
-716.85791015625
-704.9560546875
-711.36474609375
-714.111328125
-718.68896484375
-713.19580078125
-716.85791015625
-720.52001953125
-721.435546875
-712.2802734375
-714.111328125
-727.84423828125
-729.67529296875
-718.68896484375
-718.68896484375
-716.85791015625
-725.09765625
-727.84423828125
-726.01318359375
-723.2666015625
-730.5908203125
-736.083984375
-729.67529296875
-720.52001953125
-722.35107421875
-725.09765625
-724.18212890625
-721.435546875
-715.9423828125
-715.9423828125
-717.7734375
-718.68896484375
-720.52001953125
-716.85791015625
-713.19580078125
-709.53369140625
-714.111328125
-718.68896484375
-721.435546875
-715.9423828125
-720.52001953125
-723.2666015625
-724.18212890625
-729.67529296875
-724.18212890625
-733.33740234375
-728.759765625
-720.52001953125
-717.7734375
-723.2666015625
-727.84423828125
-725.09765625
-723.2666015625
-730.5908203125
-730.5908203125
-728.759765625
-726.9287109375
-727.84423828125
-738.83056640625
-737.9150390625
-725.09765625
-725.09765625
-724.18212890625
-731.50634765625
-731.50634765625
-730.5908203125
-729.67529296875
-730.5908203125
-731.50634765625
-734.2529296875
-728.759765625
-729.67529296875
-729.67529296875
-728.759765625
-730.5908203125
-732.421875
-731.50634765625
-736.083984375
-737.9150390625
-739.74609375
-736.083984375
-731.50634765625
-736.083984375
-728.759765625
-730.5908203125
-734.2529296875
-737.9150390625
-740.66162109375
-736.083984375
-733.33740234375
-734.2529296875
-740.66162109375
-739.74609375
-734.2529296875
-735.16845703125
-739.74609375
-734.2529296875
-736.99951171875
-736.083984375
-722.35107421875
-730.5908203125
-736.99951171875
-744.32373046875
-738.83056640625
-736.99951171875
-717.7734375
-712.2802734375
-715.9423828125
-720.52001953125
-715.9423828125
-722.35107421875
-717.7734375
-714.111328125
-709.53369140625
-708.6181640625
-708.6181640625
-699.462890625
-693.9697265625
-683.89892578125
-694.88525390625
-685.72998046875
-670.166015625
-671.9970703125
-682.9833984375
-694.88525390625
-699.462890625
-716.85791015625
-726.01318359375
-729.67529296875
-729.67529296875
-728.759765625
-723.2666015625
-717.7734375
-717.7734375
-723.2666015625
-732.421875
-736.99951171875
-742.49267578125
-732.421875
-729.67529296875
-735.16845703125
-746.15478515625
-758.056640625
-752.5634765625
-747.0703125
-751.64794921875
-745.2392578125
-750.732421875
-760.80322265625
-758.97216796875
-753.47900390625
-745.2392578125
-749.81689453125
-755.31005859375
-760.80322265625
-758.056640625
-763.5498046875
-767.2119140625
-758.056640625
-756.2255859375
-749.81689453125
-758.056640625
-763.5498046875
-757.14111328125
-750.732421875
-744.32373046875
-747.98583984375
-747.98583984375
-756.2255859375
-769.95849609375
-777.28271484375
-785.5224609375
-780.029296875
-786.43798828125
-784.60693359375
-751.64794921875
-704.9560546875
-631.7138671875
-528.25927734375
-415.6494140625
-275.57373046875
-119.0185546875
69.580078125
222.47314453125
329.58984375
436.70654296875
536.4990234375
627.13623046875
669.25048828125
653.6865234375
622.55859375
541.07666015625
391.845703125
185.85205078125
-56.7626953125
-305.7861328125
-498.046875
-562.1337890625
-610.65673828125
-639.95361328125
-669.25048828125
-695.80078125
-726.01318359375
-746.15478515625
-743.408203125
-736.083984375
-729.67529296875
-729.67529296875
-741.5771484375
-742.49267578125
-740.66162109375
-741.5771484375
-750.732421875
-753.47900390625
-757.14111328125
-758.97216796875
-756.2255859375
-761.71875
-772.705078125
-770.8740234375
-759.8876953125
-758.97216796875
-758.97216796875
-767.2119140625
-769.95849609375
-767.2119140625
-767.2119140625
-762.63427734375
-758.97216796875
-759.8876953125
-756.2255859375
-750.732421875
-750.732421875
-755.31005859375
-753.47900390625
-758.056640625
-767.2119140625
-772.705078125
-766.29638671875
-756.2255859375
-766.29638671875
-766.29638671875
-757.14111328125
-748.9013671875
-747.0703125
-745.2392578125
-747.0703125
-747.0703125
-757.14111328125
-757.14111328125
-747.0703125
-743.408203125
-747.0703125
-747.98583984375
-745.2392578125
-738.83056640625
-732.421875
-739.74609375
-739.74609375
-736.99951171875
-741.5771484375
-741.5771484375
-747.0703125
-743.408203125
-733.33740234375
-738.83056640625
-732.421875
-729.67529296875
-731.50634765625
-726.9287109375
-727.84423828125
-730.5908203125
-729.67529296875
-723.2666015625
-718.68896484375
-720.52001953125
-717.7734375
-726.01318359375
-724.18212890625
-731.50634765625
-727.84423828125
-716.85791015625
-728.759765625
-727.84423828125
-717.7734375
-709.53369140625
-708.6181640625
-711.36474609375
-710.44921875
-705.87158203125
-705.87158203125
-700.37841796875
-702.20947265625
-708.6181640625
-701.2939453125
-706.787109375
-713.19580078125
-719.6044921875
-720.52001953125
-721.435546875
-717.7734375
-715.02685546875
-714.111328125
-712.2802734375
-711.36474609375
-708.6181640625
-713.19580078125
-715.9423828125
-715.02685546875
-726.9287109375
-730.5908203125
-732.421875
-728.759765625
-719.6044921875
-719.6044921875
-727.84423828125
-733.33740234375
-734.2529296875
-733.33740234375
-732.421875
-729.67529296875
-727.84423828125
-718.68896484375
-723.2666015625
-720.52001953125
-712.2802734375
-718.68896484375
-717.7734375
-724.18212890625
-721.435546875
-718.68896484375
-716.85791015625
-707.70263671875
-712.2802734375
-703.125
-713.19580078125
-713.19580078125
-709.53369140625
-705.87158203125
-710.44921875
-707.70263671875
-711.36474609375
-704.9560546875
-704.04052734375
-723.2666015625
-716.85791015625
-711.36474609375
-715.9423828125
-717.7734375
-709.53369140625
-709.53369140625
-710.44921875
-716.85791015625
-714.111328125
-713.19580078125
-710.44921875
-714.111328125
-715.02685546875
-712.2802734375
-715.02685546875
-717.7734375
-711.36474609375
-703.125
-706.787109375
-706.787109375
-707.70263671875
-711.36474609375
-713.19580078125
-710.44921875
-711.36474609375
-707.70263671875
-713.19580078125
-719.6044921875
-716.85791015625
-709.53369140625
-703.125
-693.9697265625
-695.80078125
-696.71630859375
-696.71630859375
-699.462890625
-698.54736328125
-693.05419921875
-692.138671875
-695.80078125
-694.88525390625
-695.80078125
-696.71630859375
-698.54736328125
-695.80078125
-695.80078125
-685.72998046875
-690.3076171875
-688.4765625
-695.80078125
-699.462890625
-698.54736328125
-704.9560546875
-694.88525390625
-675.6591796875
-688.4765625
-693.9697265625
-694.88525390625
-690.3076171875
-691.22314453125
-692.138671875
-693.05419921875
-690.3076171875
-688.4765625
-691.22314453125
-692.138671875
-694.88525390625
-695.80078125
-699.462890625
-696.71630859375
-693.9697265625
-692.138671875
-687.56103515625
-697.6318359375
-690.3076171875
-696.71630859375
-700.37841796875
-702.20947265625
-694.88525390625
-704.9560546875
-702.20947265625
-705.87158203125
-704.9560546875
-709.53369140625
-715.02685546875
-726.9287109375
-726.01318359375
-715.9423828125
-726.9287109375
-716.85791015625
-711.36474609375
-711.36474609375
-715.9423828125
-719.6044921875
-720.52001953125
-717.7734375
-714.111328125
-721.435546875
-722.35107421875
-723.2666015625
-724.18212890625
-720.52001953125
-719.6044921875
-726.9287109375
-732.421875
-720.52001953125
-715.9423828125
-708.6181640625
-718.68896484375
-721.435546875
-727.84423828125
-727.84423828125
-728.759765625
-731.50634765625
-724.18212890625
-724.18212890625
-728.759765625
-734.2529296875
-729.67529296875
-727.84423828125
-734.2529296875
-733.33740234375
-735.16845703125
-736.083984375
-724.18212890625
-714.111328125
-719.6044921875
-724.18212890625
-726.9287109375
-732.421875
-734.2529296875
-734.2529296875
-728.759765625
-728.759765625
-731.50634765625
-725.09765625
-723.2666015625
-729.67529296875
-736.083984375
-743.408203125
-741.5771484375
-739.74609375
-739.74609375
-741.5771484375
-736.083984375
-743.408203125
-741.5771484375
-734.2529296875
-732.421875
-733.33740234375
-730.5908203125
-726.01318359375
-728.759765625
-738.83056640625
-736.99951171875
-734.2529296875
-730.5908203125
-729.67529296875
-730.5908203125
-734.2529296875
-736.99951171875
-741.5771484375
-741.5771484375
-753.47900390625
-763.5498046875
-752.5634765625
-740.66162109375
-735.16845703125
-739.74609375
-742.49267578125
-741.5771484375
-744.32373046875
-744.32373046875
-748.9013671875
-739.74609375
-744.32373046875
-747.0703125
-748.9013671875
-740.66162109375
-746.15478515625
-754.39453125
-749.81689453125
-747.98583984375
-750.732421875
-740.66162109375
-742.49267578125
-749.81689453125
-758.056640625
-756.2255859375
-751.64794921875
-754.39453125
-750.732421875
-755.31005859375
-749.81689453125
-750.732421875
-739.74609375
-734.2529296875
-741.5771484375
-745.2392578125
-738.83056640625
-747.98583984375
-733.33740234375
-731.50634765625
-740.66162109375
-730.5908203125
-725.09765625
-715.02685546875
-704.04052734375
-708.6181640625
-710.44921875
-704.04052734375
-698.54736328125
-685.72998046875
-673.828125
-662.841796875
-677.490234375
-678.40576171875
-661.0107421875
-675.6591796875
-688.4765625
-694.88525390625
-696.71630859375
-704.9560546875
-713.19580078125
-712.2802734375
-704.04052734375
-699.462890625
-698.54736328125
-695.80078125
-713.19580078125
-719.6044921875
-727.84423828125
-731.50634765625
-717.7734375
-721.435546875
-735.16845703125
-732.421875
-741.5771484375
-740.66162109375
-744.32373046875
-740.66162109375
-739.74609375
-744.32373046875
-758.056640625
-755.31005859375
-753.47900390625
-748.9013671875
-756.2255859375
-769.95849609375
-768.12744140625
-741.5771484375
-726.01318359375
-737.9150390625
-738.83056640625
-737.9150390625
-734.2529296875
-740.66162109375
-740.66162109375
-738.83056640625
-755.31005859375
-756.2255859375
-750.732421875
-751.64794921875
-750.732421875
-761.71875
-771.78955078125
-779.11376953125
-794.677734375
-788.26904296875
-772.705078125
-728.759765625
-680.23681640625
-606.0791015625
-501.708984375
-389.09912109375
-238.037109375
-66.83349609375
113.525390625
252.685546875
365.29541015625
452.2705078125
550.23193359375
641.78466796875
657.3486328125
623.47412109375
592.34619140625
506.28662109375
339.66064453125
119.0185546875
-132.75146484375
-369.873046875
-500.79345703125
-531.005859375
-554.8095703125
-597.83935546875
-635.3759765625
-664.6728515625
-704.9560546875
-748.9013671875
-763.5498046875
-762.63427734375
-755.31005859375
-740.66162109375
-743.408203125
-739.74609375
-748.9013671875
-747.98583984375
-751.64794921875
-765.380859375
-755.31005859375
-751.64794921875
-753.47900390625
-758.97216796875
-769.95849609375
-761.71875
-760.80322265625
-759.8876953125
-758.056640625
-766.29638671875
-763.5498046875
-763.5498046875
-765.380859375
-764.46533203125
-763.5498046875
-759.8876953125
-761.71875
-764.46533203125
-758.056640625
-749.81689453125
-750.732421875
-760.80322265625
-757.14111328125
-754.39453125
-766.29638671875
-770.8740234375
-749.81689453125
-757.14111328125
-762.63427734375
-769.95849609375
-759.8876953125
-753.47900390625
-752.5634765625
-749.81689453125
-747.98583984375
-748.9013671875
-747.0703125
-746.15478515625
-747.0703125
-748.9013671875
-741.5771484375
-738.83056640625
-736.99951171875
-750.732421875
-756.2255859375
-749.81689453125
-741.5771484375
-742.49267578125
-743.408203125
-736.083984375
-734.2529296875
-739.74609375
-738.83056640625
-742.49267578125
-742.49267578125
-744.32373046875
-737.9150390625
-744.32373046875
-734.2529296875
-730.5908203125
-740.66162109375
-739.74609375
-728.759765625
-725.09765625
-727.84423828125
-727.84423828125
-726.9287109375
-730.5908203125
-733.33740234375
-725.09765625
-730.5908203125
-726.9287109375
-737.9150390625
-730.5908203125
-735.16845703125
-727.84423828125
-730.5908203125
-740.66162109375
-756.2255859375
-747.98583984375
-737.9150390625
-732.421875
-736.083984375
-728.759765625
-736.083984375
-736.99951171875
-735.16845703125
-741.5771484375
-751.64794921875
-750.732421875
-758.056640625
-766.29638671875
-768.12744140625
-769.95849609375
-761.71875
-757.14111328125
-763.5498046875
-764.46533203125
-769.04296875
-769.95849609375
-768.12744140625
-766.29638671875
-768.12744140625
-763.5498046875
-762.63427734375
-752.5634765625
-763.5498046875
-760.80322265625
-757.14111328125
-767.2119140625
-763.5498046875
-748.9013671875
-747.98583984375
-753.47900390625
-751.64794921875
-756.2255859375
-758.97216796875
-766.29638671875
-760.80322265625
-748.9013671875
-741.5771484375
-749.81689453125
-737.9150390625
-741.5771484375
-733.33740234375
-736.083984375
-734.2529296875
-732.421875
-735.16845703125
-742.49267578125
-752.5634765625
-751.64794921875
-746.15478515625
-746.15478515625
-749.81689453125
-747.98583984375
-738.83056640625
-739.74609375
-742.49267578125
-739.74609375
-738.83056640625
-747.98583984375
-747.0703125
-747.0703125
-758.056640625
-748.9013671875
-741.5771484375
-742.49267578125
-747.0703125
-742.49267578125
-736.99951171875
-742.49267578125
-748.9013671875
-747.0703125
-738.83056640625
-734.2529296875
-742.49267578125
-738.83056640625
-723.2666015625
-729.67529296875
-730.5908203125
-736.99951171875
-735.16845703125
-734.2529296875
-735.16845703125
-727.84423828125
-730.5908203125
-714.111328125
-717.7734375
-719.6044921875
-710.44921875
-715.9423828125
-715.02685546875
-711.36474609375
-717.7734375
-718.68896484375
-724.18212890625
-723.2666015625
-721.435546875
-722.35107421875
-731.50634765625
-718.68896484375
-718.68896484375
-711.36474609375
-707.70263671875
-708.6181640625
-717.7734375
-725.09765625
-722.35107421875
-716.85791015625
-724.18212890625
-723.2666015625
-722.35107421875
-722.35107421875
-706.787109375
-715.9423828125
-717.7734375
-720.52001953125
-723.2666015625
-715.02685546875
-719.6044921875
-729.67529296875
-720.52001953125
-732.421875
-736.083984375
-735.16845703125
-729.67529296875
-739.74609375
-736.083984375
-732.421875
-736.99951171875
-736.083984375
-733.33740234375
-731.50634765625
-742.49267578125
-744.32373046875
-751.64794921875
-747.98583984375
-747.0703125
-747.0703125
-745.2392578125
-750.732421875
-751.64794921875
-751.64794921875
-754.39453125
-751.64794921875
-747.0703125
-740.66162109375
-741.5771484375
-741.5771484375
-744.32373046875
-748.9013671875
-754.39453125
-755.31005859375
-757.14111328125
-755.31005859375
-753.47900390625
-754.39453125
-753.47900390625
-748.9013671875
-751.64794921875
-749.81689453125
-758.056640625
-756.2255859375
-764.46533203125
-758.056640625
-759.8876953125
-758.056640625
-758.97216796875
-760.80322265625
-756.2255859375
-758.97216796875
-764.46533203125
-761.71875
-766.29638671875
-761.71875
-758.97216796875
-764.46533203125
-763.5498046875
-762.63427734375
-767.2119140625
-763.5498046875
-764.46533203125
-762.63427734375
-761.71875
-764.46533203125
-759.8876953125
-759.8876953125
-759.8876953125
-760.80322265625
-758.056640625
-754.39453125
-754.39453125
-759.8876953125
-758.056640625
-756.2255859375
-748.9013671875
-740.66162109375
-737.9150390625
-736.083984375
-732.421875
-728.759765625
-729.67529296875
-731.50634765625
-731.50634765625
-717.7734375
-709.53369140625
-703.125
-700.37841796875
-698.54736328125
-698.54736328125
-704.9560546875
-726.01318359375
-724.18212890625
-731.50634765625
-734.2529296875
-734.2529296875
-728.759765625
-725.09765625
-733.33740234375
-741.5771484375
-747.0703125
-746.15478515625
-747.0703125
-756.2255859375
-759.8876953125
-757.14111328125
-751.64794921875
-757.14111328125
-762.63427734375
-768.12744140625
-780.029296875
-792.8466796875
-788.26904296875
-783.69140625
-780.94482421875
-783.69140625
-788.26904296875
-788.26904296875
-790.10009765625
-781.8603515625
-780.94482421875
-767.2119140625
-776.3671875
-785.5224609375
-789.1845703125
-790.10009765625
-793.76220703125
-793.76220703125
-793.76220703125
-786.43798828125
-783.69140625
-780.94482421875
-777.28271484375
-783.69140625
-791.93115234375
-793.76220703125
-787.353515625
-786.43798828125
-790.10009765625
-803.8330078125
-816.650390625
-823.05908203125
-823.05908203125
-807.4951171875
-755.31005859375
-699.462890625
-608.82568359375
-507.2021484375
-383.60595703125
-212.40234375
-19.22607421875
154.72412109375
273.74267578125
379.94384765625
491.63818359375
590.51513671875
660.09521484375
663.75732421875
619.81201171875
560.302734375
437.6220703125
249.0234375
-1.8310546875
-265.5029296875
-483.3984375
-541.07666015625
-566.71142578125
-598.7548828125
-639.95361328125
-674.74365234375
-713.19580078125
-741.5771484375
-771.78955078125
-786.43798828125
-799.25537109375
-780.94482421875
-778.1982421875
-777.28271484375
-793.76220703125
-792.8466796875
-788.26904296875
-778.1982421875
-780.029296875
-779.11376953125
-787.353515625
-785.5224609375
-778.1982421875
-791.015625
-800.1708984375
-798.33984375
-792.8466796875
-791.93115234375
-791.015625
-793.76220703125
-793.76220703125
-797.42431640625
-797.42431640625
-787.353515625
-799.25537109375
-793.76220703125
-791.93115234375
-795.59326171875
-802.91748046875
-792.8466796875
-783.69140625
-784.60693359375
-781.8603515625
-780.029296875
-785.5224609375
-783.69140625
-781.8603515625
-783.69140625
-787.353515625
-789.1845703125
-791.015625
-782.77587890625
-782.77587890625
-782.77587890625
-771.78955078125
-785.5224609375
-792.8466796875
-779.11376953125
-781.8603515625
-772.705078125
-777.28271484375
-779.11376953125
-780.029296875
-778.1982421875
-780.029296875
-769.95849609375
-769.95849609375
-770.8740234375
-769.04296875
-783.69140625
-780.029296875
-785.5224609375
-774.5361328125
-775.45166015625
-774.5361328125
-767.2119140625
-757.14111328125
-756.2255859375
-751.64794921875
-747.0703125
-755.31005859375
-761.71875
-759.8876953125
-761.71875
-757.14111328125
-756.2255859375
-750.732421875
-747.98583984375
-758.056640625
-758.97216796875
-756.2255859375
-758.97216796875
-755.31005859375
-763.5498046875
-763.5498046875
-752.5634765625
-741.5771484375
-750.732421875
-749.81689453125
-750.732421875
-756.2255859375
-749.81689453125
-752.5634765625
-758.056640625
-765.380859375
-769.04296875
-763.5498046875
-756.2255859375
-757.14111328125
-762.63427734375
-773.62060546875
-769.04296875
-768.12744140625
-761.71875
-769.95849609375
-777.28271484375
-772.705078125
-768.12744140625
-776.3671875
-765.380859375
-767.2119140625
-772.705078125
-769.04296875
-762.63427734375
-765.380859375
-766.29638671875
-767.2119140625
-766.29638671875
-760.80322265625
-764.46533203125
-750.732421875
-745.2392578125
-748.9013671875
-744.32373046875
-752.5634765625
-756.2255859375
-747.98583984375
-747.98583984375
-746.15478515625
-751.64794921875
-743.408203125
-740.66162109375
-748.9013671875
-743.408203125
-741.5771484375
-741.5771484375
-752.5634765625
-752.5634765625
-742.49267578125
-752.5634765625
-760.80322265625
-757.14111328125
-751.64794921875
-750.732421875
-754.39453125
-747.98583984375
-753.47900390625
-749.81689453125
-748.9013671875
-750.732421875
-741.5771484375
-746.15478515625
-757.14111328125
-752.5634765625
-754.39453125
-755.31005859375
-747.0703125
-744.32373046875
-752.5634765625
-750.732421875
-744.32373046875
-750.732421875
-748.9013671875
-741.5771484375
-726.01318359375
-728.759765625
-738.83056640625
-736.99951171875
-737.9150390625
-730.5908203125
-732.421875
-724.18212890625
-716.85791015625
-717.7734375
-717.7734375
-727.84423828125
-728.759765625
-719.6044921875
-716.85791015625
-724.18212890625
-711.36474609375
-709.53369140625
-716.85791015625
-715.9423828125
-709.53369140625
-696.71630859375
-698.54736328125
-705.87158203125
-705.87158203125
-709.53369140625
-704.04052734375
-706.787109375
-704.9560546875
-693.9697265625
-693.9697265625
-705.87158203125
-704.04052734375
-704.04052734375
-709.53369140625
-707.70263671875
-710.44921875
-715.02685546875
-712.2802734375
-717.7734375
-705.87158203125
-702.20947265625
-714.111328125
-712.2802734375
-715.9423828125
-709.53369140625
-707.70263671875
-716.85791015625
-714.111328125
-714.111328125
-724.18212890625
-726.9287109375
-727.84423828125
-729.67529296875
-723.2666015625
-724.18212890625
-729.67529296875
-720.52001953125
-725.09765625
-731.50634765625
-736.99951171875
-735.16845703125
-726.01318359375
-732.421875
-732.421875
-731.50634765625
-730.5908203125
-724.18212890625
-730.5908203125
-736.083984375
-736.083984375
-747.98583984375
-728.759765625
-736.99951171875
-743.408203125
-742.49267578125
-739.74609375
-730.5908203125
-738.83056640625
-742.49267578125
-742.49267578125
-736.99951171875
-733.33740234375
-745.2392578125
-741.5771484375
-751.64794921875
-747.0703125
-738.83056640625
-746.15478515625
-749.81689453125
-737.9150390625
-735.16845703125
-744.32373046875
-736.99951171875
-737.9150390625
-739.74609375
-742.49267578125
-747.0703125
-746.15478515625
-749.81689453125
-747.0703125
-738.83056640625
-744.32373046875
-750.732421875
-752.5634765625
-748.9013671875
-742.49267578125
-752.5634765625
-747.98583984375
-746.15478515625
-747.98583984375
-743.408203125
-733.33740234375
-737.9150390625
-740.66162109375
-728.759765625
-717.7734375
-715.9423828125
-706.787109375
-704.04052734375
-704.9560546875
-698.54736328125
-693.9697265625
-682.06787109375
-684.814453125
-680.23681640625
-679.3212890625
-671.9970703125
-687.56103515625
-698.54736328125
-709.53369140625
-724.18212890625
-734.2529296875
-738.83056640625
-735.16845703125
-722.35107421875
-728.759765625
-728.759765625
-733.33740234375
-734.2529296875
-742.49267578125
-741.5771484375
-747.0703125
-749.81689453125
-747.98583984375
-752.5634765625
-750.732421875
-755.31005859375
-765.380859375
-773.62060546875
-770.8740234375
-767.2119140625
-769.95849609375
-773.62060546875
-770.8740234375
-774.5361328125
-773.62060546875
-769.95849609375
-768.12744140625
-768.12744140625
-770.8740234375
-773.62060546875
-779.11376953125
-774.5361328125
-772.705078125
-771.78955078125
-763.5498046875
-770.8740234375
-769.95849609375
-767.2119140625
-769.95849609375
-765.380859375
-763.5498046875
-765.380859375
-774.5361328125
-777.28271484375
-792.8466796875
-797.42431640625
-811.1572265625
-816.650390625
-806.57958984375
-780.029296875
-737.9150390625
-678.40576171875
-585.9375
-487.060546875
-362.548828125
-209.65576171875
-23.8037109375
144.6533203125
278.3203125
395.5078125
501.708984375
597.83935546875
662.841796875
667.41943359375
633.544921875
575.86669921875
455.01708984375
260.92529296875
26.55029296875
-230.712890625
-469.66552734375
-554.8095703125
-601.50146484375
-642.7001953125
-671.9970703125
-709.53369140625
-746.15478515625
-756.2255859375
-760.80322265625
-760.80322265625
-758.97216796875
-758.056640625
-765.380859375
-753.47900390625
-753.47900390625
-758.056640625
-759.8876953125
-769.95849609375
-785.5224609375
-787.353515625
-780.94482421875
-772.705078125
-780.029296875
-780.029296875
-772.705078125
-776.3671875
-786.43798828125
-785.5224609375
-783.69140625
-785.5224609375
-790.10009765625
-782.77587890625
-780.94482421875
-791.015625
-789.1845703125
-787.353515625
-792.8466796875
-787.353515625
-791.93115234375
-791.015625
-785.5224609375
-779.11376953125
-778.1982421875
-787.353515625
-784.60693359375
-775.45166015625
-780.94482421875
-768.12744140625
-763.5498046875
-773.62060546875
-770.8740234375
-764.46533203125
-762.63427734375
-766.29638671875
-764.46533203125
-759.8876953125
-762.63427734375
-771.78955078125
-767.2119140625
-769.04296875
-760.80322265625
-768.12744140625
-761.71875
-749.81689453125
-747.98583984375
-750.732421875
-752.5634765625
-754.39453125
-750.732421875
-742.49267578125
-745.2392578125
-744.32373046875
-739.74609375
-738.83056640625
-735.16845703125
-733.33740234375
-737.9150390625
-736.99951171875
-729.67529296875
-730.5908203125
-731.50634765625
-728.759765625
-734.2529296875
-726.9287109375
-723.2666015625
-721.435546875
-722.35107421875
-724.18212890625
-716.85791015625
-712.2802734375
-715.02685546875
-712.2802734375
-723.2666015625
-722.35107421875
-718.68896484375
-700.37841796875
-697.6318359375
-706.787109375
-706.787109375
-715.02685546875
-704.04052734375
-702.20947265625
-709.53369140625
-706.787109375
-709.53369140625
-712.2802734375
-714.111328125
-712.2802734375
-705.87158203125
-715.9423828125
-732.421875
-730.5908203125
-730.5908203125
-728.759765625
-728.759765625
-722.35107421875
-724.18212890625
-721.435546875
-728.759765625
-730.5908203125
-730.5908203125
-724.18212890625
-725.09765625
-736.083984375
-734.2529296875
-722.35107421875
-725.09765625
-718.68896484375
-718.68896484375
-718.68896484375
-716.85791015625
-712.2802734375
-707.70263671875
-715.02685546875
-715.9423828125
-715.02685546875
-713.19580078125
-710.44921875
-712.2802734375
-712.2802734375
-716.85791015625
-725.09765625
-726.01318359375
-720.52001953125
-725.09765625
-725.09765625
-724.18212890625
-725.09765625
-721.435546875
-722.35107421875
-736.99951171875
-733.33740234375
-729.67529296875
-734.2529296875
-732.421875
-729.67529296875
-733.33740234375
-734.2529296875
-729.67529296875
-730.5908203125
-736.99951171875
-734.2529296875
-726.01318359375
-718.68896484375
-717.7734375
-720.52001953125
-718.68896484375
-719.6044921875
-721.435546875
-724.18212890625
-722.35107421875
-717.7734375
-719.6044921875
-717.7734375
-715.9423828125
-710.44921875
-715.02685546875
-715.02685546875
-714.111328125
-705.87158203125
-707.70263671875
-706.787109375
-705.87158203125
-716.85791015625
-718.68896484375
-715.02685546875
-713.19580078125
-710.44921875
-704.04052734375
-705.87158203125
-707.70263671875
-704.04052734375
-700.37841796875
-704.04052734375
-703.125
-701.2939453125
-704.04052734375
-705.87158203125
-706.787109375
-694.88525390625
-689.39208984375
-700.37841796875
-694.88525390625
-689.39208984375
-692.138671875
-691.22314453125
-684.814453125
-694.88525390625
-695.80078125
-700.37841796875
-693.9697265625
-701.2939453125
-701.2939453125
-700.37841796875
-700.37841796875
-690.3076171875
-687.56103515625
-693.9697265625
-699.462890625
-696.71630859375
-694.88525390625
-693.9697265625
-693.9697265625
-701.2939453125
-701.2939453125
-699.462890625
-702.20947265625
-698.54736328125
-704.9560546875
-705.87158203125
-706.787109375
-714.111328125
-714.111328125
-714.111328125
-715.02685546875
-705.87158203125
-705.87158203125
-709.53369140625
-704.9560546875
-711.36474609375
-715.02685546875
-712.2802734375
-708.6181640625
-708.6181640625
-711.36474609375
-710.44921875
-708.6181640625
-709.53369140625
-718.68896484375
-721.435546875
-724.18212890625
-726.01318359375
-726.01318359375
-718.68896484375
-714.111328125
-724.18212890625
-728.759765625
-726.9287109375
-719.6044921875
-717.7734375
-718.68896484375
-715.02685546875
-721.435546875
-722.35107421875
-729.67529296875
-740.66162109375
-738.83056640625
-732.421875
-743.408203125
-732.421875
-726.01318359375
-719.6044921875
-715.02685546875
-712.2802734375
-716.85791015625
-720.52001953125
-722.35107421875
-719.6044921875
-722.35107421875
-726.01318359375
-733.33740234375
-730.5908203125
-725.09765625
-723.2666015625
-708.6181640625
-711.36474609375
-721.435546875
-722.35107421875
-726.01318359375
-731.50634765625
-726.9287109375
-728.759765625
-719.6044921875
-719.6044921875
-718.68896484375
-707.70263671875
-703.125
-701.2939453125
-699.462890625
-695.80078125
-700.37841796875
-686.6455078125
-681.15234375
-684.814453125
-680.23681640625
-678.40576171875
-678.40576171875
-661.92626953125
-660.09521484375
-662.841796875
-655.517578125
-662.841796875
-671.08154296875
-676.57470703125
-687.56103515625
-699.462890625
-712.2802734375
-715.02685546875
-703.125
-695.80078125
-690.3076171875
-691.22314453125
-707.70263671875
-707.70263671875
-725.09765625
-716.85791015625
-716.85791015625
-718.68896484375
-711.36474609375
-720.52001953125
-720.52001953125
-727.84423828125
-735.16845703125
-739.74609375
-731.50634765625
-727.84423828125
-735.16845703125
-736.083984375
-736.99951171875
-742.49267578125
-746.15478515625
-745.2392578125
-745.2392578125
-749.81689453125
-743.408203125
-736.99951171875
-735.16845703125
-735.16845703125
-729.67529296875
-732.421875
-727.84423828125
-735.16845703125
-739.74609375
-739.74609375
-745.2392578125
-745.2392578125
-740.66162109375
-734.2529296875
-733.33740234375
-740.66162109375
-753.47900390625
-767.2119140625
-769.95849609375
-780.94482421875
-769.95849609375
-736.99951171875
-687.56103515625
-606.99462890625
-498.046875
-377.197265625
-245.361328125
-86.97509765625
91.552734375
236.2060546875
353.3935546875
468.75
567.626953125
660.09521484375
705.87158203125
682.06787109375
628.0517578125
536.4990234375
379.94384765625
164.794921875
-73.2421875
-322.265625
-490.72265625
-549.31640625
-584.1064453125
-618.896484375
-644.53125
-671.9970703125
-704.04052734375
-721.435546875
-721.435546875
-720.52001953125
-712.2802734375
-715.9423828125
-714.111328125
-724.18212890625
-719.6044921875
-726.01318359375
-728.759765625
-736.99951171875
-743.408203125
-744.32373046875
-742.49267578125
-737.9150390625
-733.33740234375
-738.83056640625
-734.2529296875
-736.083984375
-732.421875
-736.99951171875
-735.16845703125
-728.759765625
-735.16845703125
-745.2392578125
-739.74609375
-744.32373046875
-742.49267578125
-736.083984375
-733.33740234375
-735.16845703125
-736.083984375
-736.99951171875
-738.83056640625
-727.84423828125
-722.35107421875
-725.09765625
-729.67529296875
-731.50634765625
-735.16845703125
-727.84423828125
-731.50634765625
-726.01318359375
-728.759765625
-726.01318359375
-725.09765625
-724.18212890625
-739.74609375
-739.74609375
-738.83056640625
-737.9150390625
-731.50634765625
-734.2529296875
-721.435546875
-721.435546875
-728.759765625
-729.67529296875
-731.50634765625
-731.50634765625
-718.68896484375
-729.67529296875
-737.9150390625
-726.9287109375
-727.84423828125
-731.50634765625
-732.421875
-725.09765625
-717.7734375
-719.6044921875
-714.111328125
-719.6044921875
-723.2666015625
-722.35107421875
-722.35107421875
-720.52001953125
-721.435546875
-725.09765625
-714.111328125
-713.19580078125
-715.02685546875
-704.9560546875
-713.19580078125
-708.6181640625
-704.9560546875
-705.87158203125
-702.20947265625
-706.787109375
-706.787109375
-695.80078125
-708.6181640625
-705.87158203125
-709.53369140625
-695.80078125
-700.37841796875
-704.04052734375
-708.6181640625
-704.04052734375
-700.37841796875
-707.70263671875
-702.20947265625
-705.87158203125
-709.53369140625
-714.111328125
-715.02685546875
-722.35107421875
-718.68896484375
-714.111328125
-715.9423828125
-704.04052734375
-708.6181640625
-715.9423828125
-715.9423828125
-713.19580078125
-719.6044921875
-726.9287109375
-712.2802734375
-707.70263671875
-706.787109375
-712.2802734375
-705.87158203125
-700.37841796875
-706.787109375
-716.85791015625
-717.7734375
-715.02685546875
-707.70263671875
-708.6181640625
-706.787109375
-710.44921875
-710.44921875
-701.2939453125
-704.04052734375
-707.70263671875
-704.04052734375
-700.37841796875
-704.04052734375
-702.20947265625
-701.2939453125
-705.87158203125
-705.87158203125
-710.44921875
-713.19580078125
-708.6181640625
-708.6181640625
-716.85791015625
-719.6044921875
-719.6044921875
-723.2666015625
-715.02685546875
-715.9423828125
-722.35107421875
-716.85791015625
-712.2802734375
-719.6044921875
-730.5908203125
-727.84423828125
-725.09765625
-725.09765625
-726.01318359375
-708.6181640625
-711.36474609375
-714.111328125
-712.2802734375
-706.787109375
-700.37841796875
-707.70263671875
-697.6318359375
-700.37841796875
-708.6181640625
-704.9560546875
-706.787109375
-717.7734375
-707.70263671875
-703.125
-691.22314453125
-695.80078125
-693.9697265625
-694.88525390625
-701.2939453125
-698.54736328125
-690.3076171875
-698.54736328125
-689.39208984375
-685.72998046875
-704.04052734375
-693.9697265625
-685.72998046875
-690.3076171875
-689.39208984375
-693.05419921875
-700.37841796875
-695.80078125
-690.3076171875
-691.22314453125
-680.23681640625
-690.3076171875
-692.138671875
-687.56103515625
-688.4765625
-687.56103515625
-684.814453125
-693.05419921875
-701.2939453125
-702.20947265625
-703.125
-693.9697265625
-686.6455078125
-693.05419921875
-701.2939453125
-694.88525390625
-699.462890625
-699.462890625
-703.125
-698.54736328125
-700.37841796875
-699.462890625
-702.20947265625
-707.70263671875
-706.787109375
-707.70263671875
-706.787109375
-700.37841796875
-713.19580078125
-711.36474609375
-696.71630859375
-709.53369140625
-714.111328125
-717.7734375
-718.68896484375
-715.9423828125
-725.09765625
-715.9423828125
-717.7734375
-714.111328125
-728.759765625
-720.52001953125
-722.35107421875
-733.33740234375
-740.66162109375
-745.2392578125
-735.16845703125
-732.421875
-728.759765625
-733.33740234375
-732.421875
-722.35107421875
-726.01318359375
-724.18212890625
-726.01318359375
-738.83056640625
-737.9150390625
-736.083984375
-728.759765625
-736.99951171875
-736.083984375
-738.83056640625
-739.74609375
-741.5771484375
-738.83056640625
-744.32373046875
-748.9013671875
-740.66162109375
-721.435546875
-729.67529296875
-734.2529296875
-742.49267578125
-743.408203125
-745.2392578125
-751.64794921875
-739.74609375
-736.99951171875
-738.83056640625
-739.74609375
-747.98583984375
-752.5634765625
-751.64794921875
-748.9013671875
-750.732421875
-736.083984375
-732.421875
-726.01318359375
-732.421875
-740.66162109375
-745.2392578125
-743.408203125
-738.83056640625
-738.83056640625
-743.408203125
-737.9150390625
-740.66162109375
-745.2392578125
-747.0703125
-740.66162109375
-742.49267578125
-740.66162109375
-754.39453125
-751.64794921875
-745.2392578125
-744.32373046875
-745.2392578125
-740.66162109375
-746.15478515625
-736.083984375
-744.32373046875
-744.32373046875
-736.083984375
-740.66162109375
-736.99951171875
-730.5908203125
-727.84423828125
-715.9423828125
-714.111328125
-718.68896484375
-709.53369140625
-712.2802734375
-706.787109375
-688.4765625
-696.71630859375
-689.39208984375
-682.06787109375
-683.89892578125
-687.56103515625
-702.20947265625
-712.2802734375
-716.85791015625
-721.435546875
-725.09765625
-736.083984375
-723.2666015625
-716.85791015625
-718.68896484375
-715.02685546875
-723.2666015625
-730.5908203125
-728.759765625
-737.9150390625
-740.66162109375
-734.2529296875
-738.83056640625
-740.66162109375
-754.39453125
-767.2119140625
-760.80322265625
-755.31005859375
-758.056640625
-765.380859375
-758.97216796875
-758.056640625
-759.8876953125
-763.5498046875
-764.46533203125
-757.14111328125
-761.71875
-758.97216796875
-763.5498046875
-764.46533203125
-764.46533203125
-756.2255859375
-757.14111328125
-750.732421875
-754.39453125
-752.5634765625
-764.46533203125
-755.31005859375
-752.5634765625
-759.8876953125
-758.97216796875
-763.5498046875
-777.28271484375
-791.015625
-793.76220703125
-798.33984375
-813.90380859375
-793.76220703125
-767.2119140625
-725.09765625
-646.3623046875
-545.654296875
-442.19970703125
-314.94140625
-151.9775390625
37.53662109375
191.34521484375
308.53271484375
405.57861328125
512.6953125
614.31884765625
664.6728515625
639.95361328125
596.00830078125
527.34375
386.3525390625
168.45703125
-70.49560546875
-305.7861328125
-481.5673828125
-530.09033203125
-557.55615234375
-593.26171875
-627.13623046875
-675.6591796875
-710.44921875
-752.5634765625
-766.29638671875
-770.8740234375
-767.2119140625
-755.31005859375
-755.31005859375
-762.63427734375
-765.380859375
-757.14111328125
-754.39453125
-761.71875
-763.5498046875
-768.12744140625
-766.29638671875
-765.380859375
-759.8876953125
-762.63427734375
-766.29638671875
-763.5498046875
-767.2119140625
-773.62060546875
-776.3671875
-767.2119140625
-775.45166015625
-769.95849609375
-766.29638671875
-767.2119140625
-774.5361328125
-762.63427734375
-776.3671875
-770.8740234375
-769.95849609375
-771.78955078125
-777.28271484375
-781.8603515625
-762.63427734375
-769.04296875
-767.2119140625
-763.5498046875
-765.380859375
-775.45166015625
-770.8740234375
-764.46533203125
-765.380859375
-763.5498046875
-762.63427734375
-757.14111328125
-748.9013671875
-757.14111328125
-758.056640625
-751.64794921875
-746.15478515625
-756.2255859375
-766.29638671875
-768.12744140625
-758.97216796875
-758.056640625
-756.2255859375
-757.14111328125
-763.5498046875
-758.056640625
-757.14111328125
-754.39453125
-763.5498046875
-767.2119140625
-765.380859375
-753.47900390625
-760.80322265625
-755.31005859375
-745.2392578125
-754.39453125
-754.39453125
-750.732421875
-742.49267578125
-736.083984375
-736.99951171875
-737.9150390625
-745.2392578125
-740.66162109375
-751.64794921875
-750.732421875
-755.31005859375
-750.732421875
-747.0703125
-743.408203125
-736.99951171875
-740.66162109375
-747.0703125
-741.5771484375
-744.32373046875
-750.732421875
-756.2255859375
-766.29638671875
-764.46533203125
-743.408203125
-745.2392578125
-744.32373046875
-746.15478515625
-756.2255859375
-753.47900390625
-763.5498046875
-760.80322265625
-746.15478515625
-761.71875
-752.5634765625
-753.47900390625
-769.04296875
-772.705078125
-767.2119140625
-771.78955078125
-779.11376953125
-777.28271484375
-772.705078125
-767.2119140625
-757.14111328125
-774.5361328125
-776.3671875
-770.8740234375
-759.8876953125
-748.9013671875
-746.15478515625
-744.32373046875
-743.408203125
-746.15478515625
-741.5771484375
-749.81689453125
-739.74609375
-736.083984375
-747.0703125
-744.32373046875
-737.9150390625
-736.99951171875
-726.9287109375
-726.01318359375
-725.09765625
-718.68896484375
-717.7734375
-705.87158203125
-709.53369140625
-715.9423828125
-720.52001953125
-730.5908203125
-731.50634765625
-736.99951171875
-735.16845703125
-731.50634765625
-740.66162109375
-745.2392578125
-741.5771484375
-740.66162109375
-738.83056640625
-734.2529296875
-740.66162109375
-734.2529296875
-730.5908203125
-736.99951171875
-735.16845703125
-727.84423828125
-736.99951171875
-735.16845703125
-733.33740234375
-726.9287109375
-721.435546875
-725.09765625
-731.50634765625
-718.68896484375
-724.18212890625
-724.18212890625
-730.5908203125
-726.9287109375
-720.52001953125
-713.19580078125
-716.85791015625
-721.435546875
-721.435546875
-729.67529296875
-728.759765625
-734.2529296875
-714.111328125
-716.85791015625
-717.7734375
-712.2802734375
-693.05419921875
-699.462890625
-700.37841796875
-684.814453125
-689.39208984375
-695.80078125
-701.2939453125
-696.71630859375
-693.05419921875
-692.138671875
-692.138671875
-691.22314453125
-684.814453125
-689.39208984375
-690.3076171875
-702.20947265625
-696.71630859375
-694.88525390625
-691.22314453125
-688.4765625
-698.54736328125
-699.462890625
-699.462890625
-703.125
-710.44921875
-711.36474609375
-707.70263671875
-718.68896484375
-710.44921875
-705.87158203125
-707.70263671875
-709.53369140625
-712.2802734375
-705.87158203125
-710.44921875
-721.435546875
-728.759765625
-705.87158203125
-709.53369140625
-711.36474609375
-720.52001953125
-723.2666015625
-716.85791015625
-712.2802734375
-719.6044921875
-720.52001953125
-726.9287109375
-721.435546875
-734.2529296875
-734.2529296875
-732.421875
-728.759765625
-731.50634765625
-729.67529296875
-730.5908203125
-731.50634765625
-732.421875
-738.83056640625
-739.74609375
-722.35107421875
-726.01318359375
-724.18212890625
-726.9287109375
-736.99951171875
-737.9150390625
-745.2392578125
-734.2529296875
-736.99951171875
-735.16845703125
-736.083984375
-736.99951171875
-739.74609375
-736.99951171875
-739.74609375
-738.83056640625
-732.421875
-733.33740234375
-735.16845703125
-727.84423828125
-731.50634765625
-736.083984375
-729.67529296875
-729.67529296875
-726.01318359375
-731.50634765625
-732.421875
-736.083984375
-724.18212890625
-719.6044921875
-718.68896484375
-718.68896484375
-720.52001953125
-711.36474609375
-695.80078125
-691.22314453125
-685.72998046875
-684.814453125
-673.828125
-677.490234375
-671.08154296875
-678.40576171875
-699.462890625
-704.04052734375
-703.125
-710.44921875
-712.2802734375
-706.787109375
-709.53369140625
-707.70263671875
