ECG
-20.1416015625
-11.90185546875
-10.986328125
-9.1552734375
5.4931640625
8.23974609375
-1.8310546875
9.1552734375
19.22607421875
15.56396484375
25.634765625
24.71923828125
18.310546875
22.88818359375
39.36767578125
35.70556640625
40.283203125
55.84716796875
65.00244140625
53.1005859375
51.26953125
57.67822265625
54.01611328125
64.0869140625
89.7216796875
95.21484375
86.97509765625
110.77880859375
124.51171875
119.93408203125
119.0185546875
135.498046875
131.8359375
129.08935546875
150.146484375
153.80859375
157.470703125
169.37255859375
186.767578125
195.9228515625
203.2470703125
202.33154296875
223.388671875
244.44580078125
249.0234375
258.1787109375
255.43212890625
274.658203125
285.64453125
275.57373046875
273.74267578125
291.1376953125
297.54638671875
303.955078125
308.53271484375
305.7861328125
307.6171875
312.19482421875
327.7587890625
332.33642578125
322.265625
321.35009765625
316.7724609375
320.4345703125
314.02587890625
304.87060546875
299.37744140625
294.7998046875
279.23583984375
250.8544921875
237.12158203125
231.62841796875
216.064453125
207.82470703125
203.2470703125
171.20361328125
154.72412109375
141.90673828125
125.42724609375
100.7080078125
84.228515625
78.7353515625
70.49560546875
46.69189453125
26.55029296875
2.74658203125
5.4931640625
1.8310546875
4.57763671875
-10.986328125
-26.55029296875
-36.62109375
-46.69189453125
-49.4384765625
-45.7763671875
-47.607421875
-57.67822265625
-61.34033203125
-60.4248046875
-66.83349609375
-75.0732421875
-79.65087890625
-86.0595703125
-78.7353515625
-80.56640625
-85.14404296875
-83.31298828125
-95.21484375
-79.65087890625
-94.29931640625
-86.0595703125
-86.0595703125
-86.0595703125
-93.3837890625
-81.48193359375
-84.228515625
-91.552734375
-79.65087890625
-71.4111328125
-88.80615234375
-95.21484375
-100.7080078125
-94.29931640625
-92.46826171875
-85.14404296875
-82.3974609375
-86.97509765625
-94.29931640625
-88.80615234375
-108.94775390625
-103.45458984375
-88.80615234375
-98.876953125
-96.13037109375
-82.3974609375
-86.0595703125
-89.7216796875
-84.228515625
-73.2421875
-80.56640625
-84.228515625
-89.7216796875
-100.7080078125
-92.46826171875
-85.14404296875
-86.0595703125
-69.580078125
-61.34033203125
-76.904296875
-95.21484375
-87.890625
-88.80615234375
-76.904296875
-77.81982421875
-77.81982421875
-75.0732421875
-83.31298828125
-82.3974609375
-72.32666015625
-85.14404296875
-86.0595703125
-76.904296875
-84.228515625
-82.3974609375
-70.49560546875
-73.2421875
-83.31298828125
-79.65087890625
-82.3974609375
-82.3974609375
-92.46826171875
-86.0595703125
-86.97509765625
-89.7216796875
-87.890625
-84.228515625
-76.904296875
-86.97509765625
-91.552734375
-91.552734375
-96.13037109375
-97.0458984375
-94.29931640625
-90.63720703125
-85.14404296875
-84.228515625
-97.96142578125
-99.79248046875
-105.28564453125
-108.94775390625
-104.3701171875
-94.29931640625
-96.13037109375
-104.3701171875
-99.79248046875
-93.3837890625
-101.62353515625
-97.0458984375
-96.13037109375
-108.0322265625
-107.11669921875
-102.5390625
-92.46826171875
-97.96142578125
-108.0322265625
-112.60986328125
-116.27197265625
-108.0322265625
-97.96142578125
-108.0322265625
-113.525390625
-107.11669921875
-104.3701171875
-108.0322265625
-99.79248046875
-115.3564453125
-104.3701171875
-95.21484375
-98.876953125
-100.7080078125
-108.94775390625
-114.44091796875
-118.10302734375
-113.525390625
-108.0322265625
-108.0322265625
-98.876953125
-86.0595703125
-99.79248046875
-119.0185546875
-122.6806640625
-109.86328125
-111.6943359375
-111.6943359375
-115.3564453125
-113.525390625
-107.11669921875
-105.28564453125
-100.7080078125
-106.201171875
-108.0322265625
-108.94775390625
-112.60986328125
-110.77880859375
-111.6943359375
-117.1875
-119.0185546875
-115.3564453125
-115.3564453125
-112.60986328125
-108.94775390625
-114.44091796875
-117.1875
-109.86328125
-107.11669921875
-122.6806640625
-134.58251953125
-120.849609375
-116.27197265625
-113.525390625
-105.28564453125
-111.6943359375
-116.27197265625
-119.0185546875
-115.3564453125
-108.94775390625
-114.44091796875
-108.94775390625
-122.6806640625
-116.27197265625
-111.6943359375
-124.51171875
-131.8359375
-116.27197265625
-108.94775390625
-103.45458984375
-108.94775390625
-124.51171875
-119.0185546875
-105.28564453125
-121.76513671875
-124.51171875
-130.92041015625
-122.6806640625
-101.62353515625
-102.5390625
-102.5390625
-99.79248046875
-94.29931640625
-94.29931640625
-99.79248046875
-88.80615234375
-75.0732421875
-71.4111328125
-81.48193359375
-78.7353515625
-81.48193359375
-71.4111328125
-73.2421875
-75.98876953125
-74.15771484375
-71.4111328125
-69.580078125
-62.255859375
-46.69189453125
-26.55029296875
-29.296875
-24.71923828125
-24.71923828125
-34.7900390625
-37.53662109375
-36.62109375
-37.53662109375
-53.1005859375
-62.255859375
-68.66455078125
-65.91796875
-68.66455078125
-59.50927734375
-67.7490234375
-64.0869140625
-57.67822265625
-63.17138671875
-68.66455078125
-79.65087890625
-93.3837890625
-95.21484375
-85.14404296875
-96.13037109375
-107.11669921875
-120.849609375
-134.58251953125
-131.8359375
-121.76513671875
-113.525390625
-103.45458984375
-105.28564453125
-115.3564453125
-119.93408203125
-130.0048828125
-126.3427734375
-115.3564453125
-121.76513671875
-135.498046875
-155.6396484375
-188.5986328125
-226.13525390625
-234.375
-221.5576171875
-210.5712890625
-139.16015625
-49.4384765625
78.7353515625
248.10791015625
471.49658203125
685.72998046875
903.62548828125
1125.18310546875
1312.8662109375
1430.96923828125
1520.69091796875
1557.31201171875
1492.3095703125
1355.89599609375
1205.74951171875
1004.33349609375
744.32373046875
392.76123046875
117.1875
50.35400390625
46.69189453125
43.02978515625
38.4521484375
22.88818359375
28.38134765625
14.6484375
-5.4931640625
7.32421875
4.57763671875
-22.88818359375
-32.04345703125
-30.21240234375
-33.87451171875
-41.19873046875
-50.35400390625
-54.01611328125
-65.91796875
-67.7490234375
-66.83349609375
-62.255859375
-60.4248046875
-60.4248046875
-68.66455078125
-72.32666015625
-76.904296875
-55.84716796875
-52.18505859375
-56.7626953125
-63.17138671875
-60.4248046875
-53.1005859375
-59.50927734375
-54.01611328125
-49.4384765625
-47.607421875
-47.607421875
-43.02978515625
-22.88818359375
-26.55029296875
-41.19873046875
-43.9453125
-29.296875
-26.55029296875
-24.71923828125
-17.39501953125
-17.39501953125
-20.1416015625
-16.4794921875
-16.4794921875
-9.1552734375
-12.8173828125
-7.32421875
-12.8173828125
4.57763671875
15.56396484375
10.986328125
26.55029296875
34.7900390625
20.1416015625
16.4794921875
21.97265625
29.296875
35.70556640625
33.87451171875
53.1005859375
56.7626953125
67.7490234375
83.31298828125
84.228515625
77.81982421875
78.7353515625
93.3837890625
91.552734375
105.28564453125
119.93408203125
126.3427734375
130.0048828125
144.6533203125
143.73779296875
148.3154296875
143.73779296875
178.52783203125
178.52783203125
184.02099609375
217.8955078125
226.13525390625
227.96630859375
246.27685546875
250.8544921875
259.09423828125
260.92529296875
264.58740234375
273.74267578125
279.23583984375
292.96875
293.88427734375
301.20849609375
307.6171875
310.36376953125
324.0966796875
320.4345703125
331.4208984375
328.67431640625
324.0966796875
324.0966796875
318.603515625
318.603515625
319.51904296875
327.7587890625
308.53271484375
292.05322265625
285.64453125
273.74267578125
260.009765625
249.0234375
236.2060546875
220.64208984375
199.5849609375
184.02099609375
157.470703125
142.822265625
133.6669921875
112.60986328125
90.63720703125
83.31298828125
73.2421875
56.7626953125
48.52294921875
20.1416015625
17.39501953125
4.57763671875
-14.6484375
-27.4658203125
-18.310546875
-28.38134765625
-33.87451171875
-40.283203125
-44.86083984375
-51.26953125
-58.59375
-65.91796875
-64.0869140625
-79.65087890625
-83.31298828125
-79.65087890625
-76.904296875
-78.7353515625
-75.98876953125
-75.98876953125
-86.97509765625
-94.29931640625
-97.0458984375
-99.79248046875
-84.228515625
-87.890625
-97.0458984375
-95.21484375
-84.228515625
-80.56640625
-101.62353515625
-107.11669921875
-95.21484375
-99.79248046875
-91.552734375
-89.7216796875
-94.29931640625
-92.46826171875
-98.876953125
-90.63720703125
-91.552734375
-86.97509765625
-87.890625
-97.0458984375
-94.29931640625
-102.5390625
-96.13037109375
-86.0595703125
-75.98876953125
-73.2421875
-80.56640625
-88.80615234375
-91.552734375
-82.3974609375
-83.31298828125
-80.56640625
-77.81982421875
-75.98876953125
-76.904296875
-83.31298828125
-96.13037109375
-97.0458984375
-91.552734375
-86.97509765625
-83.31298828125
-77.81982421875
-79.65087890625
-82.3974609375
-83.31298828125
-77.81982421875
-81.48193359375
-79.65087890625
-79.65087890625
-90.63720703125
-82.3974609375
-79.65087890625
-82.3974609375
-84.228515625
-83.31298828125
-78.7353515625
-85.14404296875
-77.81982421875
-81.48193359375
-82.3974609375
-83.31298828125
-80.56640625
-81.48193359375
-80.56640625
-68.66455078125
-81.48193359375
-86.0595703125
-91.552734375
-87.890625
-97.96142578125
-100.7080078125
-92.46826171875
-89.7216796875
-90.63720703125
-84.228515625
-86.97509765625
-87.890625
-95.21484375
-100.7080078125
-100.7080078125
-95.21484375
-90.63720703125
-93.3837890625
-92.46826171875
-84.228515625
-93.3837890625
-103.45458984375
-98.876953125
-91.552734375
-87.890625
-95.21484375
-95.21484375
-107.11669921875
-117.1875
-83.31298828125
-85.14404296875
-97.0458984375
-98.876953125
-97.0458984375
-108.94775390625
-119.0185546875
-115.3564453125
-119.0185546875
-102.5390625
-88.80615234375
-86.97509765625
-101.62353515625
-107.11669921875
-101.62353515625
-108.0322265625
-108.94775390625
-101.62353515625
-113.525390625
-99.79248046875
-86.97509765625
-89.7216796875
-108.94775390625
-116.27197265625
-115.3564453125
-115.3564453125
-103.45458984375
-99.79248046875
-102.5390625
-101.62353515625
-104.3701171875
-106.201171875
-108.94775390625
-108.94775390625
-93.3837890625
-108.0322265625
-111.6943359375
-107.11669921875
-104.3701171875
-97.96142578125
-103.45458984375
-101.62353515625
-112.60986328125
-113.525390625
-109.86328125
-116.27197265625
-107.11669921875
-98.876953125
-108.0322265625
-106.201171875
-95.21484375
-99.79248046875
-110.77880859375
-108.94775390625
-118.10302734375
-115.3564453125
-109.86328125
-102.5390625
-96.13037109375
-99.79248046875
-99.79248046875
-108.94775390625
-126.3427734375
-120.849609375
-115.3564453125
-116.27197265625
-110.77880859375
-100.7080078125
-102.5390625
-111.6943359375
-101.62353515625
-100.7080078125
-108.0322265625
-107.11669921875
-109.86328125
-105.28564453125
-107.11669921875
-105.28564453125
-102.5390625
-107.11669921875
-103.45458984375
-109.86328125
-109.86328125
-110.77880859375
-113.525390625
-109.86328125
-118.10302734375
-108.0322265625
-104.3701171875
-104.3701171875
-101.62353515625
-114.44091796875
-101.62353515625
-113.525390625
-118.10302734375
-108.0322265625
-104.3701171875
-100.7080078125
-104.3701171875
-108.94775390625
-103.45458984375
-107.11669921875
-105.28564453125
-105.28564453125
-92.46826171875
-107.11669921875
-98.876953125
-86.97509765625
-87.890625
-80.56640625
-61.34033203125
-74.15771484375
-72.32666015625
-72.32666015625
-62.255859375
-68.66455078125
-72.32666015625
-64.0869140625
-54.931640625
-45.7763671875
-43.02978515625
-52.18505859375
-54.01611328125
-39.36767578125
-19.22607421875
-13.73291015625
-23.8037109375
-31.1279296875
-23.8037109375
-22.88818359375
-22.88818359375
-42.1142578125
-54.931640625
-59.50927734375
-54.931640625
-52.18505859375
-49.4384765625
-47.607421875
-60.4248046875
-59.50927734375
-53.1005859375
-62.255859375
-80.56640625
-98.876953125
-97.96142578125
-98.876953125
-109.86328125
-103.45458984375
-109.86328125
-115.3564453125
-102.5390625
-106.201171875
-123.59619140625
-118.10302734375
-116.27197265625
-121.76513671875
-105.28564453125
-102.5390625
-100.7080078125
-108.0322265625
-100.7080078125
-113.525390625
-131.8359375
-175.78125
-211.48681640625
-247.1923828125
-234.375
-210.5712890625
-179.443359375
-109.86328125
-9.1552734375
133.6669921875
327.7587890625
541.9921875
767.2119140625
1001.5869140625
1204.833984375
1387.02392578125
1477.6611328125
1572.8759765625
1584.77783203125
1488.6474609375
1348.57177734375
1195.6787109375
995.17822265625
696.71630859375
297.54638671875
105.28564453125
75.0732421875
63.17138671875
66.83349609375
79.65087890625
60.4248046875
41.19873046875
15.56396484375
6.40869140625
10.07080078125
7.32421875
-1.8310546875
-10.07080078125
-28.38134765625
-19.22607421875
-30.21240234375
-42.1142578125
-47.607421875
-62.255859375
-58.59375
-52.18505859375
-54.931640625
-54.01611328125
-44.86083984375
-54.931640625
-55.84716796875
-57.67822265625
-62.255859375
-65.00244140625
-52.18505859375
-57.67822265625
-47.607421875
-33.87451171875
-32.958984375
-36.62109375
-37.53662109375
-41.19873046875
-36.62109375
-32.04345703125
-26.55029296875
-23.8037109375
-18.310546875
-9.1552734375
-6.40869140625
-5.4931640625
-9.1552734375
-19.22607421875
-12.8173828125
-12.8173828125
-10.986328125
-3.662109375
3.662109375
10.07080078125
16.4794921875
15.56396484375
18.310546875
17.39501953125
19.22607421875
29.296875
35.70556640625
41.19873046875
37.53662109375
48.52294921875
65.91796875
56.7626953125
54.931640625
68.66455078125
82.3974609375
79.65087890625
76.904296875
78.7353515625
96.13037109375
97.0458984375
101.62353515625
121.76513671875
120.849609375
124.51171875
129.08935546875
138.24462890625
147.39990234375
167.54150390625
180.35888671875
180.35888671875
190.4296875
213.31787109375
221.5576171875
218.81103515625
229.79736328125
233.45947265625
240.78369140625
256.34765625
262.75634765625
272.8271484375
280.1513671875
293.88427734375
301.20849609375
306.70166015625
311.279296875
306.70166015625
321.35009765625
328.67431640625
335.0830078125
336.9140625
350.64697265625
340.576171875
340.576171875
335.99853515625
331.4208984375
323.18115234375
337.82958984375
341.49169921875
335.0830078125
322.265625
325.01220703125
303.955078125
277.40478515625
249.93896484375
238.037109375
230.712890625
211.48681640625
196.83837890625
181.2744140625
162.04833984375
142.822265625
140.07568359375
114.44091796875
92.46826171875
84.228515625
71.4111328125
56.7626953125
50.35400390625
23.8037109375
13.73291015625
-4.57763671875
-11.90185546875
-15.56396484375
-23.8037109375
-32.958984375
-45.7763671875
-54.01611328125
-53.1005859375
-38.4521484375
-48.52294921875
-47.607421875
-56.7626953125
-63.17138671875
-69.580078125
-74.15771484375
-72.32666015625
-77.81982421875
-74.15771484375
-83.31298828125
-76.904296875
-75.98876953125
-81.48193359375
-85.14404296875
-95.21484375
-94.29931640625
-93.3837890625
-88.80615234375
-76.904296875
-75.98876953125
-86.97509765625
-85.14404296875
-80.56640625
-86.0595703125
-91.552734375
-78.7353515625
-82.3974609375
-82.3974609375
-88.80615234375
-103.45458984375
-99.79248046875
-71.4111328125
-75.98876953125
-90.63720703125
-86.0595703125
-82.3974609375
-84.228515625
-65.00244140625
-68.66455078125
-84.228515625
-77.81982421875
-80.56640625
-76.904296875
-87.890625
-86.0595703125
-69.580078125
-68.66455078125
-75.0732421875
-74.15771484375
-74.15771484375
-71.4111328125
-66.83349609375
-75.98876953125
-80.56640625
-76.904296875
-71.4111328125
-75.98876953125
-75.0732421875
-72.32666015625
-77.81982421875
-81.48193359375
-73.2421875
-73.2421875
-78.7353515625
-84.228515625
-79.65087890625
-81.48193359375
-71.4111328125
-71.4111328125
-72.32666015625
-70.49560546875
-65.00244140625
-71.4111328125
-81.48193359375
-84.228515625
-79.65087890625
-80.56640625
-84.228515625
-86.97509765625
-84.228515625
-80.56640625
-75.0732421875
-65.91796875
-72.32666015625
-88.80615234375
-96.13037109375
-95.21484375
-94.29931640625
-78.7353515625
-68.66455078125
-72.32666015625
-75.98876953125
-92.46826171875
-95.21484375
-97.96142578125
-97.0458984375
-90.63720703125
-85.14404296875
-81.48193359375
-86.97509765625
-97.96142578125
-102.5390625
-109.86328125
-98.876953125
-87.890625
-80.56640625
-100.7080078125
-95.21484375
-88.80615234375
-96.13037109375
-94.29931640625
-86.0595703125
-91.552734375
-95.21484375
-95.21484375
-96.13037109375
-94.29931640625
-86.0595703125
-86.97509765625
-99.79248046875
-99.79248046875
-97.0458984375
-97.96142578125
-97.0458984375
-99.79248046875
-98.876953125
-105.28564453125
-98.876953125
-97.96142578125
-102.5390625
-93.3837890625
-85.14404296875
-93.3837890625
-100.7080078125
-97.0458984375
-106.201171875
-111.6943359375
-111.6943359375
-112.60986328125
-108.0322265625
-108.0322265625
-92.46826171875
-93.3837890625
-103.45458984375
-108.0322265625
-101.62353515625
-103.45458984375
-104.3701171875
-107.11669921875
-99.79248046875
-101.62353515625
-96.13037109375
-99.79248046875
-103.45458984375
-99.79248046875
-99.79248046875
-100.7080078125
-104.3701171875
-97.0458984375
-100.7080078125
-108.94775390625
-97.96142578125
-100.7080078125
-104.3701171875
-104.3701171875
-108.94775390625
-106.201171875
-108.0322265625
-115.3564453125
-105.28564453125
-107.11669921875
-99.79248046875
-97.0458984375
-103.45458984375
-104.3701171875
-102.5390625
-102.5390625
-105.28564453125
-106.201171875
-95.21484375
-106.201171875
-102.5390625
-103.45458984375
-101.62353515625
-92.46826171875
-101.62353515625
-112.60986328125
-116.27197265625
-103.45458984375
-107.11669921875
-100.7080078125
-92.46826171875
-100.7080078125
-101.62353515625
-105.28564453125
-98.876953125
-103.45458984375
-99.79248046875
-87.890625
-87.890625
-85.14404296875
-76.904296875
-78.7353515625
-77.81982421875
-68.66455078125
-70.49560546875
-77.81982421875
-74.15771484375
-70.49560546875
-73.2421875
-63.17138671875
-54.01611328125
-60.4248046875
-61.34033203125
-54.931640625
-50.35400390625
-50.35400390625
-38.4521484375
-23.8037109375
-23.8037109375
-21.05712890625
-7.32421875
-21.97265625
-21.05712890625
-21.97265625
-20.1416015625
-38.4521484375
-46.69189453125
-41.19873046875
-50.35400390625
-48.52294921875
-39.36767578125
-40.283203125
-42.1142578125
-53.1005859375
-57.67822265625
-70.49560546875
-72.32666015625
-69.580078125
-79.65087890625
-82.3974609375
-83.31298828125
-106.201171875
-107.11669921875
-102.5390625
-108.0322265625
-104.3701171875
-106.201171875
-108.94775390625
-106.201171875
-96.13037109375
-92.46826171875
-108.0322265625
-119.0185546875
-111.6943359375
-101.62353515625
-107.11669921875
-116.27197265625
-147.39990234375
-184.02099609375
-222.47314453125
-228.8818359375
-216.97998046875
-187.68310546875
-126.3427734375
-32.04345703125
103.45458984375
273.74267578125
498.046875
696.71630859375
920.10498046875
1128.84521484375
1329.345703125
1453.857421875
1529.84619140625
1556.396484375
1489.56298828125
1363.22021484375
1213.9892578125
1004.33349609375
755.31005859375
388.18359375
133.6669921875
61.34033203125
58.59375
59.50927734375
59.50927734375
65.91796875
46.69189453125
11.90185546875
22.88818359375
33.87451171875
16.4794921875
-10.07080078125
-13.73291015625
-10.07080078125
-18.310546875
-20.1416015625
-29.296875
-31.1279296875
-34.7900390625
-24.71923828125
-35.70556640625
-44.86083984375
-50.35400390625
-49.4384765625
-47.607421875
-37.53662109375
-27.4658203125
-43.9453125
-40.283203125
-31.1279296875
-43.02978515625
-42.1142578125
-32.958984375
-36.62109375
-38.4521484375
-35.70556640625
-36.62109375
-30.21240234375
-24.71923828125
-11.90185546875
-7.32421875
-10.07080078125
-10.07080078125
-12.8173828125
-1.8310546875
-10.07080078125
0
-10.07080078125
-6.40869140625
3.662109375
14.6484375
11.90185546875
-4.57763671875
9.1552734375
20.1416015625
17.39501953125
22.88818359375
32.958984375
39.36767578125
48.52294921875
50.35400390625
43.9453125
42.1142578125
38.4521484375
51.26953125
65.91796875
94.29931640625
91.552734375
83.31298828125
98.876953125
98.876953125
103.45458984375
96.13037109375
100.7080078125
106.201171875
114.44091796875
151.06201171875
158.38623046875
159.3017578125
167.54150390625
162.9638671875
166.6259765625
184.02099609375
193.17626953125
203.2470703125
215.14892578125
224.30419921875
228.8818359375
240.78369140625
262.75634765625
263.671875
270.08056640625
280.1513671875
281.982421875
294.7998046875
297.54638671875
310.36376953125
314.02587890625
319.51904296875
333.251953125
326.84326171875
319.51904296875
325.01220703125
328.67431640625
322.265625
333.251953125
343.32275390625
339.66064453125
335.0830078125
337.82958984375
325.01220703125
313.1103515625
311.279296875
305.7861328125
281.982421875
273.74267578125
271.91162109375
252.685546875
223.388671875
209.65576171875
197.75390625
182.18994140625
154.72412109375
133.6669921875
127.25830078125
119.93408203125
98.876953125
69.580078125
56.7626953125
60.4248046875
43.02978515625
31.1279296875
14.6484375
0
-13.73291015625
-19.22607421875
-14.6484375
-23.8037109375
-27.4658203125
-30.21240234375
-45.7763671875
-55.84716796875
-51.26953125
-57.67822265625
-70.49560546875
-64.0869140625
-75.0732421875
-73.2421875
-80.56640625
-75.0732421875
-77.81982421875
-75.98876953125
-79.65087890625
-84.228515625
-86.0595703125
-91.552734375
-88.80615234375
-95.21484375
-86.0595703125
-72.32666015625
-79.65087890625
-82.3974609375
-92.46826171875
-97.0458984375
-101.62353515625
-105.28564453125
-99.79248046875
-88.80615234375
-84.228515625
-75.98876953125
-85.14404296875
-83.31298828125
-80.56640625
-75.0732421875
-77.81982421875
-90.63720703125
-86.0595703125
-88.80615234375
-79.65087890625
-66.83349609375
-76.904296875
-79.65087890625
-78.7353515625
-75.98876953125
-87.890625
-83.31298828125
-83.31298828125
-82.3974609375
-72.32666015625
-65.91796875
-68.66455078125
-72.32666015625
-69.580078125
-68.66455078125
-78.7353515625
-75.98876953125
-62.255859375
-69.580078125
-71.4111328125
-70.49560546875
-66.83349609375
-71.4111328125
-80.56640625
-71.4111328125
-72.32666015625
-76.904296875
-75.98876953125
-73.2421875
-79.65087890625
-73.2421875
-73.2421875
-79.65087890625
-75.0732421875
-69.580078125
-65.00244140625
-71.4111328125
-65.91796875
-71.4111328125
-77.81982421875
-66.83349609375
-75.98876953125
-87.890625
-86.97509765625
-76.904296875
-87.890625
-79.65087890625
-68.66455078125
-70.49560546875
-70.49560546875
-90.63720703125
-94.29931640625
-105.28564453125
-97.0458984375
-71.4111328125
-67.7490234375
-81.48193359375
-79.65087890625
-93.3837890625
-94.29931640625
-79.65087890625
-77.81982421875
-86.97509765625
-83.31298828125
-83.31298828125
-84.228515625
-80.56640625
-77.81982421875
-82.3974609375
-84.228515625
-80.56640625
-86.97509765625
-93.3837890625
-97.0458984375
-103.45458984375
-100.7080078125
-95.21484375
-94.29931640625
-91.552734375
-96.13037109375
-93.3837890625
-93.3837890625
-89.7216796875
-100.7080078125
-100.7080078125
-95.21484375
-95.21484375
-97.96142578125
-106.201171875
-105.28564453125
-82.3974609375
-80.56640625
-100.7080078125
-96.13037109375
-91.552734375
-98.876953125
-102.5390625
-103.45458984375
-105.28564453125
-102.5390625
-81.48193359375
-90.63720703125
-92.46826171875
-97.0458984375
-91.552734375
-108.94775390625
-101.62353515625
-101.62353515625
-108.0322265625
-89.7216796875
-75.98876953125
-83.31298828125
-102.5390625
-108.0322265625
-108.0322265625
-98.876953125
-100.7080078125
-100.7080078125
-106.201171875
-98.876953125
-90.63720703125
-84.228515625
-92.46826171875
-96.13037109375
-96.13037109375
-98.876953125
-91.552734375
-93.3837890625
-92.46826171875
-97.0458984375
-95.21484375
-96.13037109375
-98.876953125
-102.5390625
-101.62353515625
-101.62353515625
-96.13037109375
-92.46826171875
-100.7080078125
-88.80615234375
-86.97509765625
-102.5390625
-100.7080078125
-91.552734375
-92.46826171875
-97.96142578125
-90.63720703125
-78.7353515625
-80.56640625
-77.81982421875
-67.7490234375
-75.0732421875
-84.228515625
-81.48193359375
-70.49560546875
-78.7353515625
-71.4111328125
-64.0869140625
-61.34033203125
-44.86083984375
-35.70556640625
-47.607421875
-54.01611328125
-41.19873046875
-15.56396484375
-5.4931640625
-7.32421875
-16.4794921875
-20.1416015625
-11.90185546875
-20.1416015625
-31.1279296875
-39.36767578125
-33.87451171875
-28.38134765625
-33.87451171875
-32.958984375
-32.958984375
-43.02978515625
-42.1142578125
-45.7763671875
-32.04345703125
-56.7626953125
-64.0869140625
-74.15771484375
-86.97509765625
-79.65087890625
-77.81982421875
-89.7216796875
-86.0595703125
-86.97509765625
-86.97509765625
-92.46826171875
-86.97509765625
-97.96142578125
-97.96142578125
-93.3837890625
-78.7353515625
-90.63720703125
-92.46826171875
-84.228515625
-104.3701171875
-115.3564453125
-137.3291015625
-173.9501953125
-211.48681640625
-216.064453125
-193.17626953125
-158.38623046875
-101.62353515625
-0.91552734375
125.42724609375
300.29296875
495.30029296875
695.80078125
874.32861328125
1079.40673828125
1265.2587890625
1388.85498046875
1450.1953125
1471.25244140625
1389.7705078125
1268.9208984375
1125.18310546875
904.541015625
636.29150390625
295.71533203125
96.13037109375
43.02978515625
18.310546875
57.67822265625
51.26953125
42.1142578125
32.958984375
16.4794921875
7.32421875
11.90185546875
7.32421875
3.662109375
0.91552734375
-1.8310546875
-19.22607421875
-31.1279296875
-25.634765625
-34.7900390625
-39.36767578125
-43.02978515625
-43.9453125
-38.4521484375
-23.8037109375
-11.90185546875
-33.87451171875
-42.1142578125
-29.296875
-23.8037109375
-28.38134765625
-34.7900390625
-32.04345703125
-35.70556640625
-37.53662109375
-16.4794921875
-11.90185546875
-21.97265625
-27.4658203125
-31.1279296875
-32.958984375
-15.56396484375
-4.57763671875
-6.40869140625
-6.40869140625
-2.74658203125
-9.1552734375
-3.662109375
2.74658203125
15.56396484375
0
17.39501953125
28.38134765625
20.1416015625
15.56396484375
24.71923828125
18.310546875
26.55029296875
35.70556640625
35.70556640625
35.70556640625
38.4521484375
45.7763671875
45.7763671875
59.50927734375
71.4111328125
69.580078125
56.7626953125
56.7626953125
71.4111328125
82.3974609375
93.3837890625
100.7080078125
100.7080078125
113.525390625
128.173828125
127.25830078125
122.6806640625
127.25830078125
133.6669921875
145.56884765625
159.3017578125
175.78125
178.52783203125
174.86572265625
196.83837890625
198.66943359375
202.33154296875
213.31787109375
230.712890625
239.8681640625
249.0234375
261.8408203125
249.93896484375
270.08056640625
287.4755859375
289.306640625
292.96875
290.22216796875
307.6171875
312.19482421875
320.4345703125
324.0966796875
322.265625
327.7587890625
332.33642578125
327.7587890625
325.927734375
323.18115234375
325.01220703125
321.35009765625
328.67431640625
327.7587890625
311.279296875
305.7861328125
283.8134765625
272.8271484375
261.8408203125
255.43212890625
245.361328125
223.388671875
203.2470703125
182.18994140625
171.20361328125
150.146484375
147.39990234375
130.92041015625
109.86328125
91.552734375
76.904296875
68.66455078125
56.7626953125
35.70556640625
26.55029296875
20.1416015625
21.97265625
-3.662109375
-13.73291015625
-17.39501953125
-25.634765625
-32.958984375
-33.87451171875
-41.19873046875
-50.35400390625
-47.607421875
-43.02978515625
-46.69189453125
-45.7763671875
-63.17138671875
-57.67822265625
-73.2421875
-67.7490234375
-68.66455078125
-76.904296875
-72.32666015625
-72.32666015625
-73.2421875
-64.0869140625
-69.580078125
-74.15771484375
-79.65087890625
-80.56640625
-80.56640625
-86.0595703125
-91.552734375
-64.0869140625
-64.0869140625
-76.904296875
-80.56640625
-81.48193359375
-81.48193359375
-74.15771484375
-70.49560546875
-71.4111328125
-77.81982421875
-80.56640625
-91.552734375
-97.96142578125
-86.0595703125
-76.904296875
-71.4111328125
-77.81982421875
-73.2421875
-73.2421875
-69.580078125
-54.931640625
-69.580078125
-77.81982421875
-78.7353515625
-81.48193359375
-79.65087890625
-75.0732421875
-66.83349609375
-66.83349609375
-65.00244140625
-56.7626953125
-65.00244140625
-72.32666015625
-64.0869140625
-70.49560546875
-75.0732421875
-74.15771484375
-65.91796875
-65.00244140625
-54.01611328125
-58.59375
-72.32666015625
-81.48193359375
-81.48193359375
-78.7353515625
-76.904296875
-64.0869140625
-62.255859375
-63.17138671875
-62.255859375
-52.18505859375
-62.255859375
-76.904296875
-79.65087890625
-80.56640625
-77.81982421875
-74.15771484375
-68.66455078125
-65.91796875
-66.83349609375
-59.50927734375
-69.580078125
-78.7353515625
-76.904296875
-86.0595703125
-72.32666015625
-76.904296875
-75.98876953125
-69.580078125
-76.904296875
-78.7353515625
-75.98876953125
-79.65087890625
-79.65087890625
-87.890625
-90.63720703125
-82.3974609375
-86.0595703125
-86.97509765625
-82.3974609375
-81.48193359375
-82.3974609375
-78.7353515625
-87.890625
-95.21484375
-100.7080078125
-90.63720703125
-82.3974609375
-85.14404296875
-86.0595703125
-82.3974609375
-82.3974609375
-90.63720703125
-96.13037109375
-91.552734375
-92.46826171875
-100.7080078125
-87.890625
-89.7216796875
-89.7216796875
-85.14404296875
-91.552734375
-88.80615234375
-90.63720703125
-95.21484375
-94.29931640625
-94.29931640625
-80.56640625
-81.48193359375
-86.0595703125
-84.228515625
-86.0595703125
-84.228515625
-101.62353515625
-97.96142578125
-79.65087890625
-80.56640625
-86.0595703125
-91.552734375
-97.96142578125
-76.904296875
-77.81982421875
-94.29931640625
-88.80615234375
-77.81982421875
-76.904296875
-87.890625
-92.46826171875
-94.29931640625
-94.29931640625
-97.96142578125
-96.13037109375
-86.0595703125
-86.97509765625
-93.3837890625
-100.7080078125
-82.3974609375
-77.81982421875
-94.29931640625
-91.552734375
-86.0595703125
-90.63720703125
-98.876953125
-94.29931640625
-87.890625
-81.48193359375
-84.228515625
-86.0595703125
-82.3974609375
-68.66455078125
-55.84716796875
-59.50927734375
-50.35400390625
-47.607421875
-55.84716796875
-63.17138671875
-54.01611328125
-43.02978515625
-50.35400390625
-50.35400390625
-46.69189453125
-29.296875
-17.39501953125
-8.23974609375
-17.39501953125
-32.04345703125
-18.310546875
-18.310546875
-23.8037109375
-21.05712890625
-12.8173828125
-32.04345703125
-32.04345703125
-35.70556640625
-43.9453125
-46.69189453125
-46.69189453125
-37.53662109375
-27.4658203125
-39.36767578125
-52.18505859375
-58.59375
-63.17138671875
-70.49560546875
-86.0595703125
-84.228515625
-88.80615234375
-96.13037109375
-95.21484375
-95.21484375
-96.13037109375
-93.3837890625
-94.29931640625
-106.201171875
-102.5390625
-105.28564453125
-96.13037109375
-97.96142578125
-103.45458984375
-94.29931640625
-99.79248046875
-135.498046875
-161.1328125
-189.51416015625
-208.740234375
-207.82470703125
-173.03466796875
-113.525390625
-39.36767578125
77.81982421875
240.78369140625
425.72021484375
626.220703125
802.001953125
999.755859375
1194.76318359375
1344.90966796875
1428.22265625
1454.77294921875
1410.82763671875
1304.62646484375
1172.79052734375
986.9384765625
745.2392578125
423.88916015625
127.25830078125
43.02978515625
18.310546875
33.87451171875
47.607421875
54.931640625
38.4521484375
22.88818359375
4.57763671875
0.91552734375
-5.4931640625
-2.74658203125
-7.32421875
-13.73291015625
-19.22607421875
-21.97265625
-39.36767578125
-42.1142578125
-28.38134765625
-44.86083984375
-49.4384765625
-47.607421875
-43.02978515625
-54.01611328125
-47.607421875
-40.283203125
-49.4384765625
-47.607421875
-50.35400390625
-60.4248046875
-55.84716796875
-41.19873046875
-21.05712890625
-23.8037109375
-28.38134765625
-25.634765625
-26.55029296875
-21.97265625
-28.38134765625
-32.04345703125
-40.283203125
-24.71923828125
-24.71923828125
-24.71923828125
-5.4931640625
6.40869140625
4.57763671875
-3.662109375
-2.74658203125
-6.40869140625
-7.32421875
4.57763671875
20.1416015625
20.1416015625
20.1416015625
34.7900390625
26.55029296875
16.4794921875
26.55029296875
29.296875
34.7900390625
42.1142578125
50.35400390625
57.67822265625
53.1005859375
61.34033203125
68.66455078125
75.98876953125
72.32666015625
75.0732421875
84.228515625
96.13037109375
102.5390625
100.7080078125
100.7080078125
121.76513671875
120.849609375
126.3427734375
131.8359375
128.173828125
138.24462890625
160.21728515625
184.02099609375
202.33154296875
195.00732421875
208.740234375
214.2333984375
228.8818359375
227.96630859375
224.30419921875
233.45947265625
249.93896484375
273.74267578125
289.306640625
297.54638671875
298.4619140625
286.56005859375
285.64453125
290.22216796875
314.02587890625
314.94140625
324.0966796875
324.0966796875
337.82958984375
331.4208984375
333.251953125
332.33642578125
326.84326171875
318.603515625
309.4482421875
303.03955078125
306.70166015625
302.1240234375
277.40478515625
265.5029296875
266.41845703125
251.77001953125
227.96630859375
212.40234375
195.9228515625
171.20361328125
161.1328125
146.484375
130.0048828125
119.93408203125
101.62353515625
75.0732421875
53.1005859375
38.4521484375
32.04345703125
16.4794921875
31.1279296875
10.986328125
1.8310546875
-7.32421875
-8.23974609375
-25.634765625
-29.296875
-37.53662109375
-52.18505859375
-59.50927734375
-54.01611328125
-44.86083984375
-57.67822265625
-65.91796875
-58.59375
-78.7353515625
-87.890625
-63.17138671875
-52.18505859375
-62.255859375
-73.2421875
-83.31298828125
-81.48193359375
-74.15771484375
-71.4111328125
-70.49560546875
-75.98876953125
-84.228515625
-84.228515625
-75.0732421875
-78.7353515625
-83.31298828125
-84.228515625
-85.14404296875
-72.32666015625
-76.904296875
-87.890625
-77.81982421875
-91.552734375
-90.63720703125
-99.79248046875
-82.3974609375
-82.3974609375
-87.890625
-74.15771484375
-79.65087890625
-79.65087890625
-82.3974609375
-76.904296875
-82.3974609375
-73.2421875
-68.66455078125
-78.7353515625
-75.98876953125
-75.98876953125
-81.48193359375
-81.48193359375
-83.31298828125
-85.14404296875
-76.904296875
-70.49560546875
-70.49560546875
-82.3974609375
-66.83349609375
-49.4384765625
-60.4248046875
-65.91796875
-65.00244140625
-68.66455078125
-83.31298828125
-80.56640625
-68.66455078125
-73.2421875
-65.91796875
-69.580078125
-81.48193359375
-78.7353515625
-72.32666015625
-67.7490234375
-81.48193359375
-86.0595703125
-62.255859375
-65.00244140625
-66.83349609375
-68.66455078125
-69.580078125
-71.4111328125
-80.56640625
-78.7353515625
-86.0595703125
-82.3974609375
-74.15771484375
-69.580078125
-69.580078125
-70.49560546875
-83.31298828125
-92.46826171875
-90.63720703125
-86.97509765625
-86.97509765625
-88.80615234375
-90.63720703125
-91.552734375
-84.228515625
-82.3974609375
-84.228515625
-87.890625
-81.48193359375
-82.3974609375
-80.56640625
-78.7353515625
-87.890625
-93.3837890625
-91.552734375
-86.97509765625
-91.552734375
-104.3701171875
-91.552734375
-89.7216796875
-97.96142578125
-97.0458984375
-93.3837890625
-97.0458984375
-95.21484375
-79.65087890625
-84.228515625
-93.3837890625
-98.876953125
-97.0458984375
-99.79248046875
-95.21484375
-87.890625
-96.13037109375
-97.96142578125
-97.96142578125
-89.7216796875
-91.552734375
-92.46826171875
-97.96142578125
-97.96142578125
-99.79248046875
-107.11669921875
-99.79248046875
-91.552734375
-85.14404296875
-81.48193359375
-92.46826171875
-91.552734375
-93.3837890625
-97.96142578125
-90.63720703125
-96.13037109375
-101.62353515625
-99.79248046875
-86.97509765625
-106.201171875
-103.45458984375
-96.13037109375
-97.96142578125
-94.29931640625
-87.890625
-91.552734375
-89.7216796875
-85.14404296875
-89.7216796875
-88.80615234375
-92.46826171875
-104.3701171875
-96.13037109375
-97.96142578125
-91.552734375
-95.21484375
-102.5390625
-101.62353515625
-97.96142578125
-99.79248046875
-91.552734375
-97.0458984375
-90.63720703125
-91.552734375
-91.552734375
-90.63720703125
-93.3837890625
-88.80615234375
-86.0595703125
-98.876953125
-108.0322265625
-111.6943359375
-94.29931640625
-89.7216796875
-71.4111328125
-65.00244140625
-70.49560546875
-72.32666015625
-58.59375
-48.52294921875
-58.59375
-65.91796875
-67.7490234375
-63.17138671875
-57.67822265625
-44.86083984375
-43.02978515625
-42.1142578125
-20.1416015625
-29.296875
-29.296875
-31.1279296875
-29.296875
-23.8037109375
-21.05712890625
-13.73291015625
-21.97265625
-23.8037109375
-26.55029296875
-42.1142578125
-49.4384765625
-44.86083984375
-54.01611328125
-53.1005859375
-37.53662109375
-39.36767578125
-53.1005859375
-55.84716796875
-53.1005859375
-63.17138671875
-80.56640625
-96.13037109375
-104.3701171875
-116.27197265625
-107.11669921875
-97.0458984375
-81.48193359375
-91.552734375
-100.7080078125
-124.51171875
-131.8359375
-119.0185546875
-96.13037109375
-102.5390625
-103.45458984375
-102.5390625
-108.94775390625
-110.77880859375
-113.525390625
-156.55517578125
-202.33154296875
-234.375
-217.8955078125
-199.5849609375
-171.20361328125
-95.21484375
11.90185546875
152.89306640625
356.14013671875
560.302734375
769.04296875
986.02294921875
1192.0166015625
1370.54443359375
1474.91455078125
1541.748046875
1538.0859375
1441.0400390625
1301.8798828125
1136.16943359375
921.0205078125
635.3759765625
264.58740234375
83.31298828125
60.4248046875
57.67822265625
46.69189453125
54.931640625
55.84716796875
42.1142578125
23.8037109375
14.6484375
8.23974609375
-2.74658203125
-10.986328125
-1.8310546875
-12.8173828125
-19.22607421875
-16.4794921875
-32.958984375
-40.283203125
-42.1142578125
-47.607421875
-61.34033203125
-68.66455078125
-65.91796875
-54.931640625
-41.19873046875
-32.958984375
-43.02978515625
-50.35400390625
-48.52294921875
-54.931640625
-47.607421875
-35.70556640625
-36.62109375
-27.4658203125
-24.71923828125
-21.05712890625
-20.1416015625
-30.21240234375
-27.4658203125
-21.97265625
-12.8173828125
-10.07080078125
-12.8173828125
-15.56396484375
-10.986328125
-4.57763671875
-5.4931640625
-4.57763671875
2.74658203125
10.986328125
10.07080078125
10.986328125
12.8173828125
6.40869140625
16.4794921875
24.71923828125
32.958984375
39.36767578125
38.4521484375
32.04345703125
36.62109375
54.01611328125
50.35400390625
46.69189453125
61.34033203125
67.7490234375
66.83349609375
74.15771484375
82.3974609375
86.97509765625
80.56640625
98.876953125
102.5390625
95.21484375
113.525390625
116.27197265625
119.0185546875
130.92041015625
149.23095703125
162.9638671875
180.35888671875
186.767578125
184.9365234375
190.4296875
210.5712890625
223.388671875
226.13525390625
231.62841796875
242.61474609375
250.8544921875
255.43212890625
276.4892578125
290.22216796875
284.72900390625
301.20849609375
307.6171875
300.29296875
302.1240234375
316.7724609375
318.603515625
328.67431640625
342.4072265625
329.58984375
319.51904296875
334.16748046875
334.16748046875
329.58984375
330.50537109375
328.67431640625
335.0830078125
315.85693359375
307.6171875
293.88427734375
283.8134765625
271.91162109375
249.93896484375
227.96630859375
211.48681640625
193.17626953125
184.9365234375
165.71044921875
147.39990234375
133.6669921875
119.93408203125
119.0185546875
103.45458984375
70.49560546875
50.35400390625
30.21240234375
11.90185546875
12.8173828125
2.74658203125
-10.986328125
-21.05712890625
-26.55029296875
-10.986328125
-10.07080078125
-24.71923828125
-37.53662109375
-47.607421875
-57.67822265625
-59.50927734375
-62.255859375
-65.00244140625
-60.4248046875
-57.67822265625
-77.81982421875
-72.32666015625
-83.31298828125
-84.228515625
-92.46826171875
-76.904296875
-73.2421875
-80.56640625
-79.65087890625
-82.3974609375
-97.0458984375
-106.201171875
-108.0322265625
-97.96142578125
-93.3837890625
-85.14404296875
-80.56640625
-87.890625
-91.552734375
-79.65087890625
-88.80615234375
-93.3837890625
-101.62353515625
-93.3837890625
-92.46826171875
-85.14404296875
-88.80615234375
-93.3837890625
-85.14404296875
-77.81982421875
-75.98876953125
-83.31298828125
-77.81982421875
-79.65087890625
-91.552734375
-88.80615234375
-96.13037109375
-98.876953125
-84.228515625
-66.83349609375
-63.17138671875
-78.7353515625
-86.97509765625
-81.48193359375
-83.31298828125
-79.65087890625
-76.904296875
-82.3974609375
-79.65087890625
-68.66455078125
-68.66455078125
-75.0732421875
-75.98876953125
-75.0732421875
-73.2421875
-74.15771484375
-77.81982421875
-80.56640625
-75.98876953125
-72.32666015625
-76.904296875
-84.228515625
-81.48193359375
-90.63720703125
-91.552734375
-78.7353515625
-68.66455078125
-75.0732421875
-80.56640625
-71.4111328125
-84.228515625
-86.0595703125
-75.0732421875
-79.65087890625
-93.3837890625
-95.21484375
-89.7216796875
-87.890625
-86.97509765625
-84.228515625
-86.0595703125
-104.3701171875
-111.6943359375
-106.201171875
-116.27197265625
-97.96142578125
-81.48193359375
-92.46826171875
-88.80615234375
-86.97509765625
-95.21484375
-100.7080078125
-108.94775390625
-111.6943359375
-108.94775390625
-98.876953125
-96.13037109375
-96.13037109375
-92.46826171875
-98.876953125
-108.0322265625
-119.0185546875
-95.21484375
-98.876953125
-98.876953125
-107.11669921875
-100.7080078125
-104.3701171875
-110.77880859375
-107.11669921875
-115.3564453125
-104.3701171875
-98.876953125
-103.45458984375
-114.44091796875
-114.44091796875
-113.525390625
-112.60986328125
-105.28564453125
-106.201171875
-121.76513671875
-122.6806640625
-111.6943359375
-117.1875
-109.86328125
-97.0458984375
-107.11669921875
-113.525390625
-108.0322265625
-119.0185546875
-133.6669921875
-124.51171875
-114.44091796875
-126.3427734375
-114.44091796875
-103.45458984375
-104.3701171875
-110.77880859375
-114.44091796875
-108.0322265625
-116.27197265625
-119.93408203125
-117.1875
-112.60986328125
-109.86328125
-105.28564453125
-110.77880859375
-124.51171875
-119.0185546875
-115.3564453125
-115.3564453125
-120.849609375
-125.42724609375
-129.08935546875
-117.1875
-117.1875
-115.3564453125
-112.60986328125
-108.0322265625
-104.3701171875
-117.1875
-119.93408203125
-121.76513671875
-132.75146484375
-135.498046875
-120.849609375
-108.94775390625
-108.94775390625
-110.77880859375
-112.60986328125
-119.93408203125
-121.76513671875
-118.10302734375
-115.3564453125
-118.10302734375
-112.60986328125
-118.10302734375
-126.3427734375
-110.77880859375
-102.5390625
-108.0322265625
-117.1875
-119.0185546875
-106.201171875
-105.28564453125
-98.876953125
-97.96142578125
-100.7080078125
-94.29931640625
-81.48193359375
-66.83349609375
-76.904296875
-72.32666015625
-64.0869140625
-67.7490234375
-73.2421875
-63.17138671875
-61.34033203125
-60.4248046875
-43.02978515625
-42.1142578125
-43.02978515625
-40.283203125
-40.283203125
-45.7763671875
-33.87451171875
-32.958984375
-40.283203125
-50.35400390625
-50.35400390625
-56.7626953125
-68.66455078125
-62.255859375
-62.255859375
-61.34033203125
-63.17138671875
-62.255859375
-75.0732421875
-86.97509765625
-83.31298828125
-90.63720703125
-95.21484375
-103.45458984375
-109.86328125
-117.1875
-112.60986328125
-117.1875
-127.25830078125
-126.3427734375
-123.59619140625
-133.6669921875
-122.6806640625
-117.1875
-116.27197265625
-112.60986328125
-108.0322265625
-107.11669921875
-122.6806640625
-124.51171875
-115.3564453125
-140.9912109375
-167.54150390625
-206.9091796875
-245.361328125
-270.08056640625
-251.77001953125
-226.13525390625
-160.21728515625
-53.1005859375
80.56640625
233.45947265625
453.18603515625
671.9970703125
909.11865234375
1121.52099609375
1334.8388671875
1473.08349609375
1561.8896484375
1604.00390625
1549.98779296875
1398.92578125
1243.2861328125
1045.5322265625
791.93115234375
425.72021484375
141.90673828125
79.65087890625
70.49560546875
54.931640625
62.255859375
51.26953125
34.7900390625
21.97265625
8.23974609375
8.23974609375
5.4931640625
-12.8173828125
-15.56396484375
-12.8173828125
-22.88818359375
-46.69189453125
-54.931640625
-53.1005859375
-59.50927734375
-65.00244140625
-66.83349609375
-75.0732421875
-75.98876953125
-76.904296875
-58.59375
-57.67822265625
-60.4248046875
-65.91796875
-61.34033203125
-63.17138671875
-70.49560546875
-71.4111328125
-79.65087890625
-79.65087890625
-65.91796875
-58.59375
-64.0869140625
-70.49560546875
-68.66455078125
-68.66455078125
-51.26953125
-50.35400390625
-54.01611328125
-39.36767578125
-39.36767578125
-38.4521484375
-44.86083984375
-40.283203125
-37.53662109375
-36.62109375
-33.87451171875
-26.55029296875
-24.71923828125
-11.90185546875
0.91552734375
-15.56396484375
-21.97265625
-9.1552734375
-2.74658203125
0
5.4931640625
7.32421875
14.6484375
23.8037109375
37.53662109375
30.21240234375
37.53662109375
38.4521484375
42.1142578125
51.26953125
59.50927734375
68.66455078125
81.48193359375
89.7216796875
94.29931640625
92.46826171875
91.552734375
97.0458984375
103.45458984375
125.42724609375
143.73779296875
140.9912109375
154.72412109375
164.794921875
172.119140625
184.9365234375
195.9228515625
200.50048828125
211.48681640625
227.05078125
229.79736328125
238.95263671875
250.8544921875
267.333984375
290.22216796875
292.05322265625
283.8134765625
283.8134765625
282.89794921875
294.7998046875
307.6171875
326.84326171875
315.85693359375
312.19482421875
320.4345703125
310.36376953125
320.4345703125
315.85693359375
314.02587890625
311.279296875
306.70166015625
297.54638671875
288.39111328125
279.23583984375
266.41845703125
249.0234375
234.375
216.064453125
189.51416015625
181.2744140625
166.6259765625
145.56884765625
132.75146484375
114.44091796875
95.21484375
75.0732421875
56.7626953125
44.86083984375
30.21240234375
20.1416015625
14.6484375
1.8310546875
-12.8173828125
-18.310546875
-41.19873046875
-46.69189453125
-45.7763671875
-43.9453125
-51.26953125
-67.7490234375
-78.7353515625
-85.14404296875
-88.80615234375
-80.56640625
-62.255859375
-74.15771484375
-92.46826171875
-97.0458984375
-105.28564453125
-101.62353515625
-92.46826171875
-86.97509765625
-99.79248046875
-107.11669921875
-113.525390625
-109.86328125
-112.60986328125
-108.0322265625
-97.96142578125
-103.45458984375
-91.552734375
-95.21484375
-102.5390625
-100.7080078125
-91.552734375
-93.3837890625
-102.5390625
-110.77880859375
-105.28564453125
-113.525390625
-117.1875
-108.0322265625
-109.86328125
-102.5390625
-95.21484375
-106.201171875
-104.3701171875
-97.0458984375
-95.21484375
-104.3701171875
-103.45458984375
-101.62353515625
-99.79248046875
-93.3837890625
-86.97509765625
-109.86328125
-108.94775390625
-103.45458984375
-97.96142578125
-106.201171875
-86.0595703125
-89.7216796875
-95.21484375
-94.29931640625
-88.80615234375
-90.63720703125
-102.5390625
-106.201171875
-110.77880859375
-120.849609375
-103.45458984375
-91.552734375
-95.21484375
-85.14404296875
-76.904296875
-90.63720703125
-96.13037109375
-93.3837890625
-97.0458984375
-95.21484375
-89.7216796875
-87.890625
-95.21484375
-86.97509765625
-78.7353515625
-89.7216796875
-89.7216796875
-86.0595703125
-94.29931640625
-99.79248046875
-99.79248046875
-100.7080078125
-96.13037109375
-84.228515625
-82.3974609375
-94.29931640625
-99.79248046875
-100.7080078125
-99.79248046875
-92.46826171875
-101.62353515625
-99.79248046875
-95.21484375
-88.80615234375
-92.46826171875
-100.7080078125
-103.45458984375
-98.876953125
-105.28564453125
-118.10302734375
-106.201171875
-91.552734375
-102.5390625
-112.60986328125
-110.77880859375
-116.27197265625
-112.60986328125
-103.45458984375
-102.5390625
-116.27197265625
-108.0322265625
-108.0322265625
-108.94775390625
-105.28564453125
-103.45458984375
-118.10302734375
-117.1875
-114.44091796875
-112.60986328125
-113.525390625
-107.11669921875
-101.62353515625
-113.525390625
-105.28564453125
-104.3701171875
-107.11669921875
-113.525390625
-113.525390625
-118.10302734375
-120.849609375
-121.76513671875
-117.1875
-118.10302734375
-106.201171875
-91.552734375
-108.0322265625
-120.849609375
-118.10302734375
-115.3564453125
-108.94775390625
-108.0322265625
-108.0322265625
-108.0322265625
-113.525390625
-101.62353515625
-117.1875
-120.849609375
-117.1875
-120.849609375
-122.6806640625
-104.3701171875
-99.79248046875
-102.5390625
-103.45458984375
-112.60986328125
-115.3564453125
-121.76513671875
-120.849609375
-122.6806640625
-132.75146484375
-117.1875
-115.3564453125
-106.201171875
-103.45458984375
-104.3701171875
-115.3564453125
-116.27197265625
-120.849609375
-120.849609375
-119.0185546875
-116.27197265625
-113.525390625
-127.25830078125
-113.525390625
-108.94775390625
-119.93408203125
-117.1875
-121.76513671875
-120.849609375
-114.44091796875
-108.94775390625
-109.86328125
-116.27197265625
-116.27197265625
-114.44091796875
-119.0185546875
-120.849609375
-121.76513671875
-115.3564453125
-130.0048828125
-117.1875
-111.6943359375
-113.525390625
-98.876953125
-100.7080078125
-111.6943359375
-111.6943359375
-106.201171875
-110.77880859375
-102.5390625
-78.7353515625
-76.904296875
-92.46826171875
-100.7080078125
-81.48193359375
-82.3974609375
-72.32666015625
-71.4111328125
-73.2421875
-80.56640625
-75.98876953125
-67.7490234375
-60.4248046875
-55.84716796875
-39.36767578125
-31.1279296875
-33.87451171875
-30.21240234375
-36.62109375
-32.958984375
-32.958984375
-31.1279296875
-32.04345703125
-43.9453125
-39.36767578125
-38.4521484375
-48.52294921875
-42.1142578125
-44.86083984375
-51.26953125
-54.931640625
-66.83349609375
-80.56640625
-83.31298828125
-86.97509765625
-88.80615234375
-91.552734375
-95.21484375
-117.1875
-115.3564453125
-95.21484375
-92.46826171875
-97.96142578125
-108.0322265625
-102.5390625
-103.45458984375
-92.46826171875
-97.0458984375
-107.11669921875
-104.3701171875
-102.5390625
-107.11669921875
-100.7080078125
-99.79248046875
-117.1875
-167.54150390625
-200.50048828125
-238.037109375
-241.69921875
-205.99365234375
-148.3154296875
-80.56640625
30.21240234375
182.18994140625
383.60595703125
588.68408203125
802.001953125
1021.728515625
1241.455078125
1418.15185546875
1533.50830078125
1603.08837890625
1577.45361328125
1485.90087890625
1333.92333984375
1159.97314453125
923.76708984375
613.4033203125
248.10791015625
105.28564453125
94.29931640625
101.62353515625
86.0595703125
91.552734375
87.890625
53.1005859375
32.04345703125
31.1279296875
32.958984375
18.310546875
11.90185546875
-8.23974609375
-14.6484375
-10.986328125
-17.39501953125
-31.1279296875
-29.296875
-23.8037109375
-24.71923828125
-37.53662109375
-34.7900390625
-35.70556640625
-31.1279296875
-23.8037109375
-21.05712890625
-25.634765625
-37.53662109375
-31.1279296875
-37.53662109375
-33.87451171875
-28.38134765625
-9.1552734375
-7.32421875
-4.57763671875
-3.662109375
-15.56396484375
-24.71923828125
-15.56396484375
-3.662109375
-6.40869140625
-10.07080078125
-10.07080078125
4.57763671875
18.310546875
46.69189453125
34.7900390625
22.88818359375
21.05712890625
32.04345703125
33.87451171875
41.19873046875
43.9453125
37.53662109375
51.26953125
53.1005859375
52.18505859375
55.84716796875
54.01611328125
61.34033203125
69.580078125
71.4111328125
83.31298828125
92.46826171875
100.7080078125
97.96142578125
94.29931640625
99.79248046875
115.3564453125
107.11669921875
109.86328125
127.25830078125
121.76513671875
124.51171875
143.73779296875
152.89306640625
169.37255859375
174.86572265625
188.5986328125
192.2607421875
199.5849609375
207.82470703125
210.5712890625
224.30419921875
235.29052734375
249.93896484375
258.1787109375
272.8271484375
281.982421875
284.72900390625
294.7998046875
303.955078125
309.4482421875
304.87060546875
322.265625
335.99853515625
335.0830078125
345.15380859375
346.0693359375
352.47802734375
355.224609375
356.14013671875
369.873046875
370.78857421875
379.94384765625
376.28173828125
367.12646484375
366.2109375
375.3662109375
363.46435546875
347.900390625
347.900390625
327.7587890625
322.265625
313.1103515625
299.37744140625
281.06689453125
261.8408203125
234.375
220.64208984375
211.48681640625
186.767578125
170.2880859375
166.6259765625
154.72412109375
131.8359375
101.62353515625
89.7216796875
86.0595703125
75.98876953125
54.01611328125
36.62109375
17.39501953125
10.986328125
19.22607421875
19.22607421875
11.90185546875
-0.91552734375
-6.40869140625
-18.310546875
-24.71923828125
-36.62109375
-31.1279296875
-21.97265625
-14.6484375
-24.71923828125
-38.4521484375
-53.1005859375
-60.4248046875
-52.18505859375
-50.35400390625
-40.283203125
-38.4521484375
-52.18505859375
-48.52294921875
-36.62109375
-58.59375
-60.4248046875
-54.931640625
-54.01611328125
-42.1142578125
-35.70556640625
-49.4384765625
-39.36767578125
-38.4521484375
-60.4248046875
-67.7490234375
-61.34033203125
-61.34033203125
-61.34033203125
-55.84716796875
-40.283203125
-35.70556640625
-41.19873046875
-51.26953125
-50.35400390625
-48.52294921875
-54.931640625
-47.607421875
-53.1005859375
-45.7763671875
-43.9453125
-49.4384765625
-43.9453125
-44.86083984375
-45.7763671875
-55.84716796875
-54.931640625
-44.86083984375
-44.86083984375
-32.04345703125
-37.53662109375
-50.35400390625
-57.67822265625
-43.02978515625
-43.9453125
-45.7763671875
-34.7900390625
-41.19873046875
-37.53662109375
-42.1142578125
-35.70556640625
-33.87451171875
-32.04345703125
-34.7900390625
-38.4521484375
-40.283203125
-37.53662109375
-38.4521484375
-44.86083984375
-48.52294921875
-51.26953125
-47.607421875
-49.4384765625
-33.87451171875
-18.310546875
-31.1279296875
-37.53662109375
-36.62109375
-37.53662109375
-35.70556640625
-32.04345703125
-32.04345703125
-27.4658203125
-24.71923828125
-31.1279296875
-52.18505859375
-65.91796875
-67.7490234375
-60.4248046875
-45.7763671875
-40.283203125
-48.52294921875
-54.01611328125
-49.4384765625
-41.19873046875
-56.7626953125
-63.17138671875
-60.4248046875
-60.4248046875
-58.59375
-45.7763671875
-44.86083984375
-53.1005859375
-54.931640625
-55.84716796875
-55.84716796875
-49.4384765625
-62.255859375
-63.17138671875
-56.7626953125
-49.4384765625
-52.18505859375
-57.67822265625
-55.84716796875
-61.34033203125
-75.98876953125
-76.904296875
-60.4248046875
-43.9453125
-45.7763671875
-54.01611328125
-53.1005859375
-56.7626953125
-46.69189453125
-53.1005859375
-60.4248046875
-64.0869140625
-75.0732421875
-65.00244140625
-57.67822265625
-54.931640625
-54.931640625
-50.35400390625
-56.7626953125
-41.19873046875
-67.7490234375
-68.66455078125
-64.0869140625
-54.01611328125
-62.255859375
-57.67822265625
-59.50927734375
-61.34033203125
-44.86083984375
-50.35400390625
-53.1005859375
-44.86083984375
-58.59375
-65.00244140625
-71.4111328125
-66.83349609375
-67.7490234375
-65.00244140625
-65.91796875
-61.34033203125
-52.18505859375
-50.35400390625
-58.59375
-63.17138671875
-54.01611328125
-49.4384765625
-48.52294921875
-54.01611328125
-43.02978515625
-47.607421875
-55.84716796875
-68.66455078125
-57.67822265625
-59.50927734375
-64.0869140625
-67.7490234375
-54.01611328125
-56.7626953125
-44.86083984375
-44.86083984375
-38.4521484375
-45.7763671875
-43.02978515625
-37.53662109375
-23.8037109375
-29.296875
-27.4658203125
-19.22607421875
-2.74658203125
-10.07080078125
-13.73291015625
-22.88818359375
-11.90185546875
-10.07080078125
-9.1552734375
3.662109375
14.6484375
29.296875
22.88818359375
22.88818359375
15.56396484375
20.1416015625
26.55029296875
12.8173828125
5.4931640625
1.8310546875
11.90185546875
17.39501953125
9.1552734375
0
-6.40869140625
-10.07080078125
-12.8173828125
-28.38134765625
-40.283203125
-32.04345703125
-39.36767578125
-43.02978515625
-32.04345703125
-30.21240234375
-44.86083984375
-64.0869140625
-57.67822265625
-57.67822265625
-52.18505859375
-35.70556640625
-36.62109375
-49.4384765625
-56.7626953125
-55.84716796875
-68.66455078125
-63.17138671875
-58.59375
-59.50927734375
-71.4111328125
-81.48193359375
-105.28564453125
-139.16015625
-162.04833984375
-165.71044921875
-162.04833984375
-97.96142578125
-17.39501953125
90.63720703125
234.375
416.56494140625
626.220703125
812.98828125
1007.99560546875
1215.8203125
1391.6015625
1483.154296875
1533.50830078125
1491.39404296875
1385.19287109375
1268.00537109375
1094.05517578125
845.947265625
553.89404296875
230.712890625
92.46826171875
65.00244140625
61.34033203125
70.49560546875
72.32666015625
81.48193359375
71.4111328125
49.4384765625
55.84716796875
60.4248046875
42.1142578125
43.9453125
41.19873046875
19.22607421875
9.1552734375
9.1552734375
4.57763671875
5.4931640625
23.8037109375
18.310546875
14.6484375
8.23974609375
0
-2.74658203125
-3.662109375
6.40869140625
3.662109375
-3.662109375
0.91552734375
12.8173828125
5.4931640625
0.91552734375
9.1552734375
8.23974609375
8.23974609375
12.8173828125
28.38134765625
19.22607421875
10.986328125
18.310546875
21.97265625
31.1279296875
39.36767578125
42.1142578125
47.607421875
47.607421875
52.18505859375
49.4384765625
58.59375
60.4248046875
57.67822265625
54.01611328125
55.84716796875
59.50927734375
58.59375
66.83349609375
71.4111328125
75.0732421875
86.0595703125
94.29931640625
94.29931640625
91.552734375
100.7080078125
105.28564453125
102.5390625
118.10302734375
123.59619140625
123.59619140625
132.75146484375
136.41357421875
130.92041015625
130.92041015625
146.484375
155.6396484375
168.45703125
170.2880859375
173.9501953125
184.02099609375
201.416015625
213.31787109375
216.97998046875
222.47314453125
239.8681640625
236.2060546875
238.95263671875
251.77001953125
272.8271484375
277.40478515625
291.1376953125
305.7861328125
306.70166015625
314.02587890625
318.603515625
327.7587890625
337.82958984375
351.5625
355.224609375
353.3935546875
353.3935546875
365.29541015625
361.63330078125
363.46435546875
378.11279296875
379.94384765625
368.0419921875
372.61962890625
373.53515625
369.873046875
361.63330078125
349.7314453125
336.9140625
325.01220703125
329.58984375
321.35009765625
297.54638671875
282.89794921875
269.1650390625
256.34765625
235.29052734375
223.388671875
203.2470703125
182.18994140625
166.6259765625
149.23095703125
141.90673828125
128.173828125
97.96142578125
89.7216796875
82.3974609375
57.67822265625
47.607421875
54.01611328125
45.7763671875
30.21240234375
12.8173828125
7.32421875
10.07080078125
15.56396484375
7.32421875
-12.8173828125
-23.8037109375
-29.296875
-21.97265625
-16.4794921875
-10.07080078125
-22.88818359375
-30.21240234375
-34.7900390625
-23.8037109375
-23.8037109375
-32.958984375
-31.1279296875
-33.87451171875
-32.958984375
-41.19873046875
-38.4521484375
-54.01611328125
-60.4248046875
-48.52294921875
-43.02978515625
-49.4384765625
-45.7763671875
-43.9453125
-56.7626953125
-52.18505859375
-55.84716796875
-49.4384765625
-44.86083984375
-41.19873046875
-44.86083984375
-46.69189453125
-42.1142578125
-39.36767578125
-57.67822265625
-51.26953125
-52.18505859375
-44.86083984375
-43.9453125
-51.26953125
-52.18505859375
-51.26953125
-42.1142578125
-45.7763671875
-30.21240234375
-34.7900390625
-46.69189453125
-38.4521484375
-40.283203125
-38.4521484375
-30.21240234375
-34.7900390625
-36.62109375
-36.62109375
-43.9453125
-46.69189453125
-47.607421875
-39.36767578125
-32.04345703125
-32.958984375
-30.21240234375
-40.283203125
-35.70556640625
-41.19873046875
-34.7900390625
-42.1142578125
-32.04345703125
-29.296875
-37.53662109375
-34.7900390625
-26.55029296875
-39.36767578125
-46.69189453125
-43.9453125
-32.04345703125
-40.283203125
-38.4521484375
-43.02978515625
-38.4521484375
-31.1279296875
-46.69189453125
-39.36767578125
-36.62109375
-40.283203125
-38.4521484375
-42.1142578125
-45.7763671875
-57.67822265625
-54.01611328125
-45.7763671875
-55.84716796875
-56.7626953125
-48.52294921875
-48.52294921875
-54.931640625
-49.4384765625
-46.69189453125
-52.18505859375
-58.59375
-51.26953125
-40.283203125
-57.67822265625
-55.84716796875
-58.59375
-65.91796875
-64.0869140625
-56.7626953125
-58.59375
-62.255859375
-63.17138671875
-65.91796875
-60.4248046875
-54.01611328125
-45.7763671875
-53.1005859375
-59.50927734375
-65.00244140625
-61.34033203125
-74.15771484375
-78.7353515625
-69.580078125
-75.98876953125
-62.255859375
-60.4248046875
-66.83349609375
-65.91796875
-66.83349609375
-64.0869140625
-62.255859375
-61.34033203125
-72.32666015625
-66.83349609375
-60.4248046875
-57.67822265625
-66.83349609375
-67.7490234375
-66.83349609375
-62.255859375
-62.255859375
-67.7490234375
-71.4111328125
-78.7353515625
-73.2421875
-71.4111328125
-66.83349609375
-73.2421875
-83.31298828125
-65.00244140625
-62.255859375
-58.59375
-56.7626953125
-70.49560546875
-71.4111328125
-76.904296875
-78.7353515625
-78.7353515625
-70.49560546875
-63.17138671875
-66.83349609375
-67.7490234375
-70.49560546875
-60.4248046875
-68.66455078125
-75.0732421875
-81.48193359375
-69.580078125
-69.580078125
-76.904296875
-61.34033203125
-55.84716796875
-58.59375
-73.2421875
-70.49560546875
-68.66455078125
-65.91796875
-54.01611328125
-36.62109375
-30.21240234375
-31.1279296875
-37.53662109375
-43.9453125
-44.86083984375
-51.26953125
-49.4384765625
-32.958984375
-41.19873046875
-35.70556640625
-10.986328125
4.57763671875
6.40869140625
10.07080078125
4.57763671875
-1.8310546875
7.32421875
1.8310546875
-7.32421875
-12.8173828125
-18.310546875
-18.310546875
-16.4794921875
-18.310546875
-21.05712890625
-21.05712890625
-19.22607421875
-30.21240234375
-36.62109375
-50.35400390625
-51.26953125
-49.4384765625
-50.35400390625
-58.59375
-66.83349609375
-65.91796875
-69.580078125
-75.0732421875
-86.0595703125
-82.3974609375
-74.15771484375
-86.0595703125
-87.890625
-95.21484375
-90.63720703125
-77.81982421875
-66.83349609375
-67.7490234375
-75.98876953125
-80.56640625
-95.21484375
-130.92041015625
-168.45703125
-200.50048828125
-210.5712890625
-184.9365234375
-153.80859375
-93.3837890625
4.57763671875
150.146484375
310.36376953125
512.6953125
715.9423828125
926.513671875
1128.84521484375
1307.373046875
1432.80029296875
1500.54931640625
1517.9443359375
1445.61767578125
1314.697265625
1170.95947265625
965.88134765625
694.88525390625
331.4208984375
104.3701171875
44.86083984375
39.36767578125
42.1142578125
60.4248046875
65.91796875
57.67822265625
40.283203125
21.97265625
19.22607421875
23.8037109375
21.05712890625
14.6484375
-2.74658203125
-13.73291015625
-22.88818359375
-31.1279296875
-29.296875
-22.88818359375
-20.1416015625
-10.986328125
-21.05712890625
-22.88818359375
-24.71923828125
-26.55029296875
-38.4521484375
-43.9453125
-36.62109375
-32.958984375
-26.55029296875
-19.22607421875
-19.22607421875
-14.6484375
-10.986328125
-10.986328125
-10.986328125
-15.56396484375
-6.40869140625
-12.8173828125
-10.986328125
1.8310546875
-1.8310546875
-7.32421875
-1.8310546875
2.74658203125
0
6.40869140625
18.310546875
27.4658203125
18.310546875
19.22607421875
20.1416015625
26.55029296875
21.05712890625
27.4658203125
34.7900390625
32.958984375
36.62109375
43.02978515625
41.19873046875
59.50927734375
66.83349609375
67.7490234375
69.580078125
81.48193359375
90.63720703125
81.48193359375
98.876953125
95.21484375
97.96142578125
100.7080078125
114.44091796875
122.6806640625
126.3427734375
144.6533203125
151.9775390625
144.6533203125
141.90673828125
149.23095703125
168.45703125
197.75390625
208.740234375
201.416015625
206.9091796875
233.45947265625
228.8818359375
231.62841796875
248.10791015625
260.009765625
259.09423828125
262.75634765625
270.99609375
286.56005859375
303.955078125
307.6171875
307.6171875
308.53271484375
334.16748046875
336.9140625
330.50537109375
338.7451171875
345.15380859375
342.4072265625
349.7314453125
353.3935546875
348.81591796875
338.7451171875
328.67431640625
328.67431640625
319.51904296875
304.87060546875
303.03955078125
292.05322265625
295.71533203125
277.40478515625
264.58740234375
247.1923828125
229.79736328125
208.740234375
193.17626953125
169.37255859375
142.822265625
123.59619140625
97.96142578125
75.0732421875
86.0595703125
81.48193359375
82.3974609375
67.7490234375
46.69189453125
43.02978515625
25.634765625
11.90185546875
-6.40869140625
-15.56396484375
-28.38134765625
-27.4658203125
-19.22607421875
-27.4658203125
-36.62109375
-38.4521484375
-44.86083984375
-58.59375
-60.4248046875
-57.67822265625
-63.17138671875
-62.255859375
-50.35400390625
-51.26953125
-60.4248046875
-69.580078125
-80.56640625
-76.904296875
-81.48193359375
-86.97509765625
-73.2421875
-74.15771484375
-77.81982421875
-78.7353515625
-83.31298828125
-84.228515625
-81.48193359375
-91.552734375
-86.0595703125
-86.97509765625
-90.63720703125
-96.13037109375
-89.7216796875
-85.14404296875
-93.3837890625
-97.96142578125
-90.63720703125
-84.228515625
-86.0595703125
-76.904296875
-81.48193359375
-73.2421875
-77.81982421875
-95.21484375
-106.201171875
-107.11669921875
-92.46826171875
-64.0869140625
-68.66455078125
-84.228515625
-83.31298828125
-77.81982421875
-75.98876953125
-65.91796875
-65.00244140625
-80.56640625
-89.7216796875
-87.890625
-86.97509765625
-84.228515625
-77.81982421875
-69.580078125
-65.91796875
-80.56640625
-88.80615234375
-87.890625
-84.228515625
-85.14404296875
-82.3974609375
-75.0732421875
-66.83349609375
-79.65087890625
-79.65087890625
-80.56640625
-87.890625
-86.0595703125
-78.7353515625
-77.81982421875
-77.81982421875
-77.81982421875
-98.876953125
-104.3701171875
-89.7216796875
-91.552734375
-83.31298828125
-90.63720703125
-94.29931640625
-86.0595703125
-93.3837890625
-97.0458984375
-97.0458984375
-96.13037109375
-88.80615234375
-85.14404296875
-97.0458984375
-119.0185546875
-101.62353515625
-103.45458984375
-107.11669921875
-113.525390625
-101.62353515625
-97.0458984375
-95.21484375
-98.876953125
-94.29931640625
-92.46826171875
-114.44091796875
-114.44091796875
-114.44091796875
-119.93408203125
-119.0185546875
-86.97509765625
-109.86328125
-107.11669921875
-109.86328125
-127.25830078125
-124.51171875
-112.60986328125
-117.1875
-110.77880859375
-107.11669921875
-121.76513671875
-112.60986328125
-110.77880859375
-130.0048828125
-122.6806640625
-117.1875
-123.59619140625
-125.42724609375
-133.6669921875
-114.44091796875
-119.93408203125
-97.96142578125
-123.59619140625
-113.525390625
-124.51171875
-130.0048828125
-131.8359375
-140.07568359375
-148.3154296875
-123.59619140625
-104.3701171875
-112.60986328125
-103.45458984375
-83.31298828125
-98.876953125
-86.97509765625
-69.580078125
-122.6806640625
-148.3154296875
-145.56884765625
-128.173828125
-120.849609375
-132.75146484375
-129.08935546875
-145.56884765625
-129.08935546875
-123.59619140625
-133.6669921875
-142.822265625
-123.59619140625
-114.44091796875
-89.7216796875
-119.93408203125
-134.58251953125
-142.822265625
-131.8359375
-141.90673828125
-142.822265625
-133.6669921875
-118.10302734375
-121.76513671875
-136.41357421875
-129.08935546875
-121.76513671875
-129.08935546875
-131.8359375
-129.08935546875
-138.24462890625
-134.58251953125
-143.73779296875
-151.9775390625
-135.498046875
-130.92041015625
-137.3291015625
-136.41357421875
-131.8359375
-129.08935546875
-143.73779296875
-143.73779296875
-131.8359375
-126.3427734375
-131.8359375
-129.08935546875
-140.9912109375
-150.146484375
-147.39990234375
-148.3154296875
-145.56884765625
-141.90673828125
-140.9912109375
-142.822265625
-139.16015625
-141.90673828125
-135.498046875
-127.25830078125
-123.59619140625
-120.849609375
-114.44091796875
-106.201171875
-105.28564453125
-108.0322265625
-118.10302734375
-118.10302734375
-120.849609375
-113.525390625
-93.3837890625
-91.552734375
-94.29931640625
-84.228515625
-81.48193359375
-80.56640625
-60.4248046875
-64.0869140625
-64.0869140625
-75.0732421875
-65.91796875
-60.4248046875
-66.83349609375
-72.32666015625
-70.49560546875
-81.48193359375
-83.31298828125
-82.3974609375
-76.904296875
-77.81982421875
-82.3974609375
-82.3974609375
-86.0595703125
-92.46826171875
-107.11669921875
-122.6806640625
-125.42724609375
-126.3427734375
-138.24462890625
-130.92041015625
-112.60986328125
-122.6806640625
-155.6396484375
-161.1328125
-140.9912109375
-132.75146484375
-128.173828125
-140.9912109375
-162.9638671875
-144.6533203125
-141.90673828125
-138.24462890625
-132.75146484375
-149.23095703125
-158.38623046875
-158.38623046875
-162.9638671875
-200.50048828125
-232.5439453125
-257.26318359375
-265.5029296875
-240.78369140625
-205.99365234375
-146.484375
-48.52294921875
88.80615234375
300.29296875
528.25927734375
750.732421875
967.71240234375
1158.14208984375
1357.72705078125
1467.59033203125
1555.48095703125
1554.5654296875
1454.77294921875
1303.7109375
1137.0849609375
932.0068359375
651.85546875
276.4892578125
87.890625
48.52294921875
35.70556640625
20.1416015625
25.634765625
18.310546875
3.662109375
-22.88818359375
-11.90185546875
-20.1416015625
-29.296875
-38.4521484375
-28.38134765625
-44.86083984375
-59.50927734375
-66.83349609375
-66.83349609375
-76.904296875
-86.97509765625
-86.97509765625
-90.63720703125
-95.21484375
-89.7216796875
-88.80615234375
-86.97509765625
-75.98876953125
-65.91796875
-82.3974609375
-81.48193359375
-83.31298828125
-94.29931640625
-84.228515625
-81.48193359375
-79.65087890625
-72.32666015625
-59.50927734375
-66.83349609375
-75.0732421875
-74.15771484375
-57.67822265625
-54.931640625
-48.52294921875
-42.1142578125
-48.52294921875
-51.26953125
-46.69189453125
-43.02978515625
-45.7763671875
-24.71923828125
-23.8037109375
-30.21240234375
-29.296875
-20.1416015625
-20.1416015625
-23.8037109375
-3.662109375
-3.662109375
-3.662109375
-4.57763671875
-1.8310546875
-3.662109375
9.1552734375
21.05712890625
21.05712890625
24.71923828125
52.18505859375
42.1142578125
28.38134765625
43.9453125
38.4521484375
43.9453125
59.50927734375
66.83349609375
67.7490234375
67.7490234375
102.5390625
101.62353515625
110.77880859375
123.59619140625
135.498046875
146.484375
146.484375
146.484375
163.87939453125
177.6123046875
187.68310546875
193.17626953125
206.9091796875
209.65576171875
215.14892578125
224.30419921875
242.61474609375
255.43212890625
259.09423828125
268.24951171875
280.1513671875
281.982421875
283.8134765625
283.8134765625
293.88427734375
304.87060546875
307.6171875
307.6171875
309.4482421875
318.603515625
323.18115234375
321.35009765625
316.7724609375
306.70166015625
307.6171875
300.29296875
289.306640625
287.4755859375
267.333984375
248.10791015625
248.10791015625
235.29052734375
216.97998046875
195.00732421875
174.86572265625
151.9775390625
122.6806640625
114.44091796875
102.5390625
89.7216796875
89.7216796875
65.91796875
52.18505859375
34.7900390625
22.88818359375
9.1552734375
-0.91552734375
-11.90185546875
-21.05712890625
-25.634765625
-32.958984375
-51.26953125
-61.34033203125
-61.34033203125
-59.50927734375
-83.31298828125
-87.890625
-87.890625
-90.63720703125
-89.7216796875
-94.29931640625
-84.228515625
-91.552734375
-103.45458984375
-116.27197265625
-117.1875
-105.28564453125
-95.21484375
-86.0595703125
-86.0595703125
-90.63720703125
-95.21484375
-99.79248046875
-102.5390625
-102.5390625
-108.94775390625
-97.0458984375
-97.0458984375
-108.94775390625
-108.0322265625
-108.94775390625
-96.13037109375
-105.28564453125
-96.13037109375
-94.29931640625
-91.552734375
-94.29931640625
-109.86328125
-105.28564453125
-103.45458984375
-97.0458984375
-95.21484375
-92.46826171875
-97.96142578125
-105.28564453125
-106.201171875
-93.3837890625
-90.63720703125
-95.21484375
-95.21484375
-98.876953125
-95.21484375
-104.3701171875
-108.0322265625
-104.3701171875
-97.96142578125
-97.96142578125
-86.0595703125
-91.552734375
-95.21484375
-90.63720703125
-95.21484375
-112.60986328125
-112.60986328125
-97.0458984375
-82.3974609375
-95.21484375
-90.63720703125
-87.890625
-82.3974609375
-85.14404296875
-82.3974609375
-87.890625
-90.63720703125
-94.29931640625
-97.96142578125
-103.45458984375
-86.97509765625
-92.46826171875
-90.63720703125
-76.904296875
-86.0595703125
-81.48193359375
-92.46826171875
-105.28564453125
-119.0185546875
-115.3564453125
-98.876953125
-83.31298828125
-90.63720703125
-88.80615234375
-85.14404296875
-85.14404296875
-94.29931640625
-97.0458984375
-108.94775390625
-107.11669921875
-106.201171875
-101.62353515625
-95.21484375
-97.96142578125
-104.3701171875
-106.201171875
-110.77880859375
-109.86328125
-107.11669921875
-100.7080078125
-95.21484375
-105.28564453125
-107.11669921875
-103.45458984375
-103.45458984375
-96.13037109375
-100.7080078125
-108.94775390625
-116.27197265625
-115.3564453125
-108.94775390625
-105.28564453125
-107.11669921875
-113.525390625
-101.62353515625
-111.6943359375
-115.3564453125
-118.10302734375
-105.28564453125
-106.201171875
-101.62353515625
-107.11669921875
-107.11669921875
-108.94775390625
-108.0322265625
-103.45458984375
-133.6669921875
-124.51171875
-110.77880859375
-114.44091796875
-113.525390625
-112.60986328125
-104.3701171875
-103.45458984375
-109.86328125
-119.0185546875
-117.1875
-119.93408203125
-118.10302734375
-122.6806640625
-105.28564453125
-113.525390625
-116.27197265625
-117.1875
-106.201171875
-116.27197265625
-116.27197265625
-120.849609375
-114.44091796875
-111.6943359375
-113.525390625
-110.77880859375
-106.201171875
-99.79248046875
-106.201171875
-123.59619140625
-124.51171875
-115.3564453125
-114.44091796875
-117.1875
-114.44091796875
-110.77880859375
-109.86328125
-110.77880859375
-116.27197265625
-119.93408203125
-122.6806640625
-112.60986328125
-119.93408203125
-124.51171875
-119.93408203125
-122.6806640625
-110.77880859375
-99.79248046875
-108.0322265625
-114.44091796875
-113.525390625
-114.44091796875
-116.27197265625
-121.76513671875
-114.44091796875
-118.10302734375
-120.849609375
-106.201171875
-102.5390625
-103.45458984375
-108.0322265625
-120.849609375
-111.6943359375
-110.77880859375
-111.6943359375
-104.3701171875
-104.3701171875
-84.228515625
-86.0595703125
-84.228515625
-75.98876953125
-82.3974609375
-84.228515625
-75.0732421875
-59.50927734375
-72.32666015625
-78.7353515625
-67.7490234375
-70.49560546875
-72.32666015625
-60.4248046875
-58.59375
-53.1005859375
-50.35400390625
-36.62109375
-35.70556640625
-30.21240234375
-22.88818359375
-38.4521484375
-36.62109375
-41.19873046875
-49.4384765625
-57.67822265625
-75.0732421875
-62.255859375
-69.580078125
-70.49560546875
-57.67822265625
-56.7626953125
-70.49560546875
-92.46826171875
-99.79248046875
-100.7080078125
-110.77880859375
-103.45458984375
-114.44091796875
-119.0185546875
-113.525390625
-114.44091796875
-115.3564453125
-119.93408203125
-137.3291015625
-147.39990234375
-146.484375
-132.75146484375
-140.07568359375
-128.173828125
-119.0185546875
-117.1875
-115.3564453125
-130.0048828125
-139.16015625
-129.08935546875
-159.3017578125
-183.10546875
-218.81103515625
-261.8408203125
-260.009765625
-241.69921875
-215.14892578125
-139.16015625
-43.9453125
99.79248046875
303.955078125
530.09033203125
758.056640625
974.12109375
1187.43896484375
1377.86865234375
1474.91455078125
1555.48095703125
1552.734375
1462.09716796875
1322.93701171875
1156.31103515625
944.82421875
637.20703125
253.60107421875
78.7353515625
48.52294921875
47.607421875
36.62109375
27.4658203125
28.38134765625
7.32421875
-8.23974609375
-1.8310546875
-13.73291015625
-35.70556640625
-65.00244140625
-54.01611328125
-54.931640625
-65.91796875
-65.00244140625
-69.580078125
-79.65087890625
-83.31298828125
-81.48193359375
-83.31298828125
-101.62353515625
-93.3837890625
-89.7216796875
-93.3837890625
-85.14404296875
-83.31298828125
-82.3974609375
-94.29931640625
-79.65087890625
-69.580078125
-75.98876953125
-98.876953125
-96.13037109375
-86.0595703125
-74.15771484375
-64.0869140625
-64.0869140625
-71.4111328125
-76.904296875
-88.80615234375
-73.2421875
-58.59375
-45.7763671875
-48.52294921875
-43.02978515625
-45.7763671875
-41.19873046875
-41.19873046875
-34.7900390625
-20.1416015625
-25.634765625
-36.62109375
-42.1142578125
-22.88818359375
-18.310546875
-19.22607421875
-10.07080078125
0
7.32421875
6.40869140625
13.73291015625
18.310546875
16.4794921875
30.21240234375
37.53662109375
24.71923828125
19.22607421875
28.38134765625
51.26953125
47.607421875
59.50927734375
62.255859375
61.34033203125
93.3837890625
84.228515625
92.46826171875
108.94775390625
122.6806640625
120.849609375
133.6669921875
132.75146484375
127.25830078125
152.89306640625
166.6259765625
163.87939453125
190.4296875
208.740234375
208.740234375
218.81103515625
226.13525390625
232.5439453125
225.2197265625
253.60107421875
260.009765625
266.41845703125
272.8271484375
272.8271484375
281.06689453125
295.71533203125
293.88427734375
297.54638671875
295.71533203125
310.36376953125
304.87060546875
318.603515625
301.20849609375
289.306640625
325.927734375
290.22216796875
269.1650390625
286.56005859375
265.5029296875
248.10791015625
225.2197265625
216.064453125
206.9091796875
194.091796875
184.9365234375
155.6396484375
133.6669921875
120.849609375
105.28564453125
82.3974609375
73.2421875
56.7626953125
33.87451171875
23.8037109375
4.57763671875
-16.4794921875
-32.04345703125
-28.38134765625
-47.607421875
-42.1142578125
-63.17138671875
-79.65087890625
-66.83349609375
-84.228515625
-90.63720703125
-90.63720703125
-104.3701171875
-118.10302734375
-122.6806640625
-107.11669921875
-111.6943359375
-114.44091796875
-124.51171875
-123.59619140625
-118.10302734375
-115.3564453125
-127.25830078125
-146.484375
-134.58251953125
-96.13037109375
-108.0322265625
-107.11669921875
-132.75146484375
-140.9912109375
-155.6396484375
-158.38623046875
-134.58251953125
-132.75146484375
-132.75146484375
-135.498046875
-140.07568359375
-130.92041015625
-126.3427734375
-150.146484375
-142.822265625
-143.73779296875
-120.849609375
-129.08935546875
-136.41357421875
-135.498046875
-140.07568359375
-148.3154296875
-129.08935546875
-139.16015625
-148.3154296875
-118.10302734375
-134.58251953125
-134.58251953125
-139.16015625
-131.8359375
-114.44091796875
-132.75146484375
-148.3154296875
-124.51171875
-129.08935546875
-138.24462890625
-122.6806640625
-135.498046875
-130.92041015625
-123.59619140625
-135.498046875
-138.24462890625
-128.173828125
-141.90673828125
-129.08935546875
-100.7080078125
-120.849609375
-136.41357421875
-134.58251953125
-107.11669921875
-111.6943359375
-115.3564453125
-124.51171875
-122.6806640625
-133.6669921875
-130.92041015625
-131.8359375
-127.25830078125
-141.90673828125
-130.92041015625
-109.86328125
-120.849609375
-140.07568359375
-144.6533203125
-138.24462890625
-129.08935546875
-126.3427734375
-126.3427734375
-134.58251953125
-122.6806640625
-130.92041015625
-125.42724609375
-112.60986328125
-130.92041015625
-157.470703125
-142.822265625
-125.42724609375
-133.6669921875
-133.6669921875
-146.484375
-151.06201171875
-145.56884765625
-131.8359375
-150.146484375
-154.72412109375
-137.3291015625
-124.51171875
-134.58251953125
-133.6669921875
-130.92041015625
-143.73779296875
-148.3154296875
-139.16015625
-134.58251953125
-107.11669921875
-108.0322265625
-135.498046875
-140.9912109375
-143.73779296875
-141.90673828125
-137.3291015625
-122.6806640625
-116.27197265625
-129.08935546875
-137.3291015625
-140.9912109375
-138.24462890625
-136.41357421875
-123.59619140625
-121.76513671875
-118.10302734375
-138.24462890625
-147.39990234375
-134.58251953125
-135.498046875
-129.08935546875
-122.6806640625
-129.08935546875
-126.3427734375
-130.92041015625
-136.41357421875
-133.6669921875
-130.92041015625
-131.8359375
-138.24462890625
-132.75146484375
-130.0048828125
-128.173828125
-124.51171875
-124.51171875
-138.24462890625
-137.3291015625
-136.41357421875
-140.9912109375
-130.92041015625
-120.849609375
-125.42724609375
-136.41357421875
-132.75146484375
-125.42724609375
-147.39990234375
-150.146484375
-129.08935546875
-135.498046875
-140.07568359375
-136.41357421875
-137.3291015625
-123.59619140625
-104.3701171875
-114.44091796875
-129.08935546875
-138.24462890625
-136.41357421875
-136.41357421875
-125.42724609375
-115.3564453125
-144.6533203125
-151.06201171875
-130.0048828125
-132.75146484375
-134.58251953125
-117.1875
-104.3701171875
-121.76513671875
-127.25830078125
-97.96142578125
-95.21484375
-86.97509765625
-77.81982421875
-94.29931640625
-95.21484375
-102.5390625
-79.65087890625
-99.79248046875
-93.3837890625
-61.34033203125
-35.70556640625
-58.59375
-86.0595703125
-80.56640625
-58.59375
-48.52294921875
-42.1142578125
-52.18505859375
-28.38134765625
-12.8173828125
-39.36767578125
-12.8173828125
-38.4521484375
-83.31298828125
-68.66455078125
-50.35400390625
-78.7353515625
-75.0732421875
-33.87451171875
-71.4111328125
-86.0595703125
-77.81982421875
-76.904296875
-58.59375
-96.13037109375
-97.96142578125
-97.96142578125
-93.3837890625
-109.86328125
-119.0185546875
-116.27197265625
-141.90673828125
-130.92041015625
-101.62353515625
-100.7080078125
-101.62353515625
-95.21484375
-124.51171875
-86.97509765625
-67.7490234375
-85.14404296875
-109.86328125
-107.11669921875
-123.59619140625
-180.35888671875
-212.40234375
-216.97998046875
-220.64208984375
-190.4296875
-116.27197265625
-62.255859375
54.931640625
192.2607421875
392.76123046875
630.79833984375
829.4677734375
1040.95458984375
1262.51220703125
1423.64501953125
1536.2548828125
1620.4833984375
1581.11572265625
1454.77294921875
1334.8388671875
1144.4091796875
881.65283203125
539.24560546875
177.6123046875
96.13037109375
54.931640625
59.50927734375
42.1142578125
34.7900390625
37.53662109375
32.04345703125
12.8173828125
-4.57763671875
-8.23974609375
-8.23974609375
-10.986328125
-44.86083984375
-55.84716796875
-63.17138671875
-68.66455078125
-68.66455078125
-83.31298828125
-86.97509765625
-70.49560546875
-72.32666015625
-65.91796875
-77.81982421875
-72.32666015625
-44.86083984375
-87.890625
-100.7080078125
-90.63720703125
-104.3701171875
-93.3837890625
-86.0595703125
-49.4384765625
-69.580078125
-59.50927734375
-72.32666015625
-74.15771484375
-54.01611328125
-68.66455078125
-53.1005859375
-37.53662109375
-56.7626953125
-67.7490234375
-66.83349609375
-54.01611328125
-43.9453125
-42.1142578125
-45.7763671875
-41.19873046875
-25.634765625
-28.38134765625
-32.04345703125
-24.71923828125
-8.23974609375
-17.39501953125
-5.4931640625
-0.91552734375
-19.22607421875
0.91552734375
21.05712890625
82.3974609375
96.13037109375
20.1416015625
25.634765625
5.4931640625
12.8173828125
27.4658203125
32.958984375
55.84716796875
33.87451171875
48.52294921875
74.15771484375
67.7490234375
70.49560546875
98.876953125
112.60986328125
88.80615234375
88.80615234375
109.86328125
115.3564453125
138.24462890625
134.58251953125
158.38623046875
163.87939453125
169.37255859375
212.40234375
251.77001953125
182.18994140625
187.68310546875
236.2060546875
241.69921875
243.5302734375
235.29052734375
241.69921875
267.333984375
253.60107421875
295.71533203125
288.39111328125
279.23583984375
293.88427734375
299.37744140625
327.7587890625
335.99853515625
334.16748046875
333.251953125
319.51904296875
325.927734375
323.18115234375
310.36376953125
304.87060546875
290.22216796875
271.91162109375
268.24951171875
264.58740234375
250.8544921875
239.8681640625
218.81103515625
206.9091796875
181.2744140625
164.794921875
150.146484375
134.58251953125
130.0048828125
106.201171875
81.48193359375
61.34033203125
24.71923828125
21.05712890625
21.05712890625
6.40869140625
-3.662109375
-14.6484375
-25.634765625
-43.02978515625
-66.83349609375
-85.14404296875
-97.96142578125
-95.21484375
-77.81982421875
-72.32666015625
-79.65087890625
-89.7216796875
-78.7353515625
-86.0595703125
-103.45458984375
-113.525390625
-118.10302734375
-111.6943359375
-109.86328125
-109.86328125
-116.27197265625
-121.76513671875
-114.44091796875
-106.201171875
-104.3701171875
-102.5390625
-112.60986328125
-120.849609375
-116.27197265625
-130.92041015625
-130.92041015625
-121.76513671875
-110.77880859375
-117.1875
-125.42724609375
-119.0185546875
-110.77880859375
-116.27197265625
-123.59619140625
-118.10302734375
-114.44091796875
-115.3564453125
-112.60986328125
-116.27197265625
-119.93408203125
-112.60986328125
-112.60986328125
-116.27197265625
-115.3564453125
-110.77880859375
-105.28564453125
-110.77880859375
-107.11669921875
-120.849609375
-116.27197265625
-116.27197265625
-117.1875
-119.0185546875
-104.3701171875
-107.11669921875
-110.77880859375
-102.5390625
-91.552734375
-103.45458984375
-108.0322265625
-104.3701171875
-96.13037109375
-102.5390625
-109.86328125
-110.77880859375
-93.3837890625
-112.60986328125
-92.46826171875
-102.5390625
-96.13037109375
-88.80615234375
-102.5390625
-106.201171875
-101.62353515625
-107.11669921875
-92.46826171875
-92.46826171875
-96.13037109375
-106.201171875
-104.3701171875
-106.201171875
-113.525390625
-112.60986328125
-106.201171875
-100.7080078125
-100.7080078125
-92.46826171875
-91.552734375
-108.0322265625
-100.7080078125
-100.7080078125
-105.28564453125
-105.28564453125
-102.5390625
-105.28564453125
-119.0185546875
-112.60986328125
-119.0185546875
-109.86328125
-108.94775390625
-104.3701171875
-112.60986328125
-125.42724609375
-127.25830078125
-119.0185546875
-119.93408203125
-99.79248046875
-102.5390625
-116.27197265625
-119.0185546875
-121.76513671875
-122.6806640625
-128.173828125
-118.10302734375
-115.3564453125
-110.77880859375
-113.525390625
-108.94775390625
-119.0185546875
-130.0048828125
-126.3427734375
-129.08935546875
-119.93408203125
-130.92041015625
-128.173828125
-123.59619140625
-115.3564453125
-117.1875
-118.10302734375
-120.849609375
-122.6806640625
-131.8359375
-134.58251953125
-121.76513671875
-113.525390625
-119.0185546875
-130.0048828125
-119.93408203125
-119.0185546875
-121.76513671875
-124.51171875
-120.849609375
-123.59619140625
-116.27197265625
-117.1875
-108.0322265625
-86.97509765625
-77.81982421875
-78.7353515625
-83.31298828125
-85.14404296875
-80.56640625
-78.7353515625
-74.15771484375
-84.228515625
-92.46826171875
-86.97509765625
-70.49560546875
-58.59375
-59.50927734375
-45.7763671875
-45.7763671875
-53.1005859375
-39.36767578125
-27.4658203125
-39.36767578125
-29.296875
-32.04345703125
-56.7626953125
-60.4248046875
-67.7490234375
-56.7626953125
-60.4248046875
-67.7490234375
-61.34033203125
-69.580078125
-70.49560546875
-69.580078125
-86.97509765625
-107.11669921875
-110.77880859375
-117.1875
-120.849609375
-127.25830078125
-115.3564453125
-128.173828125
-136.41357421875
-123.59619140625
-130.0048828125
-122.6806640625
-130.0048828125
-125.42724609375
-129.08935546875
-130.0048828125
-132.75146484375
-133.6669921875
-144.6533203125
-144.6533203125
-162.9638671875
-183.10546875
-234.375
-263.671875
-257.26318359375
-238.95263671875
-195.00732421875
-124.51171875
-23.8037109375
115.3564453125
309.4482421875
524.59716796875
741.5771484375
970.458984375
1176.45263671875
1363.22021484375
1483.154296875
1558.2275390625
1558.2275390625
1474.91455078125
1329.345703125
1151.7333984375
918.27392578125
615.234375
229.79736328125
61.34033203125
45.7763671875
46.69189453125
33.87451171875
51.26953125
45.7763671875
21.97265625
1.8310546875
-12.8173828125
-9.1552734375
-17.39501953125
-24.71923828125
-29.296875
-32.04345703125
-38.4521484375
-50.35400390625
-63.17138671875
-65.91796875
-67.7490234375
-75.0732421875
-72.32666015625
-63.17138671875
-65.91796875
-67.7490234375
-77.81982421875
-84.228515625
-88.80615234375
-76.904296875
-69.580078125
-67.7490234375
-64.0869140625
-58.59375
-48.52294921875
-55.84716796875
-45.7763671875
-58.59375
-65.91796875
-55.84716796875
-43.02978515625
-37.53662109375
-39.36767578125
-33.87451171875
-39.36767578125
-45.7763671875
-29.296875
-29.296875
-14.6484375
-18.310546875
-11.90185546875
-4.57763671875
-10.07080078125
-1.8310546875
-4.57763671875
-5.4931640625
4.57763671875
5.4931640625
4.57763671875
14.6484375
19.22607421875
16.4794921875
35.70556640625
33.87451171875
34.7900390625
38.4521484375
54.931640625
51.26953125
61.34033203125
67.7490234375
63.17138671875
73.2421875
78.7353515625
96.13037109375
98.876953125
106.201171875
114.44091796875
119.93408203125
128.173828125
133.6669921875
151.06201171875
153.80859375
153.80859375
171.20361328125
177.6123046875
184.02099609375
198.66943359375
214.2333984375
215.14892578125
226.13525390625
234.375
258.1787109375
273.74267578125
274.658203125
278.3203125
289.306640625
298.4619140625
294.7998046875
310.36376953125
311.279296875
303.955078125
318.603515625
334.16748046875
346.98486328125
347.900390625
343.32275390625
348.81591796875
341.49169921875
332.33642578125
325.927734375
324.0966796875
315.85693359375
301.20849609375
283.8134765625
281.982421875
262.75634765625
248.10791015625
227.05078125
208.740234375
187.68310546875
172.119140625
151.9775390625
131.8359375
114.44091796875
101.62353515625
88.80615234375
71.4111328125
54.931640625
41.19873046875
22.88818359375
14.6484375
0.91552734375
-16.4794921875
-15.56396484375
-35.70556640625
-41.19873046875
-40.283203125
-47.607421875
-56.7626953125
-63.17138671875
-65.91796875
-75.0732421875
-79.65087890625
-77.81982421875
-85.14404296875
-88.80615234375
-85.14404296875
-88.80615234375
-95.21484375
-103.45458984375
-113.525390625
-86.97509765625
-90.63720703125
-95.21484375
-89.7216796875
-89.7216796875
-89.7216796875
-99.79248046875
-108.94775390625
-116.27197265625
-110.77880859375
-104.3701171875
-100.7080078125
-103.45458984375
-108.94775390625
-105.28564453125
-91.552734375
-103.45458984375
-101.62353515625
-108.94775390625
-107.11669921875
-112.60986328125
-102.5390625
-101.62353515625
-109.86328125
-107.11669921875
-97.96142578125
-107.11669921875
-99.79248046875
-108.0322265625
-115.3564453125
-123.59619140625
-105.28564453125
-95.21484375
-94.29931640625
-90.63720703125
-84.228515625
-91.552734375
-116.27197265625
-118.10302734375
-109.86328125
-87.890625
-75.0732421875
-73.2421875
-74.15771484375
-79.65087890625
-80.56640625
-94.29931640625
-86.97509765625
-87.890625
-89.7216796875
-90.63720703125
-78.7353515625
-93.3837890625
-98.876953125
-86.97509765625
-78.7353515625
-86.97509765625
-86.97509765625
-90.63720703125
-93.3837890625
-96.13037109375
-97.0458984375
-93.3837890625
-99.79248046875
-95.21484375
-97.96142578125
-97.0458984375
-97.0458984375
-106.201171875
-102.5390625
-99.79248046875
-95.21484375
-103.45458984375
-92.46826171875
-97.0458984375
-93.3837890625
-97.0458984375
-109.86328125
-90.63720703125
-97.0458984375
-101.62353515625
-114.44091796875
-120.849609375
-129.08935546875
-114.44091796875
-97.96142578125
-96.13037109375
-100.7080078125
-107.11669921875
-98.876953125
-97.96142578125
-100.7080078125
-97.0458984375
-102.5390625
-96.13037109375
-101.62353515625
-103.45458984375
-100.7080078125
-101.62353515625
-118.10302734375
-126.3427734375
-119.93408203125
-121.76513671875
-119.0185546875
-90.63720703125
-94.29931640625
-101.62353515625
-117.1875
-112.60986328125
-105.28564453125
-106.201171875
-94.29931640625
-100.7080078125
-109.86328125
-115.3564453125
-108.94775390625
-114.44091796875
-116.27197265625
-107.11669921875
-98.876953125
-86.97509765625
-76.904296875
-68.66455078125
-64.0869140625
-51.26953125
-59.50927734375
-68.66455078125
-67.7490234375
-77.81982421875
-76.904296875
-81.48193359375
-63.17138671875
-54.931640625
-32.958984375
-32.958984375
-21.97265625
-18.310546875
-10.07080078125
-11.90185546875
-5.4931640625
0.91552734375
-2.74658203125
-3.662109375
-17.39501953125
-27.4658203125
-23.8037109375
-28.38134765625
-24.71923828125
-28.38134765625
-33.87451171875
-41.19873046875
-45.7763671875
-63.17138671875
-79.65087890625
-76.904296875
-75.0732421875
-90.63720703125
-108.0322265625
-104.3701171875
-116.27197265625
-118.10302734375
-112.60986328125
-113.525390625
-116.27197265625
-123.59619140625
-124.51171875
-117.1875
-128.173828125
-119.93408203125
-130.92041015625
-138.24462890625
-120.849609375
-129.08935546875
-124.51171875
-112.60986328125
-116.27197265625
-134.58251953125
-171.20361328125
-202.33154296875
-249.0234375
-260.009765625
-243.5302734375
-206.9091796875
-162.04833984375
-77.81982421875
52.18505859375
232.5439453125
455.9326171875
671.08154296875
884.3994140625
1091.30859375
1303.7109375
1447.44873046875
1521.6064453125
1547.2412109375
1488.6474609375
1346.74072265625
1186.5234375
978.69873046875
706.787109375
320.4345703125
94.29931640625
45.7763671875
44.86083984375
43.9453125
44.86083984375
37.53662109375
5.4931640625
-13.73291015625
-9.1552734375
-6.40869140625
-17.39501953125
-28.38134765625
-29.296875
-35.70556640625
-49.4384765625
-63.17138671875
-54.931640625
-47.607421875
-61.34033203125
-67.7490234375
-63.17138671875
-71.4111328125
-73.2421875
-64.0869140625
-54.01611328125
-75.98876953125
-67.7490234375
-69.580078125
-82.3974609375
-81.48193359375
-73.2421875
-54.01611328125
-51.26953125
-54.931640625
-53.1005859375
-56.7626953125
-48.52294921875
-40.283203125
-49.4384765625
-50.35400390625
-45.7763671875
-53.1005859375
-53.1005859375
-37.53662109375
-38.4521484375
-33.87451171875
-23.8037109375
-14.6484375
-20.1416015625
-20.1416015625
-8.23974609375
-13.73291015625
-10.07080078125
-8.23974609375
-0.91552734375
11.90185546875
12.8173828125
7.32421875
9.1552734375
3.662109375
11.90185546875
24.71923828125
40.283203125
48.52294921875
51.26953125
48.52294921875
55.84716796875
54.931640625
60.4248046875
75.0732421875
84.228515625
87.890625
89.7216796875
95.21484375
105.28564453125
105.28564453125
118.10302734375
136.41357421875
150.146484375
157.470703125
156.55517578125
162.04833984375
181.2744140625
183.10546875
207.82470703125
201.416015625
199.5849609375
212.40234375
231.62841796875
242.61474609375
251.77001953125
259.09423828125
259.09423828125
275.57373046875
303.955078125
306.70166015625
306.70166015625
305.7861328125
314.02587890625
319.51904296875
328.67431640625
326.84326171875
328.67431640625
330.50537109375
327.7587890625
323.18115234375
319.51904296875
312.19482421875
319.51904296875
317.68798828125
304.87060546875
290.22216796875
269.1650390625
254.5166015625
243.5302734375
243.5302734375
215.14892578125
189.51416015625
179.443359375
170.2880859375
161.1328125
140.9912109375
129.08935546875
114.44091796875
90.63720703125
78.7353515625
59.50927734375
42.1142578125
24.71923828125
19.22607421875
8.23974609375
0.91552734375
-2.74658203125
-16.4794921875
-20.1416015625
-21.97265625
-32.958984375
-36.62109375
-43.9453125
-43.9453125
-52.18505859375
-67.7490234375
-54.01611328125
-53.1005859375
-56.7626953125
-67.7490234375
-81.48193359375
-79.65087890625
-71.4111328125
-84.228515625
-78.7353515625
-85.14404296875
-84.228515625
-85.14404296875
-75.98876953125
-73.2421875
-75.98876953125
-82.3974609375
-85.14404296875
-82.3974609375
-77.81982421875
-78.7353515625
-86.0595703125
-87.890625
-83.31298828125
-81.48193359375
-75.98876953125
-78.7353515625
-94.29931640625
-99.79248046875
-94.29931640625
-83.31298828125
-86.97509765625
-87.890625
-83.31298828125
-87.890625
-90.63720703125
-85.14404296875
-93.3837890625
-80.56640625
-75.0732421875
-69.580078125
-70.49560546875
-59.50927734375
-43.9453125
-57.67822265625
-65.91796875
-67.7490234375
-65.00244140625
-59.50927734375
-59.50927734375
-67.7490234375
-89.7216796875
-89.7216796875
-70.49560546875
-75.0732421875
-65.00244140625
-57.67822265625
-66.83349609375
-69.580078125
-68.66455078125
-66.83349609375
-65.91796875
-65.91796875
-76.904296875
-74.15771484375
-72.32666015625
-56.7626953125
-54.931640625
-65.00244140625
-72.32666015625
-61.34033203125
-72.32666015625
-73.2421875
-73.2421875
-64.0869140625
-65.91796875
-57.67822265625
-65.00244140625
-68.66455078125
-70.49560546875
-65.91796875
-70.49560546875
-64.0869140625
-64.0869140625
-79.65087890625
-85.14404296875
-70.49560546875
-65.91796875
-92.46826171875
-86.97509765625
-71.4111328125
-71.4111328125
-64.0869140625
-65.00244140625
-76.904296875
-86.97509765625
-86.0595703125
-87.890625
-91.552734375
-82.3974609375
-81.48193359375
-90.63720703125
-90.63720703125
-75.0732421875
-83.31298828125
-87.890625
-79.65087890625
-82.3974609375
-92.46826171875
-74.15771484375
-70.49560546875
-77.81982421875
-90.63720703125
-72.32666015625
-76.904296875
-81.48193359375
-86.97509765625
-86.0595703125
-77.81982421875
-76.904296875
-75.0732421875
-76.904296875
-67.7490234375
-67.7490234375
-65.91796875
-65.91796875
-51.26953125
-42.1142578125
-46.69189453125
-46.69189453125
-40.283203125
-30.21240234375
-37.53662109375
-36.62109375
-41.19873046875
-35.70556640625
-29.296875
-31.1279296875
-14.6484375
-0.91552734375
3.662109375
5.4931640625
1.8310546875
11.90185546875
25.634765625
26.55029296875
17.39501953125
5.4931640625
0
-5.4931640625
-2.74658203125
-2.74658203125
-7.32421875
-5.4931640625
-27.4658203125
-22.88818359375
-32.958984375
-43.02978515625
-58.59375
-50.35400390625
-58.59375
-61.34033203125
-65.00244140625
-69.580078125
-74.15771484375
-92.46826171875
-97.0458984375
-101.62353515625
-104.3701171875
-100.7080078125
-101.62353515625
-103.45458984375
-98.876953125
-88.80615234375
-91.552734375
-97.96142578125
-97.0458984375
-101.62353515625
-103.45458984375
-100.7080078125
-106.201171875
-140.9912109375
-173.9501953125
-202.33154296875
-227.96630859375
-206.9091796875
-183.10546875
-132.75146484375
-52.18505859375
87.890625
241.69921875
424.8046875
625.30517578125
822.1435546875
1018.98193359375
1213.9892578125
1367.7978515625
1431.884765625
1465.75927734375
1393.4326171875
1287.2314453125
1162.7197265625
973.20556640625
720.52001953125
385.43701171875
115.3564453125
37.53662109375
21.05712890625
24.71923828125
41.19873046875
46.69189453125
43.9453125
32.04345703125
25.634765625
-1.8310546875
-7.32421875
-10.07080078125
-13.73291015625
-16.4794921875
-22.88818359375
-39.36767578125
-29.296875
-32.958984375
-36.62109375
-45.7763671875
-41.19873046875
-41.19873046875
-50.35400390625
-43.9453125
-38.4521484375
-40.283203125
-43.9453125
-40.283203125
-45.7763671875
-54.01611328125
-51.26953125
-56.7626953125
-38.4521484375
-13.73291015625
-26.55029296875
-22.88818359375
-17.39501953125
-14.6484375
-19.22607421875
-28.38134765625
-36.62109375
-22.88818359375
-10.986328125
-15.56396484375
-4.57763671875
-14.6484375
-7.32421875
10.07080078125
8.23974609375
2.74658203125
4.57763671875
15.56396484375
15.56396484375
15.56396484375
16.4794921875
16.4794921875
18.310546875
36.62109375
46.69189453125
37.53662109375
45.7763671875
48.52294921875
69.580078125
67.7490234375
68.66455078125
51.26953125
64.0869140625
70.49560546875
75.0732421875
85.14404296875
110.77880859375
112.60986328125
109.86328125
116.27197265625
127.25830078125
131.8359375
139.16015625
153.80859375
158.38623046875
162.9638671875
175.78125
185.85205078125
195.00732421875
181.2744140625
198.66943359375
215.14892578125
216.97998046875
234.375
245.361328125
243.5302734375
243.5302734375
266.41845703125
280.1513671875
275.57373046875
277.40478515625
281.06689453125
289.306640625
288.39111328125
319.51904296875
305.7861328125
306.70166015625
320.4345703125
319.51904296875
316.7724609375
333.251953125
328.67431640625
322.265625
323.18115234375
319.51904296875
318.603515625
295.71533203125
285.64453125
262.75634765625
235.29052734375
230.712890625
224.30419921875
213.31787109375
215.14892578125
218.81103515625
184.02099609375
152.89306640625
148.3154296875
126.3427734375
111.6943359375
99.79248046875
78.7353515625
66.83349609375
53.1005859375
50.35400390625
32.958984375
17.39501953125
2.74658203125
-10.986328125
-17.39501953125
-16.4794921875
-20.1416015625
-10.986328125
-12.8173828125
-14.6484375
-30.21240234375
-40.283203125
-58.59375
-56.7626953125
-69.580078125
-73.2421875
-63.17138671875
-49.4384765625
-44.86083984375
-47.607421875
-57.67822265625
-61.34033203125
-71.4111328125
-66.83349609375
-63.17138671875
-65.00244140625
-73.2421875
-74.15771484375
-65.91796875
-57.67822265625
-71.4111328125
-74.15771484375
-62.255859375
-75.0732421875
-76.904296875
-75.98876953125
-84.228515625
-81.48193359375
-69.580078125
-70.49560546875
-73.2421875
-71.4111328125
-74.15771484375
-69.580078125
-67.7490234375
-61.34033203125
-71.4111328125
-62.255859375
-63.17138671875
-64.0869140625
-66.83349609375
-68.66455078125
-72.32666015625
-65.00244140625
-54.931640625
-54.931640625
-65.00244140625
-86.97509765625
-81.48193359375
-69.580078125
-66.83349609375
-50.35400390625
-55.84716796875
-65.91796875
-66.83349609375
-65.00244140625
-70.49560546875
-65.00244140625
-61.34033203125
-51.26953125
-59.50927734375
-72.32666015625
-65.91796875
-73.2421875
-66.83349609375
-65.00244140625
-69.580078125
-65.00244140625
-61.34033203125
-51.26953125
-57.67822265625
-65.91796875
-61.34033203125
-63.17138671875
-74.15771484375
-74.15771484375
-74.15771484375
-68.66455078125
-75.0732421875
-69.580078125
-71.4111328125
-77.81982421875
-76.904296875
-76.904296875
-76.904296875
-79.65087890625
-81.48193359375
-82.3974609375
-84.228515625
-72.32666015625
-83.31298828125
-77.81982421875
-71.4111328125
-78.7353515625
-88.80615234375
-92.46826171875
-88.80615234375
-86.0595703125
-78.7353515625
-68.66455078125
-85.14404296875
-81.48193359375
-85.14404296875
-103.45458984375
-108.0322265625
-119.93408203125
-108.0322265625
-80.56640625
-72.32666015625
-66.83349609375
-86.97509765625
-92.46826171875
-90.63720703125
-79.65087890625
-88.80615234375
-94.29931640625
-95.21484375
-93.3837890625
-97.96142578125
-94.29931640625
-89.7216796875
-97.96142578125
-92.46826171875
-75.98876953125
-71.4111328125
-61.34033203125
-61.34033203125
-72.32666015625
-65.91796875
-44.86083984375
-41.19873046875
-53.1005859375
-56.7626953125
-49.4384765625
-48.52294921875
-39.36767578125
-31.1279296875
-22.88818359375
-15.56396484375
-10.07080078125
-10.07080078125
-4.57763671875
0
13.73291015625
1.8310546875
-5.4931640625
-15.56396484375
-24.71923828125
-21.05712890625
-4.57763671875
-10.07080078125
-13.73291015625
-27.4658203125
-36.62109375
-40.283203125
-39.36767578125
-36.62109375
-57.67822265625
-69.580078125
-75.0732421875
-85.14404296875
-84.228515625
-85.14404296875
-88.80615234375
-108.94775390625
-113.525390625
-100.7080078125
-107.11669921875
-104.3701171875
-93.3837890625
-101.62353515625
-105.28564453125
-112.60986328125
-112.60986328125
-128.173828125
-123.59619140625
-121.76513671875
-119.0185546875
-105.28564453125
-96.13037109375
-116.27197265625
-132.75146484375
-166.6259765625
-189.51416015625
-227.05078125
-218.81103515625
-199.5849609375
-174.86572265625
-97.96142578125
8.23974609375
139.16015625
319.51904296875
522.76611328125
718.68896484375
917.3583984375
1121.52099609375
1301.8798828125
1404.4189453125
1460.26611328125
1449.27978515625
1343.07861328125
1212.158203125
1060.1806640625
834.04541015625
547.4853515625
194.091796875
44.86083984375
9.1552734375
9.1552734375
44.86083984375
48.52294921875
32.04345703125
19.22607421875
2.74658203125
-16.4794921875
-8.23974609375
-11.90185546875
-32.04345703125
-29.296875
-35.70556640625
-37.53662109375
-47.607421875
-57.67822265625
-63.17138671875
-67.7490234375
-59.50927734375
-66.83349609375
-68.66455078125
-65.91796875
-45.7763671875
-43.02978515625
-60.4248046875
-70.49560546875
-67.7490234375
-69.580078125
-60.4248046875
-52.18505859375
-58.59375
-44.86083984375
-35.70556640625
-53.1005859375
-54.01611328125
-48.52294921875
-49.4384765625
-44.86083984375
-41.19873046875
-35.70556640625
-35.70556640625
-34.7900390625
-31.1279296875
-29.296875
-21.05712890625
-10.986328125
-21.05712890625
-11.90185546875
-3.662109375
-5.4931640625
-13.73291015625
-3.662109375
5.4931640625
-3.662109375
-5.4931640625
14.6484375
25.634765625
18.310546875
26.55029296875
24.71923828125
31.1279296875
43.9453125
50.35400390625
44.86083984375
41.19873046875
46.69189453125
57.67822265625
58.59375
71.4111328125
77.81982421875
92.46826171875
112.60986328125
112.60986328125
106.201171875
112.60986328125
124.51171875
136.41357421875
151.06201171875
159.3017578125
165.71044921875
159.3017578125
167.54150390625
174.86572265625
195.9228515625
204.16259765625
203.2470703125
210.5712890625
234.375
253.60107421875
255.43212890625
250.8544921875
263.671875
269.1650390625
284.72900390625
292.05322265625
289.306640625
287.4755859375
285.64453125
286.56005859375
308.53271484375
313.1103515625
317.68798828125
311.279296875
303.03955078125
296.630859375
298.4619140625
295.71533203125
289.306640625
290.22216796875
262.75634765625
253.60107421875
235.29052734375
220.64208984375
208.740234375
191.34521484375
187.68310546875
168.45703125
151.06201171875
142.822265625
125.42724609375
99.79248046875
83.31298828125
74.15771484375
66.83349609375
42.1142578125
36.62109375
31.1279296875
10.07080078125
0.91552734375
-4.57763671875
-21.05712890625
-27.4658203125
-36.62109375
-39.36767578125
-42.1142578125
-57.67822265625
-56.7626953125
-75.98876953125
-68.66455078125
-77.81982421875
-68.66455078125
-70.49560546875
-79.65087890625
-77.81982421875
-86.97509765625
-83.31298828125
-76.904296875
-87.890625
-105.28564453125
-90.63720703125
-93.3837890625
-95.21484375
-75.0732421875
-69.580078125
-87.890625
-88.80615234375
-90.63720703125
-95.21484375
-97.96142578125
-96.13037109375
-101.62353515625
-99.79248046875
-92.46826171875
-86.97509765625
-94.29931640625
-94.29931640625
-99.79248046875
-108.0322265625
-107.11669921875
-85.14404296875
-87.890625
-91.552734375
-83.31298828125
-95.21484375
-97.0458984375
-92.46826171875
-98.876953125
-91.552734375
-83.31298828125
-80.56640625
-82.3974609375
-80.56640625
-104.3701171875
-86.0595703125
-82.3974609375
-82.3974609375
-75.0732421875
-82.3974609375
-74.15771484375
-76.904296875
-91.552734375
-84.228515625
-76.904296875
-79.65087890625
-77.81982421875
-75.98876953125
-79.65087890625
-76.904296875
-70.49560546875
-78.7353515625
-89.7216796875
-93.3837890625
-78.7353515625
-77.81982421875
-85.14404296875
-86.0595703125
-97.96142578125
-104.3701171875
-101.62353515625
-65.91796875
-72.32666015625
-76.904296875
-70.49560546875
-93.3837890625
-82.3974609375
-78.7353515625
-89.7216796875
-88.80615234375
-98.876953125
-100.7080078125
-115.3564453125
-104.3701171875
-90.63720703125
-90.63720703125
-86.97509765625
-83.31298828125
-102.5390625
-89.7216796875
-86.0595703125
-92.46826171875
-101.62353515625
-86.0595703125
-73.2421875
-75.0732421875
-84.228515625
-104.3701171875
-103.45458984375
-105.28564453125
-103.45458984375
-97.0458984375
-97.96142578125
-100.7080078125
-99.79248046875
-93.3837890625
-110.77880859375
-111.6943359375
-107.11669921875
-97.0458984375
-88.80615234375
-102.5390625
-120.849609375
-111.6943359375
-105.28564453125
-108.94775390625
-98.876953125
-97.96142578125
-93.3837890625
-100.7080078125
-94.29931640625
-101.62353515625
-104.3701171875
-112.60986328125
-109.86328125
-117.1875
-108.94775390625
-108.0322265625
-109.86328125
-110.77880859375
-108.94775390625
-104.3701171875
-103.45458984375
-103.45458984375
-104.3701171875
-101.62353515625
-100.7080078125
-110.77880859375
-113.525390625
-106.201171875
-102.5390625
-98.876953125
-99.79248046875
-97.0458984375
-80.56640625
-65.00244140625
-57.67822265625
-69.580078125
-74.15771484375
-89.7216796875
-75.0732421875
-77.81982421875
-68.66455078125
-62.255859375
-66.83349609375
-67.7490234375
-59.50927734375
-44.86083984375
-26.55029296875
-32.04345703125
-27.4658203125
-31.1279296875
-33.87451171875
-28.38134765625
-22.88818359375
-7.32421875
-19.22607421875
-30.21240234375
-39.36767578125
-43.9453125
-51.26953125
-43.9453125
-39.36767578125
-40.283203125
-44.86083984375
-57.67822265625
-55.84716796875
-59.50927734375
-82.3974609375
-92.46826171875
-91.552734375
-91.552734375
-108.0322265625
-109.86328125
-111.6943359375
-132.75146484375
-121.76513671875
-116.27197265625
-117.1875
-114.44091796875
-119.93408203125
-113.525390625
-122.6806640625
-118.10302734375
-117.1875
-119.93408203125
-130.92041015625
-121.76513671875
-130.0048828125
-133.6669921875
-158.38623046875
-191.34521484375
-227.05078125
-246.27685546875
-238.95263671875
-227.96630859375
-185.85205078125
-97.0458984375
30.21240234375
178.52783203125
384.521484375
595.0927734375
811.1572265625
1034.5458984375
1254.2724609375
1415.4052734375
1495.9716796875
1557.31201171875
1522.52197265625
1398.92578125
1253.35693359375
1086.73095703125
849.609375
520.01953125
176.69677734375
49.4384765625
43.9453125
41.19873046875
27.4658203125
41.19873046875
41.19873046875
16.4794921875
0
0
4.57763671875
-10.986328125
-26.55029296875
-23.8037109375
-39.36767578125
-53.1005859375
-53.1005859375
-64.0869140625
-68.66455078125
-70.49560546875
-59.50927734375
-65.00244140625
-65.91796875
-57.67822265625
-80.56640625
-73.2421875
-66.83349609375
-56.7626953125
-57.67822265625
-64.0869140625
-64.0869140625
-69.580078125
-53.1005859375
-64.0869140625
-75.98876953125
-73.2421875
-44.86083984375
-41.19873046875
-49.4384765625
-44.86083984375
-34.7900390625
-36.62109375
-36.62109375
-34.7900390625
-33.87451171875
-23.8037109375
-19.22607421875
-22.88818359375
-21.05712890625
-22.88818359375
-17.39501953125
-13.73291015625
-10.07080078125
-10.07080078125
-0.91552734375
5.4931640625
4.57763671875
0.91552734375
7.32421875
30.21240234375
42.1142578125
24.71923828125
32.04345703125
42.1142578125
46.69189453125
35.70556640625
44.86083984375
49.4384765625
48.52294921875
75.0732421875
91.552734375
80.56640625
84.228515625
94.29931640625
91.552734375
98.876953125
112.60986328125
119.0185546875
119.93408203125
135.498046875
159.3017578125
162.9638671875
170.2880859375
182.18994140625
191.34521484375
198.66943359375
204.16259765625
206.9091796875
209.65576171875
214.2333984375
239.8681640625
256.34765625
259.09423828125
262.75634765625
276.4892578125
293.88427734375
302.1240234375
303.955078125
298.4619140625
303.955078125
316.7724609375
312.19482421875
306.70166015625
311.279296875
309.4482421875
310.36376953125
304.87060546875
310.36376953125
300.29296875
290.22216796875
289.306640625
275.57373046875
273.74267578125
252.685546875
232.5439453125
214.2333984375
195.9228515625
191.34521484375
181.2744140625
162.9638671875
143.73779296875
122.6806640625
100.7080078125
91.552734375
74.15771484375
65.00244140625
46.69189453125
23.8037109375
9.1552734375
-3.662109375
-3.662109375
-12.8173828125
-16.4794921875
-18.310546875
-31.1279296875
-35.70556640625
-33.87451171875
-46.69189453125
-48.52294921875
-40.283203125
-54.01611328125
-73.2421875
-80.56640625
-78.7353515625
-75.98876953125
-81.48193359375
-77.81982421875
-80.56640625
-86.97509765625
-84.228515625
-85.14404296875
-94.29931640625
-90.63720703125
-99.79248046875
-101.62353515625
-92.46826171875
-90.63720703125
-93.3837890625
-88.80615234375
-83.31298828125
-81.48193359375
-97.0458984375
-97.0458984375
-90.63720703125
-94.29931640625
-117.1875
-104.3701171875
-97.96142578125
-94.29931640625
-89.7216796875
-93.3837890625
-100.7080078125
-97.96142578125
-80.56640625
-64.0869140625
-81.48193359375
-87.890625
-81.48193359375
-78.7353515625
-69.580078125
-80.56640625
-81.48193359375
-91.552734375
-94.29931640625
-79.65087890625
-82.3974609375
-76.904296875
-72.32666015625
-82.3974609375
-86.0595703125
-79.65087890625
-91.552734375
-86.97509765625
-81.48193359375
-79.65087890625
-80.56640625
-82.3974609375
-77.81982421875
-80.56640625
-73.2421875
-70.49560546875
-83.31298828125
-84.228515625
-71.4111328125
-81.48193359375
-95.21484375
-75.98876953125
-83.31298828125
-84.228515625
-76.904296875
-78.7353515625
-73.2421875
-80.56640625
-94.29931640625
-93.3837890625
-78.7353515625
-71.4111328125
-77.81982421875
-75.98876953125
-88.80615234375
-94.29931640625
-94.29931640625
-75.98876953125
-73.2421875
-85.14404296875
-81.48193359375
-75.98876953125
-75.98876953125
-86.0595703125
-88.80615234375
-89.7216796875
-99.79248046875
-98.876953125
-89.7216796875
-95.21484375
-104.3701171875
-88.80615234375
-88.80615234375
-91.552734375
-97.0458984375
-100.7080078125
-104.3701171875
-102.5390625
-89.7216796875
-89.7216796875
-97.96142578125
-108.94775390625
-111.6943359375
-104.3701171875
-99.79248046875
-103.45458984375
-103.45458984375
-113.525390625
-99.79248046875
-103.45458984375
-114.44091796875
-109.86328125
-95.21484375
-104.3701171875
-100.7080078125
-94.29931640625
-104.3701171875
-109.86328125
-100.7080078125
-107.11669921875
-106.201171875
-111.6943359375
-119.0185546875
-122.6806640625
-108.94775390625
-97.96142578125
-107.11669921875
-100.7080078125
-105.28564453125
-115.3564453125
-129.08935546875
-124.51171875
-111.6943359375
-95.21484375
-104.3701171875
-108.94775390625
-115.3564453125
-105.28564453125
-111.6943359375
-111.6943359375
-113.525390625
-109.86328125
-108.94775390625
-105.28564453125
-107.11669921875
-111.6943359375
-117.1875
-127.25830078125
-122.6806640625
-119.0185546875
-114.44091796875
-102.5390625
-101.62353515625
-104.3701171875
-98.876953125
-93.3837890625
-89.7216796875
-97.96142578125
-82.3974609375
-74.15771484375
-82.3974609375
-68.66455078125
-73.2421875
-72.32666015625
-73.2421875
-78.7353515625
-71.4111328125
-70.49560546875
-62.255859375
-65.91796875
-46.69189453125
-39.36767578125
-45.7763671875
-40.283203125
-46.69189453125
-35.70556640625
-40.283203125
-32.04345703125
-26.55029296875
-21.05712890625
-26.55029296875
-33.87451171875
-33.87451171875
-47.607421875
-47.607421875
-40.283203125
-31.1279296875
-33.87451171875
-43.9453125
-67.7490234375
-77.81982421875
-85.14404296875
-87.890625
-102.5390625
-108.0322265625
-105.28564453125
-97.96142578125
-111.6943359375
-97.96142578125
-109.86328125
-125.42724609375
-123.59619140625
-96.13037109375
-108.94775390625
-123.59619140625
-125.42724609375
-121.76513671875
-115.3564453125
-124.51171875
-126.3427734375
-123.59619140625
-127.25830078125
-129.08935546875
-139.16015625
-156.55517578125
-191.34521484375
-238.037109375
-258.1787109375
-241.69921875
-215.14892578125
-144.6533203125
-32.958984375
102.5390625
272.8271484375
496.2158203125
728.759765625
942.9931640625
1156.31103515625
1354.06494140625
1476.74560546875
1573.79150390625
1607.666015625
1530.76171875
1388.85498046875
1223.14453125
1017.15087890625
738.83056640625
369.873046875
124.51171875
66.83349609375
65.91796875
58.59375
58.59375
54.01611328125
41.19873046875
21.97265625
14.6484375
3.662109375
2.74658203125
-7.32421875
-19.22607421875
-26.55029296875
-30.21240234375
-39.36767578125
-47.607421875
-43.02978515625
-51.26953125
-61.34033203125
-71.4111328125
-64.0869140625
-64.0869140625
-73.2421875
-74.15771484375
-69.580078125
-51.26953125
-60.4248046875
-53.1005859375
-54.931640625
-49.4384765625
-55.84716796875
-61.34033203125
-43.9453125
-43.02978515625
-51.26953125
-47.607421875
-47.607421875
-41.19873046875
-41.19873046875
-35.70556640625
-38.4521484375
-38.4521484375
-35.70556640625
-25.634765625
-23.8037109375
-25.634765625
-17.39501953125
-21.97265625
-16.4794921875
-5.4931640625
-6.40869140625
7.32421875
10.07080078125
9.1552734375
13.73291015625
15.56396484375
10.986328125
30.21240234375
28.38134765625
29.296875
32.04345703125
26.55029296875
43.9453125
43.9453125
59.50927734375
70.49560546875
74.15771484375
76.904296875
75.98876953125
75.98876953125
82.3974609375
99.79248046875
105.28564453125
108.0322265625
118.10302734375
136.41357421875
141.90673828125
157.470703125
147.39990234375
150.146484375
159.3017578125
188.5986328125
191.34521484375
197.75390625
205.99365234375
230.712890625
239.8681640625
242.61474609375
249.93896484375
254.5166015625
266.41845703125
253.60107421875
272.8271484375
287.4755859375
284.72900390625
292.05322265625
304.87060546875
308.53271484375
303.03955078125
307.6171875
311.279296875
335.0830078125
331.4208984375
344.23828125
325.927734375
334.16748046875
331.4208984375
304.87060546875
292.96875
287.4755859375
282.89794921875
286.56005859375
270.08056640625
249.93896484375
233.45947265625
220.64208984375
209.65576171875
202.33154296875
163.87939453125
148.3154296875
126.3427734375
110.77880859375
95.21484375
80.56640625
64.0869140625
59.50927734375
44.86083984375
21.97265625
1.8310546875
-1.8310546875
-15.56396484375
-26.55029296875
-31.1279296875
-32.04345703125
-37.53662109375
-43.02978515625
-56.7626953125
-69.580078125
-69.580078125
-67.7490234375
-73.2421875
-75.0732421875
-86.97509765625
-85.14404296875
-84.228515625
-88.80615234375
-84.228515625
-84.228515625
-87.890625
-88.80615234375
-91.552734375
-92.46826171875
-79.65087890625
-94.29931640625
-100.7080078125
-108.94775390625
-108.94775390625
-116.27197265625
-98.876953125
-70.49560546875
-79.65087890625
-99.79248046875
-90.63720703125
-81.48193359375
-95.21484375
-88.80615234375
-84.228515625
-101.62353515625
-114.44091796875
-110.77880859375
-106.201171875
-111.6943359375
-104.3701171875
-86.97509765625
-89.7216796875
-91.552734375
-92.46826171875
-92.46826171875
-86.0595703125
-83.31298828125
-99.79248046875
-104.3701171875
-102.5390625
-86.0595703125
-87.890625
-79.65087890625
-77.81982421875
-95.21484375
-94.29931640625
-93.3837890625
-95.21484375
-86.0595703125
-86.97509765625
-91.552734375
-103.45458984375
-82.3974609375
-81.48193359375
-77.81982421875
-86.97509765625
-90.63720703125
-93.3837890625
-106.201171875
-91.552734375
-89.7216796875
-97.0458984375
-86.97509765625
-73.2421875
-84.228515625
-92.46826171875
-86.97509765625
-101.62353515625
-96.13037109375
-89.7216796875
-93.3837890625
-94.29931640625
-83.31298828125
-90.63720703125
-99.79248046875
-118.10302734375
-113.525390625
-110.77880859375
-114.44091796875
-105.28564453125
-74.15771484375
-84.228515625
-82.3974609375
-81.48193359375
-93.3837890625
-95.21484375
-92.46826171875
-97.0458984375
-107.11669921875
-93.3837890625
-90.63720703125
-102.5390625
-118.10302734375
-93.3837890625
-106.201171875
-100.7080078125
-104.3701171875
-108.0322265625
-108.94775390625
-106.201171875
-105.28564453125
-104.3701171875
-112.60986328125
-111.6943359375
-117.1875
-122.6806640625
-108.0322265625
-104.3701171875
-108.94775390625
-108.94775390625
-112.60986328125
-128.173828125
-117.1875
-115.3564453125
-109.86328125
-105.28564453125
-105.28564453125
-119.93408203125
-123.59619140625
-138.24462890625
-111.6943359375
-100.7080078125
-101.62353515625
-103.45458984375
-107.11669921875
-119.0185546875
-112.60986328125
-117.1875
-118.10302734375
-110.77880859375
-107.11669921875
-99.79248046875
-96.13037109375
-107.11669921875
-116.27197265625
-119.93408203125
-112.60986328125
-125.42724609375
-106.201171875
-99.79248046875
-109.86328125
-129.08935546875
-122.6806640625
-114.44091796875
-126.3427734375
-114.44091796875
-106.201171875
-122.6806640625
-125.42724609375
-113.525390625
-118.10302734375
-114.44091796875
-99.79248046875
-104.3701171875
-114.44091796875
-125.42724609375
-133.6669921875
-133.6669921875
-129.08935546875
-107.11669921875
-110.77880859375
-116.27197265625
-112.60986328125
-117.1875
-120.849609375
-130.0048828125
-122.6806640625
-123.59619140625
-104.3701171875
-87.890625
-89.7216796875
-92.46826171875
-82.3974609375
-78.7353515625
-77.81982421875
-78.7353515625
-71.4111328125
-65.91796875
-65.00244140625
-61.34033203125
-74.15771484375
-74.15771484375
-61.34033203125
-59.50927734375
-38.4521484375
-32.04345703125
-39.36767578125
-38.4521484375
-32.04345703125
-27.4658203125
-22.88818359375
-22.88818359375
-30.21240234375
-25.634765625
-36.62109375
-49.4384765625
-53.1005859375
-60.4248046875
-69.580078125
-56.7626953125
-58.59375
-60.4248046875
-62.255859375
-64.0869140625
-84.228515625
-97.0458984375
-109.86328125
-112.60986328125
-102.5390625
-102.5390625
-116.27197265625
-127.25830078125
-120.849609375
-108.0322265625
-119.0185546875
-124.51171875
-130.92041015625
-120.849609375
-119.93408203125
-97.96142578125
-101.62353515625
-120.849609375
-123.59619140625
-118.10302734375
-134.58251953125
-112.60986328125
-128.173828125
-157.470703125
-204.16259765625
-238.95263671875
-242.61474609375
-224.30419921875
-187.68310546875
-141.90673828125
-60.4248046875
70.49560546875
255.43212890625
481.5673828125
704.04052734375
942.9931640625
1147.15576171875
1345.8251953125
1477.6611328125
1571.044921875
1586.60888671875
1515.19775390625
1372.37548828125
1211.24267578125
1001.5869140625
717.7734375
339.66064453125
111.6943359375
62.255859375
58.59375
54.01611328125
52.18505859375
48.52294921875
21.97265625
-7.32421875
8.23974609375
16.4794921875
-0.91552734375
-7.32421875
-12.8173828125
-35.70556640625
-31.1279296875
-29.296875
-50.35400390625
-48.52294921875
-67.7490234375
-60.4248046875
-60.4248046875
-58.59375
-49.4384765625
-43.02978515625
-53.1005859375
-45.7763671875
-52.18505859375
-54.01611328125
-47.607421875
-48.52294921875
-57.67822265625
-48.52294921875
-40.283203125
-55.84716796875
-62.255859375
-43.02978515625
-45.7763671875
-48.52294921875
-31.1279296875
-18.310546875
-25.634765625
-22.88818359375
-16.4794921875
-24.71923828125
-18.310546875
-18.310546875
-26.55029296875
-18.310546875
-16.4794921875
11.90185546875
5.4931640625
9.1552734375
10.986328125
5.4931640625
3.662109375
4.57763671875
4.57763671875
7.32421875
21.97265625
37.53662109375
40.283203125
49.4384765625
58.59375
60.4248046875
51.26953125
54.01611328125
52.18505859375
63.17138671875
86.0595703125
95.21484375
94.29931640625
95.21484375
105.28564453125
104.3701171875
110.77880859375
114.44091796875
120.849609375
125.42724609375
143.73779296875
165.71044921875
172.119140625
179.443359375
193.17626953125
202.33154296875
211.48681640625
216.064453125
227.96630859375
235.29052734375
243.5302734375
247.1923828125
248.10791015625
267.333984375
272.8271484375
285.64453125
284.72900390625
292.96875
311.279296875
305.7861328125
317.68798828125
331.4208984375
328.67431640625
339.66064453125
345.15380859375
336.9140625
332.33642578125
324.0966796875
324.0966796875
330.50537109375
332.33642578125
327.7587890625
308.53271484375
303.03955078125
296.630859375
278.3203125
263.671875
244.44580078125
235.29052734375
216.064453125
201.416015625
187.68310546875
166.6259765625
155.6396484375
134.58251953125
110.77880859375
93.3837890625
83.31298828125
67.7490234375
54.01611328125
39.36767578125
27.4658203125
14.6484375
8.23974609375
2.74658203125
