ECG
-77.81982421875
-77.81982421875
-73.2421875
-71.4111328125
-75.98876953125
-75.0732421875
-68.66455078125
-59.50927734375
-60.4248046875
-57.67822265625
-67.7490234375
-56.7626953125
-58.59375
-65.91796875
-54.931640625
-54.931640625
-57.67822265625
-36.62109375
-38.4521484375
-41.19873046875
-43.9453125
-28.38134765625
-32.04345703125
-24.71923828125
-22.88818359375
-16.4794921875
-21.05712890625
-17.39501953125
-15.56396484375
-11.90185546875
3.662109375
-1.8310546875
4.57763671875
12.8173828125
12.8173828125
6.40869140625
21.05712890625
26.55029296875
32.04345703125
48.52294921875
50.35400390625
52.18505859375
52.18505859375
43.9453125
67.7490234375
80.56640625
86.97509765625
92.46826171875
93.3837890625
100.7080078125
110.77880859375
119.93408203125
122.6806640625
132.75146484375
140.9912109375
144.6533203125
171.20361328125
179.443359375
181.2744140625
191.34521484375
206.9091796875
209.65576171875
215.14892578125
217.8955078125
233.45947265625
244.44580078125
255.43212890625
270.08056640625
260.92529296875
266.41845703125
281.06689453125
281.982421875
281.06689453125
288.39111328125
292.05322265625
292.05322265625
291.1376953125
302.1240234375
298.4619140625
306.70166015625
303.955078125
289.306640625
276.4892578125
272.8271484375
265.5029296875
247.1923828125
242.61474609375
232.5439453125
213.31787109375
190.4296875
174.86572265625
166.6259765625
140.07568359375
114.44091796875
112.60986328125
91.552734375
86.0595703125
78.7353515625
50.35400390625
28.38134765625
16.4794921875
0
-21.05712890625
-33.87451171875
-35.70556640625
-35.70556640625
-47.607421875
-47.607421875
-69.580078125
-68.66455078125
-74.15771484375
-81.48193359375
-90.63720703125
-97.0458984375
-88.80615234375
-95.21484375
-104.3701171875
-97.0458984375
-103.45458984375
-110.77880859375
-113.525390625
-117.1875
-119.0185546875
-114.44091796875
-114.44091796875
-124.51171875
-125.42724609375
-110.77880859375
-125.42724609375
-124.51171875
-115.3564453125
-125.42724609375
-130.0048828125
-126.3427734375
-121.76513671875
-121.76513671875
-131.8359375
-124.51171875
-129.08935546875
-127.25830078125
-133.6669921875
-122.6806640625
-125.42724609375
-125.42724609375
-126.3427734375
-129.08935546875
-126.3427734375
-120.849609375
-130.0048828125
-125.42724609375
-118.10302734375
-120.849609375
-120.849609375
-114.44091796875
-115.3564453125
-122.6806640625
-127.25830078125
-110.77880859375
-116.27197265625
-133.6669921875
-119.0185546875
-124.51171875
-113.525390625
-119.0185546875
-118.10302734375
-111.6943359375
-113.525390625
-109.86328125
-110.77880859375
-113.525390625
-113.525390625
-119.0185546875
-108.94775390625
-110.77880859375
-112.60986328125
-108.0322265625
-115.3564453125
-115.3564453125
-112.60986328125
-113.525390625
-111.6943359375
-122.6806640625
-120.849609375
-119.93408203125
-118.10302734375
-113.525390625
-116.27197265625
-108.94775390625
-111.6943359375
-131.8359375
-121.76513671875
-113.525390625
-121.76513671875
-119.0185546875
-114.44091796875
-122.6806640625
-108.94775390625
-117.1875
-119.93408203125
-125.42724609375
-128.173828125
-125.42724609375
-127.25830078125
-116.27197265625
-121.76513671875
-119.93408203125
-125.42724609375
-123.59619140625
-129.08935546875
-131.8359375
-134.58251953125
-135.498046875
-135.498046875
-138.24462890625
-130.0048828125
-129.08935546875
-127.25830078125
-129.08935546875
-131.8359375
-139.16015625
-142.822265625
-137.3291015625
-140.07568359375
-139.16015625
-145.56884765625
-131.8359375
-138.24462890625
-131.8359375
-122.6806640625
-129.08935546875
-135.498046875
-143.73779296875
-133.6669921875
-139.16015625
-137.3291015625
-139.16015625
-137.3291015625
-140.07568359375
-145.56884765625
-138.24462890625
-141.90673828125
-140.9912109375
-133.6669921875
-135.498046875
-131.8359375
-133.6669921875
-146.484375
-140.9912109375
-139.16015625
-142.822265625
-145.56884765625
-141.90673828125
-148.3154296875
-144.6533203125
-131.8359375
-138.24462890625
-146.484375
-137.3291015625
-149.23095703125
-151.9775390625
-151.06201171875
-140.9912109375
-135.498046875
-140.9912109375
-141.90673828125
-143.73779296875
-138.24462890625
-135.498046875
-140.07568359375
-144.6533203125
-139.16015625
-146.484375
-151.06201171875
-147.39990234375
-143.73779296875
-152.89306640625
-147.39990234375
-150.146484375
-142.822265625
-143.73779296875
-141.90673828125
-142.822265625
-144.6533203125
-140.07568359375
-146.484375
-152.89306640625
-143.73779296875
-134.58251953125
-143.73779296875
-142.822265625
-146.484375
-144.6533203125
-145.56884765625
-134.58251953125
-128.173828125
-125.42724609375
-120.849609375
-110.77880859375
-108.0322265625
-109.86328125
-108.0322265625
-105.28564453125
-115.3564453125
-112.60986328125
-115.3564453125
-105.28564453125
-99.79248046875
-94.29931640625
-86.97509765625
-78.7353515625
-79.65087890625
-76.904296875
-69.580078125
-76.904296875
-69.580078125
-73.2421875
-71.4111328125
-77.81982421875
-88.80615234375
-93.3837890625
-92.46826171875
-89.7216796875
-86.0595703125
-85.14404296875
-91.552734375
-98.876953125
-101.62353515625
-104.3701171875
-122.6806640625
-131.8359375
-136.41357421875
-145.56884765625
-147.39990234375
-138.24462890625
-151.9775390625
-143.73779296875
-140.07568359375
-141.90673828125
-144.6533203125
-148.3154296875
-160.21728515625
-141.90673828125
-140.07568359375
-148.3154296875
-151.06201171875
-150.146484375
-153.80859375
-158.38623046875
-192.2607421875
-236.2060546875
-275.57373046875
-270.08056640625
-252.685546875
-220.64208984375
-144.6533203125
-49.4384765625
74.15771484375
266.41845703125
473.32763671875
678.40576171875
883.48388671875
1089.4775390625
1273.49853515625
1383.36181640625
1458.43505859375
1469.42138671875
1381.53076171875
1259.765625
1102.294921875
870.66650390625
569.4580078125
216.064453125
45.7763671875
0
-4.57763671875
-6.40869140625
9.1552734375
17.39501953125
-10.07080078125
-14.6484375
-29.296875
-33.87451171875
-42.1142578125
-44.86083984375
-49.4384765625
-54.931640625
-66.83349609375
-64.0869140625
-69.580078125
-83.31298828125
-82.3974609375
-82.3974609375
-92.46826171875
-92.46826171875
-97.0458984375
-98.876953125
-92.46826171875
-86.0595703125
-90.63720703125
-83.31298828125
-86.0595703125
-93.3837890625
-92.46826171875
-87.890625
-75.0732421875
-78.7353515625
-85.14404296875
-74.15771484375
-65.91796875
-75.98876953125
-72.32666015625
-65.91796875
-66.83349609375
-65.91796875
-65.91796875
-54.01611328125
-54.01611328125
-45.7763671875
-51.26953125
-50.35400390625
-43.02978515625
-36.62109375
-45.7763671875
-43.02978515625
-38.4521484375
-28.38134765625
-23.8037109375
-16.4794921875
-12.8173828125
-21.97265625
-10.986328125
-5.4931640625
-3.662109375
5.4931640625
14.6484375
13.73291015625
16.4794921875
25.634765625
35.70556640625
23.8037109375
28.38134765625
60.4248046875
54.01611328125
57.67822265625
69.580078125
75.0732421875
77.81982421875
88.80615234375
97.0458984375
106.201171875
117.1875
126.3427734375
129.08935546875
137.3291015625
147.39990234375
155.6396484375
168.45703125
182.18994140625
187.68310546875
194.091796875
216.064453125
219.7265625
220.64208984375
226.13525390625
237.12158203125
245.361328125
255.43212890625
265.5029296875
267.333984375
281.06689453125
293.88427734375
291.1376953125
295.71533203125
295.71533203125
299.37744140625
306.70166015625
310.36376953125
312.19482421875
305.7861328125
302.1240234375
295.71533203125
294.7998046875
291.1376953125
273.74267578125
263.671875
251.77001953125
242.61474609375
226.13525390625
215.14892578125
194.091796875
177.6123046875
169.37255859375
147.39990234375
132.75146484375
119.0185546875
101.62353515625
90.63720703125
75.0732421875
61.34033203125
34.7900390625
30.21240234375
16.4794921875
2.74658203125
-11.90185546875
-30.21240234375
-34.7900390625
-38.4521484375
-37.53662109375
-43.02978515625
-49.4384765625
-50.35400390625
-64.0869140625
-67.7490234375
-75.0732421875
-77.81982421875
-83.31298828125
-80.56640625
-74.15771484375
-84.228515625
-89.7216796875
-87.890625
-97.96142578125
-101.62353515625
-101.62353515625
-97.96142578125
-94.29931640625
-92.46826171875
-94.29931640625
-97.0458984375
-98.876953125
-104.3701171875
-100.7080078125
-102.5390625
-99.79248046875
-96.13037109375
-99.79248046875
-101.62353515625
-101.62353515625
-106.201171875
-109.86328125
-103.45458984375
-108.0322265625
-105.28564453125
-100.7080078125
-100.7080078125
-104.3701171875
-104.3701171875
-97.96142578125
-101.62353515625
-102.5390625
-108.0322265625
-103.45458984375
-96.13037109375
-97.0458984375
-102.5390625
-104.3701171875
-102.5390625
-87.890625
-91.552734375
-97.96142578125
-90.63720703125
-87.890625
-86.0595703125
-92.46826171875
-90.63720703125
-89.7216796875
-82.3974609375
-83.31298828125
-86.97509765625
-91.552734375
-98.876953125
-86.0595703125
-86.0595703125
-91.552734375
-86.0595703125
-82.3974609375
-85.14404296875
-86.0595703125
-85.14404296875
-86.97509765625
-87.890625
-80.56640625
-79.65087890625
-79.65087890625
-84.228515625
-81.48193359375
-85.14404296875
-77.81982421875
-85.14404296875
-96.13037109375
-93.3837890625
-96.13037109375
-92.46826171875
-83.31298828125
-81.48193359375
-94.29931640625
-104.3701171875
-96.13037109375
-84.228515625
-93.3837890625
-92.46826171875
-97.0458984375
-98.876953125
-102.5390625
-92.46826171875
-98.876953125
-99.79248046875
-92.46826171875
-99.79248046875
-104.3701171875
-109.86328125
-104.3701171875
-102.5390625
-103.45458984375
-104.3701171875
-103.45458984375
-102.5390625
-108.0322265625
-104.3701171875
-109.86328125
-117.1875
-120.849609375
-110.77880859375
-110.77880859375
-107.11669921875
-112.60986328125
-103.45458984375
-97.0458984375
-107.11669921875
-113.525390625
-120.849609375
-116.27197265625
-113.525390625
-115.3564453125
-111.6943359375
-113.525390625
-118.10302734375
-109.86328125
-117.1875
-115.3564453125
-106.201171875
-110.77880859375
-120.849609375
-117.1875
-119.93408203125
-125.42724609375
-103.45458984375
-110.77880859375
-123.59619140625
-113.525390625
-108.0322265625
-119.0185546875
-127.25830078125
-115.3564453125
-119.93408203125
-130.92041015625
-115.3564453125
-119.0185546875
-112.60986328125
-108.94775390625
-113.525390625
-117.1875
-118.10302734375
-118.10302734375
-115.3564453125
-112.60986328125
-118.10302734375
-107.11669921875
-111.6943359375
-119.0185546875
-125.42724609375
-119.0185546875
-119.0185546875
-130.92041015625
-130.0048828125
-122.6806640625
-119.0185546875
-116.27197265625
-109.86328125
-108.94775390625
-113.525390625
-115.3564453125
-119.93408203125
-123.59619140625
-118.10302734375
-115.3564453125
-124.51171875
-112.60986328125
-126.3427734375
-124.51171875
-119.0185546875
-118.10302734375
-126.3427734375
-142.822265625
-126.3427734375
-113.525390625
-126.3427734375
-108.0322265625
-112.60986328125
-121.76513671875
-115.3564453125
-122.6806640625
-123.59619140625
-120.849609375
-116.27197265625
-119.0185546875
-117.1875
-119.0185546875
-119.93408203125
-115.3564453125
-118.10302734375
-109.86328125
-111.6943359375
-104.3701171875
-97.0458984375
-97.0458984375
-94.29931640625
-84.228515625
-81.48193359375
-83.31298828125
-78.7353515625
-79.65087890625
-79.65087890625
-83.31298828125
-85.14404296875
-72.32666015625
-66.83349609375
-62.255859375
-54.931640625
-53.1005859375
-44.86083984375
-43.02978515625
-43.9453125
-39.36767578125
-43.02978515625
-42.1142578125
-45.7763671875
-53.1005859375
-62.255859375
-64.0869140625
-61.34033203125
-55.84716796875
-53.1005859375
-71.4111328125
-58.59375
-59.50927734375
-77.81982421875
-80.56640625
-85.14404296875
-93.3837890625
-100.7080078125
-106.201171875
-116.27197265625
-116.27197265625
-119.93408203125
-127.25830078125
-127.25830078125
-121.76513671875
-130.92041015625
-136.41357421875
-120.849609375
-120.849609375
-126.3427734375
-119.0185546875
-120.849609375
-129.08935546875
-128.173828125
-125.42724609375
-130.92041015625
-150.146484375
-205.99365234375
-247.1923828125
-261.8408203125
-245.361328125
-210.5712890625
-151.06201171875
-62.255859375
57.67822265625
235.29052734375
453.18603515625
670.166015625
894.47021484375
1101.37939453125
1308.28857421875
1430.96923828125
1517.02880859375
1555.48095703125
1500.54931640625
1359.55810546875
1197.509765625
1005.2490234375
750.732421875
366.2109375
109.86328125
61.34033203125
53.1005859375
44.86083984375
57.67822265625
56.7626953125
26.55029296875
13.73291015625
1.8310546875
7.32421875
-5.4931640625
-24.71923828125
-16.4794921875
-13.73291015625
-25.634765625
-35.70556640625
-43.9453125
-46.69189453125
-52.18505859375
-61.34033203125
-61.34033203125
-67.7490234375
-63.17138671875
-63.17138671875
-65.91796875
-54.931640625
-49.4384765625
-61.34033203125
-63.17138671875
-59.50927734375
-57.67822265625
-58.59375
-56.7626953125
-51.26953125
-42.1142578125
-45.7763671875
-51.26953125
-53.1005859375
-46.69189453125
-44.86083984375
-45.7763671875
-36.62109375
-33.87451171875
-32.958984375
-30.21240234375
-23.8037109375
-18.310546875
-26.55029296875
-21.05712890625
-18.310546875
-13.73291015625
-9.1552734375
-6.40869140625
4.57763671875
10.07080078125
10.986328125
9.1552734375
19.22607421875
28.38134765625
18.310546875
32.04345703125
35.70556640625
41.19873046875
27.4658203125
59.50927734375
60.4248046875
61.34033203125
69.580078125
76.904296875
75.0732421875
80.56640625
75.98876953125
89.7216796875
98.876953125
114.44091796875
122.6806640625
125.42724609375
131.8359375
143.73779296875
147.39990234375
167.54150390625
174.86572265625
184.02099609375
190.4296875
196.83837890625
210.5712890625
216.064453125
227.05078125
236.2060546875
243.5302734375
254.5166015625
256.34765625
263.671875
285.64453125
291.1376953125
296.630859375
305.7861328125
311.279296875
311.279296875
321.35009765625
326.84326171875
326.84326171875
330.50537109375
345.15380859375
347.900390625
345.15380859375
337.82958984375
329.58984375
325.927734375
318.603515625
330.50537109375
320.4345703125
302.1240234375
289.306640625
280.1513671875
260.009765625
243.5302734375
228.8818359375
205.99365234375
187.68310546875
174.86572265625
154.72412109375
139.16015625
127.25830078125
108.0322265625
95.21484375
68.66455078125
57.67822265625
45.7763671875
24.71923828125
12.8173828125
3.662109375
-7.32421875
-24.71923828125
-18.310546875
-28.38134765625
-42.1142578125
-53.1005859375
-56.7626953125
-63.17138671875
-72.32666015625
-76.904296875
-81.48193359375
-76.904296875
-79.65087890625
-89.7216796875
-81.48193359375
-79.65087890625
-80.56640625
-97.0458984375
-93.3837890625
-95.21484375
-93.3837890625
-94.29931640625
-89.7216796875
-95.21484375
-105.28564453125
-105.28564453125
-107.11669921875
-109.86328125
-108.0322265625
-108.0322265625
-95.21484375
-97.96142578125
-88.80615234375
-100.7080078125
-94.29931640625
-97.96142578125
-98.876953125
-98.876953125
-98.876953125
-97.96142578125
-93.3837890625
-95.21484375
-91.552734375
-93.3837890625
-97.0458984375
-98.876953125
-96.13037109375
-97.96142578125
-106.201171875
-99.79248046875
-96.13037109375
-100.7080078125
-97.0458984375
-97.0458984375
-102.5390625
-101.62353515625
-101.62353515625
-97.96142578125
-94.29931640625
-92.46826171875
-97.0458984375
-102.5390625
-105.28564453125
-86.0595703125
-96.13037109375
-83.31298828125
-88.80615234375
-91.552734375
-92.46826171875
-92.46826171875
-91.552734375
-90.63720703125
-97.96142578125
-93.3837890625
-86.0595703125
-89.7216796875
-95.21484375
-93.3837890625
-97.96142578125
-97.0458984375
-90.63720703125
-90.63720703125
-90.63720703125
-99.79248046875
-95.21484375
-91.552734375
-97.96142578125
-95.21484375
-99.79248046875
-87.890625
-99.79248046875
-105.28564453125
-97.96142578125
-75.0732421875
-91.552734375
-114.44091796875
-96.13037109375
-94.29931640625
-101.62353515625
-99.79248046875
-102.5390625
-116.27197265625
-93.3837890625
-98.876953125
-103.45458984375
-110.77880859375
-104.3701171875
-99.79248046875
-97.96142578125
-108.94775390625
-100.7080078125
-106.201171875
-102.5390625
-111.6943359375
-114.44091796875
-111.6943359375
-115.3564453125
-109.86328125
-107.11669921875
-113.525390625
-106.201171875
-106.201171875
-110.77880859375
-110.77880859375
-115.3564453125
-119.93408203125
-119.93408203125
-119.0185546875
-119.0185546875
-122.6806640625
-106.201171875
-111.6943359375
-112.60986328125
-107.11669921875
-117.1875
-108.0322265625
-100.7080078125
-119.0185546875
-122.6806640625
-116.27197265625
-130.92041015625
-109.86328125
-107.11669921875
-108.0322265625
-114.44091796875
-120.849609375
-118.10302734375
-108.94775390625
-119.93408203125
-115.3564453125
-116.27197265625
-122.6806640625
-111.6943359375
-110.77880859375
-114.44091796875
-117.1875
-130.0048828125
-119.0185546875
-117.1875
-116.27197265625
-118.10302734375
-116.27197265625
-112.60986328125
-107.11669921875
-108.0322265625
-114.44091796875
-113.525390625
-122.6806640625
-122.6806640625
-126.3427734375
-119.93408203125
-121.76513671875
-111.6943359375
-109.86328125
-114.44091796875
-115.3564453125
-119.93408203125
-114.44091796875
-122.6806640625
-114.44091796875
-119.0185546875
-118.10302734375
-105.28564453125
-108.0322265625
-125.42724609375
-115.3564453125
-129.08935546875
-118.10302734375
-116.27197265625
-119.93408203125
-117.1875
-113.525390625
-120.849609375
-114.44091796875
-106.201171875
-113.525390625
-108.0322265625
-112.60986328125
-121.76513671875
-119.0185546875
-121.76513671875
-111.6943359375
-110.77880859375
-116.27197265625
-118.10302734375
-112.60986328125
-108.0322265625
-115.3564453125
-112.60986328125
-121.76513671875
-119.93408203125
-113.525390625
-110.77880859375
-108.94775390625
-118.10302734375
-107.11669921875
-112.60986328125
-107.11669921875
-104.3701171875
-103.45458984375
-97.0458984375
-97.96142578125
-85.14404296875
-70.49560546875
-79.65087890625
-81.48193359375
-78.7353515625
-91.552734375
-78.7353515625
-70.49560546875
-70.49560546875
-65.91796875
-59.50927734375
-54.931640625
-44.86083984375
-40.283203125
-44.86083984375
-42.1142578125
-32.958984375
-35.70556640625
-36.62109375
-32.04345703125
-31.1279296875
-43.9453125
-53.1005859375
-58.59375
-68.66455078125
-64.0869140625
-54.931640625
-51.26953125
-62.255859375
-76.904296875
-68.66455078125
-76.904296875
-88.80615234375
-97.0458984375
-108.94775390625
-105.28564453125
-123.59619140625
-125.42724609375
-124.51171875
-118.10302734375
-122.6806640625
-121.76513671875
-125.42724609375
-124.51171875
-121.76513671875
-116.27197265625
-113.525390625
-118.10302734375
-119.0185546875
-119.0185546875
-115.3564453125
-119.93408203125
-140.9912109375
-179.443359375
-220.64208984375
-253.60107421875
-246.27685546875
-226.13525390625
-190.4296875
-120.849609375
-13.73291015625
136.41357421875
347.900390625
570.37353515625
787.353515625
1005.2490234375
1223.14453125
1388.85498046875
1480.40771484375
1586.60888671875
1569.2138671875
1470.3369140625
1333.92333984375
1156.31103515625
926.513671875
612.48779296875
244.44580078125
101.62353515625
70.49560546875
71.4111328125
66.83349609375
75.0732421875
56.7626953125
34.7900390625
10.986328125
8.23974609375
0.91552734375
-1.8310546875
-3.662109375
-21.05712890625
-21.97265625
-30.21240234375
-43.02978515625
-54.01611328125
-55.84716796875
-56.7626953125
-71.4111328125
-77.81982421875
-55.84716796875
-62.255859375
-59.50927734375
-59.50927734375
-58.59375
-55.84716796875
-51.26953125
-65.00244140625
-62.255859375
-59.50927734375
-59.50927734375
-58.59375
-53.1005859375
-53.1005859375
-52.18505859375
-52.18505859375
-50.35400390625
-37.53662109375
-42.1142578125
-33.87451171875
-32.958984375
-36.62109375
-20.1416015625
-25.634765625
-34.7900390625
-21.05712890625
-22.88818359375
-17.39501953125
-10.07080078125
-7.32421875
-2.74658203125
-10.07080078125
0.91552734375
4.57763671875
16.4794921875
14.6484375
15.56396484375
20.1416015625
25.634765625
20.1416015625
37.53662109375
46.69189453125
38.4521484375
54.01611328125
64.0869140625
58.59375
60.4248046875
73.2421875
81.48193359375
84.228515625
96.13037109375
101.62353515625
107.11669921875
120.849609375
118.10302734375
128.173828125
125.42724609375
140.07568359375
144.6533203125
154.72412109375
170.2880859375
185.85205078125
194.091796875
195.9228515625
195.9228515625
215.14892578125
238.037109375
242.61474609375
241.69921875
248.10791015625
254.5166015625
266.41845703125
292.96875
300.29296875
303.03955078125
318.603515625
312.19482421875
324.0966796875
332.33642578125
335.99853515625
339.66064453125
346.98486328125
349.7314453125
348.81591796875
347.900390625
343.32275390625
350.64697265625
336.9140625
331.4208984375
327.7587890625
324.0966796875
295.71533203125
286.56005859375
272.8271484375
261.8408203125
245.361328125
227.05078125
206.9091796875
189.51416015625
175.78125
156.55517578125
128.173828125
119.93408203125
93.3837890625
83.31298828125
65.91796875
54.01611328125
28.38134765625
21.05712890625
16.4794921875
3.662109375
-0.91552734375
-21.97265625
-34.7900390625
-32.958984375
-50.35400390625
-56.7626953125
-61.34033203125
-68.66455078125
-73.2421875
-68.66455078125
-76.904296875
-79.65087890625
-74.15771484375
-76.904296875
-92.46826171875
-95.21484375
-93.3837890625
-96.13037109375
-93.3837890625
-91.552734375
-104.3701171875
-97.96142578125
-96.13037109375
-99.79248046875
-102.5390625
-106.201171875
-106.201171875
-96.13037109375
-97.96142578125
-107.11669921875
-119.93408203125
-99.79248046875
-98.876953125
-104.3701171875
-104.3701171875
-105.28564453125
-104.3701171875
-108.94775390625
-100.7080078125
-94.29931640625
-97.0458984375
-94.29931640625
-99.79248046875
-101.62353515625
-99.79248046875
-97.96142578125
-96.13037109375
-102.5390625
-95.21484375
-96.13037109375
-97.96142578125
-99.79248046875
-97.96142578125
-106.201171875
-109.86328125
-103.45458984375
-93.3837890625
-103.45458984375
-96.13037109375
-99.79248046875
-96.13037109375
-92.46826171875
-90.63720703125
-96.13037109375
-103.45458984375
-99.79248046875
-99.79248046875
-101.62353515625
-96.13037109375
-96.13037109375
-92.46826171875
-92.46826171875
-87.890625
-89.7216796875
-102.5390625
-96.13037109375
-90.63720703125
-101.62353515625
-90.63720703125
-103.45458984375
-108.0322265625
-97.0458984375
-107.11669921875
-106.201171875
-97.0458984375
-100.7080078125
-97.0458984375
-98.876953125
-110.77880859375
-94.29931640625
-99.79248046875
-111.6943359375
-87.890625
-96.13037109375
-103.45458984375
-103.45458984375
-101.62353515625
-108.94775390625
-98.876953125
-107.11669921875
-108.94775390625
-97.96142578125
-101.62353515625
-109.86328125
-114.44091796875
-103.45458984375
-102.5390625
-109.86328125
-113.525390625
-122.6806640625
-117.1875
-115.3564453125
-110.77880859375
-110.77880859375
-104.3701171875
-109.86328125
-109.86328125
-108.0322265625
-116.27197265625
-127.25830078125
-109.86328125
-112.60986328125
-111.6943359375
-110.77880859375
-112.60986328125
-113.525390625
-111.6943359375
-112.60986328125
-119.0185546875
-117.1875
-117.1875
-117.1875
-117.1875
-118.10302734375
-124.51171875
-119.0185546875
-111.6943359375
-117.1875
-126.3427734375
-124.51171875
-123.59619140625
-124.51171875
-118.10302734375
-113.525390625
-126.3427734375
-132.75146484375
-110.77880859375
-121.76513671875
-115.3564453125
-103.45458984375
-112.60986328125
-112.60986328125
-108.94775390625
-119.0185546875
-115.3564453125
-119.93408203125
-123.59619140625
-120.849609375
-116.27197265625
-117.1875
-117.1875
-114.44091796875
-119.0185546875
-113.525390625
-115.3564453125
-117.1875
-116.27197265625
-120.849609375
-121.76513671875
-122.6806640625
-120.849609375
-124.51171875
-114.44091796875
-111.6943359375
-108.94775390625
-120.849609375
-133.6669921875
-113.525390625
-109.86328125
-119.0185546875
-124.51171875
-115.3564453125
-103.45458984375
-116.27197265625
-116.27197265625
-122.6806640625
-123.59619140625
-120.849609375
-122.6806640625
-115.3564453125
-119.93408203125
-112.60986328125
-105.28564453125
-109.86328125
-114.44091796875
-117.1875
-119.93408203125
-121.76513671875
-118.10302734375
-117.1875
-119.93408203125
-118.10302734375
-124.51171875
-119.93408203125
-109.86328125
-109.86328125
-110.77880859375
-119.93408203125
-122.6806640625
-128.173828125
-109.86328125
-104.3701171875
-113.525390625
-124.51171875
-124.51171875
-114.44091796875
-117.1875
-122.6806640625
-113.525390625
-119.93408203125
-98.876953125
-91.552734375
-92.46826171875
-91.552734375
-87.890625
-79.65087890625
-74.15771484375
-82.3974609375
-80.56640625
-73.2421875
-77.81982421875
-69.580078125
-69.580078125
-76.904296875
-75.0732421875
-50.35400390625
-58.59375
-55.84716796875
-49.4384765625
-36.62109375
-38.4521484375
-32.958984375
-28.38134765625
-39.36767578125
-41.19873046875
-39.36767578125
-59.50927734375
-60.4248046875
-58.59375
-45.7763671875
-56.7626953125
-62.255859375
-52.18505859375
-71.4111328125
-65.91796875
-86.0595703125
-72.32666015625
-84.228515625
-103.45458984375
-101.62353515625
-111.6943359375
-111.6943359375
-108.0322265625
-119.93408203125
-116.27197265625
-108.0322265625
-108.0322265625
-115.3564453125
-112.60986328125
-110.77880859375
-109.86328125
-102.5390625
-102.5390625
-113.525390625
-125.42724609375
-119.0185546875
-131.8359375
-154.72412109375
-192.2607421875
-232.5439453125
-252.685546875
-229.79736328125
-205.99365234375
-160.21728515625
-74.15771484375
49.4384765625
207.82470703125
438.53759765625
661.0107421875
860.595703125
1079.40673828125
1277.16064453125
1422.7294921875
1505.126953125
1541.748046875
1504.21142578125
1383.36181640625
1226.806640625
1039.12353515625
781.8603515625
418.39599609375
137.3291015625
72.32666015625
63.17138671875
56.7626953125
57.67822265625
61.34033203125
29.296875
27.4658203125
16.4794921875
6.40869140625
11.90185546875
-1.8310546875
-16.4794921875
-24.71923828125
-17.39501953125
-47.607421875
-51.26953125
-56.7626953125
-53.1005859375
-58.59375
-45.7763671875
-52.18505859375
-72.32666015625
-54.01611328125
-62.255859375
-65.91796875
-57.67822265625
-51.26953125
-50.35400390625
-49.4384765625
-45.7763671875
-27.4658203125
-46.69189453125
-42.1142578125
-46.69189453125
-50.35400390625
-42.1142578125
-41.19873046875
-36.62109375
-32.04345703125
-26.55029296875
-23.8037109375
-25.634765625
-8.23974609375
-12.8173828125
-9.1552734375
-5.4931640625
-10.986328125
-15.56396484375
-3.662109375
6.40869140625
3.662109375
-9.1552734375
1.8310546875
18.310546875
18.310546875
16.4794921875
23.8037109375
21.97265625
38.4521484375
39.36767578125
42.1142578125
41.19873046875
31.1279296875
46.69189453125
59.50927734375
56.7626953125
73.2421875
72.32666015625
78.7353515625
93.3837890625
102.5390625
101.62353515625
108.0322265625
122.6806640625
115.3564453125
119.93408203125
118.10302734375
141.90673828125
147.39990234375
157.470703125
166.6259765625
183.10546875
193.17626953125
198.66943359375
207.82470703125
214.2333984375
220.64208984375
240.78369140625
253.60107421875
259.09423828125
266.41845703125
270.08056640625
276.4892578125
290.22216796875
289.306640625
309.4482421875
314.02587890625
316.7724609375
322.265625
323.18115234375
334.16748046875
341.49169921875
337.82958984375
340.576171875
340.576171875
341.49169921875
333.251953125
347.900390625
342.4072265625
326.84326171875
316.7724609375
307.6171875
303.03955078125
303.955078125
276.4892578125
258.1787109375
249.93896484375
228.8818359375
213.31787109375
199.5849609375
184.9365234375
167.54150390625
142.822265625
123.59619140625
98.876953125
79.65087890625
65.00244140625
61.34033203125
42.1142578125
36.62109375
21.97265625
13.73291015625
4.57763671875
-8.23974609375
-21.97265625
-33.87451171875
-38.4521484375
-40.283203125
-44.86083984375
-46.69189453125
-50.35400390625
-55.84716796875
-55.84716796875
-65.00244140625
-70.49560546875
-75.98876953125
-82.3974609375
-63.17138671875
-74.15771484375
-76.904296875
-81.48193359375
-90.63720703125
-87.890625
-85.14404296875
-80.56640625
-81.48193359375
-88.80615234375
-86.0595703125
-89.7216796875
-83.31298828125
-83.31298828125
-91.552734375
-91.552734375
-86.97509765625
-95.21484375
-101.62353515625
-88.80615234375
-86.97509765625
-89.7216796875
-90.63720703125
-86.0595703125
-89.7216796875
-95.21484375
-86.97509765625
-84.228515625
-91.552734375
-88.80615234375
-86.0595703125
-84.228515625
-86.97509765625
-84.228515625
-80.56640625
-84.228515625
-102.5390625
-82.3974609375
-79.65087890625
-76.904296875
-81.48193359375
-84.228515625
-75.98876953125
-74.15771484375
-80.56640625
-71.4111328125
-73.2421875
-77.81982421875
-74.15771484375
-79.65087890625
-80.56640625
-78.7353515625
-77.81982421875
-75.98876953125
-85.14404296875
-86.97509765625
-69.580078125
-74.15771484375
-75.0732421875
-75.0732421875
-89.7216796875
-80.56640625
-73.2421875
-75.98876953125
-77.81982421875
-84.228515625
-83.31298828125
-76.904296875
-78.7353515625
-83.31298828125
-75.98876953125
-81.48193359375
-80.56640625
-89.7216796875
-99.79248046875
-88.80615234375
-82.3974609375
-85.14404296875
-87.890625
-89.7216796875
-91.552734375
-102.5390625
-82.3974609375
-79.65087890625
-86.97509765625
-101.62353515625
-92.46826171875
-94.29931640625
-90.63720703125
-108.94775390625
-93.3837890625
-85.14404296875
-83.31298828125
-92.46826171875
-83.31298828125
-92.46826171875
-99.79248046875
-102.5390625
-98.876953125
-97.0458984375
-92.46826171875
-93.3837890625
-93.3837890625
-93.3837890625
-96.13037109375
-94.29931640625
-97.96142578125
-93.3837890625
-97.96142578125
-97.0458984375
-102.5390625
-111.6943359375
-105.28564453125
-108.94775390625
-114.44091796875
-93.3837890625
-97.96142578125
-105.28564453125
-110.77880859375
-100.7080078125
-91.552734375
-100.7080078125
-103.45458984375
-99.79248046875
-97.96142578125
-104.3701171875
-101.62353515625
-101.62353515625
-101.62353515625
-108.94775390625
-109.86328125
-99.79248046875
-106.201171875
-97.96142578125
-104.3701171875
-101.62353515625
-102.5390625
-97.0458984375
-100.7080078125
-108.0322265625
-99.79248046875
-97.96142578125
-95.21484375
-103.45458984375
-106.201171875
-109.86328125
-107.11669921875
-114.44091796875
-105.28564453125
-99.79248046875
-114.44091796875
-110.77880859375
-95.21484375
-96.13037109375
-96.13037109375
-107.11669921875
-99.79248046875
-99.79248046875
-107.11669921875
-105.28564453125
-92.46826171875
-99.79248046875
-123.59619140625
-104.3701171875
-99.79248046875
-101.62353515625
-105.28564453125
-108.94775390625
-120.849609375
-105.28564453125
-104.3701171875
-97.96142578125
-98.876953125
-111.6943359375
-97.96142578125
-95.21484375
-106.201171875
-101.62353515625
-107.11669921875
-108.0322265625
-105.28564453125
-108.94775390625
-107.11669921875
-96.13037109375
-103.45458984375
-96.13037109375
-100.7080078125
-96.13037109375
-80.56640625
-84.228515625
-74.15771484375
-68.66455078125
-74.15771484375
-70.49560546875
-69.580078125
-72.32666015625
-77.81982421875
-65.91796875
-69.580078125
-66.83349609375
-48.52294921875
-60.4248046875
-43.02978515625
-39.36767578125
-32.958984375
-22.88818359375
-21.05712890625
-20.1416015625
-32.04345703125
-32.958984375
-37.53662109375
-35.70556640625
-47.607421875
-48.52294921875
-57.67822265625
-44.86083984375
-44.86083984375
-49.4384765625
-55.84716796875
-59.50927734375
-60.4248046875
-74.15771484375
-79.65087890625
-79.65087890625
-87.890625
-96.13037109375
-99.79248046875
-111.6943359375
-100.7080078125
-97.0458984375
-105.28564453125
-109.86328125
-99.79248046875
-99.79248046875
-108.0322265625
-115.3564453125
-118.10302734375
-104.3701171875
-107.11669921875
-93.3837890625
-97.96142578125
-108.94775390625
-125.42724609375
-154.72412109375
-199.5849609375
-222.47314453125
-220.64208984375
-199.5849609375
-147.39990234375
-77.81982421875
36.62109375
176.69677734375
348.81591796875
566.71142578125
763.5498046875
953.9794921875
1155.3955078125
1311.03515625
1404.4189453125
1452.94189453125
1430.96923828125
1322.93701171875
1193.84765625
1011.65771484375
761.71875
455.9326171875
145.56884765625
43.9453125
11.90185546875
23.8037109375
29.296875
39.36767578125
33.87451171875
21.97265625
8.23974609375
-2.74658203125
-9.1552734375
-14.6484375
0
-4.57763671875
-17.39501953125
-31.1279296875
-33.87451171875
-43.02978515625
-53.1005859375
-53.1005859375
-60.4248046875
-54.01611328125
-50.35400390625
-51.26953125
-50.35400390625
-45.7763671875
-43.9453125
-38.4521484375
-48.52294921875
-49.4384765625
-45.7763671875
-45.7763671875
-43.9453125
-43.9453125
-41.19873046875
-41.19873046875
-39.36767578125
-36.62109375
-43.02978515625
-32.04345703125
-21.97265625
-32.958984375
-27.4658203125
-26.55029296875
-28.38134765625
-38.4521484375
-7.32421875
7.32421875
4.57763671875
-4.57763671875
2.74658203125
2.74658203125
0.91552734375
1.8310546875
3.662109375
20.1416015625
25.634765625
30.21240234375
32.958984375
30.21240234375
40.283203125
39.36767578125
41.19873046875
42.1142578125
47.607421875
55.84716796875
58.59375
75.0732421875
72.32666015625
82.3974609375
93.3837890625
89.7216796875
94.29931640625
105.28564453125
100.7080078125
111.6943359375
119.93408203125
124.51171875
134.58251953125
143.73779296875
147.39990234375
158.38623046875
171.20361328125
187.68310546875
194.091796875
194.091796875
201.416015625
212.40234375
200.50048828125
236.2060546875
252.685546875
255.43212890625
264.58740234375
274.658203125
279.23583984375
292.05322265625
292.96875
303.955078125
304.87060546875
303.03955078125
318.603515625
320.4345703125
326.84326171875
323.18115234375
335.0830078125
340.576171875
338.7451171875
339.66064453125
330.50537109375
324.0966796875
317.68798828125
301.20849609375
306.70166015625
289.306640625
272.8271484375
267.333984375
259.09423828125
237.12158203125
217.8955078125
197.75390625
182.18994140625
161.1328125
145.56884765625
129.08935546875
118.10302734375
104.3701171875
82.3974609375
65.00244140625
45.7763671875
27.4658203125
26.55029296875
5.4931640625
0
5.4931640625
-11.90185546875
-29.296875
-39.36767578125
-44.86083984375
-48.52294921875
-53.1005859375
-56.7626953125
-60.4248046875
-73.2421875
-70.49560546875
-75.0732421875
-75.98876953125
-79.65087890625
-73.2421875
-81.48193359375
-89.7216796875
-85.14404296875
-86.0595703125
-91.552734375
-97.96142578125
-95.21484375
-104.3701171875
-98.876953125
-91.552734375
-97.0458984375
-97.96142578125
-95.21484375
-100.7080078125
-105.28564453125
-88.80615234375
-99.79248046875
-99.79248046875
-96.13037109375
-96.13037109375
-100.7080078125
-108.0322265625
-104.3701171875
-112.60986328125
-109.86328125
-88.80615234375
-92.46826171875
-94.29931640625
-93.3837890625
-102.5390625
-101.62353515625
-98.876953125
-99.79248046875
-97.0458984375
-101.62353515625
-90.63720703125
-88.80615234375
-95.21484375
-94.29931640625
-94.29931640625
-108.94775390625
-97.0458984375
-90.63720703125
-97.96142578125
-96.13037109375
-82.3974609375
-84.228515625
-90.63720703125
-86.0595703125
-82.3974609375
-84.228515625
-86.0595703125
-91.552734375
-86.0595703125
-85.14404296875
-85.14404296875
-83.31298828125
-82.3974609375
-88.80615234375
-87.890625
-86.97509765625
-88.80615234375
-94.29931640625
-85.14404296875
-95.21484375
-98.876953125
-89.7216796875
-90.63720703125
-85.14404296875
-85.14404296875
-89.7216796875
-87.890625
-86.0595703125
-88.80615234375
-99.79248046875
-101.62353515625
-97.96142578125
-102.5390625
-102.5390625
-80.56640625
-76.904296875
-94.29931640625
-92.46826171875
-88.80615234375
-88.80615234375
-92.46826171875
-89.7216796875
-98.876953125
-102.5390625
-97.96142578125
-95.21484375
-94.29931640625
-99.79248046875
-105.28564453125
-108.0322265625
-112.60986328125
-108.94775390625
-116.27197265625
-111.6943359375
-109.86328125
-108.0322265625
-107.11669921875
-105.28564453125
-112.60986328125
-127.25830078125
-101.62353515625
-100.7080078125
-107.11669921875
-110.77880859375
-108.94775390625
-106.201171875
-105.28564453125
-103.45458984375
-101.62353515625
-115.3564453125
-114.44091796875
-102.5390625
-108.94775390625
-99.79248046875
-106.201171875
-120.849609375
-112.60986328125
-108.0322265625
-109.86328125
-110.77880859375
-109.86328125
-117.1875
-109.86328125
-110.77880859375
-118.10302734375
-99.79248046875
-115.3564453125
-112.60986328125
-106.201171875
-110.77880859375
-119.93408203125
-115.3564453125
-116.27197265625
-110.77880859375
-112.60986328125
-109.86328125
-106.201171875
-114.44091796875
-115.3564453125
-112.60986328125
-108.94775390625
-124.51171875
-123.59619140625
-115.3564453125
-106.201171875
-104.3701171875
-108.0322265625
-115.3564453125
-123.59619140625
-108.94775390625
-110.77880859375
-108.94775390625
-117.1875
-107.11669921875
-99.79248046875
-107.11669921875
-115.3564453125
-110.77880859375
-117.1875
-120.849609375
-125.42724609375
-121.76513671875
-110.77880859375
-108.0322265625
-105.28564453125
-119.93408203125
-110.77880859375
-117.1875
-117.1875
-112.60986328125
-115.3564453125
-112.60986328125
-119.93408203125
-112.60986328125
-115.3564453125
-122.6806640625
-105.28564453125
-104.3701171875
-103.45458984375
-96.13037109375
-94.29931640625
-90.63720703125
-89.7216796875
-84.228515625
-75.0732421875
-75.98876953125
-71.4111328125
-76.904296875
-79.65087890625
-72.32666015625
-75.98876953125
-76.904296875
-75.98876953125
-75.98876953125
-49.4384765625
-41.19873046875
-47.607421875
-43.02978515625
-40.283203125
-35.70556640625
-35.70556640625
-29.296875
-32.958984375
-46.69189453125
-44.86083984375
-50.35400390625
-65.00244140625
-62.255859375
-57.67822265625
-59.50927734375
-61.34033203125
-69.580078125
-48.52294921875
-66.83349609375
-66.83349609375
-79.65087890625
-85.14404296875
-95.21484375
-110.77880859375
-101.62353515625
-102.5390625
-109.86328125
-116.27197265625
-117.1875
-114.44091796875
-110.77880859375
-119.93408203125
-119.93408203125
-128.173828125
-127.25830078125
-110.77880859375
-110.77880859375
-114.44091796875
-119.0185546875
-118.10302734375
-129.08935546875
-149.23095703125
-186.767578125
-227.05078125
-241.69921875
-229.79736328125
-207.82470703125
-156.55517578125
-56.7626953125
64.0869140625
217.8955078125
430.2978515625
638.12255859375
839.53857421875
1054.6875
1247.86376953125
1405.33447265625
1479.4921875
1523.4375
1482.23876953125
1357.72705078125
1188.3544921875
1004.33349609375
764.46533203125
399.169921875
109.86328125
42.1142578125
36.62109375
42.1142578125
52.18505859375
47.607421875
30.21240234375
13.73291015625
3.662109375
0
-1.8310546875
-9.1552734375
-14.6484375
-23.8037109375
-32.958984375
-35.70556640625
-35.70556640625
-51.26953125
-57.67822265625
-60.4248046875
-55.84716796875
-60.4248046875
-64.0869140625
-59.50927734375
-54.931640625
-47.607421875
-54.01611328125
-59.50927734375
-54.01611328125
-54.01611328125
-53.1005859375
-50.35400390625
-53.1005859375
-41.19873046875
-36.62109375
-32.958984375
-42.1142578125
-46.69189453125
-54.931640625
-43.9453125
-26.55029296875
-23.8037109375
-30.21240234375
-20.1416015625
-18.310546875
-15.56396484375
-20.1416015625
-16.4794921875
-14.6484375
-8.23974609375
-2.74658203125
0.91552734375
18.310546875
8.23974609375
11.90185546875
10.986328125
2.74658203125
13.73291015625
15.56396484375
29.296875
30.21240234375
34.7900390625
39.36767578125
49.4384765625
61.34033203125
58.59375
64.0869140625
69.580078125
74.15771484375
74.15771484375
86.97509765625
89.7216796875
85.14404296875
103.45458984375
107.11669921875
119.93408203125
139.16015625
139.16015625
143.73779296875
150.146484375
168.45703125
173.03466796875
179.443359375
192.2607421875
198.66943359375
218.81103515625
231.62841796875
225.2197265625
229.79736328125
234.375
253.60107421875
269.1650390625
265.5029296875
282.89794921875
296.630859375
290.22216796875
318.603515625
317.68798828125
310.36376953125
321.35009765625
335.0830078125
338.7451171875
342.4072265625
335.0830078125
337.82958984375
342.4072265625
339.66064453125
341.49169921875
335.0830078125
335.99853515625
328.67431640625
309.4482421875
303.955078125
293.88427734375
284.72900390625
256.34765625
240.78369140625
238.95263671875
224.30419921875
198.66943359375
174.86572265625
164.794921875
148.3154296875
130.92041015625
114.44091796875
86.0595703125
85.14404296875
65.91796875
45.7763671875
32.04345703125
22.88818359375
5.4931640625
-4.57763671875
-6.40869140625
-10.07080078125
-32.958984375
-42.1142578125
-37.53662109375
-47.607421875
-60.4248046875
-64.0869140625
-65.91796875
-79.65087890625
-76.904296875
-73.2421875
-77.81982421875
-79.65087890625
-78.7353515625
-86.97509765625
-90.63720703125
-104.3701171875
-92.46826171875
-93.3837890625
-93.3837890625
-94.29931640625
-97.96142578125
-99.79248046875
-103.45458984375
-108.94775390625
-108.94775390625
-103.45458984375
-100.7080078125
-103.45458984375
-104.3701171875
-106.201171875
-101.62353515625
-111.6943359375
-97.0458984375
-100.7080078125
-104.3701171875
-100.7080078125
-101.62353515625
-109.86328125
-122.6806640625
-105.28564453125
-98.876953125
-106.201171875
-110.77880859375
-101.62353515625
-93.3837890625
-95.21484375
-89.7216796875
-98.876953125
-96.13037109375
-89.7216796875
-95.21484375
-108.0322265625
-85.14404296875
-97.0458984375
-96.13037109375
-91.552734375
-92.46826171875
-82.3974609375
-91.552734375
-83.31298828125
-92.46826171875
-100.7080078125
-92.46826171875
-91.552734375
-91.552734375
-87.890625
-88.80615234375
-86.97509765625
-84.228515625
-84.228515625
-85.14404296875
-85.14404296875
-82.3974609375
-86.0595703125
-97.0458984375
-89.7216796875
-88.80615234375
-91.552734375
-93.3837890625
-78.7353515625
-80.56640625
-88.80615234375
-94.29931640625
-96.13037109375
-97.0458984375
-93.3837890625
-88.80615234375
-99.79248046875
-90.63720703125
-91.552734375
-99.79248046875
-102.5390625
-100.7080078125
-101.62353515625
-105.28564453125
-101.62353515625
-98.876953125
-97.96142578125
-108.94775390625
-97.96142578125
-99.79248046875
-105.28564453125
-95.21484375
-102.5390625
-109.86328125
-107.11669921875
-108.94775390625
-109.86328125
-110.77880859375
-107.11669921875
-105.28564453125
-109.86328125
-119.0185546875
-107.11669921875
-125.42724609375
-123.59619140625
-98.876953125
-108.94775390625
-123.59619140625
-119.93408203125
-108.94775390625
-117.1875
-110.77880859375
-105.28564453125
-110.77880859375
-114.44091796875
-108.0322265625
-112.60986328125
-113.525390625
-107.11669921875
-112.60986328125
-113.525390625
-129.08935546875
-121.76513671875
-120.849609375
-116.27197265625
-114.44091796875
-122.6806640625
-121.76513671875
-119.0185546875
-108.0322265625
-111.6943359375
-130.92041015625
-121.76513671875
-116.27197265625
-119.0185546875
-118.10302734375
-119.0185546875
-115.3564453125
-114.44091796875
-130.92041015625
-125.42724609375
-119.0185546875
-112.60986328125
-115.3564453125
-118.10302734375
-121.76513671875
-116.27197265625
-115.3564453125
-105.28564453125
-108.94775390625
-114.44091796875
-112.60986328125
-111.6943359375
-119.93408203125
-122.6806640625
-119.93408203125
-118.10302734375
-122.6806640625
-119.93408203125
-119.93408203125
-118.10302734375
-122.6806640625
-127.25830078125
-127.25830078125
-127.25830078125
-112.60986328125
-116.27197265625
-121.76513671875
-114.44091796875
-111.6943359375
-119.93408203125
-118.10302734375
-121.76513671875
-126.3427734375
-106.201171875
-120.849609375
-119.93408203125
-112.60986328125
-106.201171875
-119.0185546875
-122.6806640625
-114.44091796875
-111.6943359375
-118.10302734375
-120.849609375
-118.10302734375
-119.0185546875
-122.6806640625
-113.525390625
-115.3564453125
-126.3427734375
-123.59619140625
-114.44091796875
-116.27197265625
-115.3564453125
-117.1875
-118.10302734375
-122.6806640625
-116.27197265625
-118.10302734375
-119.0185546875
-112.60986328125
-112.60986328125
-111.6943359375
-105.28564453125
-96.13037109375
-78.7353515625
-79.65087890625
-89.7216796875
-78.7353515625
-74.15771484375
-75.0732421875
-65.91796875
-75.98876953125
-83.31298828125
-62.255859375
-59.50927734375
-67.7490234375
-47.607421875
-42.1142578125
-44.86083984375
-43.02978515625
-43.9453125
-42.1142578125
-33.87451171875
-43.9453125
-45.7763671875
-54.01611328125
-51.26953125
-65.00244140625
-65.00244140625
-67.7490234375
-60.4248046875
-63.17138671875
-65.91796875
-72.32666015625
-72.32666015625
-79.65087890625
-91.552734375
-105.28564453125
-100.7080078125
-109.86328125
-120.849609375
-118.10302734375
-121.76513671875
-126.3427734375
-134.58251953125
-123.59619140625
-130.0048828125
-126.3427734375
-122.6806640625
-126.3427734375
-128.173828125
-126.3427734375
-122.6806640625
-120.849609375
-124.51171875
-122.6806640625
-128.173828125
-166.6259765625
-216.064453125
-243.5302734375
-249.93896484375
-238.95263671875
-205.99365234375
-134.58251953125
-40.283203125
94.29931640625
290.22216796875
517.27294921875
726.9287109375
951.23291015625
1159.97314453125
1350.40283203125
1463.0126953125
1543.5791015625
1589.35546875
1517.9443359375
1365.966796875
1200.25634765625
996.09375
715.9423828125
318.603515625
112.60986328125
78.7353515625
64.0869140625
51.26953125
58.59375
57.67822265625
36.62109375
20.1416015625
12.8173828125
4.57763671875
-5.4931640625
-16.4794921875
-20.1416015625
-24.71923828125
-32.04345703125
-37.53662109375
-42.1142578125
-55.84716796875
-54.01611328125
-59.50927734375
-65.91796875
-65.00244140625
-65.91796875
-65.00244140625
-72.32666015625
-57.67822265625
-61.34033203125
-61.34033203125
-50.35400390625
-75.0732421875
-68.66455078125
-40.283203125
-43.9453125
-44.86083984375
-45.7763671875
-43.9453125
-36.62109375
-41.19873046875
-37.53662109375
-33.87451171875
-39.36767578125
-36.62109375
-34.7900390625
-32.04345703125
-27.4658203125
-20.1416015625
-19.22607421875
-23.8037109375
-17.39501953125
-2.74658203125
-6.40869140625
-6.40869140625
-1.8310546875
5.4931640625
3.662109375
0.91552734375
11.90185546875
16.4794921875
21.05712890625
44.86083984375
38.4521484375
37.53662109375
48.52294921875
55.84716796875
52.18505859375
60.4248046875
63.17138671875
60.4248046875
76.904296875
83.31298828125
88.80615234375
92.46826171875
93.3837890625
102.5390625
105.28564453125
114.44091796875
122.6806640625
132.75146484375
134.58251953125
149.23095703125
155.6396484375
168.45703125
186.767578125
195.00732421875
199.5849609375
212.40234375
229.79736328125
226.13525390625
231.62841796875
243.5302734375
256.34765625
266.41845703125
270.99609375
277.40478515625
289.306640625
311.279296875
316.7724609375
314.02587890625
321.35009765625
335.0830078125
339.66064453125
333.251953125
334.16748046875
336.9140625
346.98486328125
346.0693359375
358.88671875
356.14013671875
351.5625
335.99853515625
337.82958984375
325.927734375
314.94140625
303.955078125
284.72900390625
266.41845703125
252.685546875
238.037109375
205.99365234375
205.99365234375
181.2744140625
160.21728515625
137.3291015625
134.58251953125
110.77880859375
102.5390625
73.2421875
44.86083984375
46.69189453125
24.71923828125
17.39501953125
9.1552734375
4.57763671875
-10.986328125
-17.39501953125
-33.87451171875
-35.70556640625
-51.26953125
-54.931640625
-61.34033203125
-64.0869140625
-69.580078125
-66.83349609375
-74.15771484375
-77.81982421875
-75.0732421875
-75.0732421875
-86.97509765625
-95.21484375
-101.62353515625
-90.63720703125
-85.14404296875
-96.13037109375
-93.3837890625
-95.21484375
-90.63720703125
-96.13037109375
-97.96142578125
-101.62353515625
-116.27197265625
-108.0322265625
-103.45458984375
-108.0322265625
-99.79248046875
-103.45458984375
-90.63720703125
-108.94775390625
-104.3701171875
-99.79248046875
-102.5390625
-106.201171875
-107.11669921875
-89.7216796875
-91.552734375
-95.21484375
-90.63720703125
-91.552734375
-99.79248046875
-93.3837890625
-103.45458984375
-118.10302734375
-106.201171875
-90.63720703125
-94.29931640625
-92.46826171875
-92.46826171875
-94.29931640625
-95.21484375
-94.29931640625
-92.46826171875
-99.79248046875
-87.890625
-97.96142578125
-97.96142578125
-84.228515625
-84.228515625
-90.63720703125
-97.96142578125
-97.96142578125
-94.29931640625
-92.46826171875
-98.876953125
-98.876953125
-100.7080078125
-77.81982421875
-80.56640625
-85.14404296875
-87.890625
-87.890625
-96.13037109375
-95.21484375
-91.552734375
-97.96142578125
-88.80615234375
-88.80615234375
-84.228515625
-98.876953125
-93.3837890625
-94.29931640625
-98.876953125
-95.21484375
-95.21484375
-99.79248046875
-96.13037109375
-97.96142578125
-93.3837890625
-92.46826171875
-97.96142578125
-110.77880859375
-104.3701171875
-103.45458984375
-120.849609375
-110.77880859375
-101.62353515625
-96.13037109375
-103.45458984375
-89.7216796875
-94.29931640625
-99.79248046875
-103.45458984375
-104.3701171875
-113.525390625
-108.94775390625
-100.7080078125
-108.0322265625
-104.3701171875
-106.201171875
-107.11669921875
-111.6943359375
-114.44091796875
-104.3701171875
-101.62353515625
-109.86328125
-107.11669921875
-116.27197265625
-118.10302734375
-105.28564453125
-109.86328125
-104.3701171875
-108.94775390625
-114.44091796875
-117.1875
-121.76513671875
-105.28564453125
-116.27197265625
-109.86328125
-103.45458984375
-110.77880859375
-110.77880859375
-108.94775390625
-112.60986328125
-126.3427734375
-113.525390625
-105.28564453125
-108.94775390625
-108.94775390625
-105.28564453125
-112.60986328125
-111.6943359375
-123.59619140625
-123.59619140625
-115.3564453125
-108.94775390625
-108.94775390625
-118.10302734375
-112.60986328125
-100.7080078125
-109.86328125
-118.10302734375
-120.849609375
-118.10302734375
-116.27197265625
-134.58251953125
-112.60986328125
-110.77880859375
-118.10302734375
-114.44091796875
-107.11669921875
-112.60986328125
-108.0322265625
-125.42724609375
-130.92041015625
-109.86328125
-117.1875
-119.0185546875
-109.86328125
-108.0322265625
-119.93408203125
-116.27197265625
-115.3564453125
-117.1875
-119.93408203125
-119.93408203125
-125.42724609375
-111.6943359375
-113.525390625
-118.10302734375
-112.60986328125
-119.0185546875
-119.93408203125
-117.1875
-117.1875
-121.76513671875
-113.525390625
-111.6943359375
-107.11669921875
-115.3564453125
-117.1875
-114.44091796875
-107.11669921875
-108.94775390625
-119.0185546875
-119.93408203125
-127.25830078125
-107.11669921875
-106.201171875
-111.6943359375
-106.201171875
-112.60986328125
-114.44091796875
-113.525390625
-110.77880859375
-108.94775390625
-111.6943359375
-116.27197265625
-106.201171875
-108.94775390625
-112.60986328125
-117.1875
-117.1875
-115.3564453125
-124.51171875
-116.27197265625
-104.3701171875
-111.6943359375
-98.876953125
-93.3837890625
-108.0322265625
-96.13037109375
-79.65087890625
-76.904296875
-82.3974609375
-81.48193359375
-91.552734375
-73.2421875
-69.580078125
-66.83349609375
-75.98876953125
-68.66455078125
-58.59375
-57.67822265625
-65.00244140625
-51.26953125
-49.4384765625
-54.931640625
-37.53662109375
-32.04345703125
-21.97265625
-22.88818359375
-29.296875
-45.7763671875
-51.26953125
-62.255859375
-60.4248046875
-58.59375
-45.7763671875
-44.86083984375
-50.35400390625
-67.7490234375
-59.50927734375
-67.7490234375
-76.904296875
-86.0595703125
-99.79248046875
-105.28564453125
-94.29931640625
-100.7080078125
-99.79248046875
-108.94775390625
-110.77880859375
-121.76513671875
-118.10302734375
-108.94775390625
-116.27197265625
-117.1875
-109.86328125
-115.3564453125
-120.849609375
-122.6806640625
-115.3564453125
-123.59619140625
-119.93408203125
-123.59619140625
-168.45703125
-218.81103515625
-250.8544921875
-263.671875
-247.1923828125
-212.40234375
-158.38623046875
-48.52294921875
84.228515625
270.99609375
505.37109375
720.52001953125
942.07763671875
1157.2265625
1348.57177734375
1462.09716796875
1550.9033203125
1572.8759765625
1498.71826171875
1377.86865234375
1200.25634765625
994.2626953125
717.7734375
335.99853515625
124.51171875
78.7353515625
74.15771484375
64.0869140625
66.83349609375
65.00244140625
37.53662109375
25.634765625
23.8037109375
18.310546875
2.74658203125
-8.23974609375
-25.634765625
-36.62109375
-31.1279296875
-27.4658203125
-46.69189453125
-37.53662109375
-51.26953125
-52.18505859375
-49.4384765625
-55.84716796875
-65.91796875
-67.7490234375
-61.34033203125
-49.4384765625
-61.34033203125
-59.50927734375
-46.69189453125
-59.50927734375
-58.59375
-48.52294921875
-43.02978515625
-46.69189453125
-47.607421875
-40.283203125
-38.4521484375
-32.04345703125
-32.04345703125
-32.04345703125
-30.21240234375
-33.87451171875
-35.70556640625
-21.05712890625
-23.8037109375
-20.1416015625
-20.1416015625
-22.88818359375
-7.32421875
18.310546875
5.4931640625
-0.91552734375
7.32421875
4.57763671875
16.4794921875
22.88818359375
12.8173828125
15.56396484375
33.87451171875
26.55029296875
22.88818359375
32.04345703125
33.87451171875
53.1005859375
60.4248046875
59.50927734375
61.34033203125
68.66455078125
77.81982421875
97.0458984375
92.46826171875
87.890625
91.552734375
96.13037109375
101.62353515625
130.92041015625
140.9912109375
140.9912109375
144.6533203125
159.3017578125
173.03466796875
172.119140625
181.2744140625
194.091796875
203.2470703125
212.40234375
226.13525390625
238.95263671875
243.5302734375
251.77001953125
257.26318359375
267.333984375
274.658203125
291.1376953125
300.29296875
303.03955078125
308.53271484375
314.02587890625
323.18115234375
323.18115234375
335.99853515625
348.81591796875
347.900390625
357.97119140625
351.5625
358.88671875
357.97119140625
357.97119140625
341.49169921875
354.30908203125
348.81591796875
340.576171875
325.01220703125
311.279296875
292.96875
282.89794921875
268.24951171875
244.44580078125
234.375
220.64208984375
195.9228515625
181.2744140625
171.20361328125
147.39990234375
127.25830078125
111.6943359375
83.31298828125
85.14404296875
80.56640625
54.931640625
37.53662109375
21.05712890625
8.23974609375
-8.23974609375
-11.90185546875
-21.97265625
-25.634765625
-32.958984375
-31.1279296875
-43.9453125
-55.84716796875
-59.50927734375
-65.00244140625
-75.0732421875
-69.580078125
-71.4111328125
-86.97509765625
-78.7353515625
-69.580078125
-72.32666015625
-84.228515625
-89.7216796875
-86.97509765625
-96.13037109375
-95.21484375
-83.31298828125
-91.552734375
-95.21484375
-90.63720703125
-91.552734375
-107.11669921875
-97.96142578125
-91.552734375
-97.0458984375
-96.13037109375
-95.21484375
-95.21484375
-89.7216796875
-84.228515625
-97.0458984375
-97.96142578125
-106.201171875
-97.96142578125
-95.21484375
-94.29931640625
-88.80615234375
-84.228515625
-87.890625
-84.228515625
-95.21484375
-93.3837890625
-80.56640625
-85.14404296875
-90.63720703125
-86.97509765625
-81.48193359375
-85.14404296875
-88.80615234375
-77.81982421875
-83.31298828125
-90.63720703125
-90.63720703125
-86.97509765625
-92.46826171875
-90.63720703125
-86.0595703125
-86.97509765625
-86.97509765625
-81.48193359375
-80.56640625
-90.63720703125
-85.14404296875
-84.228515625
-88.80615234375
-89.7216796875
-77.81982421875
-78.7353515625
-74.15771484375
-76.904296875
-80.56640625
-75.98876953125
-87.890625
-91.552734375
-97.96142578125
-88.80615234375
-86.0595703125
-79.65087890625
-91.552734375
-86.0595703125
-80.56640625
-74.15771484375
-82.3974609375
-87.890625
-75.98876953125
-83.31298828125
-90.63720703125
-85.14404296875
-90.63720703125
-86.97509765625
-85.14404296875
-92.46826171875
-95.21484375
-88.80615234375
-86.0595703125
-91.552734375
-91.552734375
-97.0458984375
-88.80615234375
-88.80615234375
-95.21484375
-88.80615234375
-95.21484375
-91.552734375
-108.94775390625
-103.45458984375
-106.201171875
-99.79248046875
-96.13037109375
-89.7216796875
-87.890625
-90.63720703125
-89.7216796875
-94.29931640625
-98.876953125
-101.62353515625
-106.201171875
-104.3701171875
-108.0322265625
-119.0185546875
-103.45458984375
-107.11669921875
-95.21484375
-97.0458984375
-101.62353515625
-102.5390625
-105.28564453125
-102.5390625
-92.46826171875
-97.96142578125
-98.876953125
-104.3701171875
-108.94775390625
-102.5390625
-108.0322265625
-99.79248046875
-93.3837890625
-101.62353515625
-96.13037109375
-99.79248046875
-103.45458984375
-105.28564453125
-109.86328125
-98.876953125
-108.0322265625
-113.525390625
-100.7080078125
-95.21484375
-101.62353515625
-99.79248046875
-93.3837890625
-113.525390625
-107.11669921875
-97.96142578125
-102.5390625
-110.77880859375
-108.94775390625
-110.77880859375
-110.77880859375
-93.3837890625
-89.7216796875
-108.0322265625
-107.11669921875
-105.28564453125
-104.3701171875
-106.201171875
-100.7080078125
-101.62353515625
-103.45458984375
-94.29931640625
-97.96142578125
-110.77880859375
-113.525390625
-102.5390625
-110.77880859375
-107.11669921875
-106.201171875
-103.45458984375
-102.5390625
-102.5390625
-106.201171875
-105.28564453125
-108.94775390625
-108.0322265625
-102.5390625
-108.94775390625
-106.201171875
-100.7080078125
-98.876953125
-93.3837890625
-99.79248046875
-99.79248046875
-104.3701171875
-111.6943359375
-101.62353515625
-105.28564453125
-119.0185546875
-97.96142578125
-107.11669921875
-92.46826171875
-92.46826171875
-93.3837890625
-98.876953125
-108.0322265625
-94.29931640625
-94.29931640625
-87.890625
-84.228515625
-75.98876953125
-79.65087890625
-76.904296875
-68.66455078125
-69.580078125
-64.0869140625
-60.4248046875
-64.0869140625
-65.00244140625
-62.255859375
-72.32666015625
-64.0869140625
-67.7490234375
-58.59375
-54.931640625
-48.52294921875
-35.70556640625
-26.55029296875
-22.88818359375
-26.55029296875
-31.1279296875
-10.07080078125
-16.4794921875
-27.4658203125
-32.958984375
-36.62109375
-42.1142578125
-39.36767578125
-41.19873046875
-35.70556640625
-33.87451171875
-44.86083984375
-54.01611328125
-70.49560546875
-68.66455078125
-66.83349609375
-76.904296875
-79.65087890625
-88.80615234375
-96.13037109375
-96.13037109375
-96.13037109375
-103.45458984375
-99.79248046875
-100.7080078125
-101.62353515625
-127.25830078125
-95.21484375
-98.876953125
-101.62353515625
-96.13037109375
-96.13037109375
-97.0458984375
-108.0322265625
-115.3564453125
-108.0322265625
-142.822265625
-179.443359375
-219.7265625
-233.45947265625
-207.82470703125
-178.52783203125
-117.1875
-28.38134765625
98.876953125
274.658203125
476.98974609375
684.814453125
888.0615234375
1095.88623046875
1268.9208984375
1421.81396484375
1504.21142578125
1507.87353515625
1442.87109375
1319.27490234375
1166.3818359375
945.73974609375
676.57470703125
320.4345703125
85.14404296875
43.9453125
40.283203125
43.02978515625
55.84716796875
60.4248046875
38.4521484375
24.71923828125
10.07080078125
1.8310546875
-25.634765625
-30.21240234375
-9.1552734375
-21.05712890625
-24.71923828125
-38.4521484375
-48.52294921875
-61.34033203125
-60.4248046875
-63.17138671875
-66.83349609375
-75.0732421875
-61.34033203125
-65.91796875
-65.91796875
-70.49560546875
-68.66455078125
-72.32666015625
-68.66455078125
-68.66455078125
-65.91796875
-65.00244140625
-55.84716796875
-50.35400390625
-54.01611328125
-58.59375
-55.84716796875
-59.50927734375
-39.36767578125
-50.35400390625
-35.70556640625
-43.9453125
-41.19873046875
-30.21240234375
-29.296875
-32.958984375
-37.53662109375
-21.97265625
-17.39501953125
-15.56396484375
-18.310546875
-5.4931640625
0
-4.57763671875
-1.8310546875
13.73291015625
14.6484375
24.71923828125
19.22607421875
16.4794921875
28.38134765625
40.283203125
32.04345703125
53.1005859375
55.84716796875
64.0869140625
62.255859375
57.67822265625
64.0869140625
73.2421875
86.97509765625
74.15771484375
93.3837890625
108.94775390625
101.62353515625
111.6943359375
118.10302734375
130.0048828125
143.73779296875
145.56884765625
162.9638671875
169.37255859375
168.45703125
179.443359375
187.68310546875
190.4296875
199.5849609375
222.47314453125
238.037109375
248.10791015625
251.77001953125
257.26318359375
267.333984375
277.40478515625
282.89794921875
289.306640625
297.54638671875
303.03955078125
314.94140625
317.68798828125
317.68798828125
329.58984375
333.251953125
332.33642578125
329.58984375
328.67431640625
334.16748046875
320.4345703125
340.576171875
345.15380859375
327.7587890625
317.68798828125
314.02587890625
292.96875
283.8134765625
276.4892578125
255.43212890625
232.5439453125
221.5576171875
207.82470703125
179.443359375
175.78125
162.9638671875
140.07568359375
120.849609375
110.77880859375
87.890625
65.91796875
65.00244140625
46.69189453125
25.634765625
20.1416015625
4.57763671875
-5.4931640625
-25.634765625
-37.53662109375
-35.70556640625
-38.4521484375
-50.35400390625
-40.283203125
-51.26953125
-56.7626953125
-54.931640625
-65.00244140625
-74.15771484375
-85.14404296875
-80.56640625
-80.56640625
-94.29931640625
-91.552734375
-91.552734375
-92.46826171875
-85.14404296875
-90.63720703125
-93.3837890625
-86.0595703125
-90.63720703125
-93.3837890625
-101.62353515625
-105.28564453125
-93.3837890625
-92.46826171875
-89.7216796875
-104.3701171875
-97.0458984375
-97.0458984375
-105.28564453125
-100.7080078125
-108.94775390625
-110.77880859375
-94.29931640625
-94.29931640625
-105.28564453125
-114.44091796875
-102.5390625
-101.62353515625
-106.201171875
-113.525390625
-103.45458984375
-101.62353515625
-108.94775390625
-104.3701171875
-98.876953125
-98.876953125
-104.3701171875
-92.46826171875
-94.29931640625
-101.62353515625
-100.7080078125
-94.29931640625
-87.890625
-94.29931640625
-88.80615234375
-96.13037109375
-93.3837890625
-87.890625
-91.552734375
-86.97509765625
-86.97509765625
-86.97509765625
-85.14404296875
-86.0595703125
-85.14404296875
-85.14404296875
-87.890625
-97.0458984375
-90.63720703125
-91.552734375
-88.80615234375
-86.97509765625
-86.0595703125
-88.80615234375
-86.97509765625
-99.79248046875
-93.3837890625
-94.29931640625
-91.552734375
-92.46826171875
-87.890625
-97.96142578125
-99.79248046875
-73.2421875
-84.228515625
-94.29931640625
-94.29931640625
-98.876953125
-102.5390625
-101.62353515625
-94.29931640625
-87.890625
-92.46826171875
-88.80615234375
-90.63720703125
-90.63720703125
-98.876953125
-97.96142578125
-92.46826171875
-91.552734375
-89.7216796875
-98.876953125
-108.94775390625
-108.0322265625
-106.201171875
-105.28564453125
-113.525390625
-106.201171875
-103.45458984375
-108.0322265625
-92.46826171875
-94.29931640625
-111.6943359375
-110.77880859375
-99.79248046875
-105.28564453125
-102.5390625
-108.0322265625
-108.94775390625
-110.77880859375
-118.10302734375
-115.3564453125
-113.525390625
-115.3564453125
-105.28564453125
-110.77880859375
-128.173828125
-127.25830078125
-96.13037109375
-113.525390625
-113.525390625
-115.3564453125
-109.86328125
-108.94775390625
-110.77880859375
-107.11669921875
-114.44091796875
-119.0185546875
-109.86328125
-111.6943359375
-114.44091796875
-110.77880859375
-111.6943359375
-107.11669921875
-108.94775390625
-108.94775390625
-113.525390625
-117.1875
-123.59619140625
-112.60986328125
-107.11669921875
-119.93408203125
-123.59619140625
-111.6943359375
-108.94775390625
-111.6943359375
-116.27197265625
-119.93408203125
-116.27197265625
-121.76513671875
-119.93408203125
-107.11669921875
-112.60986328125
-122.6806640625
-130.92041015625
-122.6806640625
-115.3564453125
-111.6943359375
-127.25830078125
-116.27197265625
-99.79248046875
-104.3701171875
-115.3564453125
-106.201171875
-104.3701171875
-107.11669921875
-119.93408203125
-112.60986328125
-115.3564453125
-120.849609375
-106.201171875
-106.201171875
-106.201171875
-106.201171875
-90.63720703125
-91.552734375
-90.63720703125
-82.3974609375
-82.3974609375
-75.98876953125
-83.31298828125
-93.3837890625
-90.63720703125
-80.56640625
-72.32666015625
-70.49560546875
-69.580078125
-67.7490234375
-62.255859375
-50.35400390625
-37.53662109375
-28.38134765625
-29.296875
-31.1279296875
-27.4658203125
-33.87451171875
-32.04345703125
-39.36767578125
-54.01611328125
-50.35400390625
-43.02978515625
-49.4384765625
-47.607421875
-54.01611328125
-56.7626953125
-63.17138671875
-74.15771484375
-93.3837890625
-93.3837890625
-94.29931640625
-110.77880859375
-100.7080078125
-106.201171875
-112.60986328125
-125.42724609375
-115.3564453125
-117.1875
-113.525390625
-108.0322265625
-116.27197265625
-108.0322265625
-112.60986328125
-120.849609375
-102.5390625
-102.5390625
-112.60986328125
-122.6806640625
-120.849609375
-132.75146484375
-168.45703125
-217.8955078125
-246.27685546875
-222.47314453125
-201.416015625
-154.72412109375
-68.66455078125
45.7763671875
193.17626953125
377.197265625
582.275390625
773.62060546875
973.20556640625
1164.55078125
1315.61279296875
1405.33447265625
1435.546875
1398.01025390625
1287.2314453125
1151.7333984375
957.6416015625
707.70263671875
394.59228515625
111.6943359375
26.55029296875
6.40869140625
12.8173828125
23.8037109375
35.70556640625
23.8037109375
10.07080078125
-7.32421875
-15.56396484375
-5.4931640625
-16.4794921875
-17.39501953125
-13.73291015625
-24.71923828125
-46.69189453125
-60.4248046875
-53.1005859375
-58.59375
-50.35400390625
-54.931640625
-53.1005859375
-49.4384765625
-50.35400390625
-62.255859375
-56.7626953125
-52.18505859375
-62.255859375
-54.01611328125
-48.52294921875
-56.7626953125
-60.4248046875
-48.52294921875
-54.01611328125
-54.01611328125
-43.9453125
-47.607421875
-48.52294921875
-39.36767578125
-45.7763671875
-38.4521484375
-32.04345703125
-17.39501953125
-17.39501953125
-20.1416015625
-18.310546875
-25.634765625
-18.310546875
-21.05712890625
-6.40869140625
-5.4931640625
-2.74658203125
6.40869140625
8.23974609375
13.73291015625
11.90185546875
10.07080078125
18.310546875
18.310546875
27.4658203125
30.21240234375
36.62109375
41.19873046875
43.9453125
44.86083984375
48.52294921875
47.607421875
59.50927734375
67.7490234375
76.904296875
79.65087890625
83.31298828125
92.46826171875
88.80615234375
95.21484375
108.0322265625
115.3564453125
119.0185546875
130.0048828125
143.73779296875
153.80859375
163.87939453125
169.37255859375
168.45703125
170.2880859375
189.51416015625
196.83837890625
211.48681640625
216.064453125
234.375
250.8544921875
251.77001953125
263.671875
269.1650390625
280.1513671875
285.64453125
285.64453125
292.05322265625
300.29296875
308.53271484375
311.279296875
313.1103515625
324.0966796875
324.0966796875
328.67431640625
324.0966796875
325.01220703125
324.0966796875
312.19482421875
310.36376953125
303.03955078125
297.54638671875
296.630859375
282.89794921875
267.333984375
244.44580078125
232.5439453125
222.47314453125
206.9091796875
186.767578125
165.71044921875
159.3017578125
146.484375
125.42724609375
110.77880859375
91.552734375
65.00244140625
54.931640625
41.19873046875
23.8037109375
12.8173828125
11.90185546875
4.57763671875
-15.56396484375
-27.4658203125
-31.1279296875
-43.9453125
-53.1005859375
-67.7490234375
-53.1005859375
-64.0869140625
-67.7490234375
-73.2421875
-76.904296875
-89.7216796875
-87.890625
-80.56640625
-89.7216796875
-94.29931640625
-97.96142578125
-108.94775390625
-96.13037109375
-86.97509765625
-91.552734375
-101.62353515625
-108.94775390625
-106.201171875
-105.28564453125
-101.62353515625
-97.0458984375
-108.0322265625
-108.94775390625
-101.62353515625
-105.28564453125
-108.94775390625
-101.62353515625
-106.201171875
-112.60986328125
-110.77880859375
-108.0322265625
-111.6943359375
-115.3564453125
-108.0322265625
-102.5390625
-105.28564453125
-116.27197265625
-113.525390625
-104.3701171875
-100.7080078125
-107.11669921875
-99.79248046875
-100.7080078125
-101.62353515625
-107.11669921875
-100.7080078125
-97.96142578125
-102.5390625
-111.6943359375
-102.5390625
-96.13037109375
-99.79248046875
-93.3837890625
-96.13037109375
-102.5390625
-97.0458984375
-93.3837890625
-102.5390625
-103.45458984375
-102.5390625
-97.96142578125
-104.3701171875
-107.11669921875
-102.5390625
-107.11669921875
-113.525390625
-101.62353515625
-95.21484375
-105.28564453125
-95.21484375
-98.876953125
-104.3701171875
-101.62353515625
-94.29931640625
-97.0458984375
-103.45458984375
-100.7080078125
-116.27197265625
-105.28564453125
-92.46826171875
-103.45458984375
-112.60986328125
-99.79248046875
-94.29931640625
-103.45458984375
-116.27197265625
-108.94775390625
-97.96142578125
-102.5390625
-111.6943359375
-108.94775390625
-101.62353515625
-107.11669921875
-94.29931640625
-106.201171875
-112.60986328125
-106.201171875
-108.94775390625
-115.3564453125
-116.27197265625
-121.76513671875
-111.6943359375
-113.525390625
-116.27197265625
-118.10302734375
-123.59619140625
-120.849609375
-125.42724609375
-120.849609375
-119.93408203125
-123.59619140625
-124.51171875
-123.59619140625
-120.849609375
-123.59619140625
-135.498046875
-136.41357421875
-129.08935546875
-114.44091796875
-127.25830078125
-125.42724609375
-119.93408203125
-132.75146484375
-108.0322265625
-118.10302734375
-117.1875
-122.6806640625
-116.27197265625
-117.1875
-119.0185546875
-119.0185546875
-121.76513671875
-124.51171875
-123.59619140625
-135.498046875
-126.3427734375
-110.77880859375
-118.10302734375
-124.51171875
-122.6806640625
-119.0185546875
-126.3427734375
-128.173828125
-133.6669921875
-132.75146484375
-132.75146484375
-124.51171875
-128.173828125
-128.173828125
-135.498046875
-130.92041015625
-131.8359375
-125.42724609375
-120.849609375
-137.3291015625
-129.08935546875
-126.3427734375
-128.173828125
-135.498046875
-134.58251953125
-122.6806640625
-126.3427734375
-121.76513671875
-119.0185546875
-126.3427734375
-130.92041015625
-125.42724609375
-130.0048828125
-130.0048828125
-125.42724609375
-120.849609375
-124.51171875
-122.6806640625
-125.42724609375
-131.8359375
-132.75146484375
-134.58251953125
-131.8359375
-131.8359375
-116.27197265625
-119.0185546875
-125.42724609375
-109.86328125
-84.228515625
-91.552734375
-95.21484375
-95.21484375
-88.80615234375
-85.14404296875
-84.228515625
-89.7216796875
-86.97509765625
-83.31298828125
-75.0732421875
-69.580078125
-68.66455078125
-68.66455078125
-52.18505859375
-66.83349609375
-64.0869140625
-58.59375
-45.7763671875
-50.35400390625
-49.4384765625
-60.4248046875
-69.580078125
-76.904296875
-72.32666015625
-82.3974609375
-70.49560546875
-75.98876953125
-74.15771484375
-81.48193359375
-90.63720703125
-83.31298828125
-104.3701171875
-120.849609375
-113.525390625
-113.525390625
-120.849609375
-129.08935546875
-131.8359375
-128.173828125
-128.173828125
-130.0048828125
-135.498046875
-137.3291015625
-140.07568359375
-141.90673828125
-143.73779296875
-136.41357421875
-133.6669921875
-138.24462890625
-132.75146484375
-145.56884765625
-161.1328125
-195.9228515625
-243.5302734375
-269.1650390625
-252.685546875
-235.29052734375
-186.767578125
-102.5390625
1.8310546875
135.498046875
330.50537109375
543.8232421875
737.9150390625
953.06396484375
1147.15576171875
1317.44384765625
1420.8984375
1475.830078125
1455.6884765625
1352.23388671875
1208.49609375
1040.0390625
783.69140625
478.82080078125
143.73779296875
21.05712890625
0
10.07080078125
16.4794921875
10.986328125
4.57763671875
-7.32421875
-23.8037109375
-31.1279296875
-32.958984375
-38.4521484375
-45.7763671875
-67.7490234375
-50.35400390625
-63.17138671875
-70.49560546875
-67.7490234375
-86.0595703125
-86.0595703125
-77.81982421875
-78.7353515625
-94.29931640625
-101.62353515625
-86.0595703125
-73.2421875
-84.228515625
-88.80615234375
-85.14404296875
-76.904296875
-82.3974609375
-74.15771484375
-69.580078125
-78.7353515625
-70.49560546875
-64.0869140625
-71.4111328125
-65.00244140625
-65.91796875
-65.91796875
-59.50927734375
-54.01611328125
-50.35400390625
-64.0869140625
-44.86083984375
-41.19873046875
-46.69189453125
-43.9453125
-43.9453125
-37.53662109375
-32.04345703125
-25.634765625
-29.296875
-32.958984375
-14.6484375
-8.23974609375
-10.986328125
-8.23974609375
-5.4931640625
-2.74658203125
1.8310546875
3.662109375
2.74658203125
12.8173828125
16.4794921875
19.22607421875
26.55029296875
32.04345703125
34.7900390625
35.70556640625
48.52294921875
56.7626953125
61.34033203125
70.49560546875
76.904296875
85.14404296875
87.890625
95.21484375
101.62353515625
106.201171875
120.849609375
130.92041015625
140.9912109375
151.06201171875
162.9638671875
175.78125
182.18994140625
184.9365234375
195.00732421875
206.9091796875
223.388671875
225.2197265625
235.29052734375
246.27685546875
251.77001953125
260.92529296875
269.1650390625
272.8271484375
280.1513671875
296.630859375
301.20849609375
297.54638671875
297.54638671875
308.53271484375
312.19482421875
310.36376953125
309.4482421875
307.6171875
303.03955078125
296.630859375
292.05322265625
287.4755859375
274.658203125
262.75634765625
252.685546875
237.12158203125
220.64208984375
209.65576171875
187.68310546875
162.04833984375
157.470703125
141.90673828125
117.1875
106.201171875
87.890625
66.83349609375
53.1005859375
40.283203125
27.4658203125
6.40869140625
-0.91552734375
-16.4794921875
-29.296875
-38.4521484375
-42.1142578125
-50.35400390625
-61.34033203125
-74.15771484375
-82.3974609375
-92.46826171875
-90.63720703125
-92.46826171875
-97.0458984375
-101.62353515625
-101.62353515625
-102.5390625
-108.0322265625
-108.0322265625
-117.1875
-124.51171875
-119.0185546875
-119.93408203125
-119.0185546875
-117.1875
-118.10302734375
-124.51171875
-126.3427734375
-125.42724609375
-131.8359375
-129.08935546875
-134.58251953125
-136.41357421875
-137.3291015625
-122.6806640625
-127.25830078125
-129.08935546875
-132.75146484375
-131.8359375
-133.6669921875
-140.07568359375
-129.08935546875
-128.173828125
-129.08935546875
-129.08935546875
-123.59619140625
-130.0048828125
-130.0048828125
-125.42724609375
-124.51171875
-124.51171875
-127.25830078125
-124.51171875
-120.849609375
-119.93408203125
-113.525390625
-120.849609375
-119.0185546875
-118.10302734375
-115.3564453125
-119.0185546875
-115.3564453125
-118.10302734375
-119.93408203125
-108.0322265625
-99.79248046875
-103.45458984375
-108.0322265625
-116.27197265625
-118.10302734375
-115.3564453125
-109.86328125
-108.0322265625
-102.5390625
-108.0322265625
-102.5390625
-108.0322265625
-111.6943359375
-140.07568359375
-148.3154296875
-112.60986328125
-97.0458984375
-105.28564453125
-101.62353515625
-97.96142578125
-88.80615234375
-96.13037109375
-105.28564453125
-107.11669921875
-112.60986328125
-108.0322265625
-111.6943359375
-111.6943359375
-110.77880859375
-113.525390625
-104.3701171875
-108.94775390625
-116.27197265625
-142.822265625
-119.0185546875
-119.0185546875
-124.51171875
-106.201171875
-113.525390625
-120.849609375
-114.44091796875
-112.60986328125
-103.45458984375
-108.94775390625
-119.93408203125
-119.93408203125
-114.44091796875
-121.76513671875
-129.08935546875
-123.59619140625
-113.525390625
-128.173828125
-134.58251953125
-127.25830078125
-127.25830078125
-120.849609375
-101.62353515625
-102.5390625
-118.10302734375
-118.10302734375
-113.525390625
-102.5390625
-96.13037109375
-123.59619140625
-126.3427734375
-122.6806640625
-127.25830078125
-115.3564453125
-82.3974609375
-115.3564453125
-122.6806640625
-133.6669921875
-151.06201171875
-142.822265625
-134.58251953125
-131.8359375
-137.3291015625
-133.6669921875
-132.75146484375
-136.41357421875
-132.75146484375
-134.58251953125
-133.6669921875
-130.92041015625
-132.75146484375
-135.498046875
-130.0048828125
-128.173828125
-128.173828125
-130.0048828125
-128.173828125
-130.0048828125
-130.92041015625
-136.41357421875
-135.498046875
-130.0048828125
-128.173828125
-129.08935546875
-133.6669921875
-130.0048828125
-127.25830078125
-121.76513671875
-129.08935546875
-133.6669921875
-132.75146484375
-137.3291015625
-129.08935546875
-130.0048828125
-136.41357421875
-132.75146484375
-123.59619140625
-130.0048828125
-130.0048828125
-130.0048828125
-126.3427734375
-130.0048828125
-135.498046875
-135.498046875
-128.173828125
-129.08935546875
-133.6669921875
-140.07568359375
-135.498046875
-127.25830078125
-130.92041015625
-134.58251953125
-141.90673828125
-150.146484375
-151.9775390625
-146.484375
-107.11669921875
-126.3427734375
-140.9912109375
-117.1875
-123.59619140625
-140.07568359375
-130.92041015625
-130.92041015625
-139.16015625
-135.498046875
-136.41357421875
-130.0048828125
-131.8359375
-138.24462890625
-140.9912109375
-140.9912109375
-123.59619140625
-124.51171875
-126.3427734375
-125.42724609375
-112.60986328125
-112.60986328125
-103.45458984375
-99.79248046875
-91.552734375
-95.21484375
-98.876953125
-102.5390625
-99.79248046875
-91.552734375
-86.97509765625
-87.890625
-86.97509765625
-86.97509765625
-75.0732421875
-72.32666015625
-62.255859375
-58.59375
-64.0869140625
-61.34033203125
-65.00244140625
-67.7490234375
-61.34033203125
-68.66455078125
-75.98876953125
-83.31298828125
-79.65087890625
-80.56640625
-88.80615234375
-77.81982421875
-75.98876953125
-90.63720703125
-100.7080078125
-105.28564453125
-116.27197265625
-122.6806640625
-133.6669921875
-140.07568359375
-133.6669921875
-145.56884765625
-153.80859375
-134.58251953125
-136.41357421875
-144.6533203125
-144.6533203125
-142.822265625
-139.16015625
-136.41357421875
-136.41357421875
-140.9912109375
-137.3291015625
-137.3291015625
-146.484375
-140.07568359375
-160.21728515625
-207.82470703125
-241.69921875
-267.333984375
-260.92529296875
-251.77001953125
-204.16259765625
-130.92041015625
-36.62109375
108.0322265625
303.03955078125
530.09033203125
748.9013671875
972.2900390625
1188.3544921875
1365.05126953125
1468.505859375
1545.41015625
1533.50830078125
1438.29345703125
1289.0625
1114.19677734375
901.79443359375
596.00830078125
220.64208984375
66.83349609375
42.1142578125
35.70556640625
29.296875
31.1279296875
20.1416015625
-12.8173828125
-9.1552734375
-21.97265625
-26.55029296875
-43.02978515625
-44.86083984375
-50.35400390625
-49.4384765625
-56.7626953125
-55.84716796875
-69.580078125
-71.4111328125
-70.49560546875
-80.56640625
-76.904296875
-80.56640625
-80.56640625
-75.0732421875
-82.3974609375
-85.14404296875
-78.7353515625
-76.904296875
-75.98876953125
-73.2421875
-79.65087890625
-72.32666015625
-66.83349609375
-69.580078125
-70.49560546875
-62.255859375
-62.255859375
-70.49560546875
-60.4248046875
-62.255859375
-53.1005859375
-49.4384765625
-45.7763671875
-61.34033203125
-53.1005859375
-49.4384765625
-52.18505859375
-47.607421875
-41.19873046875
-30.21240234375
-30.21240234375
-26.55029296875
-26.55029296875
-22.88818359375
-20.1416015625
-13.73291015625
-20.1416015625
-1.8310546875
9.1552734375
1.8310546875
-2.74658203125
14.6484375
36.62109375
21.05712890625
24.71923828125
32.958984375
30.21240234375
42.1142578125
51.26953125
53.1005859375
64.0869140625
79.65087890625
84.228515625
86.0595703125
97.0458984375
102.5390625
108.0322265625
114.44091796875
125.42724609375
135.498046875
145.56884765625
154.72412109375
159.3017578125
176.69677734375
169.37255859375
186.767578125
193.17626953125
216.064453125
229.79736328125
220.64208984375
223.388671875
241.69921875
260.92529296875
255.43212890625
274.658203125
287.4755859375
281.06689453125
290.22216796875
295.71533203125
306.70166015625
313.1103515625
328.67431640625
325.01220703125
323.18115234375
315.85693359375
323.18115234375
338.7451171875
335.0830078125
311.279296875
304.87060546875
307.6171875
310.36376953125
290.22216796875
268.24951171875
255.43212890625
244.44580078125
227.05078125
203.2470703125
184.02099609375
170.2880859375
148.3154296875
138.24462890625
119.0185546875
108.94775390625
86.0595703125
65.91796875
48.52294921875
29.296875
16.4794921875
-9.1552734375
-33.87451171875
-18.310546875
-32.958984375
-52.18505859375
-51.26953125
-54.931640625
-65.91796875
-72.32666015625
-78.7353515625
-95.21484375
-93.3837890625
-85.14404296875
-95.21484375
-108.94775390625
-104.3701171875
-108.0322265625
-112.60986328125
-118.10302734375
-112.60986328125
-125.42724609375
-137.3291015625
-130.92041015625
-126.3427734375
-128.173828125
-130.92041015625
-137.3291015625
-133.6669921875
-126.3427734375
-128.173828125
-123.59619140625
-126.3427734375
-119.0185546875
-128.173828125
-139.16015625
-127.25830078125
-134.58251953125
-140.9912109375
-128.173828125
-131.8359375
-130.92041015625
-133.6669921875
-134.58251953125
-141.90673828125
-134.58251953125
-130.92041015625
-138.24462890625
-135.498046875
-137.3291015625
-130.0048828125
-124.51171875
-128.173828125
-132.75146484375
-140.9912109375
-133.6669921875
-122.6806640625
-124.51171875
-129.08935546875
-128.173828125
-123.59619140625
-120.849609375
-119.93408203125
-122.6806640625
-121.76513671875
-130.92041015625
-122.6806640625
-127.25830078125
-125.42724609375
-122.6806640625
-119.0185546875
-115.3564453125
-118.10302734375
-118.10302734375
-124.51171875
-124.51171875
-126.3427734375
-130.0048828125
-128.173828125
-130.0048828125
-109.86328125
-120.849609375
-121.76513671875
-118.10302734375
-124.51171875
-125.42724609375
-126.3427734375
-134.58251953125
-124.51171875
-128.173828125
-129.08935546875
-125.42724609375
-121.76513671875
-124.51171875
-136.41357421875
-125.42724609375
-126.3427734375
-121.76513671875
-124.51171875
-129.08935546875
-127.25830078125
-128.173828125
-128.173828125
-131.8359375
-130.92041015625
-131.8359375
-135.498046875
-145.56884765625
-143.73779296875
-150.146484375
-146.484375
-144.6533203125
-142.822265625
-136.41357421875
-134.58251953125
-138.24462890625
-140.9912109375
-147.39990234375
-153.80859375
-157.470703125
-151.9775390625
-153.80859375
-156.55517578125
-144.6533203125
-142.822265625
-147.39990234375
-149.23095703125
-151.9775390625
-154.72412109375
-150.146484375
-143.73779296875
-149.23095703125
-148.3154296875
-150.146484375
-153.80859375
-167.54150390625
-142.822265625
-141.90673828125
-154.72412109375
-155.6396484375
-164.794921875
-155.6396484375
-148.3154296875
-151.9775390625
-159.3017578125
-157.470703125
-147.39990234375
-128.173828125
-140.07568359375
-153.80859375
-144.6533203125
-149.23095703125
-141.90673828125
-135.498046875
-136.41357421875
-154.72412109375
-148.3154296875
-134.58251953125
-135.498046875
-141.90673828125
-147.39990234375
-155.6396484375
-162.04833984375
-153.80859375
-136.41357421875
-129.08935546875
-149.23095703125
-156.55517578125
-162.9638671875
-141.90673828125
-136.41357421875
-152.89306640625
-151.06201171875
-148.3154296875
-136.41357421875
-151.9775390625
-148.3154296875
-138.24462890625
-147.39990234375
-151.9775390625
-160.21728515625
-161.1328125
-148.3154296875
-143.73779296875
-142.822265625
-142.822265625
-144.6533203125
-158.38623046875
-162.9638671875
-156.55517578125
-156.55517578125
-158.38623046875
-149.23095703125
-145.56884765625
-150.146484375
-158.38623046875
-153.80859375
-152.89306640625
-146.484375
-147.39990234375
-154.72412109375
-147.39990234375
-149.23095703125
-141.90673828125
-138.24462890625
-136.41357421875
-124.51171875
-133.6669921875
-148.3154296875
-137.3291015625
-120.849609375
-123.59619140625
-110.77880859375
-119.93408203125
-118.10302734375
-106.201171875
-105.28564453125
-108.0322265625
-112.60986328125
-104.3701171875
-102.5390625
-102.5390625
-88.80615234375
-89.7216796875
-98.876953125
-86.0595703125
-65.91796875
-49.4384765625
-77.81982421875
-77.81982421875
-75.98876953125
-79.65087890625
-94.29931640625
-94.29931640625
-86.0595703125
-100.7080078125
-108.0322265625
-103.45458984375
-101.62353515625
-103.45458984375
-122.6806640625
-125.42724609375
-142.822265625
-144.6533203125
-152.89306640625
-154.72412109375
-156.55517578125
-164.794921875
-177.6123046875
-173.03466796875
-171.20361328125
-173.9501953125
-175.78125
-173.9501953125
-171.20361328125
-171.20361328125
-178.52783203125
-173.9501953125
-180.35888671875
-177.6123046875
-167.54150390625
-173.03466796875
-189.51416015625
-198.66943359375
-231.62841796875
-279.23583984375
-317.68798828125
-301.20849609375
-287.4755859375
-249.93896484375
-160.21728515625
-55.84716796875
97.0458984375
319.51904296875
537.41455078125
763.5498046875
975.03662109375
1182.861328125
1338.5009765625
1453.857421875
1541.748046875
1513.36669921875
1401.67236328125
1259.765625
1067.5048828125
828.55224609375
499.8779296875
157.470703125
35.70556640625
30.21240234375
21.97265625
10.07080078125
12.8173828125
2.74658203125
-24.71923828125
-31.1279296875
-33.87451171875
-48.52294921875
-66.83349609375
-77.81982421875
-72.32666015625
-85.14404296875
-90.63720703125
-96.13037109375
-99.79248046875
-104.3701171875
-100.7080078125
-108.0322265625
-114.44091796875
-112.60986328125
-107.11669921875
-117.1875
-108.0322265625
-101.62353515625
-113.525390625
-106.201171875
-98.876953125
-95.21484375
-109.86328125
-99.79248046875
-93.3837890625
-99.79248046875
-94.29931640625
-100.7080078125
-82.3974609375
-80.56640625
-89.7216796875
-91.552734375
-90.63720703125
-79.65087890625
-59.50927734375
-66.83349609375
-70.49560546875
-59.50927734375
-55.84716796875
-50.35400390625
-56.7626953125
-53.1005859375
-46.69189453125
-44.86083984375
-42.1142578125
-41.19873046875
-50.35400390625
-20.1416015625
-29.296875
-22.88818359375
-21.05712890625
-20.1416015625
-12.8173828125
-6.40869140625
4.57763671875
10.986328125
17.39501953125
24.71923828125
30.21240234375
35.70556640625
48.52294921875
32.04345703125
39.36767578125
48.52294921875
61.34033203125
67.7490234375
74.15771484375
87.890625
96.13037109375
99.79248046875
100.7080078125
114.44091796875
129.08935546875
135.498046875
138.24462890625
163.87939453125
171.20361328125
177.6123046875
195.00732421875
204.16259765625
210.5712890625
217.8955078125
230.712890625
238.95263671875
241.69921875
258.1787109375
260.009765625
260.92529296875
275.57373046875
288.39111328125
286.56005859375
283.8134765625
294.7998046875
292.96875
307.6171875
306.70166015625
319.51904296875
316.7724609375
314.94140625
314.94140625
306.70166015625
290.22216796875
283.8134765625
270.99609375
261.8408203125
238.95263671875
230.712890625
224.30419921875
211.48681640625
196.83837890625
174.86572265625
157.470703125
131.8359375
119.0185546875
99.79248046875
84.228515625
72.32666015625
50.35400390625
37.53662109375
15.56396484375
3.662109375
-11.90185546875
-27.4658203125
-29.296875
-44.86083984375
-56.7626953125
-58.59375
-62.255859375
-71.4111328125
-75.98876953125
-89.7216796875
-97.96142578125
-114.44091796875
-106.201171875
-94.29931640625
-103.45458984375
-109.86328125
-104.3701171875
-106.201171875
-109.86328125
-114.44091796875
-114.44091796875
-114.44091796875
-111.6943359375
-112.60986328125
-117.1875
-119.93408203125
-121.76513671875
-124.51171875
-126.3427734375
-125.42724609375
-129.08935546875
-140.07568359375
-131.8359375
-119.93408203125
-122.6806640625
-118.10302734375
-112.60986328125
-126.3427734375
-125.42724609375
-114.44091796875
-113.525390625
-127.25830078125
-124.51171875
-122.6806640625
-126.3427734375
-124.51171875
-112.60986328125
-116.27197265625
-119.0185546875
-130.0048828125
-111.6943359375
-106.201171875
-108.0322265625
-111.6943359375
-111.6943359375
-111.6943359375
-108.0322265625
-114.44091796875
-118.10302734375
-106.201171875
-108.94775390625
-114.44091796875
-120.849609375
-104.3701171875
-108.0322265625
-110.77880859375
-97.0458984375
-103.45458984375
-112.60986328125
-104.3701171875
-102.5390625
-100.7080078125
-108.0322265625
-109.86328125
-108.0322265625
-112.60986328125
-111.6943359375
-119.93408203125
-122.6806640625
-108.94775390625
-95.21484375
-100.7080078125
-97.96142578125
-106.201171875
-103.45458984375
-104.3701171875
-102.5390625
-95.21484375
-105.28564453125
-107.11669921875
-111.6943359375
-108.0322265625
-107.11669921875
-104.3701171875
-104.3701171875
-99.79248046875
-101.62353515625
-105.28564453125
-110.77880859375
-106.201171875
-114.44091796875
-120.849609375
-116.27197265625
-116.27197265625
-112.60986328125
-114.44091796875
-107.11669921875
-102.5390625
-116.27197265625
-116.27197265625
-116.27197265625
-118.10302734375
-117.1875
-108.0322265625
-106.201171875
-130.92041015625
-106.201171875
-111.6943359375
-118.10302734375
-107.11669921875
-110.77880859375
-119.93408203125
-124.51171875
-114.44091796875
-128.173828125
-113.525390625
-106.201171875
-121.76513671875
-113.525390625
-110.77880859375
-112.60986328125
-117.1875
-126.3427734375
-107.11669921875
-120.849609375
-119.93408203125
-111.6943359375
-104.3701171875
-115.3564453125
-120.849609375
-111.6943359375
-112.60986328125
-112.60986328125
-114.44091796875
-112.60986328125
-122.6806640625
-113.525390625
-108.0322265625
-111.6943359375
-116.27197265625
-121.76513671875
-122.6806640625
-122.6806640625
-122.6806640625
-126.3427734375
-107.11669921875
-114.44091796875
-115.3564453125
-114.44091796875
-115.3564453125
-129.08935546875
-134.58251953125
-108.94775390625
-99.79248046875
-113.525390625
-119.0185546875
-112.60986328125
-116.27197265625
-119.0185546875
-122.6806640625
-121.76513671875
-113.525390625
-116.27197265625
-116.27197265625
-114.44091796875
-112.60986328125
-107.11669921875
-111.6943359375
-116.27197265625
-117.1875
-125.42724609375
-126.3427734375
-132.75146484375
-131.8359375
-124.51171875
-111.6943359375
-102.5390625
-108.0322265625
-94.29931640625
-75.98876953125
-85.14404296875
-86.97509765625
-75.98876953125
-82.3974609375
-77.81982421875
-78.7353515625
-74.15771484375
-86.97509765625
-91.552734375
-73.2421875
-77.81982421875
-76.904296875
-66.83349609375
-57.67822265625
-34.7900390625
-52.18505859375
-40.283203125
-29.296875
-25.634765625
-33.87451171875
-31.1279296875
-42.1142578125
-59.50927734375
-54.931640625
-54.931640625
-57.67822265625
-67.7490234375
-60.4248046875
-71.4111328125
-77.81982421875
-70.49560546875
-90.63720703125
-98.876953125
-100.7080078125
-97.96142578125
-102.5390625
-112.60986328125
-119.0185546875
-127.25830078125
-138.24462890625
-130.92041015625
-117.1875
-120.849609375
-124.51171875
-126.3427734375
-132.75146484375
-126.3427734375
-118.10302734375
-127.25830078125
-134.58251953125
-138.24462890625
-122.6806640625
-129.08935546875
-153.80859375
-196.83837890625
-239.8681640625
-259.09423828125
-239.8681640625
-227.96630859375
-197.75390625
-102.5390625
10.07080078125
163.87939453125
384.521484375
614.31884765625
841.36962890625
1056.5185546875
1252.44140625
1433.7158203125
1529.84619140625
1599.42626953125
1554.5654296875
1450.1953125
1300.048828125
1108.70361328125
859.68017578125
491.63818359375
173.9501953125
78.7353515625
59.50927734375
50.35400390625
42.1142578125
57.67822265625
46.69189453125
27.4658203125
10.986328125
18.310546875
18.310546875
0.91552734375
-8.23974609375
-20.1416015625
-39.36767578125
-52.18505859375
-38.4521484375
-44.86083984375
-54.931640625
-50.35400390625
-49.4384765625
-54.931640625
-64.0869140625
-64.0869140625
-59.50927734375
-61.34033203125
-74.15771484375
-64.0869140625
-50.35400390625
-51.26953125
-64.0869140625
-48.52294921875
-52.18505859375
-54.931640625
-55.84716796875
-60.4248046875
-63.17138671875
-65.91796875
-38.4521484375
-48.52294921875
-43.02978515625
-44.86083984375
-48.52294921875
-43.9453125
-36.62109375
-40.283203125
-21.05712890625
-21.97265625
-22.88818359375
-19.22607421875
-23.8037109375
-21.97265625
-10.986328125
-18.310546875
-18.310546875
-7.32421875
1.8310546875
18.310546875
13.73291015625
20.1416015625
22.88818359375
19.22607421875
22.88818359375
21.97265625
22.88818359375
43.9453125
34.7900390625
40.283203125
64.0869140625
75.98876953125
71.4111328125
71.4111328125
88.80615234375
98.876953125
91.552734375
99.79248046875
97.0458984375
108.0322265625
120.849609375
122.6806640625
158.38623046875
157.470703125
151.06201171875
178.52783203125
196.83837890625
209.65576171875
223.388671875
216.97998046875
227.96630859375
254.5166015625
254.5166015625
260.92529296875
267.333984375
281.06689453125
290.22216796875
292.05322265625
302.1240234375
310.36376953125
302.1240234375
323.18115234375
335.99853515625
333.251953125
323.18115234375
337.82958984375
319.51904296875
313.1103515625
351.5625
344.23828125
325.927734375
319.51904296875
345.15380859375
318.603515625
288.39111328125
281.982421875
266.41845703125
258.1787109375
242.61474609375
224.30419921875
200.50048828125
167.54150390625
149.23095703125
151.9775390625
123.59619140625
118.10302734375
90.63720703125
80.56640625
69.580078125
45.7763671875
32.958984375
29.296875
12.8173828125
-4.57763671875
-13.73291015625
-24.71923828125
-33.87451171875
-48.52294921875
-62.255859375
-74.15771484375
-76.904296875
-75.0732421875
-77.81982421875
-76.904296875
-84.228515625
-95.21484375
-108.0322265625
-130.0048828125
-108.0322265625
-97.0458984375
-104.3701171875
-110.77880859375
-124.51171875
-124.51171875
-121.76513671875
-134.58251953125
-135.498046875
-119.0185546875
-105.28564453125
-119.0185546875
-113.525390625
-110.77880859375
-119.0185546875
-122.6806640625
-116.27197265625
-106.201171875
-100.7080078125
-111.6943359375
-120.849609375
-121.76513671875
-119.0185546875
-111.6943359375
-108.0322265625
-116.27197265625
-122.6806640625
-119.0185546875
-121.76513671875
-123.59619140625
-105.28564453125
-105.28564453125
-108.94775390625
-119.0185546875
-109.86328125
-120.849609375
-119.0185546875
-119.0185546875
-129.08935546875
-112.60986328125
-119.0185546875
-119.93408203125
-127.25830078125
-108.0322265625
-105.28564453125
-109.86328125
-113.525390625
-111.6943359375
-114.44091796875
-127.25830078125
-126.3427734375
-96.13037109375
-112.60986328125
-113.525390625
-114.44091796875
-113.525390625
-106.201171875
-102.5390625
-123.59619140625
-134.58251953125
-111.6943359375
-110.77880859375
-116.27197265625
-113.525390625
-110.77880859375
-97.96142578125
-114.44091796875
-113.525390625
-115.3564453125
-116.27197265625
-119.93408203125
-121.76513671875
-125.42724609375
-115.3564453125
-107.11669921875
-119.0185546875
-123.59619140625
-118.10302734375
-117.1875
-111.6943359375
-122.6806640625
-122.6806640625
-124.51171875
-124.51171875
-123.59619140625
-122.6806640625
-133.6669921875
-144.6533203125
-137.3291015625
-129.08935546875
-119.0185546875
-111.6943359375
-126.3427734375
-130.92041015625
-128.173828125
-116.27197265625
-118.10302734375
-120.849609375
-120.849609375
-123.59619140625
-127.25830078125
-132.75146484375
-131.8359375
-120.849609375
-118.10302734375
-115.3564453125
-126.3427734375
-127.25830078125
-129.08935546875
-135.498046875
-128.173828125
-124.51171875
-123.59619140625
-127.25830078125
-131.8359375
-112.60986328125
-124.51171875
-131.8359375
-147.39990234375
-121.76513671875
-108.0322265625
-113.525390625
-120.849609375
-121.76513671875
-133.6669921875
-133.6669921875
-117.1875
-122.6806640625
-123.59619140625
-123.59619140625
-116.27197265625
-110.77880859375
-110.77880859375
-114.44091796875
-110.77880859375
-117.1875
-129.08935546875
-137.3291015625
-123.59619140625
-109.86328125
-118.10302734375
-114.44091796875
-109.86328125
-119.0185546875
-118.10302734375
-117.1875
-119.93408203125
-119.93408203125
-119.0185546875
-121.76513671875
-132.75146484375
-126.3427734375
-106.201171875
-126.3427734375
-108.0322265625
-102.5390625
-101.62353515625
-105.28564453125
-98.876953125
-97.96142578125
-87.890625
-100.7080078125
-97.0458984375
-73.2421875
-64.0869140625
-60.4248046875
-74.15771484375
-67.7490234375
-75.98876953125
-82.3974609375
-65.00244140625
-65.00244140625
-59.50927734375
-45.7763671875
-39.36767578125
-38.4521484375
-34.7900390625
-41.19873046875
-28.38134765625
-23.8037109375
-25.634765625
-32.04345703125
-34.7900390625
-47.607421875
-44.86083984375
-53.1005859375
-50.35400390625
-52.18505859375
-68.66455078125
-56.7626953125
-64.0869140625
-74.15771484375
-86.0595703125
-90.63720703125
-85.14404296875
-100.7080078125
-109.86328125
-110.77880859375
-116.27197265625
-111.6943359375
-118.10302734375
-122.6806640625
-114.44091796875
-113.525390625
-110.77880859375
-113.525390625
-111.6943359375
-122.6806640625
-121.76513671875
-129.08935546875
-123.59619140625
-123.59619140625
-134.58251953125
-138.24462890625
-163.87939453125
-213.31787109375
-251.77001953125
-247.1923828125
-216.064453125
-177.6123046875
-102.5390625
7.32421875
152.89306640625
362.548828125
589.599609375
796.5087890625
1008.9111328125
1207.58056640625
1376.953125
1495.05615234375
1562.80517578125
1531.67724609375
1412.65869140625
1275.32958984375
1099.54833984375
857.84912109375
527.34375
192.2607421875
78.7353515625
65.91796875
65.00244140625
71.4111328125
69.580078125
61.34033203125
55.84716796875
21.97265625
14.6484375
5.4931640625
-16.4794921875
-0.91552734375
8.23974609375
-4.57763671875
-20.1416015625
-26.55029296875
-34.7900390625
-36.62109375
-44.86083984375
-47.607421875
-49.4384765625
-55.84716796875
-58.59375
-58.59375
-44.86083984375
-32.958984375
-36.62109375
-60.4248046875
-47.607421875
-25.634765625
-40.283203125
-44.86083984375
-37.53662109375
-37.53662109375
-39.36767578125
-26.55029296875
-23.8037109375
-32.04345703125
-33.87451171875
-17.39501953125
-14.6484375
-16.4794921875
-9.1552734375
-10.986328125
-13.73291015625
-5.4931640625
3.662109375
0
4.57763671875
3.662109375
-3.662109375
8.23974609375
18.310546875
21.97265625
27.4658203125
31.1279296875
33.87451171875
38.4521484375
43.9453125
21.97265625
30.21240234375
67.7490234375
71.4111328125
66.83349609375
58.59375
60.4248046875
70.49560546875
86.97509765625
97.0458984375
95.21484375
114.44091796875
117.1875
122.6806640625
140.9912109375
130.92041015625
145.56884765625
159.3017578125
157.470703125
176.69677734375
182.18994140625
190.4296875
194.091796875
211.48681640625
226.13525390625
233.45947265625
243.5302734375
264.58740234375
270.99609375
270.08056640625
278.3203125
285.64453125
287.4755859375
302.1240234375
304.87060546875
319.51904296875
339.66064453125
336.9140625
339.66064453125
339.66064453125
347.900390625
348.81591796875
348.81591796875
362.548828125
359.80224609375
347.900390625
364.3798828125
368.95751953125
354.30908203125
346.0693359375
337.82958984375
323.18115234375
308.53271484375
315.85693359375
298.4619140625
279.23583984375
261.8408203125
243.5302734375
226.13525390625
213.31787109375
192.2607421875
173.9501953125
162.04833984375
149.23095703125
125.42724609375
104.3701171875
102.5390625
76.904296875
56.7626953125
53.1005859375
45.7763671875
25.634765625
22.88818359375
8.23974609375
-11.90185546875
-14.6484375
-16.4794921875
-22.88818359375
-35.70556640625
-48.52294921875
-43.9453125
-46.69189453125
-44.86083984375
-50.35400390625
-48.52294921875
-46.69189453125
-48.52294921875
-44.86083984375
-63.17138671875
-58.59375
-65.00244140625
-65.91796875
-59.50927734375
-64.0869140625
-71.4111328125
-72.32666015625
-65.00244140625
-69.580078125
-80.56640625
-84.228515625
-90.63720703125
-83.31298828125
-86.97509765625
-84.228515625
-78.7353515625
-72.32666015625
-71.4111328125
-59.50927734375
-71.4111328125
-72.32666015625
-77.81982421875
-78.7353515625
-66.83349609375
-68.66455078125
-70.49560546875
-69.580078125
-65.00244140625
-65.91796875
-68.66455078125
-73.2421875
-78.7353515625
-81.48193359375
-65.91796875
-65.00244140625
-66.83349609375
-65.91796875
-67.7490234375
-64.0869140625
-60.4248046875
-64.0869140625
-77.81982421875
-75.0732421875
-75.0732421875
-72.32666015625
-72.32666015625
-65.91796875
-60.4248046875
-63.17138671875
-67.7490234375
-61.34033203125
-61.34033203125
-59.50927734375
-64.0869140625
-72.32666015625
-63.17138671875
-55.84716796875
-65.91796875
-62.255859375
-62.255859375
-58.59375
-69.580078125
-82.3974609375
-81.48193359375
-80.56640625
-74.15771484375
-64.0869140625
-71.4111328125
-65.00244140625
-61.34033203125
-61.34033203125
-72.32666015625
-89.7216796875
-86.0595703125
-62.255859375
-72.32666015625
-88.80615234375
-67.7490234375
-60.4248046875
-72.32666015625
-77.81982421875
-79.65087890625
-76.904296875
-81.48193359375
-70.49560546875
-75.0732421875
-67.7490234375
-77.81982421875
-74.15771484375
-75.98876953125
-82.3974609375
-97.96142578125
-87.890625
-90.63720703125
-86.97509765625
-83.31298828125
-86.97509765625
-78.7353515625
-85.14404296875
-94.29931640625
-91.552734375
-86.0595703125
-83.31298828125
-92.46826171875
-86.97509765625
-91.552734375
-81.48193359375
-84.228515625
-93.3837890625
-86.97509765625
-87.890625
-87.890625
-86.0595703125
-97.0458984375
-93.3837890625
-94.29931640625
-109.86328125
-100.7080078125
-74.15771484375
-85.14404296875
-101.62353515625
-89.7216796875
-87.890625
-95.21484375
-97.0458984375
-99.79248046875
-83.31298828125
-74.15771484375
-76.904296875
-90.63720703125
-97.96142578125
-90.63720703125
-64.0869140625
-75.98876953125
-68.66455078125
-68.66455078125
-69.580078125
-65.00244140625
-66.83349609375
-70.49560546875
-54.01611328125
-53.1005859375
-61.34033203125
-65.00244140625
-57.67822265625
-48.52294921875
-35.70556640625
-38.4521484375
-18.310546875
-17.39501953125
-21.97265625
-28.38134765625
-13.73291015625
-21.97265625
-21.97265625
-25.634765625
-42.1142578125
-39.36767578125
-28.38134765625
-39.36767578125
-60.4248046875
-45.7763671875
-40.283203125
-49.4384765625
-52.18505859375
-68.66455078125
-94.29931640625
-89.7216796875
-81.48193359375
-104.3701171875
-120.849609375
-118.10302734375
-104.3701171875
-109.86328125
-109.86328125
-109.86328125
-105.28564453125
-91.552734375
-81.48193359375
-98.876953125
-100.7080078125
-102.5390625
-102.5390625
-112.60986328125
-109.86328125
-119.93408203125
-148.3154296875
-188.5986328125
-214.2333984375
-229.79736328125
-205.99365234375
-160.21728515625
-100.7080078125
-10.07080078125
120.849609375
292.05322265625
493.46923828125
693.9697265625
896.30126953125
1080.322265625
1265.2587890625
1393.4326171875
1455.6884765625
1451.11083984375
1365.05126953125
1263.427734375
1095.88623046875
860.595703125
598.7548828125
233.45947265625
63.17138671875
19.22607421875
2.74658203125
20.1416015625
52.18505859375
34.7900390625
21.05712890625
18.310546875
11.90185546875
-5.4931640625
-11.90185546875
-21.05712890625
-14.6484375
-32.04345703125
-17.39501953125
-14.6484375
-40.283203125
-53.1005859375
-54.931640625
-50.35400390625
-42.1142578125
-52.18505859375
-49.4384765625
-54.01611328125
-45.7763671875
-48.52294921875
-51.26953125
-47.607421875
-42.1142578125
-49.4384765625
-39.36767578125
-33.87451171875
-43.9453125
-45.7763671875
-34.7900390625
-25.634765625
-26.55029296875
-32.958984375
-23.8037109375
-21.05712890625
-24.71923828125
-22.88818359375
-12.8173828125
-20.1416015625
-21.05712890625
-4.57763671875
-14.6484375
-10.986328125
2.74658203125
-7.32421875
0
9.1552734375
6.40869140625
19.22607421875
30.21240234375
25.634765625
5.4931640625
21.05712890625
42.1142578125
26.55029296875
29.296875
43.02978515625
54.931640625
53.1005859375
59.50927734375
70.49560546875
88.80615234375
84.228515625
79.65087890625
91.552734375
92.46826171875
105.28564453125
120.849609375
120.849609375
120.849609375
130.0048828125
136.41357421875
155.6396484375
162.04833984375
158.38623046875
165.71044921875
184.02099609375
202.33154296875
206.9091796875
206.9091796875
225.2197265625
249.0234375
244.44580078125
261.8408203125
270.08056640625
274.658203125
270.08056640625
285.64453125
311.279296875
314.02587890625
312.19482421875
309.4482421875
327.7587890625
332.33642578125
341.49169921875
334.16748046875
334.16748046875
342.4072265625
347.900390625
346.98486328125
348.81591796875
319.51904296875
327.7587890625
321.35009765625
332.33642578125
308.53271484375
307.6171875
285.64453125
266.41845703125
252.685546875
252.685546875
236.2060546875
214.2333984375
198.66943359375
173.9501953125
183.10546875
149.23095703125
109.86328125
91.552734375
102.5390625
81.48193359375
54.01611328125
36.62109375
42.1142578125
20.1416015625
0.91552734375
1.8310546875
1.8310546875
-6.40869140625
-18.310546875
-14.6484375
-33.87451171875
-38.4521484375
-37.53662109375
-43.9453125
-57.67822265625
-67.7490234375
-62.255859375
-68.66455078125
-79.65087890625
-77.81982421875
-88.80615234375
-69.580078125
-75.98876953125
-62.255859375
-75.0732421875
-94.29931640625
-87.890625
-85.14404296875
-73.2421875
-73.2421875
-75.0732421875
-86.97509765625
-81.48193359375
-91.552734375
-85.14404296875
-90.63720703125
-86.0595703125
-81.48193359375
-79.65087890625
-86.0595703125
-86.97509765625
-75.0732421875
-76.904296875
-84.228515625
-98.876953125
-97.96142578125
-78.7353515625
-86.97509765625
-81.48193359375
-78.7353515625
-76.904296875
-86.97509765625
-67.7490234375
-75.0732421875
-83.31298828125
-74.15771484375
-79.65087890625
-87.890625
-82.3974609375
-84.228515625
-87.890625
-83.31298828125
-85.14404296875
-79.65087890625
-86.97509765625
-93.3837890625
-77.81982421875
-82.3974609375
-83.31298828125
-71.4111328125
-79.65087890625
-87.890625
-84.228515625
-73.2421875
-83.31298828125
-83.31298828125
-89.7216796875
-100.7080078125
-97.96142578125
-79.65087890625
-84.228515625
-87.890625
-87.890625
-66.83349609375
-76.904296875
-84.228515625
-80.56640625
-83.31298828125
-70.49560546875
-78.7353515625
-83.31298828125
-82.3974609375
-69.580078125
-82.3974609375
-95.21484375
-88.80615234375
-85.14404296875
-93.3837890625
-91.552734375
-88.80615234375
-88.80615234375
-89.7216796875
-79.65087890625
-95.21484375
-101.62353515625
-109.86328125
-116.27197265625
-111.6943359375
-102.5390625
-98.876953125
-103.45458984375
-102.5390625
-111.6943359375
-107.11669921875
-102.5390625
-123.59619140625
-105.28564453125
-106.201171875
-110.77880859375
-93.3837890625
-88.80615234375
-97.0458984375
-95.21484375
-110.77880859375
-116.27197265625
-108.0322265625
-104.3701171875
-117.1875
-97.0458984375
-100.7080078125
-134.58251953125
-122.6806640625
-106.201171875
-114.44091796875
-130.92041015625
-128.173828125
-110.77880859375
-126.3427734375
-131.8359375
-141.90673828125
-146.484375
-144.6533203125
-130.0048828125
-135.498046875
-144.6533203125
-129.08935546875
-123.59619140625
-123.59619140625
-123.59619140625
-114.44091796875
-129.08935546875
-129.08935546875
-110.77880859375
-99.79248046875
-106.201171875
-111.6943359375
-102.5390625
-108.94775390625
-97.96142578125
-98.876953125
-115.3564453125
-121.76513671875
-73.2421875
-83.31298828125
-79.65087890625
-65.00244140625
-49.4384765625
-54.01611328125
-51.26953125
-48.52294921875
-48.52294921875
-46.69189453125
-38.4521484375
-47.607421875
-70.49560546875
-75.98876953125
-65.91796875
-75.98876953125
-72.32666015625
-71.4111328125
-68.66455078125
-64.0869140625
-76.904296875
-106.201171875
-116.27197265625
-121.76513671875
-129.08935546875
-136.41357421875
-137.3291015625
-139.16015625
-143.73779296875
-148.3154296875
-147.39990234375
-142.822265625
-151.9775390625
-161.1328125
-156.55517578125
-152.89306640625
-135.498046875
-134.58251953125
-154.72412109375
-149.23095703125
-144.6533203125
-161.1328125
-176.69677734375
-189.51416015625
-222.47314453125
-258.1787109375
-268.24951171875
-255.43212890625
-231.62841796875
-169.37255859375
-82.3974609375
33.87451171875
200.50048828125
392.76123046875
594.17724609375
770.8740234375
987.85400390625
1200.25634765625
1319.27490234375
1411.7431640625
1450.1953125
1386.1083984375
1255.18798828125
1078.4912109375
883.48388671875
628.0517578125
278.3203125
50.35400390625
-7.32421875
-6.40869140625
18.310546875
-5.4931640625
-21.05712890625
-8.23974609375
-10.07080078125
-34.7900390625
-40.283203125
-41.19873046875
-44.86083984375
-60.4248046875
-53.1005859375
-73.2421875
-73.2421875
-74.15771484375
-81.48193359375
-96.13037109375
-92.46826171875
-76.904296875
-93.3837890625
-97.96142578125
-97.0458984375
-73.2421875
-83.31298828125
-96.13037109375
-72.32666015625
-72.32666015625
-85.14404296875
-89.7216796875
-78.7353515625
-74.15771484375
-73.2421875
-51.26953125
-68.66455078125
-57.67822265625
-44.86083984375
-44.86083984375
-68.66455078125
-51.26953125
-57.67822265625
-52.18505859375
-39.36767578125
-59.50927734375
-45.7763671875
-15.56396484375
-36.62109375
-26.55029296875
-0.91552734375
-15.56396484375
-37.53662109375
-8.23974609375
16.4794921875
24.71923828125
6.40869140625
17.39501953125
41.19873046875
15.56396484375
-6.40869140625
19.22607421875
37.53662109375
50.35400390625
63.17138671875
62.255859375
67.7490234375
65.91796875
84.228515625
93.3837890625
90.63720703125
100.7080078125
86.0595703125
87.890625
128.173828125
161.1328125
151.9775390625
135.498046875
162.04833984375
173.9501953125
140.9912109375
163.87939453125
162.04833984375
201.416015625
243.5302734375
215.14892578125
214.2333984375
227.96630859375
243.5302734375
260.009765625
282.89794921875
247.1923828125
240.78369140625
284.72900390625
317.68798828125
314.94140625
325.927734375
320.4345703125
315.85693359375
298.4619140625
314.94140625
292.05322265625
282.89794921875
293.88427734375
312.19482421875
314.94140625
330.50537109375
295.71533203125
294.7998046875
294.7998046875
269.1650390625
243.5302734375
255.43212890625
236.2060546875
249.0234375
225.2197265625
173.03466796875
173.03466796875
170.2880859375
138.24462890625
124.51171875
139.16015625
104.3701171875
76.904296875
69.580078125
51.26953125
1.8310546875
-9.1552734375
-7.32421875
-18.310546875
-30.21240234375
-31.1279296875
-27.4658203125
-15.56396484375
-40.283203125
-52.18505859375
-65.91796875
-79.65087890625
-116.27197265625
-107.11669921875
-105.28564453125
-88.80615234375
-96.13037109375
-91.552734375
-90.63720703125
-133.6669921875
-115.3564453125
-101.62353515625
-119.93408203125
-128.173828125
-111.6943359375
-118.10302734375
-114.44091796875
-117.1875
-109.86328125
-110.77880859375
-116.27197265625
-135.498046875
-89.7216796875
-55.84716796875
-139.16015625
-151.06201171875
-94.29931640625
-64.0869140625
-117.1875
-50.35400390625
-145.56884765625
-164.794921875
-140.07568359375
-122.6806640625
-131.8359375
-136.41357421875
-142.822265625
-144.6533203125
-127.25830078125
-110.77880859375
-123.59619140625
-132.75146484375
-119.93408203125
-139.16015625
-150.146484375
-133.6669921875
-124.51171875
-125.42724609375
-114.44091796875
-133.6669921875
-141.90673828125
-134.58251953125
-140.07568359375
-126.3427734375
-127.25830078125
-125.42724609375
-113.525390625
-128.173828125
-126.3427734375
-119.93408203125
-126.3427734375
-133.6669921875
-130.92041015625
-124.51171875
-134.58251953125
-118.10302734375
-122.6806640625
-125.42724609375
-127.25830078125
-136.41357421875
-127.25830078125
-123.59619140625
-121.76513671875
-125.42724609375
-129.08935546875
-123.59619140625
-130.0048828125
-140.07568359375
-124.51171875
-130.92041015625
-138.24462890625
-130.0048828125
-130.92041015625
-134.58251953125
-131.8359375
-136.41357421875
-150.146484375
-140.07568359375
-129.08935546875
-141.90673828125
-156.55517578125
-139.16015625
-133.6669921875
-147.39990234375
-126.3427734375
-130.92041015625
-149.23095703125
-128.173828125
-123.59619140625
-135.498046875
-138.24462890625
-128.173828125
-145.56884765625
-148.3154296875
-147.39990234375
-150.146484375
-141.90673828125
-148.3154296875
-146.484375
-153.80859375
-151.06201171875
-140.07568359375
-133.6669921875
-137.3291015625
-142.822265625
-140.07568359375
-145.56884765625
-150.146484375
-147.39990234375
-148.3154296875
-145.56884765625
-149.23095703125
-150.146484375
-142.822265625
-133.6669921875
-130.0048828125
-140.07568359375
-141.90673828125
-149.23095703125
-130.0048828125
-138.24462890625
-140.9912109375
-133.6669921875
-140.07568359375
-132.75146484375
-118.10302734375
-110.77880859375
-103.45458984375
-89.7216796875
-88.80615234375
-92.46826171875
-95.21484375
-101.62353515625
-103.45458984375
-89.7216796875
-81.48193359375
-78.7353515625
-74.15771484375
-63.17138671875
-65.91796875
-61.34033203125
-54.01611328125
-45.7763671875
-51.26953125
-34.7900390625
-34.7900390625
-49.4384765625
-46.69189453125
-26.55029296875
-45.7763671875
-63.17138671875
-76.904296875
-48.52294921875
-63.17138671875
-70.49560546875
-73.2421875
-79.65087890625
-90.63720703125
-89.7216796875
-113.525390625
-119.93408203125
-116.27197265625
-128.173828125
-131.8359375
-141.90673828125
-144.6533203125
-151.9775390625
-141.90673828125
-130.92041015625
-144.6533203125
-153.80859375
-153.80859375
-162.9638671875
-151.9775390625
-156.55517578125
-147.39990234375
-146.484375
-139.16015625
-128.173828125
-150.146484375
-165.71044921875
-185.85205078125
-222.47314453125
-253.60107421875
-278.3203125
-271.91162109375
-241.69921875
-196.83837890625
-129.08935546875
-12.8173828125
122.6806640625
312.19482421875
531.92138671875
729.67529296875
942.07763671875
1147.15576171875
1309.2041015625
1386.1083984375
1463.92822265625
1452.94189453125
1342.1630859375
1193.84765625
1021.728515625
780.94482421875
498.046875
163.87939453125
40.283203125
28.38134765625
41.19873046875
23.8037109375
26.55029296875
12.8173828125
-18.310546875
-30.21240234375
-35.70556640625
-30.21240234375
-48.52294921875
-48.52294921875
-58.59375
-68.66455078125
-79.65087890625
-77.81982421875
-82.3974609375
-91.552734375
-95.21484375
-99.79248046875
-97.96142578125
-101.62353515625
-97.0458984375
-102.5390625
-117.1875
-103.45458984375
-96.13037109375
-109.86328125
-114.44091796875
-92.46826171875
-86.0595703125
-100.7080078125
-84.228515625
-89.7216796875
-91.552734375
-92.46826171875
-91.552734375
-83.31298828125
-80.56640625
-75.0732421875
-74.15771484375
-72.32666015625
-63.17138671875
-63.17138671875
-63.17138671875
-59.50927734375
-60.4248046875
-61.34033203125
-49.4384765625
-41.19873046875
-41.19873046875
-46.69189453125
-37.53662109375
-42.1142578125
-49.4384765625
-25.634765625
-17.39501953125
-20.1416015625
-15.56396484375
1.8310546875
-16.4794921875
-9.1552734375
6.40869140625
17.39501953125
16.4794921875
24.71923828125
34.7900390625
33.87451171875
35.70556640625
50.35400390625
57.67822265625
59.50927734375
74.15771484375
78.7353515625
89.7216796875
101.62353515625
97.96142578125
107.11669921875
130.0048828125
120.849609375
130.0048828125
138.24462890625
165.71044921875
170.2880859375
176.69677734375
176.69677734375
210.5712890625
212.40234375
222.47314453125
236.2060546875
243.5302734375
247.1923828125
251.77001953125
262.75634765625
276.4892578125
277.40478515625
274.658203125
282.89794921875
287.4755859375
292.96875
295.71533203125
304.87060546875
306.70166015625
293.88427734375
295.71533203125
292.96875
296.630859375
282.89794921875
281.982421875
278.3203125
249.93896484375
244.44580078125
228.8818359375
214.2333984375
189.51416015625
182.18994140625
174.86572265625
146.484375
132.75146484375
107.11669921875
101.62353515625
93.3837890625
77.81982421875
55.84716796875
27.4658203125
10.986328125
1.8310546875
-10.986328125
-18.310546875
-36.62109375
-33.87451171875
-42.1142578125
-53.1005859375
-67.7490234375
-74.15771484375
-74.15771484375
-85.14404296875
-96.13037109375
-92.46826171875
-97.96142578125
-106.201171875
-97.96142578125
-96.13037109375
-108.94775390625
-113.525390625
-111.6943359375
-125.42724609375
-131.8359375
-122.6806640625
-130.0048828125
-130.92041015625
-127.25830078125
-113.525390625
-110.77880859375
-120.849609375
-122.6806640625
-114.44091796875
-117.1875
-122.6806640625
-121.76513671875
-127.25830078125
-127.25830078125
-114.44091796875
-120.849609375
-124.51171875
-127.25830078125
-137.3291015625
-135.498046875
-138.24462890625
-126.3427734375
-122.6806640625
-107.11669921875
-112.60986328125
-117.1875
-110.77880859375
-116.27197265625
-111.6943359375
-119.93408203125
-123.59619140625
-115.3564453125
-113.525390625
-117.1875
-123.59619140625
-97.96142578125
-113.525390625
-131.8359375
-119.0185546875
-119.93408203125
-119.93408203125
-117.1875
-119.0185546875
-107.11669921875
-106.201171875
-99.79248046875
-114.44091796875
-112.60986328125
-100.7080078125
-113.525390625
-115.3564453125
-106.201171875
-115.3564453125
-111.6943359375
-108.0322265625
-108.0322265625
-117.1875
-120.849609375
-114.44091796875
-112.60986328125
-111.6943359375
-108.0322265625
-119.93408203125
-115.3564453125
-113.525390625
-108.94775390625
-113.525390625
-119.0185546875
-117.1875
-125.42724609375
-121.76513671875
-109.86328125
-114.44091796875
-118.10302734375
-115.3564453125
-115.3564453125
-127.25830078125
-124.51171875
-126.3427734375
-127.25830078125
-133.6669921875
-116.27197265625
-121.76513671875
-132.75146484375
-132.75146484375
-134.58251953125
-135.498046875
-146.484375
-140.07568359375
-140.07568359375
-139.16015625
-144.6533203125
-129.08935546875
-130.92041015625
-123.59619140625
-126.3427734375
-135.498046875
-141.90673828125
-140.9912109375
-140.9912109375
-143.73779296875
-144.6533203125
-153.80859375
-157.470703125
-128.173828125
-130.0048828125
-136.41357421875
-141.90673828125
-123.59619140625
-109.86328125
-112.60986328125
-96.13037109375
-82.3974609375
-74.15771484375
-72.32666015625
-85.14404296875
-85.14404296875
-88.80615234375
-87.890625
-89.7216796875
-89.7216796875
-72.32666015625
-73.2421875
-68.66455078125
-56.7626953125
-45.7763671875
-42.1142578125
-43.02978515625
-35.70556640625
-22.88818359375
-35.70556640625
-32.958984375
-28.38134765625
-49.4384765625
-49.4384765625
-31.1279296875
-40.283203125
-50.35400390625
-59.50927734375
-70.49560546875
-66.83349609375
-65.91796875
-88.80615234375
-105.28564453125
-102.5390625
-108.94775390625
-118.10302734375
-122.6806640625
-132.75146484375
-147.39990234375
-145.56884765625
-139.16015625
-150.146484375
-155.6396484375
-147.39990234375
-140.07568359375
-149.23095703125
-151.9775390625
-151.06201171875
-153.80859375
-154.72412109375
-140.9912109375
-142.822265625
-153.80859375
-151.06201171875
-157.470703125
-190.4296875
-205.078125
-240.78369140625
-272.8271484375
-272.8271484375
-254.5166015625
-222.47314453125
-167.54150390625
-46.69189453125
78.7353515625
270.08056640625
489.80712890625
703.125
925.59814453125
1124.267578125
1306.45751953125
1408.99658203125
1494.140625
1496.88720703125
1409.912109375
1261.5966796875
1089.4775390625
859.68017578125
562.1337890625
196.83837890625
28.38134765625
13.73291015625
28.38134765625
26.55029296875
27.4658203125
10.986328125
0.91552734375
-21.05712890625
-33.87451171875
-43.9453125
-36.62109375
-52.18505859375
-57.67822265625
-58.59375
-62.255859375
-86.0595703125
-88.80615234375
-84.228515625
-97.96142578125
-90.63720703125
-86.0595703125
-93.3837890625
-91.552734375
-94.29931640625
-90.63720703125
-102.5390625
-115.3564453125
-89.7216796875
-93.3837890625
-102.5390625
-82.3974609375
-84.228515625
-91.552734375
-85.14404296875
-90.63720703125
-86.0595703125
-79.65087890625
-73.2421875
-78.7353515625
-81.48193359375
-63.17138671875
-61.34033203125
-57.67822265625
-47.607421875
-46.69189453125
-54.01611328125
-59.50927734375
-44.86083984375
-48.52294921875
-49.4384765625
-39.36767578125
-45.7763671875
-24.71923828125
-18.310546875
-13.73291015625
-17.39501953125
-20.1416015625
0
-1.8310546875
0.91552734375
1.8310546875
8.23974609375
15.56396484375
23.8037109375
23.8037109375
27.4658203125
32.04345703125
35.70556640625
43.02978515625
59.50927734375
63.17138671875
69.580078125
62.255859375
90.63720703125
99.79248046875
105.28564453125
110.77880859375
108.0322265625
124.51171875
133.6669921875
145.56884765625
161.1328125
168.45703125
182.18994140625
197.75390625
195.00732421875
200.50048828125
206.9091796875
212.40234375
230.712890625
239.8681640625
243.5302734375
251.77001953125
264.58740234375
269.1650390625
267.333984375
277.40478515625
306.70166015625
303.03955078125
300.29296875
316.7724609375
298.4619140625
307.6171875
314.02587890625
319.51904296875
296.630859375
295.71533203125
292.05322265625
279.23583984375
270.99609375
265.5029296875
246.27685546875
230.712890625
221.5576171875
204.16259765625
182.18994140625
167.54150390625
154.72412109375
130.92041015625
110.77880859375
97.96142578125
76.904296875
63.17138671875
50.35400390625
41.19873046875
14.6484375
-0.91552734375
-6.40869140625
-17.39501953125
-29.296875
-35.70556640625
-51.26953125
-57.67822265625
-62.255859375
-64.0869140625
-78.7353515625
-97.96142578125
-106.201171875
-86.0595703125
-89.7216796875
-95.21484375
-101.62353515625
-102.5390625
-97.96142578125
-95.21484375
-126.3427734375
-134.58251953125
-107.11669921875
-118.10302734375
-119.0185546875
-112.60986328125
-110.77880859375
-113.525390625
-117.1875
-104.3701171875
-108.94775390625
-118.10302734375
-113.525390625
-119.0185546875
-116.27197265625
-107.11669921875
-116.27197265625
-115.3564453125
-116.27197265625
-114.44091796875
-119.0185546875
-120.849609375
-116.27197265625
-118.10302734375
-126.3427734375
-108.94775390625
-102.5390625
-116.27197265625
-112.60986328125
-112.60986328125
-120.849609375
-117.1875
-132.75146484375
-136.41357421875
-103.45458984375
-102.5390625
-93.3837890625
-110.77880859375
-112.60986328125
-99.79248046875
-106.201171875
-110.77880859375
-107.11669921875
-108.94775390625
-103.45458984375
-100.7080078125
-106.201171875
-107.11669921875
-106.201171875
-106.201171875
-108.0322265625
-118.10302734375
-108.94775390625
-104.3701171875
-113.525390625
-101.62353515625
-103.45458984375
-104.3701171875
-102.5390625
-101.62353515625
-107.11669921875
-112.60986328125
-111.6943359375
-113.525390625
-109.86328125
-104.3701171875
-107.11669921875
-114.44091796875
-106.201171875
-106.201171875
-114.44091796875
-116.27197265625
-102.5390625
-108.0322265625
-117.1875
-123.59619140625
-105.28564453125
-121.76513671875
-114.44091796875
-114.44091796875
-117.1875
-124.51171875
-134.58251953125
-102.5390625
-128.173828125
-124.51171875
-111.6943359375
-125.42724609375
-114.44091796875
-110.77880859375
-116.27197265625
-113.525390625
-113.525390625
-125.42724609375
-121.76513671875
-118.10302734375
-118.10302734375
-124.51171875
-112.60986328125
-118.10302734375
-119.0185546875
