ECG
-58.59375
-68.66455078125
-73.2421875
-71.4111328125
-81.48193359375
-83.31298828125
-86.0595703125
-86.0595703125
-89.7216796875
-85.14404296875
-78.7353515625
-81.48193359375
-89.7216796875
-95.21484375
-86.0595703125
-96.13037109375
-92.46826171875
-88.80615234375
-88.80615234375
-84.228515625
-74.15771484375
-82.3974609375
-97.0458984375
-97.96142578125
-80.56640625
-83.31298828125
-89.7216796875
-97.96142578125
-89.7216796875
-86.97509765625
-86.97509765625
-86.97509765625
-85.14404296875
-81.48193359375
-81.48193359375
-76.904296875
-70.49560546875
-74.15771484375
-72.32666015625
-68.66455078125
-77.81982421875
-86.97509765625
-90.63720703125
-92.46826171875
-83.31298828125
-73.2421875
-65.91796875
-65.00244140625
-73.2421875
-81.48193359375
-80.56640625
-82.3974609375
-77.81982421875
-72.32666015625
-69.580078125
-81.48193359375
-75.98876953125
-83.31298828125
-89.7216796875
-69.580078125
-86.0595703125
-94.29931640625
-75.98876953125
-75.0732421875
-82.3974609375
-76.904296875
-84.228515625
-86.97509765625
-89.7216796875
-97.96142578125
-87.890625
-84.228515625
-73.2421875
-65.91796875
-65.00244140625
-72.32666015625
-82.3974609375
-82.3974609375
-82.3974609375
-79.65087890625
-93.3837890625
-86.97509765625
-89.7216796875
-89.7216796875
-97.96142578125
-98.876953125
-101.62353515625
-97.0458984375
-87.890625
-88.80615234375
-99.79248046875
-97.0458984375
-92.46826171875
-86.0595703125
-97.0458984375
-95.21484375
-91.552734375
-95.21484375
-94.29931640625
-96.13037109375
-94.29931640625
-97.96142578125
-112.60986328125
-107.11669921875
-104.3701171875
-108.0322265625
-124.51171875
-109.86328125
-99.79248046875
-94.29931640625
-97.96142578125
-92.46826171875
-82.3974609375
-92.46826171875
-101.62353515625
-110.77880859375
-112.60986328125
-104.3701171875
-89.7216796875
-89.7216796875
-86.0595703125
-75.98876953125
-67.7490234375
-66.83349609375
-65.91796875
-69.580078125
-76.904296875
-79.65087890625
-71.4111328125
-74.15771484375
-75.98876953125
-77.81982421875
-68.66455078125
-76.904296875
-79.65087890625
-57.67822265625
-26.55029296875
-6.40869140625
9.1552734375
6.40869140625
-4.57763671875
-15.56396484375
-32.958984375
-57.67822265625
-60.4248046875
-30.21240234375
-49.4384765625
-53.1005859375
-35.70556640625
-40.283203125
-47.607421875
-49.4384765625
-55.84716796875
-70.49560546875
-75.0732421875
-84.228515625
-97.96142578125
-99.79248046875
-112.60986328125
-113.525390625
-112.60986328125
-124.51171875
-119.0185546875
-113.525390625
-115.3564453125
-118.10302734375
-117.1875
-119.0185546875
-130.0048828125
-116.27197265625
-119.0185546875
-125.42724609375
-126.3427734375
-122.6806640625
-128.173828125
-154.72412109375
-192.2607421875
-226.13525390625
-249.0234375
-232.5439453125
-203.2470703125
-150.146484375
-62.255859375
49.4384765625
205.99365234375
403.74755859375
598.7548828125
782.77587890625
982.36083984375
1173.7060546875
1320.1904296875
1417.236328125
1463.92822265625
1423.64501953125
1314.697265625
1173.7060546875
969.54345703125
689.39208984375
348.81591796875
85.14404296875
12.8173828125
10.986328125
41.19873046875
41.19873046875
41.19873046875
32.04345703125
24.71923828125
2.74658203125
-16.4794921875
-27.4658203125
-27.4658203125
-24.71923828125
-13.73291015625
-19.22607421875
-35.70556640625
-40.283203125
-45.7763671875
-55.84716796875
-61.34033203125
-59.50927734375
-60.4248046875
-65.91796875
-75.0732421875
-97.96142578125
-104.3701171875
-68.66455078125
-66.83349609375
-69.580078125
-73.2421875
-64.0869140625
-59.50927734375
-65.00244140625
-41.19873046875
-39.36767578125
-43.02978515625
-47.607421875
-46.69189453125
-49.4384765625
-42.1142578125
-39.36767578125
-42.1142578125
-38.4521484375
-30.21240234375
-33.87451171875
-32.958984375
-22.88818359375
-23.8037109375
-20.1416015625
-17.39501953125
-13.73291015625
-10.986328125
-0.91552734375
-4.57763671875
-7.32421875
-10.986328125
-2.74658203125
17.39501953125
21.05712890625
20.1416015625
12.8173828125
9.1552734375
25.634765625
47.607421875
41.19873046875
39.36767578125
46.69189453125
53.1005859375
73.2421875
75.0732421875
81.48193359375
80.56640625
71.4111328125
88.80615234375
91.552734375
104.3701171875
115.3564453125
128.173828125
144.6533203125
156.55517578125
168.45703125
174.86572265625
179.443359375
188.5986328125
196.83837890625
206.9091796875
217.8955078125
220.64208984375
230.712890625
232.5439453125
230.712890625
233.45947265625
251.77001953125
269.1650390625
268.24951171875
274.658203125
290.22216796875
285.64453125
285.64453125
281.982421875
284.72900390625
294.7998046875
292.96875
282.89794921875
292.05322265625
292.96875
281.06689453125
278.3203125
266.41845703125
254.5166015625
248.10791015625
229.79736328125
216.97998046875
192.2607421875
163.87939453125
144.6533203125
147.39990234375
113.525390625
110.77880859375
107.11669921875
108.0322265625
91.552734375
74.15771484375
62.255859375
33.87451171875
17.39501953125
19.22607421875
-1.8310546875
-18.310546875
-38.4521484375
-46.69189453125
-49.4384765625
-44.86083984375
-45.7763671875
-54.931640625
-66.83349609375
-72.32666015625
-71.4111328125
-79.65087890625
-84.228515625
-74.15771484375
-86.97509765625
-89.7216796875
-99.79248046875
-108.0322265625
-107.11669921875
-103.45458984375
-107.11669921875
-107.11669921875
-106.201171875
-105.28564453125
-104.3701171875
-114.44091796875
-111.6943359375
-109.86328125
-115.3564453125
-125.42724609375
-109.86328125
-129.08935546875
-138.24462890625
-102.5390625
-97.0458984375
-86.97509765625
-89.7216796875
-97.96142578125
-94.29931640625
-102.5390625
-116.27197265625
-119.0185546875
-111.6943359375
-110.77880859375
-119.93408203125
-108.94775390625
-92.46826171875
-101.62353515625
-96.13037109375
-95.21484375
-97.96142578125
-107.11669921875
-98.876953125
-100.7080078125
-85.14404296875
-76.904296875
-94.29931640625
-97.96142578125
-101.62353515625
-117.1875
-108.0322265625
-102.5390625
-104.3701171875
-99.79248046875
-98.876953125
-98.876953125
-82.3974609375
-105.28564453125
-109.86328125
-104.3701171875
-93.3837890625
-87.890625
-84.228515625
-90.63720703125
-99.79248046875
-100.7080078125
-96.13037109375
-108.0322265625
-105.28564453125
-110.77880859375
-96.13037109375
-97.0458984375
-93.3837890625
-91.552734375
-91.552734375
-82.3974609375
-86.0595703125
-99.79248046875
-102.5390625
-121.76513671875
-117.1875
-107.11669921875
-87.890625
-111.6943359375
-113.525390625
-103.45458984375
-96.13037109375
-91.552734375
-105.28564453125
-107.11669921875
-106.201171875
-100.7080078125
-113.525390625
-117.1875
-112.60986328125
-109.86328125
-112.60986328125
-119.93408203125
-135.498046875
-138.24462890625
-110.77880859375
-108.0322265625
-107.11669921875
-105.28564453125
-112.60986328125
-128.173828125
-110.77880859375
-97.96142578125
-116.27197265625
-108.94775390625
-111.6943359375
-109.86328125
-112.60986328125
-114.44091796875
-111.6943359375
-113.525390625
-118.10302734375
-123.59619140625
-130.92041015625
-125.42724609375
-119.93408203125
-116.27197265625
-118.10302734375
-123.59619140625
-122.6806640625
-118.10302734375
-119.0185546875
-116.27197265625
-120.849609375
-112.60986328125
-112.60986328125
-117.1875
-110.77880859375
-99.79248046875
-82.3974609375
-69.580078125
-78.7353515625
-85.14404296875
-79.65087890625
-79.65087890625
-71.4111328125
-77.81982421875
-86.0595703125
-86.97509765625
-73.2421875
-51.26953125
-44.86083984375
-51.26953125
-43.02978515625
-32.958984375
-17.39501953125
-22.88818359375
-24.71923828125
-31.1279296875
-39.36767578125
-39.36767578125
-32.04345703125
-40.283203125
-30.21240234375
-26.55029296875
-42.1142578125
-56.7626953125
-69.580078125
-72.32666015625
-77.81982421875
-81.48193359375
-84.228515625
-84.228515625
-91.552734375
-100.7080078125
-108.94775390625
-122.6806640625
-128.173828125
-130.0048828125
-135.498046875
-139.16015625
-130.92041015625
-121.76513671875
-128.173828125
-128.173828125
-127.25830078125
-131.8359375
-129.08935546875
-130.92041015625
-116.27197265625
-114.44091796875
-124.51171875
-130.92041015625
-140.07568359375
-181.2744140625
-244.44580078125
-249.0234375
-241.69921875
-220.64208984375
-184.9365234375
-125.42724609375
-30.21240234375
116.27197265625
306.70166015625
535.58349609375
747.98583984375
952.1484375
1137.0849609375
1322.93701171875
1427.30712890625
1509.70458984375
1529.84619140625
1437.3779296875
1282.65380859375
1112.36572265625
881.65283203125
560.302734375
216.97998046875
59.50927734375
42.1142578125
57.67822265625
47.607421875
58.59375
45.7763671875
25.634765625
9.1552734375
2.74658203125
7.32421875
-3.662109375
-10.986328125
-21.97265625
-31.1279296875
-45.7763671875
-57.67822265625
-72.32666015625
-94.29931640625
-75.98876953125
-65.91796875
-58.59375
-74.15771484375
-88.80615234375
-67.7490234375
-70.49560546875
-80.56640625
-75.98876953125
-75.98876953125
-70.49560546875
-73.2421875
-75.0732421875
-77.81982421875
-58.59375
-54.01611328125
-70.49560546875
-94.29931640625
-92.46826171875
-66.83349609375
-49.4384765625
-52.18505859375
-52.18505859375
-46.69189453125
-38.4521484375
-35.70556640625
-30.21240234375
-30.21240234375
-40.283203125
-42.1142578125
-35.70556640625
-37.53662109375
-21.05712890625
-13.73291015625
-19.22607421875
-15.56396484375
-20.1416015625
-11.90185546875
-12.8173828125
-5.4931640625
-3.662109375
-5.4931640625
-5.4931640625
14.6484375
15.56396484375
24.71923828125
30.21240234375
49.4384765625
43.9453125
40.283203125
41.19873046875
43.02978515625
47.607421875
65.00244140625
77.81982421875
71.4111328125
82.3974609375
82.3974609375
97.96142578125
100.7080078125
117.1875
132.75146484375
143.73779296875
153.80859375
157.470703125
174.86572265625
158.38623046875
163.87939453125
177.6123046875
197.75390625
207.82470703125
224.30419921875
233.45947265625
237.12158203125
224.30419921875
227.96630859375
241.69921875
252.685546875
264.58740234375
250.8544921875
256.34765625
271.91162109375
271.91162109375
265.5029296875
260.92529296875
263.671875
249.93896484375
259.09423828125
252.685546875
249.0234375
234.375
205.078125
197.75390625
188.5986328125
180.35888671875
170.2880859375
152.89306640625
130.0048828125
117.1875
103.45458984375
84.228515625
55.84716796875
45.7763671875
33.87451171875
14.6484375
-4.57763671875
-27.4658203125
-11.90185546875
-25.634765625
-47.607421875
-58.59375
-75.0732421875
-87.890625
-92.46826171875
-86.0595703125
-97.96142578125
-107.11669921875
-115.3564453125
-122.6806640625
-125.42724609375
-126.3427734375
-119.93408203125
-130.92041015625
-137.3291015625
-129.08935546875
-121.76513671875
-124.51171875
-133.6669921875
-136.41357421875
-140.9912109375
-143.73779296875
-147.39990234375
-145.56884765625
-144.6533203125
-151.9775390625
-140.9912109375
-139.16015625
-150.146484375
-160.21728515625
-150.146484375
-148.3154296875
-148.3154296875
-151.9775390625
-149.23095703125
-139.16015625
-141.90673828125
-156.55517578125
-162.04833984375
-151.9775390625
-167.54150390625
-151.06201171875
-153.80859375
-147.39990234375
-141.90673828125
-145.56884765625
-141.90673828125
-143.73779296875
-143.73779296875
-136.41357421875
-151.06201171875
-150.146484375
-147.39990234375
-154.72412109375
-150.146484375
-154.72412109375
-155.6396484375
-131.8359375
-143.73779296875
-154.72412109375
-150.146484375
-140.07568359375
-146.484375
-147.39990234375
-138.24462890625
-142.822265625
-142.822265625
-133.6669921875
-129.08935546875
-137.3291015625
-144.6533203125
-136.41357421875
-136.41357421875
-147.39990234375
-160.21728515625
-139.16015625
-132.75146484375
-139.16015625
-144.6533203125
-148.3154296875
-146.484375
-149.23095703125
-145.56884765625
-142.822265625
-150.146484375
-138.24462890625
-131.8359375
-138.24462890625
-144.6533203125
-151.06201171875
-151.06201171875
-154.72412109375
-157.470703125
-143.73779296875
-149.23095703125
-142.822265625
-137.3291015625
-143.73779296875
-145.56884765625
-161.1328125
-157.470703125
-145.56884765625
-162.04833984375
-159.3017578125
-166.6259765625
-163.87939453125
-155.6396484375
-148.3154296875
-151.9775390625
-162.04833984375
-156.55517578125
-157.470703125
-162.04833984375
-153.80859375
-165.71044921875
-162.9638671875
-146.484375
-148.3154296875
-155.6396484375
-156.55517578125
-158.38623046875
-156.55517578125
-164.794921875
-161.1328125
-163.87939453125
-162.04833984375
-160.21728515625
-161.1328125
-175.78125
-174.86572265625
-176.69677734375
-176.69677734375
-160.21728515625
-145.56884765625
-151.9775390625
-154.72412109375
-157.470703125
-166.6259765625
-181.2744140625
-181.2744140625
-178.52783203125
-161.1328125
-163.87939453125
-167.54150390625
-155.6396484375
-146.484375
-149.23095703125
-157.470703125
-162.04833984375
-166.6259765625
-166.6259765625
-165.71044921875
-169.37255859375
-160.21728515625
-168.45703125
-159.3017578125
-156.55517578125
-150.146484375
-142.822265625
-130.92041015625
-129.08935546875
-129.08935546875
-121.76513671875
-111.6943359375
-122.6806640625
-119.93408203125
-123.59619140625
-132.75146484375
-113.525390625
-111.6943359375
-115.3564453125
-112.60986328125
-102.5390625
-91.552734375
-86.97509765625
-85.14404296875
-75.98876953125
-71.4111328125
-80.56640625
-87.890625
-99.79248046875
-111.6943359375
-114.44091796875
-110.77880859375
-88.80615234375
-94.29931640625
-105.28564453125
-97.0458984375
-114.44091796875
-119.0185546875
-123.59619140625
-132.75146484375
-141.90673828125
-149.23095703125
-172.119140625
-173.03466796875
-158.38623046875
-150.146484375
-151.9775390625
-153.80859375
-151.06201171875
-148.3154296875
-156.55517578125
-157.470703125
-165.71044921875
-173.03466796875
-169.37255859375
-158.38623046875
-162.04833984375
-164.794921875
-163.87939453125
-150.146484375
-175.78125
-218.81103515625
-258.1787109375
-297.54638671875
-272.8271484375
-253.60107421875
-225.2197265625
-156.55517578125
-58.59375
78.7353515625
287.4755859375
516.357421875
719.6044921875
914.61181640625
1117.85888671875
1300.96435546875
1405.33447265625
1492.3095703125
1496.88720703125
1404.4189453125
1273.49853515625
1088.56201171875
868.83544921875
526.42822265625
185.85205078125
62.255859375
29.296875
25.634765625
26.55029296875
38.4521484375
32.04345703125
-1.8310546875
-17.39501953125
-16.4794921875
-24.71923828125
-33.87451171875
-43.02978515625
-49.4384765625
-57.67822265625
-65.91796875
-75.0732421875
-75.0732421875
-83.31298828125
-82.3974609375
-93.3837890625
-100.7080078125
-93.3837890625
-92.46826171875
-99.79248046875
-100.7080078125
-92.46826171875
-89.7216796875
-87.890625
-97.0458984375
-99.79248046875
-101.62353515625
-116.27197265625
-125.42724609375
-101.62353515625
-47.607421875
-71.4111328125
-73.2421875
-75.98876953125
-82.3974609375
-81.48193359375
-75.98876953125
-60.4248046875
-55.84716796875
-60.4248046875
-50.35400390625
-48.52294921875
-49.4384765625
-54.01611328125
-55.84716796875
-48.52294921875
-41.19873046875
-37.53662109375
-33.87451171875
-41.19873046875
-32.958984375
-23.8037109375
-18.310546875
-21.97265625
-24.71923828125
0.91552734375
1.8310546875
-2.74658203125
7.32421875
15.56396484375
12.8173828125
16.4794921875
27.4658203125
26.55029296875
37.53662109375
46.69189453125
60.4248046875
64.0869140625
71.4111328125
69.580078125
73.2421875
75.98876953125
87.890625
108.0322265625
119.93408203125
127.25830078125
130.0048828125
141.90673828125
151.9775390625
161.1328125
181.2744140625
183.10546875
192.2607421875
175.78125
196.83837890625
227.05078125
220.64208984375
229.79736328125
237.12158203125
240.78369140625
244.44580078125
249.93896484375
255.43212890625
249.0234375
253.60107421875
260.92529296875
272.8271484375
268.24951171875
281.06689453125
273.74267578125
272.8271484375
264.58740234375
252.685546875
249.93896484375
240.78369140625
240.78369140625
227.05078125
211.48681640625
195.00732421875
177.6123046875
159.3017578125
137.3291015625
121.76513671875
117.1875
99.79248046875
79.65087890625
67.7490234375
54.01611328125
33.87451171875
20.1416015625
3.662109375
-13.73291015625
-28.38134765625
-25.634765625
-44.86083984375
-54.01611328125
-57.67822265625
-59.50927734375
-63.17138671875
-72.32666015625
-84.228515625
-98.876953125
-117.1875
-107.11669921875
-105.28564453125
-108.94775390625
-109.86328125
-108.94775390625
-119.0185546875
-126.3427734375
-130.0048828125
-133.6669921875
-117.1875
-113.525390625
-108.94775390625
-108.94775390625
-114.44091796875
-119.93408203125
-120.849609375
-118.10302734375
-130.0048828125
-124.51171875
-125.42724609375
-126.3427734375
-131.8359375
-135.498046875
-143.73779296875
-139.16015625
-138.24462890625
-143.73779296875
-147.39990234375
-143.73779296875
-135.498046875
-128.173828125
-110.77880859375
-118.10302734375
-118.10302734375
-120.849609375
-121.76513671875
-118.10302734375
-115.3564453125
-134.58251953125
-133.6669921875
-130.92041015625
-129.08935546875
-118.10302734375
-119.0185546875
-121.76513671875
-123.59619140625
-127.25830078125
-107.11669921875
-98.876953125
-108.0322265625
-116.27197265625
-117.1875
-121.76513671875
-108.0322265625
-98.876953125
-97.96142578125
-113.525390625
-109.86328125
-110.77880859375
-111.6943359375
-116.27197265625
-112.60986328125
-117.1875
-124.51171875
-117.1875
-112.60986328125
-114.44091796875
-113.525390625
-120.849609375
-121.76513671875
-120.849609375
-123.59619140625
-117.1875
-112.60986328125
-111.6943359375
-119.0185546875
-128.173828125
-131.8359375
-136.41357421875
-129.08935546875
-119.0185546875
-111.6943359375
-121.76513671875
-134.58251953125
-135.498046875
-131.8359375
-129.08935546875
-124.51171875
-130.0048828125
-115.3564453125
-112.60986328125
-127.25830078125
-132.75146484375
-137.3291015625
-142.822265625
-153.80859375
-140.9912109375
-142.822265625
-150.146484375
-140.07568359375
-145.56884765625
-143.73779296875
-133.6669921875
-135.498046875
-136.41357421875
-144.6533203125
-147.39990234375
-151.06201171875
-145.56884765625
-151.9775390625
-141.90673828125
-150.146484375
-148.3154296875
-146.484375
-145.56884765625
-141.90673828125
-151.9775390625
-141.90673828125
-141.90673828125
-134.58251953125
-143.73779296875
-160.21728515625
-165.71044921875
-154.72412109375
-158.38623046875
-151.06201171875
-146.484375
-139.16015625
-149.23095703125
-155.6396484375
-163.87939453125
-164.794921875
-158.38623046875
-152.89306640625
-148.3154296875
-145.56884765625
-150.146484375
-154.72412109375
-152.89306640625
-150.146484375
-151.06201171875
-162.9638671875
-156.55517578125
-167.54150390625
-161.1328125
-153.80859375
-143.73779296875
-151.9775390625
-144.6533203125
-131.8359375
-130.92041015625
-126.3427734375
-120.849609375
-115.3564453125
-123.59619140625
-127.25830078125
-128.173828125
-132.75146484375
-127.25830078125
-108.94775390625
-110.77880859375
-108.0322265625
-101.62353515625
-89.7216796875
-96.13037109375
-97.96142578125
-102.5390625
-87.890625
-93.3837890625
-110.77880859375
-96.13037109375
-86.97509765625
-88.80615234375
-94.29931640625
-86.0595703125
-97.0458984375
-113.525390625
-111.6943359375
-114.44091796875
-119.93408203125
-116.27197265625
-118.10302734375
-118.10302734375
-134.58251953125
-152.89306640625
-152.89306640625
-162.04833984375
-164.794921875
-161.1328125
-163.87939453125
-174.86572265625
-179.443359375
-166.6259765625
-173.9501953125
-178.52783203125
-182.18994140625
-191.34521484375
-182.18994140625
-162.04833984375
-169.37255859375
-184.9365234375
-174.86572265625
-168.45703125
-168.45703125
-186.767578125
-229.79736328125
-267.333984375
-295.71533203125
-287.4755859375
-281.06689453125
-222.47314453125
-155.6396484375
-43.02978515625
120.849609375
315.85693359375
536.4990234375
737.9150390625
941.162109375
1122.4365234375
1295.47119140625
1406.25
1475.830078125
1463.92822265625
1379.69970703125
1222.22900390625
1011.65771484375
770.8740234375
433.9599609375
111.6943359375
-8.23974609375
9.1552734375
20.1416015625
25.634765625
32.958984375
26.55029296875
0.91552734375
-4.57763671875
-25.634765625
-51.26953125
-50.35400390625
-59.50927734375
-62.255859375
-80.56640625
-88.80615234375
-85.14404296875
-79.65087890625
-57.67822265625
-90.63720703125
-108.0322265625
-117.1875
-108.94775390625
-110.77880859375
-105.28564453125
-98.876953125
-102.5390625
-108.94775390625
-97.0458984375
-119.93408203125
-132.75146484375
-110.77880859375
-74.15771484375
-87.890625
-87.890625
-87.890625
-91.552734375
-11.90185546875
-76.904296875
-110.77880859375
-92.46826171875
-91.552734375
-87.890625
-83.31298828125
-87.890625
-75.0732421875
-74.15771484375
-65.91796875
-66.83349609375
-75.0732421875
-63.17138671875
-59.50927734375
-74.15771484375
-65.00244140625
-48.52294921875
-46.69189453125
-46.69189453125
-43.02978515625
-19.22607421875
-28.38134765625
-18.310546875
-0.91552734375
-32.04345703125
-23.8037109375
0.91552734375
5.4931640625
8.23974609375
3.662109375
13.73291015625
25.634765625
31.1279296875
27.4658203125
40.283203125
48.52294921875
54.931640625
61.34033203125
65.00244140625
71.4111328125
84.228515625
91.552734375
97.0458984375
108.0322265625
124.51171875
136.41357421875
131.8359375
131.8359375
156.55517578125
164.794921875
179.443359375
186.767578125
183.10546875
178.52783203125
196.83837890625
216.97998046875
218.81103515625
230.712890625
240.78369140625
234.375
237.12158203125
244.44580078125
246.27685546875
243.5302734375
237.12158203125
244.44580078125
240.78369140625
237.12158203125
232.5439453125
226.13525390625
227.96630859375
217.8955078125
205.078125
193.17626953125
167.54150390625
161.1328125
152.89306640625
135.498046875
111.6943359375
93.3837890625
73.2421875
47.607421875
34.7900390625
37.53662109375
19.22607421875
-0.91552734375
-12.8173828125
-30.21240234375
-53.1005859375
-63.17138671875
-60.4248046875
-71.4111328125
-76.904296875
-83.31298828125
-90.63720703125
-110.77880859375
-116.27197265625
-109.86328125
-119.93408203125
-134.58251953125
-131.8359375
-128.173828125
-136.41357421875
-142.822265625
-154.72412109375
-160.21728515625
-164.794921875
-146.484375
-145.56884765625
-151.9775390625
-148.3154296875
-152.89306640625
-162.04833984375
-158.38623046875
-159.3017578125
-161.1328125
-161.1328125
-155.6396484375
-154.72412109375
-159.3017578125
-160.21728515625
-162.04833984375
-166.6259765625
-163.87939453125
-162.9638671875
-167.54150390625
-162.04833984375
-165.71044921875
-170.2880859375
-164.794921875
-153.80859375
-155.6396484375
-157.470703125
-154.72412109375
-162.04833984375
-162.9638671875
-150.146484375
-148.3154296875
-152.89306640625
-152.89306640625
-158.38623046875
-153.80859375
-132.75146484375
-138.24462890625
-146.484375
-141.90673828125
-151.9775390625
-162.04833984375
-174.86572265625
-149.23095703125
-145.56884765625
-142.822265625
-134.58251953125
-138.24462890625
-148.3154296875
-137.3291015625
-133.6669921875
-147.39990234375
-162.04833984375
-155.6396484375
-148.3154296875
-137.3291015625
-135.498046875
-135.498046875
-138.24462890625
-140.07568359375
-136.41357421875
-143.73779296875
-148.3154296875
-145.56884765625
-149.23095703125
-147.39990234375
-141.90673828125
-135.498046875
-137.3291015625
-130.92041015625
-142.822265625
-140.07568359375
-144.6533203125
-145.56884765625
-148.3154296875
-149.23095703125
-147.39990234375
-150.146484375
-147.39990234375
-141.90673828125
-149.23095703125
-155.6396484375
-163.87939453125
-162.9638671875
-156.55517578125
-151.06201171875
-169.37255859375
-165.71044921875
-143.73779296875
-151.06201171875
-156.55517578125
-155.6396484375
-157.470703125
-164.794921875
-160.21728515625
-162.04833984375
-162.04833984375
-170.2880859375
-159.3017578125
-151.9775390625
-150.146484375
-153.80859375
-156.55517578125
-156.55517578125
-162.9638671875
-168.45703125
-172.119140625
-176.69677734375
-166.6259765625
-151.9775390625
-155.6396484375
-169.37255859375
-167.54150390625
-172.119140625
-186.767578125
-162.9638671875
-139.16015625
-153.80859375
-161.1328125
-166.6259765625
-169.37255859375
-162.9638671875
-159.3017578125
-154.72412109375
-156.55517578125
-150.146484375
-153.80859375
-158.38623046875
-154.72412109375
-165.71044921875
-160.21728515625
-158.38623046875
-162.04833984375
-176.69677734375
-178.52783203125
-166.6259765625
-165.71044921875
-161.1328125
-150.146484375
-151.06201171875
-148.3154296875
-160.21728515625
-162.9638671875
-164.794921875
-166.6259765625
-176.69677734375
-176.69677734375
-162.9638671875
-162.9638671875
-165.71044921875
-158.38623046875
-158.38623046875
-152.89306640625
-171.20361328125
-174.86572265625
-170.2880859375
-168.45703125
-152.89306640625
-153.80859375
-157.470703125
-162.9638671875
-155.6396484375
-141.90673828125
-151.06201171875
-147.39990234375
-147.39990234375
-144.6533203125
-111.6943359375
-105.28564453125
-112.60986328125
-116.27197265625
-107.11669921875
-105.28564453125
-108.0322265625
-104.3701171875
-115.3564453125
-110.77880859375
-91.552734375
-93.3837890625
-86.0595703125
-78.7353515625
-76.904296875
-71.4111328125
-71.4111328125
-65.00244140625
-65.00244140625
-88.80615234375
-85.14404296875
-87.890625
-97.0458984375
-107.11669921875
-116.27197265625
-130.0048828125
-111.6943359375
-102.5390625
-121.76513671875
-110.77880859375
-95.21484375
-114.44091796875
-120.849609375
-118.10302734375
-134.58251953125
-139.16015625
-150.146484375
-155.6396484375
-162.04833984375
-158.38623046875
-151.9775390625
-162.9638671875
-159.3017578125
-152.89306640625
-155.6396484375
-151.9775390625
-160.21728515625
-158.38623046875
-161.1328125
-162.9638671875
-168.45703125
-175.78125
-182.18994140625
-196.83837890625
-225.2197265625
-270.08056640625
-293.88427734375
-281.982421875
-250.8544921875
-193.17626953125
-114.44091796875
10.986328125
173.9501953125
379.94384765625
587.7685546875
801.08642578125
1001.5869140625
1213.07373046875
1363.22021484375
1447.44873046875
1502.38037109375
1467.59033203125
1355.89599609375
1194.76318359375
997.00927734375
723.2666015625
366.2109375
119.0185546875
39.36767578125
36.62109375
18.310546875
18.310546875
32.04345703125
4.57763671875
-8.23974609375
-17.39501953125
-28.38134765625
-50.35400390625
-52.18505859375
-42.1142578125
-47.607421875
-60.4248046875
-67.7490234375
-78.7353515625
-84.228515625
-93.3837890625
-107.11669921875
-106.201171875
-104.3701171875
-104.3701171875
-105.28564453125
-107.11669921875
-110.77880859375
-115.3564453125
-117.1875
-113.525390625
-100.7080078125
-103.45458984375
-102.5390625
-114.44091796875
-102.5390625
-89.7216796875
-74.15771484375
-80.56640625
-82.3974609375
-82.3974609375
-80.56640625
-72.32666015625
-68.66455078125
-69.580078125
-72.32666015625
-62.255859375
-65.00244140625
-60.4248046875
-57.67822265625
-55.84716796875
-54.931640625
-47.607421875
-43.9453125
-47.607421875
-41.19873046875
-34.7900390625
-30.21240234375
-38.4521484375
-32.958984375
-18.310546875
-22.88818359375
-21.97265625
-18.310546875
-17.39501953125
-3.662109375
7.32421875
14.6484375
14.6484375
32.958984375
37.53662109375
35.70556640625
38.4521484375
42.1142578125
51.26953125
54.01611328125
67.7490234375
77.81982421875
97.0458984375
101.62353515625
99.79248046875
105.28564453125
118.10302734375
130.0048828125
142.822265625
141.90673828125
156.55517578125
153.80859375
167.54150390625
182.18994140625
185.85205078125
196.83837890625
208.740234375
213.31787109375
216.064453125
232.5439453125
225.2197265625
214.2333984375
233.45947265625
242.61474609375
249.93896484375
256.34765625
254.5166015625
255.43212890625
259.09423828125
263.671875
273.74267578125
268.24951171875
267.333984375
253.60107421875
255.43212890625
242.61474609375
226.13525390625
211.48681640625
197.75390625
181.2744140625
163.87939453125
154.72412109375
134.58251953125
114.44091796875
98.876953125
80.56640625
65.91796875
53.1005859375
21.97265625
14.6484375
7.32421875
-10.986328125
-21.05712890625
-28.38134765625
-46.69189453125
-46.69189453125
-64.0869140625
-73.2421875
-83.31298828125
-97.96142578125
-108.0322265625
-108.0322265625
-136.41357421875
-118.10302734375
-104.3701171875
-111.6943359375
-120.849609375
-123.59619140625
-115.3564453125
-119.0185546875
-134.58251953125
-141.90673828125
-140.9912109375
-133.6669921875
-141.90673828125
-143.73779296875
-146.484375
-137.3291015625
-121.76513671875
-131.8359375
-149.23095703125
-139.16015625
-132.75146484375
-131.8359375
-134.58251953125
-138.24462890625
-140.07568359375
-140.07568359375
-144.6533203125
-149.23095703125
-160.21728515625
-149.23095703125
-127.25830078125
-130.0048828125
-139.16015625
-151.9775390625
-161.1328125
-155.6396484375
-162.04833984375
-159.3017578125
-141.90673828125
-126.3427734375
-118.10302734375
-124.51171875
-131.8359375
-138.24462890625
-137.3291015625
-128.173828125
-119.93408203125
-132.75146484375
-133.6669921875
-132.75146484375
-132.75146484375
-129.08935546875
-133.6669921875
-140.9912109375
-141.90673828125
-139.16015625
-140.9912109375
-130.0048828125
-124.51171875
-119.93408203125
-128.173828125
-134.58251953125
-130.0048828125
-117.1875
-119.93408203125
-125.42724609375
-113.525390625
-126.3427734375
-131.8359375
-132.75146484375
-126.3427734375
-132.75146484375
-124.51171875
-122.6806640625
-126.3427734375
-127.25830078125
-128.173828125
-128.173828125
-141.90673828125
-129.08935546875
-120.849609375
-114.44091796875
-118.10302734375
-117.1875
-120.849609375
-131.8359375
-130.0048828125
-106.201171875
-119.93408203125
-138.24462890625
-142.822265625
-145.56884765625
-146.484375
-130.92041015625
-108.94775390625
-115.3564453125
-127.25830078125
-125.42724609375
-129.08935546875
-141.90673828125
-139.16015625
-129.08935546875
-126.3427734375
-117.1875
-120.849609375
-128.173828125
-124.51171875
-126.3427734375
-133.6669921875
-138.24462890625
-146.484375
-132.75146484375
-136.41357421875
-143.73779296875
-140.07568359375
-139.16015625
-136.41357421875
-156.55517578125
-165.71044921875
-130.92041015625
-116.27197265625
-126.3427734375
-121.76513671875
-133.6669921875
-135.498046875
-133.6669921875
-135.498046875
-136.41357421875
-133.6669921875
-140.07568359375
-133.6669921875
-124.51171875
-121.76513671875
-128.173828125
-129.08935546875
-137.3291015625
-133.6669921875
-136.41357421875
-141.90673828125
-128.173828125
-125.42724609375
-129.08935546875
-120.849609375
-124.51171875
-138.24462890625
-140.9912109375
-145.56884765625
-142.822265625
-132.75146484375
-126.3427734375
-124.51171875
-133.6669921875
-133.6669921875
-130.0048828125
-132.75146484375
-131.8359375
-140.07568359375
-138.24462890625
-138.24462890625
-129.08935546875
-130.92041015625
-123.59619140625
-124.51171875
-146.484375
-124.51171875
-120.849609375
-124.51171875
-122.6806640625
-107.11669921875
-112.60986328125
-113.525390625
-97.0458984375
-97.96142578125
-102.5390625
-101.62353515625
-96.13037109375
-98.876953125
-97.96142578125
-88.80615234375
-95.21484375
-88.80615234375
-84.228515625
-82.3974609375
-85.14404296875
-51.26953125
-45.7763671875
-45.7763671875
-61.34033203125
-82.3974609375
-71.4111328125
-57.67822265625
-48.52294921875
-50.35400390625
-59.50927734375
-48.52294921875
-49.4384765625
-68.66455078125
-75.0732421875
-64.0869140625
-73.2421875
-88.80615234375
-87.890625
-93.3837890625
-105.28564453125
-107.11669921875
-103.45458984375
-111.6943359375
-126.3427734375
-117.1875
-123.59619140625
-125.42724609375
-122.6806640625
-124.51171875
-127.25830078125
-120.849609375
-117.1875
-129.08935546875
-132.75146484375
-130.0048828125
-121.76513671875
-124.51171875
-123.59619140625
-127.25830078125
-138.24462890625
-151.9775390625
-205.078125
-238.95263671875
-251.77001953125
-234.375
-211.48681640625
-146.484375
-75.98876953125
20.1416015625
176.69677734375
375.3662109375
584.1064453125
782.77587890625
983.2763671875
1188.3544921875
1336.669921875
1432.80029296875
1497.802734375
1454.77294921875
1354.98046875
1220.39794921875
1034.5458984375
780.029296875
434.87548828125
148.3154296875
64.0869140625
47.607421875
53.1005859375
46.69189453125
55.84716796875
58.59375
38.4521484375
13.73291015625
8.23974609375
-0.91552734375
-10.986328125
-19.22607421875
-21.05712890625
-27.4658203125
-32.04345703125
-48.52294921875
-40.283203125
-32.04345703125
-43.02978515625
-55.84716796875
-54.931640625
-60.4248046875
-58.59375
-66.83349609375
-49.4384765625
-49.4384765625
-52.18505859375
-46.69189453125
-37.53662109375
-40.283203125
-49.4384765625
-43.9453125
-38.4521484375
-47.607421875
-37.53662109375
-41.19873046875
-34.7900390625
-24.71923828125
-30.21240234375
-20.1416015625
-16.4794921875
-20.1416015625
-12.8173828125
-12.8173828125
-19.22607421875
-17.39501953125
-9.1552734375
-3.662109375
-5.4931640625
-3.662109375
-6.40869140625
-0.91552734375
-1.8310546875
4.57763671875
0
5.4931640625
22.88818359375
32.04345703125
11.90185546875
28.38134765625
30.21240234375
33.87451171875
54.931640625
66.83349609375
64.0869140625
76.904296875
76.904296875
87.890625
87.890625
83.31298828125
77.81982421875
105.28564453125
118.10302734375
119.0185546875
116.27197265625
128.173828125
147.39990234375
160.21728515625
163.87939453125
163.87939453125
177.6123046875
162.04833984375
183.10546875
212.40234375
207.82470703125
205.99365234375
242.61474609375
233.45947265625
247.1923828125
251.77001953125
245.361328125
227.96630859375
238.037109375
261.8408203125
279.23583984375
250.8544921875
224.30419921875
249.0234375
260.92529296875
266.41845703125
257.26318359375
250.8544921875
269.1650390625
260.92529296875
263.671875
271.91162109375
260.92529296875
261.8408203125
239.8681640625
233.45947265625
225.2197265625
214.2333984375
179.443359375
184.9365234375
154.72412109375
133.6669921875
138.24462890625
124.51171875
115.3564453125
78.7353515625
72.32666015625
69.580078125
39.36767578125
19.22607421875
19.22607421875
7.32421875
-14.6484375
-9.1552734375
-21.05712890625
-38.4521484375
-52.18505859375
-44.86083984375
-49.4384765625
-65.91796875
-69.580078125
-71.4111328125
-68.66455078125
-64.0869140625
-84.228515625
-93.3837890625
-97.96142578125
-92.46826171875
-97.96142578125
-109.86328125
-111.6943359375
-117.1875
-110.77880859375
-102.5390625
-96.13037109375
-86.0595703125
-89.7216796875
-105.28564453125
-96.13037109375
-97.96142578125
-109.86328125
-103.45458984375
-114.44091796875
-135.498046875
-124.51171875
-116.27197265625
-126.3427734375
-129.08935546875
-119.93408203125
-111.6943359375
-114.44091796875
-121.76513671875
-133.6669921875
-130.92041015625
-126.3427734375
-128.173828125
-119.0185546875
-113.525390625
-118.10302734375
-116.27197265625
-92.46826171875
-103.45458984375
-94.29931640625
-102.5390625
-100.7080078125
-107.11669921875
-117.1875
-121.76513671875
-118.10302734375
-110.77880859375
-95.21484375
-88.80615234375
-80.56640625
-88.80615234375
-99.79248046875
-119.0185546875
-119.0185546875
-108.94775390625
-109.86328125
-87.890625
-86.0595703125
-108.0322265625
-112.60986328125
-106.201171875
-101.62353515625
-90.63720703125
-92.46826171875
-86.0595703125
-93.3837890625
-98.876953125
-110.77880859375
-116.27197265625
-123.59619140625
-108.94775390625
-100.7080078125
-86.0595703125
-95.21484375
-82.3974609375
-110.77880859375
-116.27197265625
-107.11669921875
-92.46826171875
-80.56640625
-90.63720703125
-107.11669921875
-97.96142578125
-102.5390625
-106.201171875
-95.21484375
-86.97509765625
-114.44091796875
-114.44091796875
-115.3564453125
-105.28564453125
-85.14404296875
-108.94775390625
-119.0185546875
-94.29931640625
-96.13037109375
-107.11669921875
-124.51171875
-110.77880859375
-101.62353515625
-117.1875
-109.86328125
-121.76513671875
-121.76513671875
-106.201171875
-89.7216796875
-108.94775390625
-99.79248046875
-85.14404296875
-116.27197265625
-122.6806640625
-97.0458984375
-73.2421875
-112.60986328125
-131.8359375
-106.201171875
-81.48193359375
-78.7353515625
-93.3837890625
-103.45458984375
-107.11669921875
-80.56640625
-74.15771484375
-113.525390625
-113.525390625
-75.0732421875
-62.255859375
-57.67822265625
-71.4111328125
-95.21484375
-121.76513671875
-128.173828125
-87.890625
-106.201171875
-117.1875
-92.46826171875
-76.904296875
-75.98876953125
-86.0595703125
-75.0732421875
-58.59375
-76.904296875
-119.0185546875
-116.27197265625
-90.63720703125
-118.10302734375
-108.0322265625
-93.3837890625
-94.29931640625
-75.0732421875
-64.0869140625
-62.255859375
-46.69189453125
-81.48193359375
-93.3837890625
-82.3974609375
-47.607421875
-61.34033203125
-88.80615234375
-67.7490234375
-53.1005859375
-30.21240234375
-74.15771484375
-68.66455078125
-42.1142578125
-41.19873046875
-63.17138671875
-43.9453125
-30.21240234375
-25.634765625
-32.04345703125
-20.1416015625
-44.86083984375
-65.00244140625
-49.4384765625
-75.0732421875
-106.201171875
-91.552734375
-65.00244140625
-54.01611328125
-93.3837890625
-95.21484375
-65.91796875
-70.49560546875
-113.525390625
-129.08935546875
-113.525390625
-108.94775390625
-126.3427734375
-121.76513671875
-132.75146484375
-173.9501953125
-158.38623046875
-156.55517578125
-185.85205078125
-157.470703125
-133.6669921875
-145.56884765625
-140.07568359375
-157.470703125
-173.9501953125
-137.3291015625
-115.3564453125
-132.75146484375
-142.822265625
-163.87939453125
-213.31787109375
-250.8544921875
-265.5029296875
-240.78369140625
-207.82470703125
-149.23095703125
-71.4111328125
77.81982421875
222.47314453125
422.9736328125
624.3896484375
838.623046875
1030.8837890625
1198.42529296875
1343.994140625
1423.64501953125
1474.91455078125
1431.884765625
1292.724609375
1115.1123046875
907.28759765625
639.0380859375
268.24951171875
42.1142578125
8.23974609375
19.22607421875
28.38134765625
26.55029296875
30.21240234375
21.97265625
1.8310546875
10.07080078125
-14.6484375
-32.04345703125
-57.67822265625
-46.69189453125
-50.35400390625
-64.0869140625
-61.34033203125
-81.48193359375
-96.13037109375
-112.60986328125
-76.904296875
-69.580078125
-87.890625
-75.0732421875
-59.50927734375
-77.81982421875
-92.46826171875
-84.228515625
-114.44091796875
-113.525390625
-88.80615234375
-75.0732421875
-80.56640625
-75.0732421875
-74.15771484375
-61.34033203125
-71.4111328125
-73.2421875
-61.34033203125
-64.0869140625
-74.15771484375
-68.66455078125
-62.255859375
-43.02978515625
-43.02978515625
-43.02978515625
-45.7763671875
-53.1005859375
-60.4248046875
-53.1005859375
-57.67822265625
-52.18505859375
-34.7900390625
-34.7900390625
-31.1279296875
-22.88818359375
-19.22607421875
-26.55029296875
-15.56396484375
-6.40869140625
-6.40869140625
1.8310546875
7.32421875
10.07080078125
-12.8173828125
5.4931640625
23.8037109375
28.38134765625
33.87451171875
32.04345703125
43.9453125
46.69189453125
48.52294921875
62.255859375
68.66455078125
65.91796875
95.21484375
87.890625
83.31298828125
96.13037109375
103.45458984375
107.11669921875
132.75146484375
152.89306640625
164.794921875
171.20361328125
173.03466796875
184.9365234375
197.75390625
205.078125
192.2607421875
200.50048828125
216.064453125
226.13525390625
239.8681640625
243.5302734375
247.1923828125
260.009765625
269.1650390625
272.8271484375
275.57373046875
277.40478515625
277.40478515625
275.57373046875
275.57373046875
266.41845703125
268.24951171875
267.333984375
259.09423828125
250.8544921875
245.361328125
225.2197265625
202.33154296875
204.16259765625
182.18994140625
166.6259765625
155.6396484375
133.6669921875
131.8359375
113.525390625
84.228515625
69.580078125
47.607421875
32.04345703125
21.97265625
34.7900390625
12.8173828125
1.8310546875
-8.23974609375
-21.05712890625
-22.88818359375
-32.958984375
-40.283203125
-51.26953125
-61.34033203125
-69.580078125
-58.59375
-68.66455078125
-84.228515625
-113.525390625
-122.6806640625
-115.3564453125
-107.11669921875
-88.80615234375
-91.552734375
-95.21484375
-101.62353515625
-105.28564453125
-102.5390625
-100.7080078125
-108.94775390625
-111.6943359375
-109.86328125
-113.525390625
-117.1875
-109.86328125
-121.76513671875
-121.76513671875
-119.93408203125
-115.3564453125
-108.94775390625
-108.0322265625
-114.44091796875
-125.42724609375
-119.0185546875
-119.93408203125
-114.44091796875
-114.44091796875
-117.1875
-116.27197265625
-116.27197265625
-118.10302734375
-125.42724609375
-118.10302734375
-117.1875
-116.27197265625
-116.27197265625
-107.11669921875
-106.201171875
-105.28564453125
-111.6943359375
-110.77880859375
-118.10302734375
-120.849609375
-124.51171875
-121.76513671875
-114.44091796875
-105.28564453125
-103.45458984375
-107.11669921875
-100.7080078125
-95.21484375
-103.45458984375
-118.10302734375
-110.77880859375
-108.0322265625
-110.77880859375
-116.27197265625
-125.42724609375
-115.3564453125
-106.201171875
-132.75146484375
-131.8359375
-125.42724609375
-119.0185546875
-116.27197265625
-123.59619140625
-107.11669921875
-111.6943359375
-124.51171875
-119.0185546875
-123.59619140625
-137.3291015625
-127.25830078125
-131.8359375
-122.6806640625
-114.44091796875
-121.76513671875
-129.08935546875
-132.75146484375
-120.849609375
-123.59619140625
-138.24462890625
-147.39990234375
-129.08935546875
-119.93408203125
-126.3427734375
-119.93408203125
-123.59619140625
-134.58251953125
-133.6669921875
-147.39990234375
-150.146484375
-144.6533203125
-142.822265625
-138.24462890625
-147.39990234375
-144.6533203125
-149.23095703125
-138.24462890625
-138.24462890625
-131.8359375
-136.41357421875
-156.55517578125
-158.38623046875
-148.3154296875
-145.56884765625
-157.470703125
-154.72412109375
-146.484375
-136.41357421875
-146.484375
-140.9912109375
-138.24462890625
-151.06201171875
-144.6533203125
-155.6396484375
-149.23095703125
-134.58251953125
-129.08935546875
-140.07568359375
-143.73779296875
-154.72412109375
-159.3017578125
-162.9638671875
-163.87939453125
-142.822265625
-130.92041015625
-145.56884765625
-147.39990234375
-135.498046875
-130.92041015625
-128.173828125
-124.51171875
-96.13037109375
-102.5390625
-101.62353515625
-98.876953125
-94.29931640625
-95.21484375
-108.0322265625
-108.0322265625
-108.94775390625
-101.62353515625
-91.552734375
-97.96142578125
-103.45458984375
-79.65087890625
-56.7626953125
-53.1005859375
-54.931640625
-51.26953125
-63.17138671875
-77.81982421875
-70.49560546875
-64.0869140625
-84.228515625
-87.890625
-81.48193359375
-97.0458984375
-93.3837890625
-84.228515625
-98.876953125
-99.79248046875
-99.79248046875
-119.93408203125
-132.75146484375
-120.849609375
-142.822265625
-147.39990234375
-145.56884765625
-147.39990234375
-151.9775390625
-155.6396484375
-158.38623046875
-161.1328125
-151.9775390625
-159.3017578125
-161.1328125
-152.89306640625
-160.21728515625
-168.45703125
-167.54150390625
-160.21728515625
-168.45703125
-183.10546875
-178.52783203125
-190.4296875
-237.12158203125
-275.57373046875
-294.7998046875
-269.1650390625
-260.92529296875
-201.416015625
-99.79248046875
23.8037109375
181.2744140625
386.3525390625
596.00830078125
790.10009765625
987.85400390625
1192.93212890625
1325.68359375
1401.67236328125
1481.3232421875
1463.0126953125
1334.8388671875
1165.46630859375
964.9658203125
686.6455078125
315.85693359375
75.0732421875
16.4794921875
12.8173828125
16.4794921875
21.05712890625
24.71923828125
3.662109375
-20.1416015625
-35.70556640625
-21.05712890625
-32.958984375
-42.1142578125
-47.607421875
-45.7763671875
-59.50927734375
-67.7490234375
-77.81982421875
-80.56640625
-88.80615234375
-98.876953125
-115.3564453125
-119.0185546875
-114.44091796875
-100.7080078125
-104.3701171875
-94.29931640625
-97.0458984375
-99.79248046875
-97.0458984375
-110.77880859375
-117.1875
-91.552734375
-95.21484375
-96.13037109375
-105.28564453125
-97.0458984375
-75.0732421875
-77.81982421875
-85.14404296875
-86.0595703125
-90.63720703125
-89.7216796875
-76.904296875
-57.67822265625
-65.91796875
-71.4111328125
-47.607421875
-53.1005859375
-57.67822265625
-53.1005859375
-44.86083984375
-52.18505859375
-45.7763671875
-35.70556640625
-37.53662109375
-35.70556640625
-31.1279296875
-32.04345703125
-22.88818359375
-18.310546875
-11.90185546875
-3.662109375
-2.74658203125
9.1552734375
5.4931640625
9.1552734375
5.4931640625
12.8173828125
27.4658203125
31.1279296875
44.86083984375
47.607421875
48.52294921875
60.4248046875
86.0595703125
86.0595703125
78.7353515625
105.28564453125
97.96142578125
90.63720703125
130.92041015625
140.07568359375
144.6533203125
151.06201171875
163.87939453125
170.2880859375
183.10546875
190.4296875
205.078125
203.2470703125
210.5712890625
216.97998046875
232.5439453125
243.5302734375
237.12158203125
241.69921875
254.5166015625
255.43212890625
263.671875
263.671875
260.009765625
262.75634765625
269.1650390625
258.1787109375
259.09423828125
256.34765625
241.69921875
227.96630859375
221.5576171875
207.82470703125
201.416015625
185.85205078125
169.37255859375
163.87939453125
143.73779296875
115.3564453125
86.0595703125
84.228515625
76.904296875
79.65087890625
63.17138671875
35.70556640625
14.6484375
0
-15.56396484375
-25.634765625
-25.634765625
-36.62109375
-51.26953125
-69.580078125
-76.904296875
-77.81982421875
-83.31298828125
-105.28564453125
-109.86328125
-115.3564453125
-116.27197265625
-112.60986328125
-121.76513671875
-127.25830078125
-136.41357421875
-137.3291015625
-119.0185546875
-123.59619140625
-128.173828125
-129.08935546875
-134.58251953125
-137.3291015625
-149.23095703125
-147.39990234375
-136.41357421875
-133.6669921875
-141.90673828125
-143.73779296875
-141.90673828125
-140.9912109375
-145.56884765625
-137.3291015625
-142.822265625
-153.80859375
-155.6396484375
-140.07568359375
-145.56884765625
-143.73779296875
-146.484375
-148.3154296875
-143.73779296875
-142.822265625
-147.39990234375
-135.498046875
-135.498046875
-151.06201171875
-141.90673828125
-135.498046875
-147.39990234375
-154.72412109375
-143.73779296875
-137.3291015625
-130.0048828125
-131.8359375
-127.25830078125
-134.58251953125
-143.73779296875
-146.484375
-162.9638671875
-140.07568359375
-114.44091796875
-125.42724609375
-118.10302734375
-138.24462890625
-137.3291015625
-149.23095703125
-138.24462890625
-136.41357421875
-146.484375
-120.849609375
-127.25830078125
-129.08935546875
-137.3291015625
-144.6533203125
-137.3291015625
-132.75146484375
-127.25830078125
-126.3427734375
-130.0048828125
-130.0048828125
-130.92041015625
-136.41357421875
-141.90673828125
-143.73779296875
-135.498046875
-130.92041015625
-128.173828125
-142.822265625
-140.9912109375
-141.90673828125
-138.24462890625
-140.07568359375
-143.73779296875
-144.6533203125
-156.55517578125
-166.6259765625
-134.58251953125
-142.822265625
-140.07568359375
-132.75146484375
-136.41357421875
-140.07568359375
-141.90673828125
-147.39990234375
-155.6396484375
-147.39990234375
-153.80859375
-139.16015625
-147.39990234375
-147.39990234375
-147.39990234375
-149.23095703125
-145.56884765625
-148.3154296875
-144.6533203125
-144.6533203125
-150.146484375
-152.89306640625
-143.73779296875
-136.41357421875
-149.23095703125
-147.39990234375
-157.470703125
-161.1328125
-159.3017578125
-146.484375
-148.3154296875
-152.89306640625
-160.21728515625
-160.21728515625
-163.87939453125
-173.9501953125
-144.6533203125
-162.9638671875
-154.72412109375
-147.39990234375
-162.04833984375
-162.04833984375
-159.3017578125
-147.39990234375
-153.80859375
-163.87939453125
-160.21728515625
-162.9638671875
-162.9638671875
-152.89306640625
-151.9775390625
-142.822265625
-136.41357421875
-129.08935546875
-120.849609375
-102.5390625
-95.21484375
-100.7080078125
-103.45458984375
-103.45458984375
-107.11669921875
-106.201171875
-103.45458984375
-101.62353515625
-104.3701171875
-101.62353515625
-92.46826171875
-96.13037109375
-78.7353515625
-72.32666015625
-47.607421875
-43.9453125
-45.7763671875
-65.91796875
-69.580078125
-61.34033203125
-73.2421875
-67.7490234375
-64.0869140625
-76.904296875
-67.7490234375
-84.228515625
-88.80615234375
-100.7080078125
-105.28564453125
-106.201171875
-115.3564453125
-121.76513671875
-130.0048828125
-147.39990234375
-150.146484375
-151.9775390625
-148.3154296875
-156.55517578125
-174.86572265625
-179.443359375
-167.54150390625
-168.45703125
-160.21728515625
-154.72412109375
-151.9775390625
-159.3017578125
-170.2880859375
-165.71044921875
-162.04833984375
-168.45703125
-176.69677734375
-168.45703125
-181.2744140625
-213.31787109375
-252.685546875
-298.4619140625
-296.630859375
-273.74267578125
-252.685546875
-204.16259765625
-98.876953125
32.958984375
205.99365234375
430.2978515625
644.53125
849.609375
1040.95458984375
1242.37060546875
1375.1220703125
1464.84375
1506.9580078125
1444.7021484375
1321.10595703125
1150.81787109375
938.41552734375
644.53125
265.5029296875
68.66455078125
38.4521484375
41.19873046875
33.87451171875
33.87451171875
20.1416015625
0.91552734375
-25.634765625
-38.4521484375
-24.71923828125
-35.70556640625
-59.50927734375
-65.91796875
-71.4111328125
-87.890625
-94.29931640625
-107.11669921875
-108.0322265625
-108.0322265625
-110.77880859375
-105.28564453125
-89.7216796875
-100.7080078125
-100.7080078125
-104.3701171875
-106.201171875
-109.86328125
-109.86328125
-100.7080078125
-98.876953125
-99.79248046875
-102.5390625
-100.7080078125
-88.80615234375
-80.56640625
-90.63720703125
-87.890625
-77.81982421875
-83.31298828125
-85.14404296875
-76.904296875
-72.32666015625
-71.4111328125
-75.0732421875
-70.49560546875
-57.67822265625
-67.7490234375
-63.17138671875
-52.18505859375
-48.52294921875
-43.9453125
-35.70556640625
-36.62109375
-32.958984375
-30.21240234375
-24.71923828125
-24.71923828125
-20.1416015625
-17.39501953125
-9.1552734375
-9.1552734375
-9.1552734375
-1.8310546875
4.57763671875
17.39501953125
21.05712890625
10.07080078125
14.6484375
32.958984375
43.02978515625
54.01611328125
56.7626953125
65.91796875
66.83349609375
76.904296875
85.14404296875
86.0595703125
98.876953125
108.0322265625
127.25830078125
124.51171875
120.849609375
156.55517578125
159.3017578125
169.37255859375
181.2744140625
187.68310546875
191.34521484375
193.17626953125
205.99365234375
227.05078125
216.064453125
233.45947265625
243.5302734375
237.12158203125
252.685546875
253.60107421875
254.5166015625
247.1923828125
243.5302734375
278.3203125
278.3203125
274.658203125
280.1513671875
273.74267578125
259.09423828125
248.10791015625
237.12158203125
216.97998046875
203.2470703125
215.14892578125
198.66943359375
181.2744140625
164.794921875
151.06201171875
140.9912109375
123.59619140625
97.96142578125
82.3974609375
81.48193359375
72.32666015625
46.69189453125
28.38134765625
17.39501953125
10.07080078125
-12.8173828125
-28.38134765625
-42.1142578125
-53.1005859375
-61.34033203125
-65.91796875
-75.0732421875
-78.7353515625
-88.80615234375
-100.7080078125
-114.44091796875
-127.25830078125
-110.77880859375
-119.0185546875
-102.5390625
-116.27197265625
-121.76513671875
-133.6669921875
-135.498046875
-132.75146484375
-135.498046875
-115.3564453125
-119.93408203125
-124.51171875
-130.92041015625
-127.25830078125
-131.8359375
-134.58251953125
-132.75146484375
-135.498046875
-127.25830078125
-127.25830078125
-130.0048828125
-130.0048828125
-130.92041015625
-139.16015625
-142.822265625
-142.822265625
-144.6533203125
-138.24462890625
-131.8359375
-134.58251953125
-141.90673828125
-135.498046875
-141.90673828125
-138.24462890625
-129.08935546875
-135.498046875
-132.75146484375
-130.92041015625
-139.16015625
-151.06201171875
-132.75146484375
-141.90673828125
-119.93408203125
-133.6669921875
-123.59619140625
-105.28564453125
-123.59619140625
-127.25830078125
-124.51171875
-130.0048828125
-122.6806640625
-123.59619140625
-131.8359375
-125.42724609375
-124.51171875
-120.849609375
-122.6806640625
-123.59619140625
-132.75146484375
-135.498046875
-133.6669921875
-131.8359375
-122.6806640625
-123.59619140625
-132.75146484375
-137.3291015625
-130.0048828125
-119.0185546875
-115.3564453125
-123.59619140625
-128.173828125
-141.90673828125
-157.470703125
-125.42724609375
-124.51171875
-123.59619140625
-115.3564453125
-122.6806640625
-136.41357421875
-137.3291015625
-137.3291015625
-142.822265625
-138.24462890625
-135.498046875
-127.25830078125
-127.25830078125
-133.6669921875
-135.498046875
-140.9912109375
-139.16015625
-143.73779296875
-141.90673828125
-140.9912109375
-144.6533203125
-143.73779296875
-136.41357421875
-133.6669921875
-141.90673828125
-143.73779296875
-141.90673828125
-143.73779296875
-144.6533203125
-140.9912109375
-142.822265625
-152.89306640625
-150.146484375
-152.89306640625
-150.146484375
-152.89306640625
-149.23095703125
-149.23095703125
-157.470703125
-173.9501953125
-140.07568359375
-141.90673828125
-150.146484375
-146.484375
-150.146484375
-147.39990234375
-139.16015625
-140.9912109375
-150.146484375
-161.1328125
-174.86572265625
-174.86572265625
-165.71044921875
-147.39990234375
-140.9912109375
-139.16015625
-143.73779296875
-140.9912109375
-150.146484375
-149.23095703125
-152.89306640625
-152.89306640625
-151.06201171875
-147.39990234375
-140.07568359375
-142.822265625
-151.9775390625
-158.38623046875
-158.38623046875
-166.6259765625
-176.69677734375
-160.21728515625
-162.04833984375
-153.80859375
-160.21728515625
-139.16015625
-140.07568359375
-148.3154296875
-164.794921875
-162.9638671875
-151.9775390625
-151.9775390625
-147.39990234375
-141.90673828125
-157.470703125
-173.03466796875
-168.45703125
-171.20361328125
-166.6259765625
-152.89306640625
-151.06201171875
-148.3154296875
-140.9912109375
-132.75146484375
-134.58251953125
-132.75146484375
-129.08935546875
-121.76513671875
-101.62353515625
-101.62353515625
-112.60986328125
-113.525390625
-108.0322265625
-104.3701171875
-102.5390625
-103.45458984375
-95.21484375
-91.552734375
-84.228515625
-82.3974609375
-86.0595703125
-74.15771484375
-65.91796875
-61.34033203125
-69.580078125
-75.98876953125
-89.7216796875
-80.56640625
-77.81982421875
-87.890625
-91.552734375
-94.29931640625
-97.96142578125
-96.13037109375
-96.13037109375
-98.876953125
-103.45458984375
-115.3564453125
-127.25830078125
-134.58251953125
-126.3427734375
-147.39990234375
-148.3154296875
-163.87939453125
-166.6259765625
-155.6396484375
-143.73779296875
-154.72412109375
-165.71044921875
-167.54150390625
-166.6259765625
-151.9775390625
-140.9912109375
-149.23095703125
-157.470703125
-153.80859375
-153.80859375
-172.119140625
-191.34521484375
-175.78125
-207.82470703125
-239.8681640625
-271.91162109375
-285.64453125
-272.8271484375
-237.12158203125
-171.20361328125
-69.580078125
61.34033203125
252.685546875
473.32763671875
681.15234375
894.47021484375
1085.8154296875
1276.2451171875
1394.34814453125
1482.23876953125
1501.46484375
1410.82763671875
1286.31591796875
1108.70361328125
892.63916015625
581.35986328125
204.16259765625
52.18505859375
35.70556640625
42.1142578125
38.4521484375
60.4248046875
41.19873046875
6.40869140625
-10.986328125
-19.22607421875
-28.38134765625
-43.9453125
-49.4384765625
-44.86083984375
-54.01611328125
-68.66455078125
-85.14404296875
-86.97509765625
-94.29931640625
-94.29931640625
-101.62353515625
-101.62353515625
-110.77880859375
-116.27197265625
-119.93408203125
-114.44091796875
-101.62353515625
-76.904296875
-81.48193359375
-92.46826171875
-108.94775390625
-99.79248046875
-97.0458984375
-86.0595703125
-82.3974609375
-92.46826171875
-84.228515625
-86.0595703125
-85.14404296875
-87.890625
-78.7353515625
-74.15771484375
-80.56640625
-75.0732421875
-75.98876953125
-62.255859375
-58.59375
-59.50927734375
-51.26953125
-53.1005859375
-52.18505859375
-49.4384765625
-33.87451171875
-26.55029296875
-27.4658203125
-18.310546875
-20.1416015625
-21.97265625
-31.1279296875
-27.4658203125
-13.73291015625
-28.38134765625
-1.8310546875
-0.91552734375
13.73291015625
18.310546875
13.73291015625
24.71923828125
24.71923828125
26.55029296875
34.7900390625
59.50927734375
65.00244140625
54.931640625
65.91796875
74.15771484375
83.31298828125
103.45458984375
99.79248046875
114.44091796875
116.27197265625
115.3564453125
130.92041015625
130.0048828125
152.89306640625
175.78125
189.51416015625
190.4296875
194.091796875
195.00732421875
200.50048828125
215.14892578125
213.31787109375
227.05078125
246.27685546875
239.8681640625
253.60107421875
244.44580078125
236.2060546875
255.43212890625
262.75634765625
270.08056640625
265.5029296875
263.671875
259.09423828125
263.671875
263.671875
260.92529296875
250.8544921875
241.69921875
240.78369140625
229.79736328125
230.712890625
211.48681640625
182.18994140625
158.38623046875
136.41357421875
122.6806640625
123.59619140625
106.201171875
76.904296875
82.3974609375
66.83349609375
47.607421875
39.36767578125
15.56396484375
13.73291015625
-6.40869140625
-20.1416015625
-39.36767578125
-34.7900390625
-52.18505859375
-78.7353515625
-87.890625
-86.97509765625
-75.98876953125
-79.65087890625
-93.3837890625
-90.63720703125
-105.28564453125
-119.0185546875
-119.0185546875
-116.27197265625
-129.08935546875
-118.10302734375
-121.76513671875
-125.42724609375
-128.173828125
-133.6669921875
-146.484375
-158.38623046875
-156.55517578125
-134.58251953125
-128.173828125
-121.76513671875
-119.93408203125
-119.0185546875
-120.849609375
-133.6669921875
-136.41357421875
-157.470703125
-135.498046875
-140.9912109375
-130.92041015625
-133.6669921875
-126.3427734375
-136.41357421875
-143.73779296875
-140.9912109375
-127.25830078125
-117.1875
-110.77880859375
-121.76513671875
-122.6806640625
-129.08935546875
-139.16015625
-146.484375
-152.89306640625
-157.470703125
-150.146484375
-142.822265625
-148.3154296875
-151.9775390625
-163.87939453125
-171.20361328125
-149.23095703125
-108.94775390625
-121.76513671875
-131.8359375
-149.23095703125
-129.08935546875
-133.6669921875
-152.89306640625
-146.484375
-131.8359375
-134.58251953125
-145.56884765625
-133.6669921875
-129.08935546875
-131.8359375
-116.27197265625
-118.10302734375
-136.41357421875
-141.90673828125
-134.58251953125
-126.3427734375
-133.6669921875
-122.6806640625
-92.46826171875
-105.28564453125
-103.45458984375
-80.56640625
-95.21484375
-107.11669921875
-91.552734375
-105.28564453125
-113.525390625
-132.75146484375
-167.54150390625
-210.5712890625
-206.9091796875
-189.51416015625
-177.6123046875
-121.76513671875
-118.10302734375
-164.794921875
-182.18994140625
-183.10546875
-187.68310546875
-135.498046875
-111.6943359375
-127.25830078125
-143.73779296875
-122.6806640625
-114.44091796875
-135.498046875
-151.9775390625
-170.2880859375
-162.9638671875
-151.06201171875
-130.0048828125
-133.6669921875
-160.21728515625
-186.767578125
-194.091796875
-172.119140625
-135.498046875
-89.7216796875
-120.849609375
-112.60986328125
-100.7080078125
-108.94775390625
-116.27197265625
-140.07568359375
-143.73779296875
-139.16015625
-129.08935546875
-128.173828125
-123.59619140625
-102.5390625
-113.525390625
-145.56884765625
-136.41357421875
-159.3017578125
-165.71044921875
-142.822265625
-129.08935546875
-122.6806640625
-123.59619140625
-147.39990234375
-187.68310546875
-190.4296875
-156.55517578125
-133.6669921875
-146.484375
-173.9501953125
-162.9638671875
-165.71044921875
-154.72412109375
-139.16015625
-130.0048828125
-151.9775390625
-162.04833984375
-135.498046875
-137.3291015625
-145.56884765625
-153.80859375
-181.2744140625
-192.2607421875
-184.9365234375
-180.35888671875
-160.21728515625
-98.876953125
-83.31298828125
-107.11669921875
-118.10302734375
-136.41357421875
-152.89306640625
-132.75146484375
-140.07568359375
-142.822265625
-140.9912109375
-138.24462890625
-138.24462890625
-143.73779296875
-138.24462890625
-149.23095703125
-160.21728515625
-157.470703125
-119.0185546875
-109.86328125
-150.146484375
-147.39990234375
-131.8359375
-154.72412109375
-170.2880859375
-185.85205078125
-176.69677734375
-159.3017578125
-166.6259765625
-146.484375
-149.23095703125
-125.42724609375
-133.6669921875
-150.146484375
-159.3017578125
-146.484375
-153.80859375
-137.3291015625
-122.6806640625
-143.73779296875
-126.3427734375
-135.498046875
-112.60986328125
-112.60986328125
-126.3427734375
-135.498046875
-122.6806640625
-129.08935546875
-142.822265625
-143.73779296875
-144.6533203125
-126.3427734375
-97.96142578125
-96.13037109375
-69.580078125
-50.35400390625
-54.01611328125
-59.50927734375
-41.19873046875
-65.91796875
-82.3974609375
-86.0595703125
-100.7080078125
-94.29931640625
-86.97509765625
-99.79248046875
-71.4111328125
-61.34033203125
-75.98876953125
-76.904296875
-69.580078125
-92.46826171875
-108.0322265625
-138.24462890625
-161.1328125
-124.51171875
-130.0048828125
-131.8359375
-116.27197265625
-117.1875
-140.07568359375
-153.80859375
-157.470703125
-161.1328125
-167.54150390625
-185.85205078125
-192.2607421875
-190.4296875
-163.87939453125
-161.1328125
-173.9501953125
-160.21728515625
-155.6396484375
-156.55517578125
-204.16259765625
-237.12158203125
-261.8408203125
-246.27685546875
-218.81103515625
-216.97998046875
-178.52783203125
-65.00244140625
60.4248046875
186.767578125
430.2978515625
635.3759765625
781.8603515625
974.12109375
1170.95947265625
1300.96435546875
1377.86865234375
1420.8984375
1346.74072265625
1235.04638671875
1131.591796875
918.27392578125
613.4033203125
251.77001953125
27.4658203125
-18.310546875
-1.8310546875
5.4931640625
32.958984375
35.70556640625
14.6484375
2.74658203125
-14.6484375
-37.53662109375
-71.4111328125
-75.98876953125
-76.904296875
-70.49560546875
-50.35400390625
-64.0869140625
-75.98876953125
-95.21484375
-105.28564453125
-108.0322265625
-114.44091796875
-130.92041015625
-106.201171875
-94.29931640625
-108.0322265625
-102.5390625
-99.79248046875
-82.3974609375
-56.7626953125
-63.17138671875
-69.580078125
-55.84716796875
-45.7763671875
-57.67822265625
-82.3974609375
-75.98876953125
-64.0869140625
-77.81982421875
-97.96142578125
-69.580078125
-52.18505859375
-65.91796875
-57.67822265625
-51.26953125
-55.84716796875
-57.67822265625
-44.86083984375
-46.69189453125
-30.21240234375
-35.70556640625
-56.7626953125
-51.26953125
-47.607421875
-46.69189453125
-30.21240234375
-27.4658203125
-34.7900390625
-5.4931640625
-7.32421875
-15.56396484375
10.07080078125
14.6484375
-4.57763671875
10.986328125
26.55029296875
14.6484375
31.1279296875
34.7900390625
47.607421875
49.4384765625
35.70556640625
35.70556640625
39.36767578125
40.283203125
67.7490234375
75.0732421875
62.255859375
60.4248046875
82.3974609375
116.27197265625
137.3291015625
131.8359375
130.92041015625
161.1328125
173.03466796875
178.52783203125
199.5849609375
214.2333984375
207.82470703125
217.8955078125
226.13525390625
191.34521484375
167.54150390625
181.2744140625
208.740234375
222.47314453125
212.40234375
227.05078125
258.1787109375
303.955078125
314.02587890625
301.20849609375
283.8134765625
294.7998046875
301.20849609375
288.39111328125
278.3203125
277.40478515625
272.8271484375
259.09423828125
249.93896484375
220.64208984375
221.5576171875
184.02099609375
184.9365234375
177.6123046875
153.80859375
162.9638671875
155.6396484375
126.3427734375
108.94775390625
78.7353515625
64.0869140625
32.04345703125
24.71923828125
3.662109375
45.7763671875
44.86083984375
-13.73291015625
-39.36767578125
-23.8037109375
-6.40869140625
4.57763671875
-23.8037109375
-79.65087890625
-106.201171875
-120.849609375
-87.890625
-54.931640625
-77.81982421875
-74.15771484375
-65.00244140625
-84.228515625
-97.96142578125
-97.96142578125
-113.525390625
-124.51171875
-130.92041015625
-88.80615234375
-73.2421875
-97.96142578125
-131.8359375
-154.72412109375
-162.9638671875
-153.80859375
-157.470703125
-148.3154296875
-115.3564453125
-77.81982421875
-68.66455078125
-80.56640625
-88.80615234375
-87.890625
-97.0458984375
-116.27197265625
-114.44091796875
-112.60986328125
-104.3701171875
-94.29931640625
-103.45458984375
-117.1875
-146.484375
-138.24462890625
-129.08935546875
-106.201171875
-86.0595703125
-87.890625
-93.3837890625
-81.48193359375
-92.46826171875
-98.876953125
-101.62353515625
-92.46826171875
-70.49560546875
-100.7080078125
-127.25830078125
-105.28564453125
-88.80615234375
-101.62353515625
-82.3974609375
-107.11669921875
-140.9912109375
-118.10302734375
-115.3564453125
-116.27197265625
-156.55517578125
-184.02099609375
-192.2607421875
-131.8359375
-107.11669921875
-115.3564453125
-136.41357421875
-102.5390625
-54.01611328125
-44.86083984375
-86.97509765625
-113.525390625
-88.80615234375
-67.7490234375
-55.84716796875
-88.80615234375
-102.5390625
-71.4111328125
-65.00244140625
-77.81982421875
-108.94775390625
-112.60986328125
-120.849609375
-111.6943359375
-102.5390625
-126.3427734375
-145.56884765625
-155.6396484375
-143.73779296875
-131.8359375
-137.3291015625
-137.3291015625
-132.75146484375
-118.10302734375
-93.3837890625
-82.3974609375
-109.86328125
-141.90673828125
-130.92041015625
-132.75146484375
-152.89306640625
-130.0048828125
-101.62353515625
-126.3427734375
-108.94775390625
-90.63720703125
-104.3701171875
-106.201171875
-112.60986328125
-126.3427734375
-139.16015625
-142.822265625
-165.71044921875
-169.37255859375
-130.0048828125
-138.24462890625
-167.54150390625
-190.4296875
-194.091796875
-162.04833984375
-118.10302734375
-108.0322265625
-136.41357421875
-156.55517578125
-145.56884765625
-117.1875
-94.29931640625
-118.10302734375
-137.3291015625
-144.6533203125
-151.06201171875
-98.876953125
-62.255859375
-81.48193359375
-103.45458984375
-110.77880859375
-136.41357421875
-173.03466796875
-180.35888671875
-172.119140625
-183.10546875
-173.9501953125
-158.38623046875
-121.76513671875
-114.44091796875
-134.58251953125
-130.0048828125
-125.42724609375
-140.9912109375
-140.07568359375
-131.8359375
-115.3564453125
-86.97509765625
-106.201171875
-124.51171875
-136.41357421875
-143.73779296875
-149.23095703125
-140.07568359375
-121.76513671875
-127.25830078125
-135.498046875
-161.1328125
-188.5986328125
-184.02099609375
-167.54150390625
-109.86328125
-108.0322265625
-126.3427734375
-137.3291015625
-111.6943359375
-106.201171875
-75.98876953125
-75.98876953125
-73.2421875
-80.56640625
-80.56640625
-91.552734375
-95.21484375
-97.96142578125
-104.3701171875
-114.44091796875
-105.28564453125
-86.0595703125
-77.81982421875
-58.59375
-67.7490234375
-87.890625
-79.65087890625
-34.7900390625
-38.4521484375
-65.00244140625
-80.56640625
-90.63720703125
-97.0458984375
-95.21484375
-107.11669921875
-90.63720703125
-83.31298828125
-89.7216796875
-97.96142578125
-98.876953125
-105.28564453125
-104.3701171875
-110.77880859375
-97.96142578125
-106.201171875
-120.849609375
-135.498046875
-160.21728515625
-166.6259765625
-128.173828125
-107.11669921875
-130.92041015625
-149.23095703125
-151.9775390625
-135.498046875
-110.77880859375
-115.3564453125
-131.8359375
-137.3291015625
-139.16015625
-140.9912109375
-166.6259765625
-188.5986328125
-254.5166015625
-309.4482421875
-292.05322265625
-239.8681640625
-192.2607421875
-109.86328125
-6.40869140625
111.6943359375
309.4482421875
539.24560546875
723.2666015625
916.44287109375
1110.53466796875
1270.751953125
1361.38916015625
1422.7294921875
1415.4052734375
1316.5283203125
1250.6103515625
1088.56201171875
826.72119140625
510.8642578125
168.45703125
53.1005859375
12.8173828125
17.39501953125
10.986328125
-1.8310546875
-1.8310546875
12.8173828125
22.88818359375
11.90185546875
-16.4794921875
-21.97265625
-19.22607421875
-21.05712890625
-44.86083984375
-45.7763671875
-56.7626953125
-64.0869140625
-80.56640625
-90.63720703125
-99.79248046875
-95.21484375
-85.14404296875
-87.890625
-100.7080078125
-96.13037109375
-75.98876953125
-70.49560546875
-72.32666015625
-58.59375
-58.59375
-66.83349609375
-65.00244140625
-44.86083984375
-36.62109375
-50.35400390625
-51.26953125
-65.00244140625
-77.81982421875
-53.1005859375
-43.02978515625
-32.958984375
-41.19873046875
-65.91796875
-80.56640625
-79.65087890625
-32.958984375
-24.71923828125
-18.310546875
-20.1416015625
-5.4931640625
0
-14.6484375
-20.1416015625
-6.40869140625
0
-10.07080078125
-7.32421875
-11.90185546875
-20.1416015625
-15.56396484375
-2.74658203125
19.22607421875
29.296875
26.55029296875
21.97265625
12.8173828125
25.634765625
56.7626953125
54.931640625
42.1142578125
59.50927734375
86.97509765625
96.13037109375
78.7353515625
77.81982421875
84.228515625
65.91796875
92.46826171875
111.6943359375
158.38623046875
149.23095703125
184.02099609375
214.2333984375
201.416015625
201.416015625
206.9091796875
211.48681640625
225.2197265625
237.12158203125
237.12158203125
215.14892578125
213.31787109375
200.50048828125
206.9091796875
259.09423828125
306.70166015625
306.70166015625
289.306640625
282.89794921875
280.1513671875
289.306640625
279.23583984375
263.671875
234.375
233.45947265625
278.3203125
296.630859375
274.658203125
259.09423828125
243.5302734375
218.81103515625
221.5576171875
229.79736328125
176.69677734375
165.71044921875
162.9638671875
157.470703125
141.90673828125
133.6669921875
104.3701171875
86.97509765625
81.48193359375
63.17138671875
35.70556640625
24.71923828125
3.662109375
-53.1005859375
-58.59375
-40.283203125
-5.4931640625
0.91552734375
-17.39501953125
-77.81982421875
-133.6669921875
-119.93408203125
-61.34033203125
-69.580078125
-71.4111328125
-79.65087890625
-88.80615234375
-135.498046875
-117.1875
-110.77880859375
-81.48193359375
-86.97509765625
-98.876953125
-100.7080078125
-98.876953125
-123.59619140625
-140.07568359375
-150.146484375
-154.72412109375
-148.3154296875
-128.173828125
-130.92041015625
-140.9912109375
-116.27197265625
-109.86328125
-152.89306640625
-202.33154296875
-209.65576171875
-170.2880859375
-110.77880859375
-86.0595703125
-113.525390625
-123.59619140625
-126.3427734375
-133.6669921875
-129.08935546875
-140.9912109375
-166.6259765625
-161.1328125
-130.92041015625
-98.876953125
-91.552734375
-97.0458984375
-98.876953125
-108.94775390625
-111.6943359375
-111.6943359375
-114.44091796875
-126.3427734375
-130.92041015625
-97.0458984375
-78.7353515625
-108.0322265625
-171.20361328125
-205.078125
-201.416015625
-112.60986328125
-71.4111328125
-102.5390625
-96.13037109375
-104.3701171875
-116.27197265625
-139.16015625
-120.849609375
-108.94775390625
-106.201171875
-134.58251953125
-157.470703125
-160.21728515625
-130.92041015625
-122.6806640625
-127.25830078125
-132.75146484375
-121.76513671875
-119.93408203125
-144.6533203125
-151.06201171875
-163.87939453125
-149.23095703125
-138.24462890625
-162.04833984375
-175.78125
-158.38623046875
-147.39990234375
-142.822265625
-158.38623046875
-162.9638671875
-130.92041015625
-102.5390625
-86.0595703125
-99.79248046875
-103.45458984375
-101.62353515625
-120.849609375
-129.08935546875
-132.75146484375
-130.92041015625
-146.484375
-153.80859375
-145.56884765625
-143.73779296875
-161.1328125
-135.498046875
-144.6533203125
-150.146484375
-138.24462890625
-151.9775390625
-134.58251953125
-164.794921875
-149.23095703125
-150.146484375
-156.55517578125
-150.146484375
-180.35888671875
-194.091796875
-162.04833984375
-162.04833984375
-167.54150390625
-162.9638671875
-144.6533203125
-157.470703125
-163.87939453125
-173.03466796875
-180.35888671875
-186.767578125
-193.17626953125
-168.45703125
-125.42724609375
-151.06201171875
-151.06201171875
-148.3154296875
-160.21728515625
-160.21728515625
-166.6259765625
-169.37255859375
-151.9775390625
-140.9912109375
-172.119140625
-210.5712890625
-189.51416015625
-146.484375
-140.07568359375
-162.04833984375
-156.55517578125
-152.89306640625
-164.794921875
-182.18994140625
-196.83837890625
-174.86572265625
-169.37255859375
-166.6259765625
-171.20361328125
-152.89306640625
-160.21728515625
-159.3017578125
-160.21728515625
-154.72412109375
-167.54150390625
-182.18994140625
-191.34521484375
-202.33154296875
-210.5712890625
-248.10791015625
-281.06689453125
-235.29052734375
-185.85205078125
-88.80615234375
-52.18505859375
-87.890625
-118.10302734375
-130.0048828125
-128.173828125
-146.484375
-154.72412109375
-170.2880859375
-186.767578125
-165.71044921875
-167.54150390625
-142.822265625
-131.8359375
-127.25830078125
-132.75146484375
-119.93408203125
-114.44091796875
-118.10302734375
-160.21728515625
-150.146484375
-108.94775390625
-135.498046875
-119.0185546875
-134.58251953125
-134.58251953125
-119.93408203125
-99.79248046875
-92.46826171875
-79.65087890625
-69.580078125
-81.48193359375
-67.7490234375
-66.83349609375
-72.32666015625
-71.4111328125
-83.31298828125
-82.3974609375
-95.21484375
-99.79248046875
-114.44091796875
-108.94775390625
-108.94775390625
-104.3701171875
-108.94775390625
-124.51171875
-124.51171875
-139.16015625
-149.23095703125
-143.73779296875
-141.90673828125
-144.6533203125
-156.55517578125
-182.18994140625
-177.6123046875
-161.1328125
-164.794921875
-170.2880859375
-168.45703125
-162.9638671875
-162.9638671875
-153.80859375
-155.6396484375
-165.71044921875
-177.6123046875
-190.4296875
-187.68310546875
-183.10546875
-181.2744140625
-230.712890625
-265.5029296875
-304.87060546875
-299.37744140625
-263.671875
-217.8955078125
-141.90673828125
-21.05712890625
104.3701171875
280.1513671875
492.5537109375
701.2939453125
932.0068359375
1117.85888671875
1309.2041015625
1425.47607421875
1494.140625
1522.52197265625
1422.7294921875
1273.49853515625
1106.87255859375
866.0888671875
538.330078125
189.51416015625
59.50927734375
43.02978515625
24.71923828125
26.55029296875
44.86083984375
18.310546875
7.32421875
-7.32421875
-13.73291015625
-22.88818359375
-41.19873046875
-62.255859375
-70.49560546875
-64.0869140625
-71.4111328125
-87.890625
-112.60986328125
-121.76513671875
-132.75146484375
-123.59619140625
-126.3427734375
-109.86328125
-97.96142578125
-96.13037109375
-84.228515625
-82.3974609375
-101.62353515625
-102.5390625
-102.5390625
-110.77880859375
-96.13037109375
-97.96142578125
-101.62353515625
-108.94775390625
-86.0595703125
-69.580078125
-61.34033203125
-54.931640625
-60.4248046875
-75.0732421875
-81.48193359375
-86.97509765625
-91.552734375
-77.81982421875
-72.32666015625
-47.607421875
-43.02978515625
-58.59375
-61.34033203125
-37.53662109375
-45.7763671875
-48.52294921875
-35.70556640625
-23.8037109375
-26.55029296875
-33.87451171875
-24.71923828125
-19.22607421875
-16.4794921875
-2.74658203125
13.73291015625
14.6484375
5.4931640625
-3.662109375
-5.4931640625
21.97265625
57.67822265625
52.18505859375
55.84716796875
34.7900390625
33.87451171875
38.4521484375
70.49560546875
91.552734375
90.63720703125
101.62353515625
93.3837890625
90.63720703125
100.7080078125
142.822265625
159.3017578125
155.6396484375
159.3017578125
158.38623046875
162.9638671875
170.2880859375
202.33154296875
214.2333984375
212.40234375
218.81103515625
217.8955078125
218.81103515625
258.1787109375
263.671875
268.24951171875
266.41845703125
258.1787109375
265.5029296875
281.982421875
292.05322265625
281.06689453125
298.4619140625
295.71533203125
300.29296875
297.54638671875
287.4755859375
297.54638671875
268.24951171875
247.1923828125
260.009765625
248.10791015625
235.29052734375
224.30419921875
200.50048828125
182.18994140625
144.6533203125
122.6806640625
126.3427734375
130.0048828125
106.201171875
93.3837890625
74.15771484375
60.4248046875
45.7763671875
-3.662109375
-15.56396484375
-4.57763671875
-8.23974609375
-39.36767578125
-46.69189453125
-43.9453125
-60.4248046875
-81.48193359375
-108.94775390625
-113.525390625
-114.44091796875
-119.93408203125
-101.62353515625
-102.5390625
-112.60986328125
-85.14404296875
-118.10302734375
-130.0048828125
-132.75146484375
-151.9775390625
-166.6259765625
-146.484375
-119.93408203125
-128.173828125
-140.9912109375
-151.06201171875
-136.41357421875
-140.07568359375
-132.75146484375
-125.42724609375
-139.16015625
-134.58251953125
-136.41357421875
-120.849609375
-127.25830078125
-142.822265625
-142.822265625
-143.73779296875
-169.37255859375
-173.9501953125
-105.28564453125
-130.0048828125
-128.173828125
-116.27197265625
-113.525390625
-138.24462890625
-131.8359375
-118.10302734375
-147.39990234375
-154.72412109375
-157.470703125
-154.72412109375
-127.25830078125
-139.16015625
-151.9775390625
-170.2880859375
-151.9775390625
-115.3564453125
-135.498046875
-143.73779296875
-123.59619140625
-120.849609375
-127.25830078125
-133.6669921875
-142.822265625
-125.42724609375
-124.51171875
-127.25830078125
-140.9912109375
-131.8359375
-106.201171875
-121.76513671875
-106.201171875
-119.0185546875
-120.849609375
-133.6669921875
-130.0048828125
-144.6533203125
-157.470703125
-162.04833984375
-157.470703125
-140.07568359375
-122.6806640625
-127.25830078125
-130.92041015625
-138.24462890625
-146.484375
-149.23095703125
-148.3154296875
-136.41357421875
-165.71044921875
-184.9365234375
-165.71044921875
-138.24462890625
-162.9638671875
-178.52783203125
-161.1328125
-149.23095703125
-150.146484375
-140.9912109375
-140.9912109375
-126.3427734375
-119.93408203125
-134.58251953125
-138.24462890625
-151.06201171875
-153.80859375
-143.73779296875
-140.9912109375
-125.42724609375
-132.75146484375
-152.89306640625
-155.6396484375
-163.87939453125
-175.78125
-188.5986328125
-168.45703125
-171.20361328125
-173.03466796875
-173.03466796875
-163.87939453125
-162.04833984375
-158.38623046875
-141.90673828125
-171.20361328125
-167.54150390625
-172.119140625
-177.6123046875
-175.78125
-200.50048828125
-180.35888671875
-165.71044921875
-170.2880859375
-194.091796875
-204.16259765625
-171.20361328125
-180.35888671875
-175.78125
-187.68310546875
-191.34521484375
-178.52783203125
-151.9775390625
-137.3291015625
-149.23095703125
-160.21728515625
-164.794921875
-167.54150390625
-169.37255859375
-153.80859375
-158.38623046875
-173.03466796875
-175.78125
-172.119140625
-169.37255859375
-173.9501953125
-175.78125
-179.443359375
-191.34521484375
-185.85205078125
-177.6123046875
-175.78125
-173.9501953125
-173.03466796875
-179.443359375
-177.6123046875
-188.5986328125
-180.35888671875
-172.119140625
-180.35888671875
-185.85205078125
-194.091796875
-149.23095703125
-169.37255859375
-183.10546875
-175.78125
-166.6259765625
-177.6123046875
-154.72412109375
-167.54150390625
-145.56884765625
-147.39990234375
-144.6533203125
-141.90673828125
-161.1328125
-177.6123046875
-144.6533203125
-109.86328125
-94.29931640625
-89.7216796875
-97.0458984375
-102.5390625
-94.29931640625
-99.79248046875
-79.65087890625
-70.49560546875
-79.65087890625
-88.80615234375
-110.77880859375
-122.6806640625
-130.0048828125
-108.94775390625
-105.28564453125
-112.60986328125
-114.44091796875
-119.0185546875
-110.77880859375
-119.93408203125
-129.08935546875
-139.16015625
-141.90673828125
-158.38623046875
-171.20361328125
-165.71044921875
-163.87939453125
-195.9228515625
-225.2197265625
-193.17626953125
-179.443359375
-182.18994140625
-193.17626953125
-195.00732421875
-197.75390625
-195.00732421875
-185.85205078125
-179.443359375
-193.17626953125
-183.10546875
-168.45703125
-150.146484375
-180.35888671875
-240.78369140625
-245.361328125
-265.5029296875
-296.630859375
-302.1240234375
-292.05322265625
-252.685546875
-162.04833984375
-39.36767578125
120.849609375
335.99853515625
543.8232421875
758.97216796875
966.796875
1165.46630859375
1324.76806640625
1427.30712890625
1512.451171875
1496.88720703125
1387.939453125
1238.70849609375
1056.5185546875
820.3125
433.9599609375
137.3291015625
61.34033203125
53.1005859375
44.86083984375
32.958984375
37.53662109375
13.73291015625
-10.986328125
-21.05712890625
-38.4521484375
-64.0869140625
-63.17138671875
-80.56640625
-88.80615234375
-86.97509765625
-75.98876953125
-75.0732421875
-75.0732421875
-77.81982421875
-89.7216796875
-104.3701171875
-115.3564453125
-117.1875
-99.79248046875
-98.876953125
-99.79248046875
-105.28564453125
-101.62353515625
-119.93408203125
-108.0322265625
-107.11669921875
-113.525390625
-92.46826171875
-88.80615234375
-99.79248046875
-80.56640625
-113.525390625
-90.63720703125
-77.81982421875
-72.32666015625
-77.81982421875
-79.65087890625
-62.255859375
-57.67822265625
-54.931640625
-69.580078125
-62.255859375
-45.7763671875
-41.19873046875
-33.87451171875
-35.70556640625
-18.310546875
-41.19873046875
-10.07080078125
-2.74658203125
-15.56396484375
-24.71923828125
-33.87451171875
-17.39501953125
-0.91552734375
4.57763671875
8.23974609375
26.55029296875
12.8173828125
18.310546875
24.71923828125
15.56396484375
21.05712890625
29.296875
31.1279296875
25.634765625
33.87451171875
61.34033203125
91.552734375
103.45458984375
100.7080078125
101.62353515625
122.6806640625
119.93408203125
124.51171875
117.1875
130.0048828125
158.38623046875
164.794921875
178.52783203125
173.9501953125
176.69677734375
186.767578125
196.83837890625
211.48681640625
233.45947265625
233.45947265625
229.79736328125
241.69921875
236.2060546875
252.685546875
271.91162109375
266.41845703125
265.5029296875
270.08056640625
281.06689453125
283.8134765625
275.57373046875
277.40478515625
293.88427734375
281.982421875
273.74267578125
281.06689453125
277.40478515625
249.0234375
224.30419921875
214.2333984375
230.712890625
243.5302734375
216.064453125
189.51416015625
173.9501953125
153.80859375
136.41357421875
97.96142578125
69.580078125
72.32666015625
28.38134765625
29.296875
26.55029296875
32.04345703125
16.4794921875
0
-14.6484375
-47.607421875
-75.98876953125
-72.32666015625
-78.7353515625
-85.14404296875
-78.7353515625
-98.876953125
-100.7080078125
-105.28564453125
-106.201171875
-109.86328125
-79.65087890625
-88.80615234375
-95.21484375
-95.21484375
-117.1875
-137.3291015625
-152.89306640625
-128.173828125
-136.41357421875
-131.8359375
-103.45458984375
-123.59619140625
-124.51171875
-118.10302734375
-125.42724609375
-126.3427734375
-130.0048828125
-138.24462890625
-144.6533203125
-130.0048828125
-128.173828125
-119.93408203125
-126.3427734375
-108.0322265625
-103.45458984375
-121.76513671875
-128.173828125
-130.92041015625
-120.849609375
-136.41357421875
-131.8359375
-133.6669921875
-142.822265625
-135.498046875
-147.39990234375
-147.39990234375
-141.90673828125
-143.73779296875
-116.27197265625
-139.16015625
-145.56884765625
-156.55517578125
-125.42724609375
-131.8359375
-156.55517578125
-163.87939453125
-148.3154296875
-70.49560546875
-100.7080078125
-95.21484375
-97.96142578125
-96.13037109375
-97.96142578125
-96.13037109375
-103.45458984375
-111.6943359375
-125.42724609375
-126.3427734375
-137.3291015625
-135.498046875
-138.24462890625
-130.0048828125
-121.76513671875
-114.44091796875
-97.0458984375
-113.525390625
-138.24462890625
-125.42724609375
-115.3564453125
-107.11669921875
-108.0322265625
-102.5390625
-119.93408203125
-123.59619140625
-121.76513671875
-114.44091796875
-128.173828125
-119.93408203125
-116.27197265625
-120.849609375
-123.59619140625
-131.8359375
-143.73779296875
-147.39990234375
-130.92041015625
-140.07568359375
-144.6533203125
-144.6533203125
-172.119140625
-139.16015625
-141.90673828125
-144.6533203125
-144.6533203125
-153.80859375
-143.73779296875
-126.3427734375
-161.1328125
-163.87939453125
-147.39990234375
-155.6396484375
-162.9638671875
-149.23095703125
-137.3291015625
-108.94775390625
-100.7080078125
-129.08935546875
-140.07568359375
-154.72412109375
-136.41357421875
-129.08935546875
-145.56884765625
-142.822265625
-137.3291015625
-134.58251953125
-125.42724609375
-141.90673828125
-145.56884765625
-149.23095703125
-140.07568359375
-134.58251953125
-140.07568359375
-147.39990234375
-135.498046875
-140.07568359375
-160.21728515625
-161.1328125
-136.41357421875
-140.9912109375
-144.6533203125
-147.39990234375
-149.23095703125
-140.07568359375
-163.87939453125
-170.2880859375
-179.443359375
-148.3154296875
-145.56884765625
-151.9775390625
-147.39990234375
-162.9638671875
-134.58251953125
-134.58251953125
-145.56884765625
-157.470703125
-181.2744140625
-198.66943359375
-201.416015625
-166.6259765625
-127.25830078125
-110.77880859375
-123.59619140625
-130.0048828125
-148.3154296875
-143.73779296875
-149.23095703125
-158.38623046875
-184.02099609375
-124.51171875
-132.75146484375
-155.6396484375
-160.21728515625
-131.8359375
-124.51171875
-154.72412109375
-159.3017578125
-123.59619140625
-113.525390625
-113.525390625
-115.3564453125
-128.173828125
-105.28564453125
-110.77880859375
-114.44091796875
-111.6943359375
-107.11669921875
-96.13037109375
-100.7080078125
-108.94775390625
-123.59619140625
-105.28564453125
-86.0595703125
-81.48193359375
-80.56640625
-86.97509765625
-80.56640625
-79.65087890625
-81.48193359375
-70.49560546875
-74.15771484375
-55.84716796875
-55.84716796875
-96.13037109375
-122.6806640625
-121.76513671875
-75.0732421875
-61.34033203125
-64.0869140625
-91.552734375
-119.93408203125
-121.76513671875
-110.77880859375
-108.94775390625
-119.0185546875
-121.76513671875
-105.28564453125
-111.6943359375
-123.59619140625
-127.25830078125
-130.92041015625
-132.75146484375
-150.146484375
-151.06201171875
-154.72412109375
-163.87939453125
-157.470703125
-155.6396484375
-142.822265625
-135.498046875
-164.794921875
-159.3017578125
-143.73779296875
-148.3154296875
-155.6396484375
-194.091796875
-256.34765625
-249.93896484375
-261.8408203125
-242.61474609375
-208.740234375
-154.72412109375
-66.83349609375
62.255859375
249.93896484375
455.9326171875
677.490234375
876.15966796875
1074.8291015625
1264.34326171875
1381.53076171875
1453.857421875
1461.181640625
1379.69970703125
1273.49853515625
1120.60546875
892.63916015625
582.275390625
215.14892578125
50.35400390625
19.22607421875
10.07080078125
30.21240234375
43.9453125
31.1279296875
0
-14.6484375
-18.310546875
-42.1142578125
-52.18505859375
-38.4521484375
-45.7763671875
-48.52294921875
-73.2421875
-46.69189453125
-68.66455078125
-60.4248046875
-75.98876953125
-111.6943359375
-92.46826171875
-83.31298828125
-75.0732421875
-83.31298828125
-99.79248046875
-99.79248046875
-79.65087890625
-75.0732421875
-68.66455078125
-69.580078125
-81.48193359375
-73.2421875
-64.0869140625
-69.580078125
-69.580078125
-58.59375
-64.0869140625
-65.91796875
-65.00244140625
-83.31298828125
-62.255859375
-38.4521484375
-54.01611328125
-45.7763671875
-28.38134765625
-50.35400390625
-63.17138671875
-64.0869140625
-54.931640625
-22.88818359375
0
-9.1552734375
-15.56396484375
-26.55029296875
-29.296875
-21.97265625
-12.8173828125
-13.73291015625
-19.22607421875
2.74658203125
28.38134765625
32.958984375
32.958984375
46.69189453125
36.62109375
34.7900390625
46.69189453125
62.255859375
61.34033203125
50.35400390625
75.0732421875
84.228515625
80.56640625
79.65087890625
83.31298828125
83.31298828125
90.63720703125
101.62353515625
119.93408203125
133.6669921875
148.3154296875
158.38623046875
148.3154296875
164.794921875
157.470703125
183.10546875
190.4296875
198.66943359375
182.18994140625
198.66943359375
215.14892578125
232.5439453125
248.10791015625
266.41845703125
266.41845703125
261.8408203125
260.92529296875
261.8408203125
281.06689453125
278.3203125
272.8271484375
274.658203125
279.23583984375
285.64453125
285.64453125
281.06689453125
282.89794921875
271.91162109375
268.24951171875
255.43212890625
238.037109375
227.05078125
213.31787109375
192.2607421875
171.20361328125
151.9775390625
159.3017578125
164.794921875
132.75146484375
99.79248046875
82.3974609375
88.80615234375
66.83349609375
58.59375
40.283203125
33.87451171875
10.986328125
0
-7.32421875
-24.71923828125
-28.38134765625
-34.7900390625
-61.34033203125
-82.3974609375
-84.228515625
-88.80615234375
-99.79248046875
-103.45458984375
-101.62353515625
-109.86328125
-112.60986328125
-97.0458984375
-123.59619140625
-117.1875
-111.6943359375
-94.29931640625
-81.48193359375
-94.29931640625
-105.28564453125
-108.94775390625
-119.0185546875
-119.93408203125
-101.62353515625
-129.08935546875
-135.498046875
-128.173828125
-124.51171875
-118.10302734375
-120.849609375
-134.58251953125
-131.8359375
-129.08935546875
-113.525390625
-116.27197265625
-117.1875
-121.76513671875
-119.93408203125
-122.6806640625
-108.0322265625
-106.201171875
-106.201171875
-104.3701171875
-107.11669921875
-106.201171875
-111.6943359375
-107.11669921875
-108.94775390625
-112.60986328125
-103.45458984375
-116.27197265625
-123.59619140625
-133.6669921875
-136.41357421875
-123.59619140625
-131.8359375
-129.08935546875
-115.3564453125
-100.7080078125
-103.45458984375
-103.45458984375
-92.46826171875
-89.7216796875
-111.6943359375
-121.76513671875
-129.08935546875
-108.94775390625
-89.7216796875
-107.11669921875
-111.6943359375
-110.77880859375
-108.94775390625
-108.0322265625
-97.0458984375
-104.3701171875
-102.5390625
-106.201171875
-109.86328125
-101.62353515625
-102.5390625
-110.77880859375
-107.11669921875
-108.94775390625
-100.7080078125
-97.96142578125
-91.552734375
-100.7080078125
-111.6943359375
-111.6943359375
-118.10302734375
-106.201171875
-104.3701171875
-101.62353515625
-108.0322265625
-115.3564453125
-125.42724609375
-113.525390625
-127.25830078125
-129.08935546875
-134.58251953125
-123.59619140625
-118.10302734375
-126.3427734375
-159.3017578125
-106.201171875
-108.0322265625
-112.60986328125
-118.10302734375
-134.58251953125
-126.3427734375
-120.849609375
-122.6806640625
-132.75146484375
-119.0185546875
-108.0322265625
-127.25830078125
-130.0048828125
-136.41357421875
-116.27197265625
-102.5390625
-116.27197265625
-118.10302734375
-108.94775390625
-113.525390625
-122.6806640625
-128.173828125
-124.51171875
-122.6806640625
-132.75146484375
-130.0048828125
-115.3564453125
-122.6806640625
-134.58251953125
-140.07568359375
-143.73779296875
-139.16015625
-119.0185546875
-119.0185546875
-121.76513671875
-130.92041015625
-119.93408203125
-118.10302734375
-123.59619140625
-111.6943359375
-131.8359375
-131.8359375
-128.173828125
-152.89306640625
-137.3291015625
-130.0048828125
-132.75146484375
-142.822265625
-165.71044921875
-123.59619140625
-125.42724609375
-136.41357421875
-131.8359375
-128.173828125
-140.9912109375
-141.90673828125
-122.6806640625
-130.0048828125
-109.86328125
-101.62353515625
-97.0458984375
-94.29931640625
-86.97509765625
-86.97509765625
-95.21484375
-90.63720703125
-101.62353515625
-113.525390625
-124.51171875
-119.0185546875
-81.48193359375
-66.83349609375
-72.32666015625
-70.49560546875
-65.91796875
-51.26953125
-48.52294921875
-35.70556640625
-38.4521484375
-65.00244140625
-70.49560546875
-75.0732421875
-76.904296875
-52.18505859375
-61.34033203125
-68.66455078125
-66.83349609375
-61.34033203125
-66.83349609375
-78.7353515625
-83.31298828125
-91.552734375
-97.0458984375
-108.94775390625
-129.08935546875
-135.498046875
-123.59619140625
-121.76513671875
-127.25830078125
-134.58251953125
-130.92041015625
-130.0048828125
-128.173828125
-133.6669921875
-134.58251953125
-130.0048828125
-129.08935546875
-122.6806640625
-108.0322265625
-125.42724609375
-132.75146484375
-125.42724609375
-146.484375
-172.119140625
-202.33154296875
-241.69921875
-255.43212890625
-225.2197265625
-193.17626953125
-125.42724609375
-42.1142578125
83.31298828125
251.77001953125
440.36865234375
679.3212890625
837.70751953125
1021.728515625
1207.58056640625
1347.65625
1408.99658203125
1430.96923828125
1367.7978515625
1256.103515625
1094.05517578125
856.01806640625
578.61328125
233.45947265625
54.931640625
25.634765625
10.986328125
32.04345703125
36.62109375
43.02978515625
39.36767578125
1.8310546875
-8.23974609375
-13.73291015625
-18.310546875
-24.71923828125
-29.296875
-36.62109375
-40.283203125
-54.01611328125
-63.17138671875
-65.00244140625
-75.98876953125
-81.48193359375
-59.50927734375
-69.580078125
-70.49560546875
-67.7490234375
-84.228515625
-97.0458984375
-82.3974609375
-66.83349609375
-60.4248046875
-63.17138671875
-65.00244140625
-44.86083984375
-43.9453125
-41.19873046875
-58.59375
-64.0869140625
-66.83349609375
-62.255859375
-43.02978515625
-29.296875
-32.958984375
-25.634765625
-27.4658203125
-24.71923828125
-18.310546875
-24.71923828125
-19.22607421875
-30.21240234375
-52.18505859375
-23.8037109375
7.32421875
-11.90185546875
-25.634765625
-16.4794921875
-1.8310546875
-5.4931640625
-0.91552734375
17.39501953125
20.1416015625
18.310546875
31.1279296875
23.8037109375
20.1416015625
37.53662109375
50.35400390625
63.17138671875
58.59375
65.00244140625
71.4111328125
67.7490234375
78.7353515625
81.48193359375
85.14404296875
96.13037109375
105.28564453125
114.44091796875
130.92041015625
132.75146484375
124.51171875
134.58251953125
147.39990234375
159.3017578125
179.443359375
174.86572265625
167.54150390625
199.5849609375
216.064453125
222.47314453125
234.375
241.69921875
242.61474609375
247.1923828125
261.8408203125
269.1650390625
281.982421875
288.39111328125
290.22216796875
294.7998046875
303.03955078125
303.955078125
299.37744140625
307.6171875
314.02587890625
304.87060546875
307.6171875
301.20849609375
284.72900390625
292.05322265625
282.89794921875
270.99609375
258.1787109375
240.78369140625
233.45947265625
201.416015625
185.85205078125
184.9365234375
162.9638671875
167.54150390625
141.90673828125
129.08935546875
96.13037109375
96.13037109375
80.56640625
52.18505859375
43.9453125
42.1142578125
30.21240234375
6.40869140625
5.4931640625
-1.8310546875
-11.90185546875
-28.38134765625
-21.97265625
-43.02978515625
-49.4384765625
-55.84716796875
-59.50927734375
-49.4384765625
-65.91796875
-65.00244140625
-67.7490234375
-66.83349609375
-88.80615234375
-97.0458984375
-98.876953125
-70.49560546875
-81.48193359375
-84.228515625
-95.21484375
-93.3837890625
-84.228515625
-86.0595703125
-71.4111328125
-79.65087890625
-91.552734375
-89.7216796875
-81.48193359375
-95.21484375
-95.21484375
-102.5390625
-110.77880859375
-105.28564453125
-82.3974609375
-93.3837890625
-106.201171875
-99.79248046875
-105.28564453125
-100.7080078125
-115.3564453125
-101.62353515625
-91.552734375
-98.876953125
-87.890625
-82.3974609375
-80.56640625
-97.0458984375
-95.21484375
-105.28564453125
-74.15771484375
-88.80615234375
-91.552734375
-81.48193359375
-72.32666015625
-95.21484375
-96.13037109375
-97.0458984375
-82.3974609375
-84.228515625
-72.32666015625
-70.49560546875
-75.0732421875
-86.97509765625
-104.3701171875
-75.98876953125
-86.0595703125
-95.21484375
-86.0595703125
-78.7353515625
-67.7490234375
-75.98876953125
-73.2421875
-75.98876953125
-84.228515625
-83.31298828125
-75.0732421875
-76.904296875
-78.7353515625
-81.48193359375
-85.14404296875
-90.63720703125
-86.0595703125
-74.15771484375
-80.56640625
-83.31298828125
-82.3974609375
-79.65087890625
-82.3974609375
-86.0595703125
-86.97509765625
-94.29931640625
-94.29931640625
-107.11669921875
-81.48193359375
-89.7216796875
-102.5390625
-93.3837890625
-86.97509765625
-86.0595703125
-95.21484375
-79.65087890625
-88.80615234375
-99.79248046875
-96.13037109375
-86.0595703125
-97.0458984375
-95.21484375
-90.63720703125
-108.0322265625
-103.45458984375
-101.62353515625
-101.62353515625
-93.3837890625
-96.13037109375
-98.876953125
-94.29931640625
-107.11669921875
-100.7080078125
-112.60986328125
-110.77880859375
-101.62353515625
-93.3837890625
-80.56640625
-86.0595703125
-97.96142578125
-108.94775390625
-108.0322265625
-102.5390625
-95.21484375
-115.3564453125
-133.6669921875
-124.51171875
-101.62353515625
-85.14404296875
-88.80615234375
-103.45458984375
-108.0322265625
-95.21484375
-94.29931640625
-97.0458984375
-99.79248046875
-103.45458984375
-101.62353515625
-99.79248046875
-108.0322265625
-100.7080078125
-86.0595703125
-88.80615234375
-98.876953125
-88.80615234375
-95.21484375
-104.3701171875
-102.5390625
-96.13037109375
-91.552734375
-94.29931640625
-96.13037109375
-97.0458984375
-84.228515625
-72.32666015625
-67.7490234375
-66.83349609375
-62.255859375
-65.91796875
-69.580078125
-70.49560546875
-75.0732421875
-87.890625
-73.2421875
-79.65087890625
-49.4384765625
-37.53662109375
-40.283203125
-38.4521484375
-37.53662109375
-32.04345703125
-35.70556640625
-36.62109375
-38.4521484375
-29.296875
-37.53662109375
-43.02978515625
-44.86083984375
-46.69189453125
-51.26953125
-45.7763671875
-48.52294921875
-54.01611328125
-54.01611328125
-76.904296875
-72.32666015625
-73.2421875
-68.66455078125
-85.14404296875
-99.79248046875
-114.44091796875
-108.94775390625
-80.56640625
-87.890625
-95.21484375
-104.3701171875
-109.86328125
-105.28564453125
-104.3701171875
-99.79248046875
-103.45458984375
-107.11669921875
-111.6943359375
-118.10302734375
-111.6943359375
-123.59619140625
-149.23095703125
-195.9228515625
-223.388671875
-220.64208984375
-199.5849609375
-162.04833984375
-86.0595703125
14.6484375
136.41357421875
311.279296875
510.8642578125
704.9560546875
886.23046875
1122.4365234375
1289.97802734375
1401.67236328125
1460.26611328125
1485.90087890625
1408.0810546875
1289.0625
1115.1123046875
896.30126953125
605.16357421875
253.60107421875
96.13037109375
53.1005859375
48.52294921875
63.17138671875
68.66455078125
65.00244140625
53.1005859375
39.36767578125
22.88818359375
9.1552734375
13.73291015625
0
-4.57763671875
-21.97265625
-12.8173828125
-26.55029296875
-41.19873046875
-35.70556640625
-52.18505859375
-46.69189453125
-34.7900390625
-31.1279296875
-47.607421875
-46.69189453125
-49.4384765625
-49.4384765625
-51.26953125
-52.18505859375
-47.607421875
-37.53662109375
-36.62109375
-32.04345703125
-26.55029296875
-26.55029296875
-43.9453125
-29.296875
-28.38134765625
-25.634765625
-25.634765625
-32.04345703125
-28.38134765625
-6.40869140625
-15.56396484375
-11.90185546875
-6.40869140625
-8.23974609375
2.74658203125
7.32421875
3.662109375
10.986328125
4.57763671875
21.97265625
21.97265625
6.40869140625
22.88818359375
45.7763671875
42.1142578125
42.1142578125
40.283203125
48.52294921875
54.931640625
61.34033203125
66.83349609375
66.83349609375
75.98876953125
71.4111328125
74.15771484375
80.56640625
95.21484375
100.7080078125
113.525390625
119.0185546875
119.93408203125
120.849609375
130.0048828125
143.73779296875
151.9775390625
163.87939453125
162.04833984375
173.9501953125
178.52783203125
188.5986328125
194.091796875
204.16259765625
216.97998046875
223.388671875
234.375
249.0234375
260.92529296875
257.26318359375
258.1787109375
276.4892578125
286.56005859375
291.1376953125
292.96875
295.71533203125
300.29296875
312.19482421875
321.35009765625
331.4208984375
313.1103515625
295.71533203125
305.7861328125
309.4482421875
318.603515625
319.51904296875
310.36376953125
292.96875
286.56005859375
276.4892578125
255.43212890625
236.2060546875
230.712890625
223.388671875
206.9091796875
194.091796875
156.55517578125
138.24462890625
127.25830078125
115.3564453125
97.96142578125
85.14404296875
86.0595703125
60.4248046875
51.26953125
43.9453125
14.6484375
10.07080078125
-1.8310546875
-11.90185546875
-18.310546875
-27.4658203125
-59.50927734375
-79.65087890625
-87.890625
-80.56640625
-71.4111328125
-67.7490234375
-54.931640625
-51.26953125
-67.7490234375
-68.66455078125
-69.580078125
-78.7353515625
-77.81982421875
-86.0595703125
-91.552734375
-100.7080078125
-102.5390625
-108.94775390625
-111.6943359375
-94.29931640625
-124.51171875
-108.94775390625
-93.3837890625
-108.0322265625
-93.3837890625
-80.56640625
-101.62353515625
-109.86328125
-105.28564453125
-105.28564453125
-101.62353515625
-94.29931640625
-86.97509765625
-87.890625
-104.3701171875
-99.79248046875
-91.552734375
-96.13037109375
-85.14404296875
-90.63720703125
-103.45458984375
-92.46826171875
-96.13037109375
-105.28564453125
-93.3837890625
-92.46826171875
-82.3974609375
-88.80615234375
-96.13037109375
-105.28564453125
-84.228515625
-75.98876953125
-82.3974609375
-91.552734375
-81.48193359375
-82.3974609375
-88.80615234375
-83.31298828125
-77.81982421875
-77.81982421875
-86.97509765625
-72.32666015625
-80.56640625
-76.904296875
-70.49560546875
-93.3837890625
-86.97509765625
-83.31298828125
-87.890625
-92.46826171875
-73.2421875
-72.32666015625
-65.00244140625
-61.34033203125
-67.7490234375
-87.890625
-71.4111328125
-66.83349609375
-75.0732421875
-86.97509765625
-87.890625
-98.876953125
-96.13037109375
-86.97509765625
-89.7216796875
-81.48193359375
-85.14404296875
-94.29931640625
-95.21484375
-89.7216796875
-98.876953125
-98.876953125
-97.96142578125
-102.5390625
-99.79248046875
-97.0458984375
-96.13037109375
-108.94775390625
-103.45458984375
-99.79248046875
-89.7216796875
-87.890625
-102.5390625
-103.45458984375
-102.5390625
-107.11669921875
-110.77880859375
-109.86328125
-108.0322265625
-101.62353515625
-102.5390625
-115.3564453125
-116.27197265625
-95.21484375
-106.201171875
-121.76513671875
-119.93408203125
-115.3564453125
-98.876953125
-119.0185546875
-96.13037109375
-89.7216796875
-102.5390625
-100.7080078125
-108.0322265625
-120.849609375
-108.0322265625
-109.86328125
-116.27197265625
-116.27197265625
-105.28564453125
-102.5390625
-104.3701171875
-117.1875
-130.92041015625
-126.3427734375
-117.1875
-108.94775390625
-97.0458984375
-111.6943359375
-115.3564453125
-115.3564453125
-119.0185546875
-123.59619140625
-127.25830078125
-127.25830078125
-125.42724609375
-134.58251953125
-117.1875
-103.45458984375
-105.28564453125
-110.77880859375
-109.86328125
-104.3701171875
-108.94775390625
-125.42724609375
-136.41357421875
-146.484375
-125.42724609375
-111.6943359375
-110.77880859375
-101.62353515625
-103.45458984375
-118.10302734375
-111.6943359375
-119.0185546875
-125.42724609375
-113.525390625
-94.29931640625
-91.552734375
-94.29931640625
-84.228515625
-86.0595703125
-87.890625
-75.0732421875
-78.7353515625
-73.2421875
-73.2421875
-75.98876953125
-88.80615234375
-82.3974609375
-58.59375
-63.17138671875
-56.7626953125
-46.69189453125
-54.01611328125
-47.607421875
-40.283203125
-46.69189453125
-36.62109375
-45.7763671875
-55.84716796875
-63.17138671875
-66.83349609375
-60.4248046875
-72.32666015625
-74.15771484375
-66.83349609375
-73.2421875
-67.7490234375
-71.4111328125
-91.552734375
-91.552734375
-91.552734375
-97.0458984375
-101.62353515625
-99.79248046875
-100.7080078125
-114.44091796875
-129.08935546875
-124.51171875
-121.76513671875
-119.0185546875
-119.0185546875
-130.0048828125
-130.0048828125
-137.3291015625
-132.75146484375
-139.16015625
-135.498046875
-124.51171875
-120.849609375
-125.42724609375
-125.42724609375
-151.9775390625
-190.4296875
-228.8818359375
-250.8544921875
-237.12158203125
-208.740234375
-166.6259765625
-85.14404296875
23.8037109375
195.00732421875
415.6494140625
625.30517578125
844.1162109375
1042.78564453125
1240.53955078125
1393.4326171875
1478.57666015625
1559.14306640625
1519.775390625
1407.16552734375
1267.08984375
1068.42041015625
813.90380859375
455.01708984375
154.72412109375
72.32666015625
73.2421875
60.4248046875
50.35400390625
54.01611328125
44.86083984375
39.36767578125
11.90185546875
4.57763671875
2.74658203125
-9.1552734375
-19.22607421875
-28.38134765625
-39.36767578125
-45.7763671875
-54.01611328125
-54.01611328125
-34.7900390625
-46.69189453125
-84.228515625
-86.0595703125
-89.7216796875
-81.48193359375
-68.66455078125
-63.17138671875
-66.83349609375
-62.255859375
-65.91796875
-64.0869140625
-55.84716796875
-57.67822265625
-56.7626953125
-57.67822265625
-48.52294921875
-60.4248046875
-47.607421875
-59.50927734375
-54.931640625
-52.18505859375
-45.7763671875
-28.38134765625
-51.26953125
-30.21240234375
-25.634765625
-21.97265625
-12.8173828125
-18.310546875
-25.634765625
-23.8037109375
-27.4658203125
-32.04345703125
-14.6484375
-5.4931640625
-10.986328125
6.40869140625
14.6484375
20.1416015625
9.1552734375
10.986328125
11.90185546875
14.6484375
23.8037109375
42.1142578125
43.02978515625
63.17138671875
65.91796875
65.00244140625
58.59375
58.59375
60.4248046875
93.3837890625
87.890625
101.62353515625
106.201171875
119.93408203125
126.3427734375
130.0048828125
133.6669921875
142.822265625
162.04833984375
186.767578125
188.5986328125
187.68310546875
194.091796875
203.2470703125
207.82470703125
208.740234375
215.14892578125
259.09423828125
258.1787109375
259.09423828125
259.09423828125
274.658203125
281.06689453125
276.4892578125
289.306640625
303.03955078125
294.7998046875
291.1376953125
309.4482421875
303.03955078125
293.88427734375
302.1240234375
298.4619140625
295.71533203125
299.37744140625
298.4619140625
283.8134765625
281.06689453125
270.08056640625
244.44580078125
220.64208984375
221.5576171875
202.33154296875
183.10546875
152.89306640625
152.89306640625
138.24462890625
127.25830078125
103.45458984375
84.228515625
66.83349609375
53.1005859375
39.36767578125
29.296875
11.90185546875
-6.40869140625
-15.56396484375
-28.38134765625
-37.53662109375
-46.69189453125
-65.00244140625
-73.2421875
-72.32666015625
-84.228515625
-90.63720703125
-82.3974609375
-94.29931640625
-104.3701171875
-89.7216796875
-85.14404296875
-96.13037109375
-102.5390625
-101.62353515625
-108.0322265625
-116.27197265625
-111.6943359375
-96.13037109375
-92.46826171875
-108.0322265625
-110.77880859375
-111.6943359375
-114.44091796875
-111.6943359375
-119.93408203125
-111.6943359375
-113.525390625
-121.76513671875
-115.3564453125
-110.77880859375
-105.28564453125
-116.27197265625
-120.849609375
-116.27197265625
-111.6943359375
-117.1875
-119.93408203125
-107.11669921875
-109.86328125
-117.1875
-116.27197265625
-122.6806640625
-127.25830078125
-132.75146484375
-125.42724609375
-94.29931640625
-111.6943359375
-118.10302734375
-104.3701171875
-99.79248046875
-103.45458984375
-100.7080078125
-99.79248046875
-108.94775390625
-97.96142578125
-106.201171875
-105.28564453125
-102.5390625
-105.28564453125
-102.5390625
-111.6943359375
-111.6943359375
-119.93408203125
-118.10302734375
-112.60986328125
-106.201171875
-102.5390625
-96.13037109375
-100.7080078125
-104.3701171875
-99.79248046875
-98.876953125
-103.45458984375
-102.5390625
-100.7080078125
-108.0322265625
-106.201171875
-99.79248046875
-104.3701171875
-115.3564453125
-114.44091796875
-98.876953125
-109.86328125
-110.77880859375
-111.6943359375
-113.525390625
-97.0458984375
-94.29931640625
-102.5390625
-102.5390625
-111.6943359375
-113.525390625
-124.51171875
-130.0048828125
-125.42724609375
-115.3564453125
-88.80615234375
-110.77880859375
-110.77880859375
-96.13037109375
-104.3701171875
-114.44091796875
-108.94775390625
-114.44091796875
-118.10302734375
-118.10302734375
-120.849609375
-116.27197265625
-124.51171875
-127.25830078125
-134.58251953125
-130.92041015625
-135.498046875
-118.10302734375
-104.3701171875
-127.25830078125
-110.77880859375
-114.44091796875
-130.0048828125
-119.93408203125
-124.51171875
-123.59619140625
-116.27197265625
-123.59619140625
-124.51171875
-120.849609375
-122.6806640625
-127.25830078125
-131.8359375
-115.3564453125
-118.10302734375
-129.08935546875
-131.8359375
-121.76513671875
-122.6806640625
-125.42724609375
-135.498046875
-150.146484375
-130.0048828125
-138.24462890625
-131.8359375
-119.93408203125
-128.173828125
-137.3291015625
-136.41357421875
-140.07568359375
-118.10302734375
-108.0322265625
-122.6806640625
-121.76513671875
-119.93408203125
-129.08935546875
-128.173828125
-130.92041015625
-127.25830078125
-129.08935546875
-140.07568359375
-135.498046875
-133.6669921875
-129.08935546875
-127.25830078125
-129.08935546875
-124.51171875
-123.59619140625
-121.76513671875
-128.173828125
-128.173828125
-126.3427734375
-129.08935546875
-134.58251953125
-135.498046875
-136.41357421875
-134.58251953125
-130.92041015625
-135.498046875
-145.56884765625
-148.3154296875
-121.76513671875
-121.76513671875
-130.92041015625
-127.25830078125
-119.93408203125
-122.6806640625
-116.27197265625
-108.94775390625
-115.3564453125
-112.60986328125
-86.97509765625
-104.3701171875
-100.7080078125
-96.13037109375
-102.5390625
-90.63720703125
-94.29931640625
-89.7216796875
-77.81982421875
-75.98876953125
-82.3974609375
-76.904296875
-75.98876953125
-57.67822265625
-46.69189453125
-48.52294921875
-44.86083984375
-46.69189453125
-57.67822265625
-65.00244140625
-75.0732421875
-86.0595703125
-77.81982421875
-72.32666015625
-67.7490234375
-79.65087890625
-82.3974609375
-68.66455078125
-70.49560546875
-88.80615234375
-92.46826171875
-98.876953125
-109.86328125
-108.94775390625
-122.6806640625
-130.92041015625
-126.3427734375
-137.3291015625
-143.73779296875
-135.498046875
-125.42724609375
-130.92041015625
-132.75146484375
-140.07568359375
-146.484375
-138.24462890625
-136.41357421875
-137.3291015625
-138.24462890625
-139.16015625
-147.39990234375
-149.23095703125
-155.6396484375
-201.416015625
-228.8818359375
-246.27685546875
-266.41845703125
-242.61474609375
-214.2333984375
-152.89306640625
-51.26953125
79.65087890625
260.009765625
476.07421875
697.6318359375
904.541015625
1095.88623046875
1313.78173828125
1435.546875
1516.11328125
1561.8896484375
1504.21142578125
1381.53076171875
1216.73583984375
1011.65771484375
707.70263671875
326.84326171875
124.51171875
80.56640625
69.580078125
54.931640625
57.67822265625
48.52294921875
40.283203125
23.8037109375
10.986328125
1.8310546875
-7.32421875
-12.8173828125
-20.1416015625
-37.53662109375
-54.01611328125
-57.67822265625
-67.7490234375
-74.15771484375
-66.83349609375
-56.7626953125
-64.0869140625
-75.98876953125
-88.80615234375
-98.876953125
-92.46826171875
-75.98876953125
-81.48193359375
-66.83349609375
-59.50927734375
-66.83349609375
-65.00244140625
-69.580078125
-68.66455078125
-65.00244140625
-65.91796875
-61.34033203125
-57.67822265625
-46.69189453125
-38.4521484375
-36.62109375
-48.52294921875
-50.35400390625
-52.18505859375
-49.4384765625
-32.04345703125
-32.958984375
-38.4521484375
-32.04345703125
-26.55029296875
-19.22607421875
-21.05712890625
-7.32421875
-5.4931640625
-3.662109375
-2.74658203125
-0.91552734375
6.40869140625
15.56396484375
17.39501953125
6.40869140625
10.07080078125
30.21240234375
35.70556640625
32.04345703125
45.7763671875
51.26953125
58.59375
50.35400390625
58.59375
52.18505859375
82.3974609375
92.46826171875
99.79248046875
102.5390625
108.94775390625
106.201171875
120.849609375
147.39990234375
150.146484375
152.89306640625
161.1328125
166.6259765625
179.443359375
186.767578125
193.17626953125
196.83837890625
215.14892578125
216.97998046875
228.8818359375
238.037109375
242.61474609375
246.27685546875
260.009765625
274.658203125
282.89794921875
282.89794921875
280.1513671875
285.64453125
292.05322265625
303.03955078125
315.85693359375
327.7587890625
314.94140625
299.37744140625
302.1240234375
292.05322265625
307.6171875
292.96875
282.89794921875
272.8271484375
257.26318359375
243.5302734375
219.7265625
203.2470703125
203.2470703125
190.4296875
176.69677734375
151.9775390625
130.0048828125
117.1875
105.28564453125
77.81982421875
60.4248046875
36.62109375
33.87451171875
19.22607421875
6.40869140625
0.91552734375
-11.90185546875
-26.55029296875
-42.1142578125
-46.69189453125
-54.931640625
-54.931640625
-68.66455078125
-86.0595703125
-88.80615234375
-88.80615234375
-79.65087890625
-85.14404296875
-95.21484375
-93.3837890625
-101.62353515625
-98.876953125
-104.3701171875
-108.94775390625
-107.11669921875
-108.94775390625
-116.27197265625
-121.76513671875
-111.6943359375
-106.201171875
-119.0185546875
-130.92041015625
-126.3427734375
-114.44091796875
-109.86328125
-111.6943359375
-118.10302734375
-123.59619140625
-119.0185546875
-111.6943359375
-110.77880859375
-110.77880859375
-109.86328125
-119.0185546875
-117.1875
-120.849609375
-119.93408203125
-133.6669921875
-130.0048828125
-123.59619140625
-123.59619140625
-107.11669921875
-127.25830078125
-121.76513671875
-117.1875
-117.1875
-115.3564453125
-106.201171875
-99.79248046875
-103.45458984375
-97.0458984375
-103.45458984375
-104.3701171875
-99.79248046875
-109.86328125
-113.525390625
-111.6943359375
-114.44091796875
-118.10302734375
-116.27197265625
-113.525390625
-114.44091796875
-119.0185546875
-105.28564453125
-105.28564453125
-96.13037109375
-101.62353515625
-99.79248046875
-107.11669921875
-111.6943359375
-108.94775390625
-110.77880859375
-108.0322265625
-109.86328125
-99.79248046875
-110.77880859375
-115.3564453125
-95.21484375
-89.7216796875
-94.29931640625
-101.62353515625
-104.3701171875
-112.60986328125
-123.59619140625
-119.0185546875
-114.44091796875
-120.849609375
-105.28564453125
-114.44091796875
-108.0322265625
-106.201171875
-116.27197265625
-122.6806640625
-107.11669921875
-108.0322265625
-120.849609375
-143.73779296875
-130.0048828125
-134.58251953125
-121.76513671875
-113.525390625
-121.76513671875
-123.59619140625
-113.525390625
-114.44091796875
-118.10302734375
-120.849609375
-112.60986328125
-114.44091796875
-122.6806640625
-125.42724609375
-125.42724609375
-121.76513671875
-120.849609375
-117.1875
-121.76513671875
-125.42724609375
-134.58251953125
-145.56884765625
-144.6533203125
-128.173828125
-128.173828125
-125.42724609375
-119.93408203125
-122.6806640625
-121.76513671875
-126.3427734375
-125.42724609375
-131.8359375
-129.08935546875
-134.58251953125
-137.3291015625
-129.08935546875
-125.42724609375
-135.498046875
-139.16015625
-135.498046875
-138.24462890625
-126.3427734375
-131.8359375
-134.58251953125
-126.3427734375
-137.3291015625
-140.07568359375
-133.6669921875
-122.6806640625
-124.51171875
-131.8359375
-133.6669921875
-129.08935546875
-127.25830078125
-148.3154296875
-145.56884765625
-130.0048828125
-130.92041015625
-123.59619140625
-128.173828125
-128.173828125
-127.25830078125
-135.498046875
-133.6669921875
-137.3291015625
-142.822265625
-133.6669921875
-120.849609375
-132.75146484375
-134.58251953125
-127.25830078125
-130.92041015625
-131.8359375
-130.0048828125
-131.8359375
-129.08935546875
-128.173828125
-136.41357421875
-145.56884765625
-130.92041015625
-126.3427734375
-133.6669921875
-132.75146484375
-121.76513671875
-134.58251953125
-133.6669921875
-120.849609375
-120.849609375
-127.25830078125
-130.0048828125
-128.173828125
-130.0048828125
-133.6669921875
-139.16015625
-126.3427734375
-128.173828125
-137.3291015625
-140.9912109375
-145.56884765625
-130.92041015625
-123.59619140625
-129.08935546875
-142.822265625
-145.56884765625
-130.92041015625
-118.10302734375
-119.0185546875
-119.0185546875
-112.60986328125
-94.29931640625
-90.63720703125
-74.15771484375
-81.48193359375
-95.21484375
-84.228515625
-90.63720703125
-99.79248046875
-93.3837890625
-81.48193359375
-76.904296875
-86.97509765625
-76.904296875
-65.00244140625
-47.607421875
-49.4384765625
-53.1005859375
-42.1142578125
-64.0869140625
-48.52294921875
-45.7763671875
-61.34033203125
-64.0869140625
-65.91796875
-70.49560546875
-74.15771484375
-76.904296875
-78.7353515625
-75.98876953125
-88.80615234375
-95.21484375
-105.28564453125
-102.5390625
-113.525390625
-122.6806640625
-131.8359375
-128.173828125
-128.173828125
-126.3427734375
-124.51171875
-131.8359375
-145.56884765625
-139.16015625
-115.3564453125
-126.3427734375
-124.51171875
-130.92041015625
-124.51171875
-128.173828125
-131.8359375
-131.8359375
-132.75146484375
-141.90673828125
-162.9638671875
-196.83837890625
-240.78369140625
-252.685546875
-248.10791015625
-221.5576171875
-178.52783203125
-97.96142578125
27.4658203125
182.18994140625
386.3525390625
601.50146484375
814.8193359375
1018.98193359375
1246.03271484375
1396.17919921875
1485.90087890625
1549.072265625
1520.69091796875
1403.50341796875
1267.08984375
1083.06884765625
824.89013671875
448.6083984375
151.06201171875
78.7353515625
81.48193359375
60.4248046875
61.34033203125
65.00244140625
45.7763671875
22.88818359375
-7.32421875
-11.90185546875
-12.8173828125
-9.1552734375
-9.1552734375
-23.8037109375
-32.958984375
-46.69189453125
-60.4248046875
-58.59375
-58.59375
-60.4248046875
-69.580078125
-79.65087890625
-56.7626953125
-57.67822265625
-60.4248046875
-66.83349609375
-75.0732421875
-67.7490234375
-61.34033203125
-66.83349609375
-65.00244140625
-65.91796875
-71.4111328125
-73.2421875
-60.4248046875
-54.01611328125
-50.35400390625
-54.931640625
-43.9453125
-34.7900390625
-38.4521484375
-48.52294921875
-53.1005859375
-51.26953125
-43.9453125
-32.958984375
-18.310546875
-13.73291015625
-17.39501953125
-19.22607421875
-14.6484375
-16.4794921875
-5.4931640625
0.91552734375
-1.8310546875
6.40869140625
17.39501953125
34.7900390625
26.55029296875
23.8037109375
24.71923828125
35.70556640625
38.4521484375
43.02978515625
49.4384765625
37.53662109375
39.36767578125
54.01611328125
77.81982421875
82.3974609375
87.890625
93.3837890625
105.28564453125
111.6943359375
111.6943359375
111.6943359375
125.42724609375
137.3291015625
129.08935546875
144.6533203125
157.470703125
158.38623046875
178.52783203125
192.2607421875
202.33154296875
208.740234375
207.82470703125
232.5439453125
244.44580078125
236.2060546875
239.8681640625
250.8544921875
260.009765625
282.89794921875
291.1376953125
298.4619140625
300.29296875
304.87060546875
307.6171875
314.94140625
312.19482421875
320.4345703125
318.603515625
309.4482421875
312.19482421875
318.603515625
321.35009765625
316.7724609375
300.29296875
291.1376953125
288.39111328125
278.3203125
255.43212890625
240.78369140625
233.45947265625
218.81103515625
195.9228515625
175.78125
163.87939453125
150.146484375
116.27197265625
107.11669921875
99.79248046875
90.63720703125
72.32666015625
62.255859375
55.84716796875
32.04345703125
18.310546875
0.91552734375
-10.07080078125
-32.04345703125
-33.87451171875
-27.4658203125
-42.1142578125
-56.7626953125
-55.84716796875
-69.580078125
-64.0869140625
-70.49560546875
-77.81982421875
-70.49560546875
-82.3974609375
-88.80615234375
-90.63720703125
-89.7216796875
-91.552734375
-92.46826171875
-90.63720703125
-91.552734375
-88.80615234375
-82.3974609375
-86.97509765625
-96.13037109375
-103.45458984375
-95.21484375
-115.3564453125
-108.0322265625
-107.11669921875
-118.10302734375
-98.876953125
-79.65087890625
-97.96142578125
-99.79248046875
-91.552734375
-97.0458984375
-93.3837890625
-97.96142578125
-98.876953125
-102.5390625
-90.63720703125
-95.21484375
-97.96142578125
-108.94775390625
-105.28564453125
-103.45458984375
-93.3837890625
-99.79248046875
-97.0458984375
-96.13037109375
-98.876953125
-88.80615234375
-75.98876953125
-75.0732421875
-96.13037109375
-92.46826171875
-97.0458984375
-97.96142578125
-90.63720703125
-96.13037109375
-94.29931640625
-97.0458984375
-96.13037109375
-85.14404296875
-87.890625
-97.96142578125
-105.28564453125
-75.0732421875
-84.228515625
-87.890625
-101.62353515625
-101.62353515625
-91.552734375
-104.3701171875
-87.890625
-86.0595703125
-84.228515625
-89.7216796875
-94.29931640625
-94.29931640625
-110.77880859375
-105.28564453125
-92.46826171875
-85.14404296875
-86.97509765625
-96.13037109375
-113.525390625
-109.86328125
-119.93408203125
-122.6806640625
-100.7080078125
-88.80615234375
-86.0595703125
-82.3974609375
-90.63720703125
-105.28564453125
-97.96142578125
-84.228515625
-88.80615234375
-102.5390625
-105.28564453125
-97.96142578125
-104.3701171875
-108.0322265625
-97.0458984375
-97.96142578125
-97.0458984375
-97.0458984375
-98.876953125
-108.94775390625
-116.27197265625
-117.1875
-98.876953125
-100.7080078125
-109.86328125
-112.60986328125
-115.3564453125
-108.0322265625
-107.11669921875
-119.0185546875
-105.28564453125
-105.28564453125
-110.77880859375
-114.44091796875
-116.27197265625
-107.11669921875
-112.60986328125
-109.86328125
-114.44091796875
-108.94775390625
-119.0185546875
-121.76513671875
-109.86328125
-128.173828125
-126.3427734375
-116.27197265625
-105.28564453125
-103.45458984375
-97.96142578125
-100.7080078125
-117.1875
-115.3564453125
-118.10302734375
-105.28564453125
-108.94775390625
-106.201171875
-102.5390625
-102.5390625
-108.0322265625
-118.10302734375
-121.76513671875
-111.6943359375
-115.3564453125
-106.201171875
-105.28564453125
-118.10302734375
-122.6806640625
-118.10302734375
-116.27197265625
-108.94775390625
-101.62353515625
-105.28564453125
-111.6943359375
-122.6806640625
-125.42724609375
-105.28564453125
-109.86328125
-111.6943359375
-127.25830078125
-120.849609375
-111.6943359375
-119.0185546875
-119.0185546875
-108.94775390625
-119.93408203125
-125.42724609375
-113.525390625
-119.93408203125
-110.77880859375
-104.3701171875
-108.0322265625
-112.60986328125
-108.94775390625
-112.60986328125
-121.76513671875
-111.6943359375
-115.3564453125
-115.3564453125
-110.77880859375
-109.86328125
-108.94775390625
-113.525390625
-108.94775390625
-102.5390625
-97.0458984375
-95.21484375
-97.0458984375
-86.97509765625
-86.0595703125
-92.46826171875
-78.7353515625
-85.14404296875
-88.80615234375
-90.63720703125
-91.552734375
-102.5390625
-85.14404296875
-57.67822265625
-60.4248046875
-65.00244140625
-58.59375
-56.7626953125
-49.4384765625
-42.1142578125
-38.4521484375
-39.36767578125
-30.21240234375
-47.607421875
-48.52294921875
-42.1142578125
-54.931640625
-64.0869140625
-75.98876953125
-72.32666015625
-65.91796875
-55.84716796875
-43.02978515625
-54.931640625
-57.67822265625
-64.0869140625
-78.7353515625
-97.0458984375
-105.28564453125
-102.5390625
-100.7080078125
-111.6943359375
-106.201171875
-97.96142578125
-105.28564453125
-107.11669921875
-113.525390625
-121.76513671875
-127.25830078125
-120.849609375
-108.0322265625
-111.6943359375
-112.60986328125
-108.0322265625
-108.94775390625
-117.1875
-127.25830078125
-135.498046875
-172.119140625
-202.33154296875
-231.62841796875
-220.64208984375
-192.2607421875
-143.73779296875
-65.91796875
27.4658203125
171.20361328125
359.80224609375
557.55615234375
744.32373046875
938.41552734375
1140.7470703125
1307.373046875
1407.16552734375
1462.09716796875
1437.3779296875
1353.1494140625
1233.21533203125
1059.26513671875
825.8056640625
511.77978515625
187.68310546875
69.580078125
45.7763671875
46.69189453125
54.01611328125
56.7626953125
47.607421875
