ECG
-27.4658203125
-22.88818359375
-23.8037109375
-30.21240234375
-39.36767578125
-36.62109375
-35.70556640625
-34.7900390625
-11.90185546875
10.986328125
36.62109375
50.35400390625
57.67822265625
53.1005859375
52.18505859375
62.255859375
53.1005859375
52.18505859375
66.83349609375
86.97509765625
110.77880859375
130.0048828125
156.55517578125
157.470703125
159.3017578125
132.75146484375
23.8037109375
-165.71044921875
-359.80224609375
-549.31640625
-753.47900390625
-846.86279296875
-932.92236328125
-1004.33349609375
-988.76953125
-957.6416015625
-909.11865234375
-853.271484375
-775.45166015625
-665.58837890625
-559.38720703125
-501.708984375
-458.67919921875
-426.6357421875
-381.77490234375
-349.7314453125
-331.4208984375
-311.279296875
-288.39111328125
-264.58740234375
-238.037109375
-208.740234375
-195.9228515625
-197.75390625
-189.51416015625
-195.00732421875
-198.66943359375
-196.83837890625
-194.091796875
-190.4296875
-181.2744140625
-172.119140625
-161.1328125
-151.9775390625
-148.3154296875
-138.24462890625
-140.07568359375
-134.58251953125
-108.94775390625
-96.13037109375
-89.7216796875
-78.7353515625
-70.49560546875
-64.0869140625
-65.91796875
-67.7490234375
-55.84716796875
-31.1279296875
-10.07080078125
-0.91552734375
10.986328125
25.634765625
31.1279296875
34.7900390625
42.1142578125
44.86083984375
51.26953125
50.35400390625
54.01611328125
62.255859375
69.580078125
72.32666015625
74.15771484375
75.0732421875
67.7490234375
65.00244140625
54.931640625
60.4248046875
72.32666015625
75.0732421875
75.98876953125
85.14404296875
86.0595703125
94.29931640625
93.3837890625
87.890625
93.3837890625
90.63720703125
90.63720703125
96.13037109375
106.201171875
112.60986328125
114.44091796875
109.86328125
117.1875
115.3564453125
112.60986328125
108.0322265625
108.94775390625
115.3564453125
125.42724609375
131.8359375
130.0048828125
127.25830078125
128.173828125
129.08935546875
125.42724609375
126.3427734375
135.498046875
148.3154296875
162.9638671875
174.86572265625
173.9501953125
172.119140625
169.37255859375
168.45703125
164.794921875
167.54150390625
175.78125
184.9365234375
184.9365234375
197.75390625
196.83837890625
204.16259765625
202.33154296875
196.83837890625
194.091796875
194.091796875
206.9091796875
213.31787109375
218.81103515625
227.96630859375
233.45947265625
236.2060546875
236.2060546875
227.96630859375
223.388671875
223.388671875
234.375
243.5302734375
242.61474609375
239.8681640625
250.8544921875
237.12158203125
225.2197265625
214.2333984375
225.2197265625
216.064453125
209.65576171875
205.078125
205.078125
207.82470703125
205.99365234375
193.17626953125
184.02099609375
171.20361328125
161.1328125
151.06201171875
156.55517578125
150.146484375
145.56884765625
144.6533203125
136.41357421875
126.3427734375
113.525390625
102.5390625
104.3701171875
84.228515625
74.15771484375
75.98876953125
70.49560546875
74.15771484375
80.56640625
87.890625
66.83349609375
58.59375
57.67822265625
52.18505859375
48.52294921875
47.607421875
55.84716796875
58.59375
51.26953125
45.7763671875
47.607421875
40.283203125
39.36767578125
35.70556640625
25.634765625
25.634765625
32.958984375
33.87451171875
43.02978515625
44.86083984375
33.87451171875
33.87451171875
24.71923828125
20.1416015625
22.88818359375
28.38134765625
42.1142578125
42.1142578125
39.36767578125
37.53662109375
29.296875
30.21240234375
38.4521484375
29.296875
26.55029296875
27.4658203125
33.87451171875
42.1142578125
43.02978515625
40.283203125
35.70556640625
29.296875
28.38134765625
28.38134765625
27.4658203125
31.1279296875
33.87451171875
34.7900390625
30.21240234375
46.69189453125
42.1142578125
35.70556640625
26.55029296875
24.71923828125
28.38134765625
39.36767578125
43.9453125
44.86083984375
34.7900390625
23.8037109375
12.8173828125
19.22607421875
15.56396484375
10.07080078125
11.90185546875
18.310546875
27.4658203125
37.53662109375
32.04345703125
15.56396484375
-0.91552734375
-2.74658203125
9.1552734375
7.32421875
16.4794921875
25.634765625
30.21240234375
27.4658203125
31.1279296875
27.4658203125
19.22607421875
22.88818359375
7.32421875
1.8310546875
14.6484375
19.22607421875
21.97265625
25.634765625
21.05712890625
17.39501953125
10.07080078125
5.4931640625
3.662109375
1.8310546875
5.4931640625
3.662109375
16.4794921875
11.90185546875
15.56396484375
14.6484375
2.74658203125
3.662109375
-1.8310546875
-2.74658203125
-2.74658203125
-2.74658203125
5.4931640625
16.4794921875
11.90185546875
8.23974609375
2.74658203125
0.91552734375
1.8310546875
-1.8310546875
0
-1.8310546875
0.91552734375
3.662109375
14.6484375
8.23974609375
7.32421875
-4.57763671875
-5.4931640625
-17.39501953125
-16.4794921875
-6.40869140625
4.57763671875
12.8173828125
13.73291015625
16.4794921875
2.74658203125
6.40869140625
-0.91552734375
0
-0.91552734375
8.23974609375
18.310546875
12.8173828125
10.07080078125
0
1.8310546875
4.57763671875
0
3.662109375
12.8173828125
21.97265625
30.21240234375
49.4384765625
64.0869140625
58.59375
65.91796875
66.83349609375
59.50927734375
54.01611328125
55.84716796875
57.67822265625
57.67822265625
57.67822265625
54.01611328125
59.50927734375
61.34033203125
75.0732421875
85.14404296875
78.7353515625
67.7490234375
75.0732421875
81.48193359375
83.31298828125
88.80615234375
91.552734375
82.3974609375
72.32666015625
66.83349609375
52.18505859375
43.02978515625
49.4384765625
54.01611328125
61.34033203125
43.9453125
33.87451171875
25.634765625
29.296875
23.8037109375
10.986328125
-7.32421875
-12.8173828125
-3.662109375
0.91552734375
8.23974609375
0
-15.56396484375
-21.05712890625
-22.88818359375
-21.97265625
-19.22607421875
-22.88818359375
-20.1416015625
-17.39501953125
-16.4794921875
-13.73291015625
-18.310546875
-18.310546875
-18.310546875
-29.296875
-37.53662109375
-37.53662109375
-17.39501953125
-12.8173828125
-6.40869140625
-16.4794921875
-20.1416015625
-25.634765625
-22.88818359375
-21.05712890625
-18.310546875
-13.73291015625
-13.73291015625
-0.91552734375
0
7.32421875
19.22607421875
34.7900390625
45.7763671875
52.18505859375
57.67822265625
66.83349609375
73.2421875
83.31298828125
78.7353515625
73.2421875
79.65087890625
82.3974609375
90.63720703125
103.45458984375
135.498046875
135.498046875
144.6533203125
121.76513671875
-0.91552734375
-179.443359375
-371.7041015625
-584.1064453125
-780.029296875
-875.244140625
-954.89501953125
-998.84033203125
-962.21923828125
-921.0205078125
-856.01806640625
-807.4951171875
-729.67529296875
-628.96728515625
-541.9921875
-478.82080078125
-443.115234375
-401.91650390625
-360.7177734375
-309.4482421875
-284.72900390625
-274.658203125
-258.1787109375
-245.361328125
-235.29052734375
-208.740234375
-195.9228515625
-184.9365234375
-179.443359375
-178.52783203125
-178.52783203125
-175.78125
-179.443359375
-183.10546875
-179.443359375
-171.20361328125
-148.3154296875
-135.498046875
-125.42724609375
-111.6943359375
-116.27197265625
-118.10302734375
-109.86328125
-91.552734375
-82.3974609375
-73.2421875
-60.4248046875
-44.86083984375
-42.1142578125
-38.4521484375
-21.05712890625
-4.57763671875
1.8310546875
14.6484375
13.73291015625
17.39501953125
27.4658203125
39.36767578125
45.7763671875
65.91796875
71.4111328125
73.2421875
75.0732421875
84.228515625
81.48193359375
76.904296875
75.98876953125
86.97509765625
79.65087890625
93.3837890625
89.7216796875
86.0595703125
87.890625
88.80615234375
98.876953125
91.552734375
80.56640625
92.46826171875
92.46826171875
107.11669921875
109.86328125
107.11669921875
102.5390625
101.62353515625
103.45458984375
105.28564453125
94.29931640625
104.3701171875
125.42724609375
139.16015625
130.92041015625
125.42724609375
130.92041015625
130.92041015625
130.92041015625
133.6669921875
131.8359375
136.41357421875
140.9912109375
153.80859375
156.55517578125
161.1328125
149.23095703125
143.73779296875
150.146484375
160.21728515625
155.6396484375
163.87939453125
174.86572265625
183.10546875
180.35888671875
177.6123046875
182.18994140625
188.5986328125
184.02099609375
178.52783203125
178.52783203125
192.2607421875
202.33154296875
204.16259765625
215.14892578125
198.66943359375
205.99365234375
203.2470703125
210.5712890625
216.97998046875
224.30419921875
224.30419921875
231.62841796875
239.8681640625
241.69921875
228.8818359375
227.96630859375
230.712890625
223.388671875
219.7265625
220.64208984375
225.2197265625
227.96630859375
230.712890625
221.5576171875
219.7265625
218.81103515625
210.5712890625
197.75390625
192.2607421875
190.4296875
188.5986328125
190.4296875
185.85205078125
183.10546875
163.87939453125
155.6396484375
143.73779296875
133.6669921875
115.3564453125
108.94775390625
106.201171875
110.77880859375
116.27197265625
112.60986328125
99.79248046875
90.63720703125
76.904296875
75.98876953125
77.81982421875
65.00244140625
69.580078125
76.904296875
71.4111328125
73.2421875
64.0869140625
58.59375
45.7763671875
44.86083984375
43.9453125
39.36767578125
38.4521484375
39.36767578125
55.84716796875
63.17138671875
37.53662109375
33.87451171875
30.21240234375
30.21240234375
29.296875
27.4658203125
38.4521484375
45.7763671875
52.18505859375
46.69189453125
43.02978515625
45.7763671875
41.19873046875
40.283203125
27.4658203125
29.296875
36.62109375
34.7900390625
43.02978515625
48.52294921875
45.7763671875
37.53662109375
33.87451171875
26.55029296875
29.296875
42.1142578125
50.35400390625
51.26953125
47.607421875
57.67822265625
52.18505859375
43.02978515625
45.7763671875
28.38134765625
25.634765625
27.4658203125
34.7900390625
38.4521484375
41.19873046875
44.86083984375
43.9453125
35.70556640625
26.55029296875
28.38134765625
18.310546875
17.39501953125
21.97265625
26.55029296875
42.1142578125
36.62109375
34.7900390625
27.4658203125
23.8037109375
15.56396484375
16.4794921875
10.986328125
10.986328125
13.73291015625
23.8037109375
32.04345703125
24.71923828125
23.8037109375
28.38134765625
15.56396484375
3.662109375
-13.73291015625
-4.57763671875
10.986328125
27.4658203125
19.22607421875
13.73291015625
15.56396484375
10.986328125
7.32421875
-4.57763671875
-5.4931640625
-3.662109375
-3.662109375
3.662109375
16.4794921875
12.8173828125
11.90185546875
9.1552734375
-0.91552734375
-15.56396484375
-4.57763671875
-2.74658203125
8.23974609375
6.40869140625
4.57763671875
8.23974609375
5.4931640625
9.1552734375
-0.91552734375
-6.40869140625
-0.91552734375
-6.40869140625
3.662109375
2.74658203125
10.07080078125
18.310546875
15.56396484375
20.1416015625
8.23974609375
8.23974609375
12.8173828125
28.38134765625
56.7626953125
56.7626953125
53.1005859375
55.84716796875
54.931640625
58.59375
58.59375
51.26953125
37.53662109375
37.53662109375
44.86083984375
54.931640625
66.83349609375
90.63720703125
99.79248046875
84.228515625
69.580078125
79.65087890625
82.3974609375
86.0595703125
86.97509765625
90.63720703125
81.48193359375
75.98876953125
66.83349609375
54.931640625
47.607421875
41.19873046875
41.19873046875
43.02978515625
31.1279296875
38.4521484375
36.62109375
23.8037109375
3.662109375
-8.23974609375
-17.39501953125
-26.55029296875
-26.55029296875
-26.55029296875
-10.986328125
-3.662109375
-3.662109375
-17.39501953125
-11.90185546875
-19.22607421875
-21.97265625
-29.296875
-40.283203125
-33.87451171875
-25.634765625
-21.97265625
-20.1416015625
-15.56396484375
-22.88818359375
-24.71923828125
-29.296875
-26.55029296875
-32.958984375
-26.55029296875
-17.39501953125
-23.8037109375
-11.90185546875
-20.1416015625
-31.1279296875
-34.7900390625
-20.1416015625
-31.1279296875
-38.4521484375
-29.296875
-18.310546875
-4.57763671875
11.90185546875
38.4521484375
46.69189453125
46.69189453125
63.17138671875
62.255859375
52.18505859375
65.91796875
69.580078125
83.31298828125
91.552734375
89.7216796875
92.46826171875
106.201171875
120.849609375
115.3564453125
100.7080078125
69.580078125
-58.59375
-238.95263671875
-407.40966796875
-602.4169921875
-800.1708984375
-896.30126953125
-974.12109375
-1013.48876953125
-986.9384765625
-922.8515625
-861.51123046875
-800.1708984375
-720.52001953125
-614.31884765625
-530.09033203125
-479.736328125
-446.77734375
-413.818359375
-363.46435546875
-329.58984375
-304.87060546875
-292.05322265625
-261.8408203125
-248.10791015625
-234.375
-209.65576171875
-226.13525390625
-214.2333984375
-216.97998046875
-202.33154296875
-187.68310546875
-178.52783203125
-172.119140625
-180.35888671875
-164.794921875
-156.55517578125
-152.89306640625
-153.80859375
-150.146484375
-139.16015625
-123.59619140625
-102.5390625
-109.86328125
-99.79248046875
-86.0595703125
-85.14404296875
-77.81982421875
-73.2421875
-64.0869140625
-64.0869140625
-41.19873046875
-7.32421875
15.56396484375
24.71923828125
31.1279296875
20.1416015625
25.634765625
22.88818359375
27.4658203125
33.87451171875
60.4248046875
79.65087890625
88.80615234375
80.56640625
82.3974609375
79.65087890625
78.7353515625
74.15771484375
78.7353515625
82.3974609375
86.97509765625
97.96142578125
97.0458984375
89.7216796875
86.0595703125
94.29931640625
97.0458984375
92.46826171875
86.97509765625
105.28564453125
97.0458984375
110.77880859375
120.849609375
107.11669921875
113.525390625
112.60986328125
108.0322265625
101.62353515625
106.201171875
98.876953125
108.94775390625
119.93408203125
128.173828125
134.58251953125
126.3427734375
128.173828125
143.73779296875
127.25830078125
126.3427734375
131.8359375
151.9775390625
151.9775390625
166.6259765625
165.71044921875
159.3017578125
161.1328125
148.3154296875
163.87939453125
149.23095703125
173.03466796875
172.119140625
177.6123046875
183.10546875
186.767578125
191.34521484375
185.85205078125
171.20361328125
184.9365234375
203.2470703125
199.5849609375
203.2470703125
199.5849609375
205.99365234375
213.31787109375
214.2333984375
207.82470703125
213.31787109375
211.48681640625
203.2470703125
218.81103515625
225.2197265625
218.81103515625
221.5576171875
219.7265625
216.97998046875
208.740234375
204.16259765625
215.14892578125
202.33154296875
193.17626953125
197.75390625
206.9091796875
208.740234375
201.416015625
184.02099609375
177.6123046875
158.38623046875
158.38623046875
141.90673828125
132.75146484375
132.75146484375
128.173828125
124.51171875
123.59619140625
119.93408203125
107.11669921875
92.46826171875
91.552734375
75.0732421875
74.15771484375
77.81982421875
72.32666015625
71.4111328125
67.7490234375
69.580078125
63.17138671875
44.86083984375
41.19873046875
36.62109375
38.4521484375
40.283203125
40.283203125
40.283203125
33.87451171875
32.958984375
32.958984375
25.634765625
23.8037109375
21.05712890625
18.310546875
22.88818359375
35.70556640625
28.38134765625
30.21240234375
32.958984375
33.87451171875
27.4658203125
15.56396484375
25.634765625
17.39501953125
28.38134765625
40.283203125
55.84716796875
37.53662109375
37.53662109375
31.1279296875
27.4658203125
24.71923828125
26.55029296875
30.21240234375
33.87451171875
38.4521484375
41.19873046875
41.19873046875
32.04345703125
32.04345703125
29.296875
31.1279296875
41.19873046875
36.62109375
30.21240234375
37.53662109375
39.36767578125
33.87451171875
32.958984375
37.53662109375
24.71923828125
25.634765625
26.55029296875
18.310546875
21.05712890625
25.634765625
45.7763671875
27.4658203125
28.38134765625
26.55029296875
15.56396484375
6.40869140625
8.23974609375
5.4931640625
13.73291015625
18.310546875
23.8037109375
25.634765625
25.634765625
19.22607421875
-3.662109375
7.32421875
7.32421875
10.986328125
17.39501953125
18.310546875
20.1416015625
11.90185546875
13.73291015625
18.310546875
8.23974609375
10.986328125
-4.57763671875
6.40869140625
6.40869140625
12.8173828125
15.56396484375
11.90185546875
9.1552734375
7.32421875
8.23974609375
-0.91552734375
-10.986328125
-6.40869140625
8.23974609375
10.986328125
6.40869140625
0.91552734375
-7.32421875
-6.40869140625
-12.8173828125
-12.8173828125
-21.05712890625
-21.05712890625
-10.07080078125
2.74658203125
4.57763671875
2.74658203125
5.4931640625
10.986328125
21.05712890625
23.8037109375
41.19873046875
44.86083984375
44.86083984375
54.931640625
58.59375
48.52294921875
59.50927734375
36.62109375
37.53662109375
29.296875
28.38134765625
43.02978515625
54.931640625
84.228515625
94.29931640625
96.13037109375
86.0595703125
74.15771484375
75.98876953125
70.49560546875
63.17138671875
75.98876953125
94.29931640625
76.904296875
75.98876953125
57.67822265625
50.35400390625
46.69189453125
42.1142578125
43.02978515625
30.21240234375
19.22607421875
21.05712890625
26.55029296875
24.71923828125
9.1552734375
-10.07080078125
-14.6484375
-22.88818359375
-22.88818359375
-35.70556640625
-25.634765625
-23.8037109375
-13.73291015625
-15.56396484375
-25.634765625
-21.97265625
-43.02978515625
-42.1142578125
-32.958984375
-45.7763671875
-39.36767578125
-28.38134765625
-32.04345703125
-22.88818359375
-36.62109375
-41.19873046875
-41.19873046875
-45.7763671875
-43.02978515625
-40.283203125
-41.19873046875
-21.05712890625
-29.296875
-31.1279296875
-34.7900390625
-34.7900390625
-41.19873046875
-44.86083984375
-43.02978515625
-34.7900390625
-21.97265625
-9.1552734375
10.986328125
32.958984375
50.35400390625
70.49560546875
74.15771484375
74.15771484375
74.15771484375
82.3974609375
83.31298828125
92.46826171875
95.21484375
104.3701171875
111.6943359375
118.10302734375
131.8359375
122.6806640625
114.44091796875
65.91796875
-73.2421875
-249.0234375
-415.6494140625
-617.98095703125
-815.73486328125
-906.3720703125
-979.6142578125
-1030.8837890625
-1004.33349609375
-958.55712890625
-899.96337890625
-822.1435546875
-731.50634765625
-640.869140625
-567.626953125
-509.94873046875
-470.5810546875
-423.88916015625
-386.3525390625
-373.53515625
-343.32275390625
-313.1103515625
-290.22216796875
-262.75634765625
-233.45947265625
-228.8818359375
-210.5712890625
-202.33154296875
-218.81103515625
-210.5712890625
-197.75390625
-189.51416015625
-188.5986328125
-174.86572265625
-169.37255859375
-157.470703125
-150.146484375
-145.56884765625
-135.498046875
-132.75146484375
-121.76513671875
-114.44091796875
-108.94775390625
-89.7216796875
-69.580078125
-67.7490234375
-64.0869140625
-71.4111328125
-65.00244140625
-49.4384765625
-43.02978515625
-20.1416015625
7.32421875
21.97265625
23.8037109375
24.71923828125
34.7900390625
39.36767578125
46.69189453125
51.26953125
53.1005859375
62.255859375
71.4111328125
75.98876953125
77.81982421875
73.2421875
75.98876953125
65.00244140625
67.7490234375
64.0869140625
70.49560546875
84.228515625
99.79248046875
88.80615234375
86.0595703125
88.80615234375
87.890625
88.80615234375
86.0595703125
83.31298828125
88.80615234375
98.876953125
109.86328125
113.525390625
112.60986328125
114.44091796875
114.44091796875
109.86328125
107.11669921875
106.201171875
113.525390625
115.3564453125
120.849609375
130.0048828125
124.51171875
130.92041015625
133.6669921875
123.59619140625
130.0048828125
133.6669921875
136.41357421875
135.498046875
144.6533203125
152.89306640625
161.1328125
167.54150390625
168.45703125
175.78125
179.443359375
167.54150390625
173.03466796875
185.85205078125
198.66943359375
194.091796875
184.9365234375
192.2607421875
192.2607421875
184.9365234375
190.4296875
203.2470703125
201.416015625
205.078125
225.2197265625
222.47314453125
228.8818359375
227.96630859375
226.13525390625
213.31787109375
212.40234375
198.66943359375
206.9091796875
213.31787109375
220.64208984375
219.7265625
210.5712890625
207.82470703125
200.50048828125
205.078125
189.51416015625
187.68310546875
184.02099609375
194.091796875
196.83837890625
188.5986328125
178.52783203125
173.9501953125
164.794921875
161.1328125
159.3017578125
147.39990234375
130.92041015625
128.173828125
119.93408203125
125.42724609375
119.93408203125
101.62353515625
88.80615234375
86.0595703125
69.580078125
63.17138671875
68.66455078125
70.49560546875
72.32666015625
90.63720703125
71.4111328125
48.52294921875
49.4384765625
50.35400390625
31.1279296875
24.71923828125
32.958984375
40.283203125
46.69189453125
48.52294921875
42.1142578125
25.634765625
22.88818359375
24.71923828125
20.1416015625
8.23974609375
12.8173828125
11.90185546875
25.634765625
28.38134765625
27.4658203125
21.97265625
23.8037109375
17.39501953125
12.8173828125
15.56396484375
24.71923828125
26.55029296875
33.87451171875
43.02978515625
42.1142578125
38.4521484375
38.4521484375
32.04345703125
32.04345703125
21.97265625
27.4658203125
32.04345703125
42.1142578125
47.607421875
42.1142578125
32.958984375
31.1279296875
41.19873046875
33.87451171875
27.4658203125
32.04345703125
24.71923828125
36.62109375
46.69189453125
33.87451171875
26.55029296875
35.70556640625
42.1142578125
41.19873046875
23.8037109375
21.97265625
38.4521484375
43.9453125
40.283203125
34.7900390625
34.7900390625
31.1279296875
31.1279296875
25.634765625
21.97265625
21.97265625
27.4658203125
43.9453125
29.296875
21.05712890625
18.310546875
10.07080078125
13.73291015625
5.4931640625
6.40869140625
5.4931640625
8.23974609375
11.90185546875
22.88818359375
30.21240234375
18.310546875
10.986328125
8.23974609375
7.32421875
8.23974609375
0.91552734375
8.23974609375
8.23974609375
4.57763671875
1.8310546875
6.40869140625
-1.8310546875
2.74658203125
-0.91552734375
-2.74658203125
-2.74658203125
-1.8310546875
10.07080078125
16.4794921875
5.4931640625
4.57763671875
0
-5.4931640625
-11.90185546875
-12.8173828125
-4.57763671875
-8.23974609375
2.74658203125
12.8173828125
4.57763671875
1.8310546875
0
8.23974609375
10.986328125
9.1552734375
14.6484375
29.296875
48.52294921875
59.50927734375
60.4248046875
65.00244140625
55.84716796875
48.52294921875
41.19873046875
48.52294921875
47.607421875
47.607421875
55.84716796875
51.26953125
52.18505859375
64.0869140625
84.228515625
101.62353515625
95.21484375
71.4111328125
71.4111328125
71.4111328125
84.228515625
97.96142578125
94.29931640625
81.48193359375
71.4111328125
64.0869140625
48.52294921875
45.7763671875
44.86083984375
43.9453125
50.35400390625
50.35400390625
34.7900390625
19.22607421875
17.39501953125
-5.4931640625
-19.22607421875
-25.634765625
-21.05712890625
-17.39501953125
-11.90185546875
-8.23974609375
-13.73291015625
-16.4794921875
-21.05712890625
-25.634765625
-24.71923828125
-32.04345703125
-40.283203125
-34.7900390625
-29.296875
-16.4794921875
-32.04345703125
-26.55029296875
-31.1279296875
-32.04345703125
-35.70556640625
-38.4521484375
-31.1279296875
-26.55029296875
-24.71923828125
-21.05712890625
-19.22607421875
-21.97265625
-21.05712890625
-22.88818359375
-36.62109375
-30.21240234375
-34.7900390625
-36.62109375
-32.958984375
-15.56396484375
-16.4794921875
-20.1416015625
6.40869140625
19.22607421875
27.4658203125
35.70556640625
51.26953125
68.66455078125
76.904296875
86.0595703125
93.3837890625
86.97509765625
88.80615234375
84.228515625
93.3837890625
116.27197265625
141.90673828125
140.9912109375
133.6669921875
99.79248046875
-54.01611328125
-258.1787109375
-431.21337890625
-643.61572265625
-834.04541015625
-935.6689453125
-1005.2490234375
-1030.8837890625
-988.76953125
-931.09130859375
-888.0615234375
-826.72119140625
-745.2392578125
-653.6865234375
-580.4443359375
-526.42822265625
-478.82080078125
-437.6220703125
-389.09912109375
-349.7314453125
-328.67431640625
-321.35009765625
-291.1376953125
-269.1650390625
-247.1923828125
-236.2060546875
-227.96630859375
-215.14892578125
-203.2470703125
-193.17626953125
-197.75390625
-203.2470703125
-193.17626953125
-178.52783203125
-184.02099609375
-178.52783203125
-165.71044921875
-155.6396484375
-138.24462890625
-121.76513671875
-114.44091796875
-122.6806640625
-111.6943359375
-103.45458984375
-97.0458984375
-89.7216796875
-79.65087890625
-66.83349609375
-54.01611328125
-35.70556640625
-19.22607421875
-3.662109375
8.23974609375
9.1552734375
4.57763671875
21.05712890625
20.1416015625
34.7900390625
49.4384765625
56.7626953125
68.66455078125
65.91796875
65.91796875
68.66455078125
65.00244140625
60.4248046875
55.84716796875
64.0869140625
79.65087890625
87.890625
83.31298828125
79.65087890625
75.98876953125
73.2421875
75.98876953125
76.904296875
82.3974609375
96.13037109375
108.94775390625
113.525390625
108.0322265625
92.46826171875
98.876953125
91.552734375
85.14404296875
88.80615234375
97.96142578125
102.5390625
114.44091796875
130.0048828125
131.8359375
125.42724609375
124.51171875
124.51171875
121.76513671875
117.1875
122.6806640625
132.75146484375
147.39990234375
151.06201171875
145.56884765625
156.55517578125
162.04833984375
162.9638671875
152.89306640625
151.9775390625
158.38623046875
156.55517578125
175.78125
184.9365234375
185.85205078125
184.9365234375
180.35888671875
174.86572265625
173.03466796875
176.69677734375
178.52783203125
193.17626953125
200.50048828125
204.16259765625
205.078125
199.5849609375
204.16259765625
200.50048828125
200.50048828125
200.50048828125
207.82470703125
208.740234375
227.96630859375
232.5439453125
228.8818359375
228.8818359375
220.64208984375
215.14892578125
205.078125
197.75390625
205.99365234375
209.65576171875
217.8955078125
219.7265625
205.078125
196.83837890625
193.17626953125
177.6123046875
165.71044921875
155.6396484375
158.38623046875
152.89306640625
151.9775390625
149.23095703125
151.9775390625
130.0048828125
111.6943359375
110.77880859375
99.79248046875
86.97509765625
81.48193359375
88.80615234375
80.56640625
74.15771484375
68.66455078125
55.84716796875
53.1005859375
46.69189453125
32.958984375
37.53662109375
40.283203125
33.87451171875
36.62109375
39.36767578125
39.36767578125
36.62109375
36.62109375
21.97265625
21.05712890625
18.310546875
23.8037109375
36.62109375
31.1279296875
31.1279296875
22.88818359375
18.310546875
22.88818359375
8.23974609375
9.1552734375
4.57763671875
0.91552734375
11.90185546875
26.55029296875
34.7900390625
30.21240234375
30.21240234375
18.310546875
11.90185546875
11.90185546875
8.23974609375
12.8173828125
25.634765625
40.283203125
40.283203125
28.38134765625
30.21240234375
21.05712890625
22.88818359375
18.310546875
12.8173828125
19.22607421875
22.88818359375
32.04345703125
41.19873046875
44.86083984375
35.70556640625
22.88818359375
31.1279296875
23.8037109375
16.4794921875
21.05712890625
26.55029296875
34.7900390625
33.87451171875
28.38134765625
26.55029296875
12.8173828125
13.73291015625
27.4658203125
22.88818359375
10.07080078125
20.1416015625
31.1279296875
32.958984375
25.634765625
19.22607421875
16.4794921875
3.662109375
3.662109375
0
-2.74658203125
3.662109375
11.90185546875
12.8173828125
6.40869140625
9.1552734375
8.23974609375
2.74658203125
-2.74658203125
-8.23974609375
-7.32421875
0
4.57763671875
13.73291015625
18.310546875
19.22607421875
5.4931640625
-2.74658203125
-8.23974609375
-16.4794921875
-11.90185546875
-6.40869140625
-8.23974609375
2.74658203125
0
-0.91552734375
0
-2.74658203125
-16.4794921875
-14.6484375
-20.1416015625
-16.4794921875
-2.74658203125
0.91552734375
0.91552734375
-1.8310546875
-6.40869140625
-10.986328125
-10.07080078125
-13.73291015625
-17.39501953125
-12.8173828125
-6.40869140625
-10.07080078125
-8.23974609375
-10.986328125
-12.8173828125
-10.07080078125
-10.986328125
-20.1416015625
-25.634765625
-9.1552734375
8.23974609375
-4.57763671875
-12.8173828125
-18.310546875
-31.1279296875
-34.7900390625
-25.634765625
-26.55029296875
-29.296875
-20.1416015625
-1.8310546875
22.88818359375
25.634765625
32.958984375
43.02978515625
46.69189453125
45.7763671875
45.7763671875
50.35400390625
49.4384765625
50.35400390625
52.18505859375
33.87451171875
40.283203125
36.62109375
43.02978515625
52.18505859375
65.00244140625
72.32666015625
66.83349609375
72.32666015625
81.48193359375
62.255859375
64.0869140625
72.32666015625
75.0732421875
60.4248046875
53.1005859375
41.19873046875
37.53662109375
40.283203125
36.62109375
39.36767578125
42.1142578125
23.8037109375
12.8173828125
15.56396484375
7.32421875
1.8310546875
0
-17.39501953125
-20.1416015625
-16.4794921875
-14.6484375
-24.71923828125
-33.87451171875
-37.53662109375
-43.9453125
-47.607421875
-36.62109375
-27.4658203125
-27.4658203125
-27.4658203125
-38.4521484375
-42.1142578125
-34.7900390625
-39.36767578125
-39.36767578125
-42.1142578125
-45.7763671875
-31.1279296875
-23.8037109375
-36.62109375
-41.19873046875
-43.02978515625
-39.36767578125
-41.19873046875
-44.86083984375
-43.02978515625
-45.7763671875
-34.7900390625
-18.310546875
-15.56396484375
-26.55029296875
-38.4521484375
-43.9453125
-32.958984375
-8.23974609375
10.986328125
25.634765625
49.4384765625
70.49560546875
62.255859375
51.26953125
62.255859375
71.4111328125
60.4248046875
68.66455078125
94.29931640625
121.76513671875
140.9912109375
178.52783203125
163.87939453125
153.80859375
114.44091796875
-29.296875
-232.5439453125
-411.9873046875
-617.98095703125
-790.10009765625
-884.3994140625
-970.458984375
-1018.98193359375
-991.51611328125
-957.6416015625
-915.52734375
-852.35595703125
-776.3671875
-666.50390625
-575.86669921875
-511.77978515625
-464.17236328125
-428.466796875
-393.6767578125
-358.88671875
-341.49169921875
-316.7724609375
-291.1376953125
-268.24951171875
-254.5166015625
-231.62841796875
-224.30419921875
-224.30419921875
-220.64208984375
-214.2333984375
-214.2333984375
-201.416015625
-196.83837890625
-191.34521484375
-173.9501953125
-160.21728515625
-155.6396484375
-141.90673828125
-124.51171875
-133.6669921875
-142.822265625
-140.07568359375
-123.59619140625
-108.94775390625
-102.5390625
-86.97509765625
-69.580078125
-68.66455078125
-65.00244140625
-52.18505859375
-44.86083984375
-23.8037109375
-5.4931640625
3.662109375
4.57763671875
25.634765625
32.958984375
31.1279296875
34.7900390625
50.35400390625
52.18505859375
48.52294921875
43.9453125
51.26953125
51.26953125
62.255859375
73.2421875
71.4111328125
71.4111328125
75.0732421875
65.00244140625
64.0869140625
62.255859375
63.17138671875
73.2421875
80.56640625
86.0595703125
86.97509765625
84.228515625
78.7353515625
86.0595703125
77.81982421875
74.15771484375
80.56640625
83.31298828125
92.46826171875
107.11669921875
109.86328125
108.94775390625
110.77880859375
108.0322265625
108.0322265625
107.11669921875
106.201171875
125.42724609375
126.3427734375
138.24462890625
135.498046875
137.3291015625
143.73779296875
132.75146484375
130.92041015625
128.173828125
137.3291015625
146.484375
158.38623046875
164.794921875
161.1328125
162.04833984375
162.04833984375
167.54150390625
163.87939453125
163.87939453125
169.37255859375
173.9501953125
184.9365234375
198.66943359375
195.9228515625
192.2607421875
194.091796875
197.75390625
195.00732421875
197.75390625
203.2470703125
209.65576171875
216.064453125
217.8955078125
214.2333984375
213.31787109375
216.064453125
206.9091796875
211.48681640625
215.14892578125
210.5712890625
211.48681640625
208.740234375
212.40234375
215.14892578125
214.2333984375
200.50048828125
195.00732421875
190.4296875
183.10546875
179.443359375
175.78125
176.69677734375
181.2744140625
180.35888671875
160.21728515625
149.23095703125
134.58251953125
131.8359375
118.10302734375
110.77880859375
109.86328125
106.201171875
99.79248046875
90.63720703125
88.80615234375
86.0595703125
74.15771484375
66.83349609375
60.4248046875
47.607421875
52.18505859375
53.1005859375
56.7626953125
52.18505859375
39.36767578125
38.4521484375
30.21240234375
24.71923828125
22.88818359375
15.56396484375
18.310546875
18.310546875
24.71923828125
21.97265625
15.56396484375
20.1416015625
10.07080078125
0
3.662109375
3.662109375
3.662109375
14.6484375
23.8037109375
22.88818359375
21.97265625
18.310546875
18.310546875
12.8173828125
6.40869140625
12.8173828125
10.986328125
25.634765625
23.8037109375
21.05712890625
20.1416015625
12.8173828125
14.6484375
10.07080078125
3.662109375
12.8173828125
24.71923828125
33.87451171875
30.21240234375
30.21240234375
32.04345703125
28.38134765625
26.55029296875
25.634765625
18.310546875
16.4794921875
25.634765625
33.87451171875
36.62109375
30.21240234375
33.87451171875
26.55029296875
17.39501953125
16.4794921875
10.07080078125
11.90185546875
10.07080078125
13.73291015625
22.88818359375
19.22607421875
21.05712890625
16.4794921875
10.07080078125
11.90185546875
3.662109375
6.40869140625
6.40869140625
11.90185546875
10.07080078125
11.90185546875
5.4931640625
0
10.986328125
2.74658203125
0.91552734375
-0.91552734375
5.4931640625
10.986328125
13.73291015625
9.1552734375
3.662109375
0
-3.662109375
-11.90185546875
-11.90185546875
-9.1552734375
-3.662109375
-8.23974609375
-5.4931640625
0
0.91552734375
-0.91552734375
-9.1552734375
-11.90185546875
-11.90185546875
-4.57763671875
-6.40869140625
-3.662109375
-1.8310546875
-2.74658203125
-8.23974609375
-18.310546875
-19.22607421875
-21.05712890625
-22.88818359375
-22.88818359375
-20.1416015625
-14.6484375
-9.1552734375
-11.90185546875
-20.1416015625
-20.1416015625
-19.22607421875
-24.71923828125
-32.958984375
-39.36767578125
-28.38134765625
-10.986328125
0
-11.90185546875
-27.4658203125
-33.87451171875
-29.296875
-21.97265625
-22.88818359375
-30.21240234375
-22.88818359375
-16.4794921875
-8.23974609375
-15.56396484375
-17.39501953125
-10.986328125
-10.07080078125
-13.73291015625
-15.56396484375
-13.73291015625
-12.8173828125
-10.986328125
-5.4931640625
-12.8173828125
-6.40869140625
-13.73291015625
-11.90185546875
-14.6484375
-21.05712890625
-24.71923828125
-12.8173828125
-25.634765625
-15.56396484375
-9.1552734375
-16.4794921875
-18.310546875
-27.4658203125
-23.8037109375
-26.55029296875
-20.1416015625
-17.39501953125
-16.4794921875
-7.32421875
-2.74658203125
-9.1552734375
-21.97265625
-13.73291015625
-22.88818359375
-32.958984375
-29.296875
-24.71923828125
-10.986328125
0
4.57763671875
11.90185546875
21.05712890625
28.38134765625
32.958984375
32.958984375
40.283203125
41.19873046875
48.52294921875
43.9453125
54.931640625
52.18505859375
36.62109375
27.4658203125
20.1416015625
21.97265625
29.296875
48.52294921875
77.81982421875
96.13037109375
78.7353515625
65.00244140625
61.34033203125
65.00244140625
67.7490234375
65.91796875
59.50927734375
53.1005859375
54.931640625
50.35400390625
44.86083984375
34.7900390625
39.36767578125
28.38134765625
21.05712890625
11.90185546875
8.23974609375
9.1552734375
18.310546875
11.90185546875
-4.57763671875
-19.22607421875
-24.71923828125
-32.958984375
-30.21240234375
-33.87451171875
-38.4521484375
-33.87451171875
-27.4658203125
-26.55029296875
-29.296875
-41.19873046875
-53.1005859375
-46.69189453125
-44.86083984375
-46.69189453125
-48.52294921875
-43.9453125
-36.62109375
-21.97265625
-25.634765625
-31.1279296875
-30.21240234375
-39.36767578125
-48.52294921875
-44.86083984375
-43.02978515625
-31.1279296875
-27.4658203125
-31.1279296875
-27.4658203125
-32.04345703125
-33.87451171875
-42.1142578125
-39.36767578125
-40.283203125
-38.4521484375
-21.97265625
10.986328125
43.02978515625
58.59375
65.00244140625
48.52294921875
47.607421875
58.59375
64.0869140625
64.0869140625
83.31298828125
110.77880859375
127.25830078125
145.56884765625
171.20361328125
162.9638671875
155.6396484375
112.60986328125
-43.9453125
-232.5439453125
-411.9873046875
-627.13623046875
-788.26904296875
-886.23046875
-988.76953125
-1027.2216796875
-994.2626953125
-953.06396484375
-910.0341796875
-842.28515625
-751.64794921875
-650.93994140625
-567.626953125
-513.61083984375
-472.412109375
-436.70654296875
-400.08544921875
-368.0419921875
-347.900390625
-325.01220703125
-290.22216796875
-256.34765625
-229.79736328125
-221.5576171875
-211.48681640625
-216.064453125
-216.064453125
-207.82470703125
-211.48681640625
-212.40234375
-207.82470703125
-194.091796875
-191.34521484375
-178.52783203125
-175.78125
-171.20361328125
-154.72412109375
-153.80859375
-154.72412109375
-141.90673828125
-125.42724609375
-105.28564453125
-93.3837890625
-85.14404296875
-88.80615234375
-83.31298828125
-77.81982421875
-72.32666015625
-62.255859375
-43.02978515625
-10.07080078125
2.74658203125
13.73291015625
21.97265625
24.71923828125
22.88818359375
22.88818359375
36.62109375
36.62109375
38.4521484375
42.1142578125
51.26953125
55.84716796875
64.0869140625
66.83349609375
58.59375
58.59375
57.67822265625
52.18505859375
54.01611328125
65.00244140625
67.7490234375
66.83349609375
67.7490234375
65.00244140625
75.98876953125
67.7490234375
68.66455078125
83.31298828125
78.7353515625
77.81982421875
79.65087890625
95.21484375
108.0322265625
99.79248046875
103.45458984375
104.3701171875
94.29931640625
97.96142578125
98.876953125
108.0322265625
113.525390625
119.0185546875
119.93408203125
109.86328125
108.94775390625
117.1875
118.10302734375
118.10302734375
122.6806640625
126.3427734375
134.58251953125
136.41357421875
139.16015625
140.9912109375
144.6533203125
138.24462890625
133.6669921875
144.6533203125
159.3017578125
169.37255859375
173.9501953125
174.86572265625
179.443359375
185.85205078125
190.4296875
180.35888671875
182.18994140625
174.86572265625
183.10546875
191.34521484375
197.75390625
203.2470703125
205.99365234375
205.99365234375
195.00732421875
196.83837890625
205.078125
208.740234375
196.83837890625
198.66943359375
210.5712890625
216.97998046875
216.97998046875
212.40234375
209.65576171875
197.75390625
198.66943359375
197.75390625
188.5986328125
183.10546875
188.5986328125
192.2607421875
184.9365234375
171.20361328125
164.794921875
161.1328125
149.23095703125
136.41357421875
131.8359375
120.849609375
120.849609375
124.51171875
112.60986328125
100.7080078125
88.80615234375
89.7216796875
84.228515625
78.7353515625
64.0869140625
67.7490234375
68.66455078125
61.34033203125
63.17138671875
51.26953125
50.35400390625
37.53662109375
24.71923828125
16.4794921875
14.6484375
12.8173828125
10.986328125
20.1416015625
27.4658203125
22.88818359375
18.310546875
21.97265625
12.8173828125
0.91552734375
0.91552734375
11.90185546875
19.22607421875
18.310546875
15.56396484375
10.986328125
8.23974609375
0
-5.4931640625
-4.57763671875
-10.07080078125
0
13.73291015625
21.05712890625
27.4658203125
21.05712890625
18.310546875
21.05712890625
9.1552734375
10.986328125
12.8173828125
10.986328125
24.71923828125
29.296875
30.21240234375
23.8037109375
13.73291015625
21.05712890625
20.1416015625
9.1552734375
8.23974609375
18.310546875
22.88818359375
24.71923828125
28.38134765625
24.71923828125
15.56396484375
9.1552734375
11.90185546875
-0.91552734375
-7.32421875
0.91552734375
13.73291015625
28.38134765625
32.04345703125
20.1416015625
14.6484375
11.90185546875
10.07080078125
6.40869140625
-3.662109375
7.32421875
10.07080078125
14.6484375
20.1416015625
25.634765625
20.1416015625
2.74658203125
2.74658203125
-3.662109375
-11.90185546875
-7.32421875
-3.662109375
9.1552734375
8.23974609375
3.662109375
1.8310546875
-1.8310546875
-10.986328125
-11.90185546875
-15.56396484375
-10.986328125
-4.57763671875
-2.74658203125
-2.74658203125
-7.32421875
-14.6484375
-14.6484375
-17.39501953125
-10.986328125
-19.22607421875
-10.986328125
-0.91552734375
-1.8310546875
-5.4931640625
-7.32421875
-8.23974609375
-22.88818359375
-22.88818359375
-26.55029296875
-25.634765625
-16.4794921875
-10.07080078125
-11.90185546875
-11.90185546875
-16.4794921875
-19.22607421875
-18.310546875
-25.634765625
-30.21240234375
-23.8037109375
-30.21240234375
-15.56396484375
-10.07080078125
-12.8173828125
-10.986328125
-10.986328125
-19.22607421875
-27.4658203125
-31.1279296875
-33.87451171875
-36.62109375
-30.21240234375
-20.1416015625
-9.1552734375
-9.1552734375
-14.6484375
-22.88818359375
-26.55029296875
-28.38134765625
-32.04345703125
-31.1279296875
-20.1416015625
-6.40869140625
-11.90185546875
-24.71923828125
-32.04345703125
-32.958984375
-36.62109375
-33.87451171875
-40.283203125
-32.958984375
-24.71923828125
-11.90185546875
-15.56396484375
-19.22607421875
-24.71923828125
-22.88818359375
-20.1416015625
-25.634765625
-31.1279296875
-17.39501953125
-13.73291015625
-10.07080078125
-9.1552734375
-13.73291015625
-21.97265625
-33.87451171875
-32.958984375
-35.70556640625
-36.62109375
-29.296875
-22.88818359375
-19.22607421875
-20.1416015625
-18.310546875
-21.97265625
-34.7900390625
-32.958984375
-32.958984375
-37.53662109375
-37.53662109375
-32.04345703125
-25.634765625
-25.634765625
-28.38134765625
-24.71923828125
-34.7900390625
-32.958984375
-31.1279296875
-33.87451171875
-27.4658203125
-12.8173828125
-9.1552734375
-18.310546875
-22.88818359375
-16.4794921875
-8.23974609375
-10.07080078125
-11.90185546875
-13.73291015625
-5.4931640625
12.8173828125
36.62109375
37.53662109375
34.7900390625
33.87451171875
28.38134765625
25.634765625
21.97265625
22.88818359375
15.56396484375
25.634765625
31.1279296875
30.21240234375
43.9453125
62.255859375
65.91796875
57.67822265625
48.52294921875
40.283203125
43.02978515625
52.18505859375
56.7626953125
62.255859375
64.0869140625
54.931640625
40.283203125
30.21240234375
19.22607421875
9.1552734375
13.73291015625
21.05712890625
30.21240234375
19.22607421875
15.56396484375
7.32421875
0
-15.56396484375
-31.1279296875
-39.36767578125
-35.70556640625
-26.55029296875
-25.634765625
-27.4658203125
-39.36767578125
-39.36767578125
-38.4521484375
-52.18505859375
-67.7490234375
-61.34033203125
-56.7626953125
-50.35400390625
-40.283203125
-36.62109375
-39.36767578125
-43.9453125
-45.7763671875
-41.19873046875
-43.9453125
-45.7763671875
-43.02978515625
-37.53662109375
-35.70556640625
-35.70556640625
-41.19873046875
-36.62109375
-39.36767578125
-43.9453125
-52.18505859375
-53.1005859375
-50.35400390625
-47.607421875
-30.21240234375
-31.1279296875
-28.38134765625
-17.39501953125
-4.57763671875
16.4794921875
30.21240234375
34.7900390625
33.87451171875
38.4521484375
49.4384765625
46.69189453125
59.50927734375
67.7490234375
87.890625
106.201171875
112.60986328125
145.56884765625
160.21728515625
158.38623046875
137.3291015625
29.296875
-156.55517578125
-342.4072265625
-557.55615234375
-769.95849609375
-877.99072265625
-975.9521484375
-1031.79931640625
-999.755859375
-953.9794921875
-906.3720703125
-849.609375
-763.5498046875
-668.3349609375
-588.68408203125
-531.92138671875
-499.8779296875
-454.1015625
-401.91650390625
-361.63330078125
-339.66064453125
-319.51904296875
-296.630859375
-276.4892578125
-265.5029296875
-250.8544921875
-246.27685546875
-236.2060546875
-222.47314453125
-210.5712890625
-206.9091796875
-205.078125
-205.078125
-207.82470703125
-201.416015625
-201.416015625
-201.416015625
-184.02099609375
-166.6259765625
-151.9775390625
-155.6396484375
-156.55517578125
-142.822265625
-128.173828125
-115.3564453125
-112.60986328125
-101.62353515625
-86.0595703125
-83.31298828125
-74.15771484375
-62.255859375
-46.69189453125
-31.1279296875
-12.8173828125
-10.07080078125
-10.07080078125
1.8310546875
7.32421875
20.1416015625
33.87451171875
44.86083984375
54.01611328125
43.02978515625
37.53662109375
39.36767578125
24.71923828125
29.296875
40.283203125
54.01611328125
65.00244140625
64.0869140625
69.580078125
66.83349609375
60.4248046875
58.59375
54.931640625
50.35400390625
60.4248046875
66.83349609375
77.81982421875
73.2421875
72.32666015625
72.32666015625
67.7490234375
73.2421875
77.81982421875
69.580078125
80.56640625
89.7216796875
102.5390625
99.79248046875
88.80615234375
89.7216796875
95.21484375
94.29931640625
95.21484375
100.7080078125
108.0322265625
110.77880859375
118.10302734375
123.59619140625
125.42724609375
129.08935546875
128.173828125
121.76513671875
121.76513671875
115.3564453125
129.08935546875
140.9912109375
152.89306640625
156.55517578125
153.80859375
157.470703125
146.484375
145.56884765625
151.06201171875
149.23095703125
152.89306640625
166.6259765625
173.9501953125
185.85205078125
185.85205078125
188.5986328125
191.34521484375
190.4296875
173.9501953125
179.443359375
195.9228515625
200.50048828125
206.9091796875
204.16259765625
204.16259765625
203.2470703125
199.5849609375
198.66943359375
189.51416015625
195.00732421875
203.2470703125
201.416015625
206.9091796875
203.2470703125
200.50048828125
197.75390625
186.767578125
182.18994140625
172.119140625
166.6259765625
164.794921875
162.9638671875
172.119140625
165.71044921875
145.56884765625
132.75146484375
123.59619140625
117.1875
105.28564453125
95.21484375
101.62353515625
97.0458984375
97.0458984375
90.63720703125
82.3974609375
67.7490234375
62.255859375
58.59375
45.7763671875
49.4384765625
52.18505859375
46.69189453125
48.52294921875
53.1005859375
42.1142578125
37.53662109375
32.04345703125
23.8037109375
21.05712890625
15.56396484375
14.6484375
21.05712890625
30.21240234375
25.634765625
20.1416015625
12.8173828125
8.23974609375
9.1552734375
0
7.32421875
10.07080078125
15.56396484375
29.296875
27.4658203125
10.07080078125
6.40869140625
4.57763671875
0.91552734375
0
-7.32421875
-0.91552734375
12.8173828125
21.97265625
14.6484375
15.56396484375
6.40869140625
6.40869140625
18.310546875
10.986328125
13.73291015625
21.05712890625
28.38134765625
32.04345703125
31.1279296875
31.1279296875
23.8037109375
21.05712890625
21.97265625
13.73291015625
7.32421875
15.56396484375
23.8037109375
28.38134765625
24.71923828125
16.4794921875
20.1416015625
19.22607421875
12.8173828125
0
-7.32421875
-3.662109375
12.8173828125
12.8173828125
13.73291015625
13.73291015625
14.6484375
11.90185546875
6.40869140625
1.8310546875
-0.91552734375
-0.91552734375
9.1552734375
16.4794921875
7.32421875
5.4931640625
4.57763671875
-1.8310546875
-0.91552734375
0.91552734375
-2.74658203125
-1.8310546875
1.8310546875
3.662109375
3.662109375
-7.32421875
-10.986328125
-10.07080078125
-13.73291015625
-18.310546875
-18.310546875
-10.986328125
-14.6484375
-4.57763671875
-4.57763671875
-14.6484375
-8.23974609375
-10.986328125
-14.6484375
-8.23974609375
-7.32421875
-6.40869140625
-6.40869140625
0.91552734375
2.74658203125
-1.8310546875
-3.662109375
-4.57763671875
-17.39501953125
-18.310546875
-21.97265625
-15.56396484375
-12.8173828125
-9.1552734375
-8.23974609375
-14.6484375
-13.73291015625
-12.8173828125
-17.39501953125
-22.88818359375
-18.310546875
-13.73291015625
-13.73291015625
-11.90185546875
-12.8173828125
-12.8173828125
-13.73291015625
-19.22607421875
-21.97265625
-20.1416015625
-32.958984375
-35.70556640625
-21.05712890625
-9.1552734375
-9.1552734375
-12.8173828125
-9.1552734375
-13.73291015625
-15.56396484375
-23.8037109375
-25.634765625
-20.1416015625
-11.90185546875
-10.986328125
-8.23974609375
-7.32421875
-13.73291015625
-22.88818359375
-28.38134765625
-29.296875
-35.70556640625
-21.05712890625
-17.39501953125
-12.8173828125
-12.8173828125
-12.8173828125
-10.07080078125
-20.1416015625
-21.05712890625
-24.71923828125
-29.296875
-26.55029296875
-21.97265625
-17.39501953125
-9.1552734375
-15.56396484375
-18.310546875
-19.22607421875
-25.634765625
-32.958984375
-41.19873046875
-41.19873046875
-40.283203125
-32.04345703125
-15.56396484375
-16.4794921875
-23.8037109375
-24.71923828125
-24.71923828125
-28.38134765625
-28.38134765625
-20.1416015625
-2.74658203125
10.986328125
2.74658203125
-6.40869140625
-3.662109375
-11.90185546875
-15.56396484375
-17.39501953125
-16.4794921875
-16.4794921875
-8.23974609375
-5.4931640625
-4.57763671875
-12.8173828125
-8.23974609375
-8.23974609375
-11.90185546875
-6.40869140625
9.1552734375
29.296875
34.7900390625
45.7763671875
53.1005859375
51.26953125
46.69189453125
37.53662109375
32.958984375
23.8037109375
22.88818359375
23.8037109375
32.958984375
46.69189453125
61.34033203125
70.49560546875
79.65087890625
65.00244140625
55.84716796875
49.4384765625
57.67822265625
64.0869140625
75.0732421875
80.56640625
69.580078125
53.1005859375
47.607421875
38.4521484375
34.7900390625
22.88818359375
20.1416015625
24.71923828125
16.4794921875
16.4794921875
13.73291015625
10.07080078125
8.23974609375
-12.8173828125
-20.1416015625
-12.8173828125
-20.1416015625
-21.05712890625
-21.97265625
-21.05712890625
-22.88818359375
-22.88818359375
-21.05712890625
-23.8037109375
-33.87451171875
-37.53662109375
-40.283203125
-44.86083984375
-33.87451171875
-26.55029296875
-27.4658203125
-35.70556640625
-34.7900390625
-26.55029296875
-31.1279296875
-42.1142578125
-48.52294921875
-40.283203125
-31.1279296875
-26.55029296875
-29.296875
-23.8037109375
-25.634765625
-39.36767578125
-43.9453125
-46.69189453125
-52.18505859375
-43.9453125
-30.21240234375
-16.4794921875
1.8310546875
16.4794921875
34.7900390625
42.1142578125
49.4384765625
43.02978515625
32.04345703125
51.26953125
63.17138671875
65.91796875
74.15771484375
92.46826171875
113.525390625
119.0185546875
144.6533203125
156.55517578125
151.9775390625
146.484375
53.1005859375
-117.1875
-305.7861328125
-504.45556640625
-725.09765625
-837.70751953125
-933.837890625
-1009.82666015625
-1000.67138671875
-956.72607421875
-903.62548828125
-839.53857421875
-752.5634765625
-659.1796875
-575.86669921875
-520.93505859375
-472.412109375
-443.115234375
-410.15625
-365.29541015625
-332.33642578125
-300.29296875
-280.1513671875
-262.75634765625
-249.0234375
-236.2060546875
-225.2197265625
-223.388671875
-229.79736328125
-220.64208984375
-205.99365234375
-197.75390625
-198.66943359375
-200.50048828125
-191.34521484375
-189.51416015625
-190.4296875
-181.2744140625
-173.9501953125
-152.89306640625
-143.73779296875
-136.41357421875
-125.42724609375
-115.3564453125
-110.77880859375
-105.28564453125
-97.96142578125
-89.7216796875
-79.65087890625
-71.4111328125
-58.59375
-38.4521484375
-21.05712890625
-3.662109375
7.32421875
10.986328125
15.56396484375
18.310546875
15.56396484375
24.71923828125
43.9453125
59.50927734375
59.50927734375
53.1005859375
56.7626953125
50.35400390625
48.52294921875
54.01611328125
40.283203125
38.4521484375
47.607421875
56.7626953125
61.34033203125
63.17138671875
76.904296875
79.65087890625
84.228515625
76.904296875
75.0732421875
78.7353515625
86.0595703125
90.63720703125
97.0458984375
100.7080078125
95.21484375
86.97509765625
89.7216796875
86.97509765625
93.3837890625
94.29931640625
99.79248046875
104.3701171875
111.6943359375
108.0322265625
108.0322265625
107.11669921875
101.62353515625
104.3701171875
112.60986328125
115.3564453125
122.6806640625
129.08935546875
130.92041015625
130.92041015625
134.58251953125
134.58251953125
128.173828125
120.849609375
122.6806640625
134.58251953125
150.146484375
155.6396484375
162.04833984375
163.87939453125
160.21728515625
170.2880859375
170.2880859375
162.9638671875
157.470703125
165.71044921875
172.119140625
184.02099609375
195.00732421875
194.091796875
196.83837890625
195.9228515625
190.4296875
192.2607421875
194.091796875
205.99365234375
208.740234375
216.064453125
216.064453125
215.14892578125
203.2470703125
203.2470703125
205.078125
202.33154296875
204.16259765625
209.65576171875
205.99365234375
205.078125
203.2470703125
202.33154296875
187.68310546875
179.443359375
169.37255859375
173.03466796875
160.21728515625
162.9638671875
167.54150390625
167.54150390625
162.04833984375
150.146484375
136.41357421875
114.44091796875
104.3701171875
99.79248046875
97.0458984375
103.45458984375
96.13037109375
96.13037109375
91.552734375
91.552734375
77.81982421875
59.50927734375
59.50927734375
43.9453125
37.53662109375
44.86083984375
44.86083984375
44.86083984375
42.1142578125
42.1142578125
24.71923828125
15.56396484375
19.22607421875
24.71923828125
27.4658203125
22.88818359375
16.4794921875
25.634765625
30.21240234375
24.71923828125
17.39501953125
15.56396484375
18.310546875
10.07080078125
9.1552734375
14.6484375
24.71923828125
27.4658203125
28.38134765625
30.21240234375
21.97265625
19.22607421875
19.22607421875
10.07080078125
7.32421875
20.1416015625
30.21240234375
29.296875
28.38134765625
32.04345703125
22.88818359375
19.22607421875
21.05712890625
14.6484375
9.1552734375
21.05712890625
29.296875
36.62109375
39.36767578125
27.4658203125
27.4658203125
21.97265625
21.97265625
20.1416015625
14.6484375
19.22607421875
25.634765625
33.87451171875
33.87451171875
23.8037109375
26.55029296875
18.310546875
10.986328125
14.6484375
12.8173828125
19.22607421875
31.1279296875
39.36767578125
43.02978515625
33.87451171875
23.8037109375
11.90185546875
9.1552734375
-1.8310546875
1.8310546875
13.73291015625
16.4794921875
10.07080078125
12.8173828125
12.8173828125
11.90185546875
13.73291015625
9.1552734375
2.74658203125
0.91552734375
8.23974609375
13.73291015625
20.1416015625
17.39501953125
9.1552734375
9.1552734375
-1.8310546875
-5.4931640625
3.662109375
3.662109375
1.8310546875
-2.74658203125
6.40869140625
0.91552734375
4.57763671875
-1.8310546875
-6.40869140625
-6.40869140625
-5.4931640625
-5.4931640625
2.74658203125
2.74658203125
7.32421875
11.90185546875
3.662109375
0
0.91552734375
-6.40869140625
-12.8173828125
-19.22607421875
-13.73291015625
-1.8310546875
0.91552734375
5.4931640625
0
-6.40869140625
-10.07080078125
-11.90185546875
-11.90185546875
-16.4794921875
-10.986328125
0
7.32421875
10.07080078125
6.40869140625
1.8310546875
-0.91552734375
-2.74658203125
-9.1552734375
-14.6484375
-21.97265625
-10.986328125
1.8310546875
6.40869140625
5.4931640625
-0.91552734375
-13.73291015625
-17.39501953125
-10.07080078125
-12.8173828125
-6.40869140625
-5.4931640625
1.8310546875
9.1552734375
5.4931640625
2.74658203125
-4.57763671875
-5.4931640625
-1.8310546875
-10.986328125
-9.1552734375
0
-0.91552734375
-0.91552734375
0
-2.74658203125
-4.57763671875
-7.32421875
-15.56396484375
-23.8037109375
-14.6484375
-8.23974609375
0.91552734375
3.662109375
-0.91552734375
-16.4794921875
-16.4794921875
-5.4931640625
-10.07080078125
-10.07080078125
-15.56396484375
-10.07080078125
-2.74658203125
3.662109375
-1.8310546875
-5.4931640625
-7.32421875
-7.32421875
-9.1552734375
-8.23974609375
-1.8310546875
-3.662109375
2.74658203125
8.23974609375
4.57763671875
5.4931640625
4.57763671875
-4.57763671875
-12.8173828125
-25.634765625
-19.22607421875
-10.986328125
-1.8310546875
20.1416015625
22.88818359375
28.38134765625
33.87451171875
43.9453125
48.52294921875
45.7763671875
48.52294921875
54.01611328125
66.83349609375
65.91796875
62.255859375
55.84716796875
36.62109375
34.7900390625
38.4521484375
38.4521484375
45.7763671875
66.83349609375
89.7216796875
97.96142578125
81.48193359375
67.7490234375
76.904296875
84.228515625
77.81982421875
77.81982421875
78.7353515625
75.0732421875
75.98876953125
61.34033203125
53.1005859375
58.59375
43.9453125
47.607421875
45.7763671875
26.55029296875
29.296875
24.71923828125
32.958984375
32.04345703125
12.8173828125
3.662109375
-4.57763671875
-10.07080078125
-9.1552734375
-14.6484375
-21.97265625
-17.39501953125
-10.07080078125
-1.8310546875
-13.73291015625
-19.22607421875
-21.97265625
-21.97265625
-30.21240234375
-24.71923828125
-21.05712890625
-16.4794921875
-10.07080078125
-13.73291015625
-20.1416015625
-25.634765625
-24.71923828125
-27.4658203125
-23.8037109375
-26.55029296875
-20.1416015625
-13.73291015625
-7.32421875
-6.40869140625
-17.39501953125
-22.88818359375
-19.22607421875
-25.634765625
-22.88818359375
-23.8037109375
-10.07080078125
14.6484375
45.7763671875
60.4248046875
73.2421875
71.4111328125
73.2421875
64.0869140625
64.0869140625
67.7490234375
76.904296875
89.7216796875
115.3564453125
140.07568359375
162.04833984375
173.9501953125
173.03466796875
173.9501953125
126.3427734375
-18.310546875
-203.2470703125
-383.60595703125
-598.7548828125
-765.380859375
-857.84912109375
-958.55712890625
-990.6005859375
-953.9794921875
-909.11865234375
-860.595703125
-797.42431640625
-697.6318359375
-589.599609375
-519.10400390625
-468.75
-428.466796875
-398.25439453125
-359.80224609375
-331.4208984375
-314.02587890625
-280.1513671875
-263.671875
-235.29052734375
-216.97998046875
-202.33154296875
-192.2607421875
-188.5986328125
-186.767578125
-187.68310546875
-191.34521484375
-183.10546875
-181.2744140625
-178.52783203125
-163.87939453125
-155.6396484375
-148.3154296875
-144.6533203125
-136.41357421875
-141.90673828125
-145.56884765625
-140.07568359375
-123.59619140625
-100.7080078125
-78.7353515625
-68.66455078125
-66.83349609375
-57.67822265625
-57.67822265625
-61.34033203125
-51.26953125
-23.8037109375
-5.4931640625
5.4931640625
15.56396484375
27.4658203125
34.7900390625
41.19873046875
44.86083984375
43.9453125
45.7763671875
62.255859375
60.4248046875
69.580078125
69.580078125
70.49560546875
74.15771484375
80.56640625
75.98876953125
73.2421875
67.7490234375
74.15771484375
80.56640625
90.63720703125
100.7080078125
89.7216796875
85.14404296875
79.65087890625
80.56640625
83.31298828125
80.56640625
86.97509765625
93.3837890625
101.62353515625
102.5390625
103.45458984375
106.201171875
105.28564453125
105.28564453125
107.11669921875
104.3701171875
109.86328125
113.525390625
119.0185546875
126.3427734375
128.173828125
137.3291015625
130.0048828125
118.10302734375
119.0185546875
119.0185546875
123.59619140625
138.24462890625
150.146484375
147.39990234375
142.822265625
143.73779296875
138.24462890625
142.822265625
150.146484375
151.9775390625
162.9638671875
172.119140625
181.2744140625
179.443359375
176.69677734375
178.52783203125
173.03466796875
173.03466796875
182.18994140625
173.03466796875
181.2744140625
188.5986328125
198.66943359375
206.9091796875
212.40234375
209.65576171875
205.99365234375
201.416015625
195.9228515625
198.66943359375
208.740234375
217.8955078125
220.64208984375
216.064453125
214.2333984375
211.48681640625
205.078125
201.416015625
196.83837890625
191.34521484375
190.4296875
196.83837890625
204.16259765625
206.9091796875
200.50048828125
188.5986328125
182.18994140625
173.03466796875
171.20361328125
162.04833984375
153.80859375
151.06201171875
155.6396484375
152.89306640625
138.24462890625
130.92041015625
123.59619140625
112.60986328125
96.13037109375
88.80615234375
87.890625
92.46826171875
89.7216796875
80.56640625
75.98876953125
62.255859375
61.34033203125
61.34033203125
55.84716796875
50.35400390625
49.4384765625
51.26953125
52.18505859375
54.01611328125
47.607421875
38.4521484375
27.4658203125
28.38134765625
21.05712890625
17.39501953125
26.55029296875
38.4521484375
42.1142578125
39.36767578125
40.283203125
32.04345703125
27.4658203125
26.55029296875
12.8173828125
21.97265625
30.21240234375
43.02978515625
44.86083984375
49.4384765625
43.9453125
43.9453125
32.958984375
27.4658203125
21.97265625
21.97265625
29.296875
35.70556640625
48.52294921875
47.607421875
44.86083984375
43.9453125
30.21240234375
31.1279296875
38.4521484375
33.87451171875
40.283203125
42.1142578125
43.02978515625
52.18505859375
53.1005859375
39.36767578125
30.21240234375
33.87451171875
30.21240234375
27.4658203125
32.04345703125
40.283203125
58.59375
59.50927734375
51.26953125
43.9453125
33.87451171875
34.7900390625
27.4658203125
21.05712890625
30.21240234375
32.04345703125
37.53662109375
41.19873046875
29.296875
29.296875
31.1279296875
27.4658203125
17.39501953125
13.73291015625
13.73291015625
25.634765625
32.04345703125
35.70556640625
30.21240234375
21.97265625
15.56396484375
21.05712890625
18.310546875
10.986328125
22.88818359375
21.97265625
25.634765625
27.4658203125
28.38134765625
20.1416015625
7.32421875
7.32421875
0.91552734375
-6.40869140625
0
7.32421875
21.97265625
22.88818359375
21.05712890625
11.90185546875
7.32421875
10.07080078125
10.07080078125
0
0
8.23974609375
12.8173828125
20.1416015625
4.57763671875
0.91552734375
-3.662109375
-10.986328125
-8.23974609375
-10.07080078125
-2.74658203125
-1.8310546875
10.986328125
12.8173828125
6.40869140625
7.32421875
0.91552734375
-5.4931640625
-6.40869140625
-14.6484375
-2.74658203125
3.662109375
-1.8310546875
8.23974609375
13.73291015625
10.07080078125
8.23974609375
6.40869140625
-2.74658203125
-2.74658203125
3.662109375
0.91552734375
2.74658203125
5.4931640625
5.4931640625
1.8310546875
-0.91552734375
4.57763671875
2.74658203125
-9.1552734375
-2.74658203125
5.4931640625
15.56396484375
18.310546875
9.1552734375
1.8310546875
-1.8310546875
-2.74658203125
-5.4931640625
-3.662109375
2.74658203125
6.40869140625
11.90185546875
18.310546875
1.8310546875
-0.91552734375
0.91552734375
-1.8310546875
-8.23974609375
-18.310546875
-15.56396484375
-6.40869140625
2.74658203125
4.57763671875
2.74658203125
3.662109375
10.07080078125
14.6484375
25.634765625
32.04345703125
51.26953125
61.34033203125
71.4111328125
72.32666015625
69.580078125
52.18505859375
59.50927734375
62.255859375
50.35400390625
32.958984375
40.283203125
44.86083984375
54.931640625
83.31298828125
87.890625
89.7216796875
88.80615234375
74.15771484375
75.0732421875
82.3974609375
84.228515625
101.62353515625
95.21484375
88.80615234375
79.65087890625
65.91796875
52.18505859375
42.1142578125
41.19873046875
44.86083984375
42.1142578125
42.1142578125
39.36767578125
32.04345703125
22.88818359375
8.23974609375
-1.8310546875
-5.4931640625
-9.1552734375
-10.07080078125
0.91552734375
7.32421875
6.40869140625
4.57763671875
-2.74658203125
-2.74658203125
-15.56396484375
-20.1416015625
-26.55029296875
-31.1279296875
-22.88818359375
-13.73291015625
-6.40869140625
-3.662109375
-5.4931640625
-11.90185546875
-14.6484375
-22.88818359375
-24.71923828125
-21.97265625
-32.04345703125
-21.05712890625
-11.90185546875
-4.57763671875
-8.23974609375
-5.4931640625
-6.40869140625
-15.56396484375
-23.8037109375
-32.958984375
-23.8037109375
-13.73291015625
1.8310546875
21.05712890625
43.9453125
63.17138671875
67.7490234375
65.91796875
55.84716796875
59.50927734375
65.00244140625
64.0869140625
80.56640625
103.45458984375
112.60986328125
120.849609375
143.73779296875
156.55517578125
144.6533203125
140.07568359375
85.14404296875
-59.50927734375
-233.45947265625
-428.466796875
-662.841796875
-815.73486328125
-907.28759765625
-988.76953125
-996.09375
-953.06396484375
-895.3857421875
-834.9609375
-769.95849609375
-663.75732421875
-567.626953125
-504.45556640625
-457.763671875
-429.38232421875
-400.08544921875
-369.873046875
-325.01220703125
-298.4619140625
-275.57373046875
-247.1923828125
-235.29052734375
-219.7265625
-208.740234375
-207.82470703125
-204.16259765625
-205.99365234375
-207.82470703125
-195.9228515625
-187.68310546875
-182.18994140625
-183.10546875
-173.03466796875
-169.37255859375
-154.72412109375
-155.6396484375
-148.3154296875
-142.822265625
-141.90673828125
-133.6669921875
-114.44091796875
-98.876953125
-87.890625
-83.31298828125
-73.2421875
-70.49560546875
-72.32666015625
-57.67822265625
-35.70556640625
-14.6484375
-0.91552734375
16.4794921875
18.310546875
20.1416015625
26.55029296875
31.1279296875
30.21240234375
43.02978515625
63.17138671875
73.2421875
85.14404296875
78.7353515625
75.0732421875
73.2421875
71.4111328125
74.15771484375
70.49560546875
75.98876953125
79.65087890625
81.48193359375
79.65087890625
83.31298828125
89.7216796875
90.63720703125
98.876953125
97.0458984375
96.13037109375
89.7216796875
106.201171875
108.0322265625
108.94775390625
114.44091796875
106.201171875
102.5390625
96.13037109375
108.0322265625
107.11669921875
108.0322265625
115.3564453125
122.6806640625
128.173828125
130.0048828125
128.173828125
130.0048828125
133.6669921875
130.92041015625
128.173828125
126.3427734375
125.42724609375
131.8359375
141.90673828125
142.822265625
144.6533203125
142.822265625
139.16015625
139.16015625
139.16015625
146.484375
155.6396484375
169.37255859375
176.69677734375
180.35888671875
176.69677734375
178.52783203125
184.02099609375
176.69677734375
173.9501953125
180.35888671875
186.767578125
195.9228515625
203.2470703125
207.82470703125
206.9091796875
201.416015625
201.416015625
192.2607421875
188.5986328125
197.75390625
204.16259765625
217.8955078125
216.97998046875
211.48681640625
212.40234375
214.2333984375
207.82470703125
202.33154296875
196.83837890625
200.50048828125
193.17626953125
212.40234375
221.5576171875
206.9091796875
200.50048828125
195.9228515625
184.9365234375
173.03466796875
163.87939453125
163.87939453125
163.87939453125
162.9638671875
154.72412109375
147.39990234375
134.58251953125
124.51171875
109.86328125
106.201171875
102.5390625
94.29931640625
102.5390625
113.525390625
107.11669921875
86.97509765625
82.3974609375
75.0732421875
70.49560546875
62.255859375
54.931640625
57.67822265625
61.34033203125
67.7490234375
65.91796875
58.59375
51.26953125
43.9453125
39.36767578125
32.04345703125
30.21240234375
33.87451171875
34.7900390625
36.62109375
34.7900390625
32.958984375
33.87451171875
35.70556640625
37.53662109375
31.1279296875
23.8037109375
32.04345703125
40.283203125
43.02978515625
39.36767578125
36.62109375
35.70556640625
34.7900390625
27.4658203125
32.04345703125
34.7900390625
38.4521484375
36.62109375
41.19873046875
50.35400390625
53.1005859375
43.02978515625
41.19873046875
40.283203125
36.62109375
26.55029296875
26.55029296875
37.53662109375
45.7763671875
49.4384765625
55.84716796875
44.86083984375
37.53662109375
37.53662109375
28.38134765625
25.634765625
23.8037109375
38.4521484375
43.9453125
39.36767578125
36.62109375
38.4521484375
36.62109375
28.38134765625
19.22607421875
18.310546875
18.310546875
19.22607421875
24.71923828125
32.04345703125
31.1279296875
23.8037109375
16.4794921875
15.56396484375
17.39501953125
17.39501953125
17.39501953125
21.05712890625
21.97265625
25.634765625
27.4658203125
21.05712890625
11.90185546875
6.40869140625
2.74658203125
9.1552734375
4.57763671875
5.4931640625
13.73291015625
18.310546875
16.4794921875
14.6484375
10.07080078125
8.23974609375
-0.91552734375
-6.40869140625
0.91552734375
6.40869140625
10.986328125
18.310546875
13.73291015625
7.32421875
0.91552734375
-1.8310546875
-12.8173828125
-9.1552734375
0
7.32421875
9.1552734375
7.32421875
5.4931640625
0.91552734375
1.8310546875
-2.74658203125
-4.57763671875
-0.91552734375
4.57763671875
6.40869140625
12.8173828125
9.1552734375
5.4931640625
9.1552734375
4.57763671875
-10.07080078125
-13.73291015625
-11.90185546875
-0.91552734375
2.74658203125
8.23974609375
6.40869140625
-5.4931640625
-9.1552734375
-5.4931640625
-13.73291015625
-17.39501953125
-14.6484375
-14.6484375
-8.23974609375
-4.57763671875
6.40869140625
7.32421875
0
-10.07080078125
-8.23974609375
-8.23974609375
-11.90185546875
-10.07080078125
-0.91552734375
11.90185546875
10.07080078125
2.74658203125
0.91552734375
-9.1552734375
-12.8173828125
-8.23974609375
-15.56396484375
-15.56396484375
-1.8310546875
3.662109375
0
-7.32421875
-9.1552734375
-10.986328125
-10.07080078125
-16.4794921875
-12.8173828125
-4.57763671875
0.91552734375
9.1552734375
5.4931640625
-1.8310546875
4.57763671875
-0.91552734375
-10.986328125
-14.6484375
-19.22607421875
-19.22607421875
-12.8173828125
-8.23974609375
-3.662109375
1.8310546875
-0.91552734375
7.32421875
10.986328125
17.39501953125
26.55029296875
34.7900390625
49.4384765625
63.17138671875
63.17138671875
54.931640625
58.59375
51.26953125
44.86083984375
37.53662109375
31.1279296875
36.62109375
49.4384765625
59.50927734375
67.7490234375
78.7353515625
75.0732421875
71.4111328125
69.580078125
67.7490234375
65.91796875
65.91796875
72.32666015625
78.7353515625
67.7490234375
57.67822265625
50.35400390625
43.02978515625
38.4521484375
32.04345703125
29.296875
33.87451171875
32.04345703125
32.958984375
25.634765625
16.4794921875
6.40869140625
-6.40869140625
-11.90185546875
-21.97265625
-24.71923828125
-20.1416015625
-12.8173828125
-9.1552734375
-15.56396484375
-18.310546875
-22.88818359375
-34.7900390625
-37.53662109375
-38.4521484375
-40.283203125
-36.62109375
-31.1279296875
-23.8037109375
-21.97265625
-28.38134765625
-31.1279296875
-33.87451171875
-34.7900390625
-41.19873046875
-51.26953125
-50.35400390625
-34.7900390625
-27.4658203125
-29.296875
-31.1279296875
-18.310546875
-18.310546875
-20.1416015625
-25.634765625
-37.53662109375
-24.71923828125
-19.22607421875
10.07080078125
33.87451171875
39.36767578125
54.931640625
65.91796875
54.931640625
50.35400390625
53.1005859375
52.18505859375
71.4111328125
90.63720703125
112.60986328125
125.42724609375
133.6669921875
153.80859375
176.69677734375
170.2880859375
162.04833984375
100.7080078125
-53.1005859375
-238.037109375
-423.88916015625
-651.85546875
-791.93115234375
-901.79443359375
-995.17822265625
-1007.080078125
-966.796875
-907.28759765625
-841.36962890625
-760.80322265625
-670.166015625
-578.61328125
-526.42822265625
-486.14501953125
-451.35498046875
-411.9873046875
-371.7041015625
-338.7451171875
-311.279296875
-281.06689453125
-256.34765625
-248.10791015625
-223.388671875
-216.064453125
-213.31787109375
-214.2333984375
-218.81103515625
-211.48681640625
-205.99365234375
-202.33154296875
-195.00732421875
-187.68310546875
-178.52783203125
-181.2744140625
-173.9501953125
-162.9638671875
-162.9638671875
-157.470703125
-147.39990234375
-130.0048828125
-120.849609375
-109.86328125
-99.79248046875
-86.97509765625
-84.228515625
-79.65087890625
-79.65087890625
-66.83349609375
-41.19873046875
-18.310546875
0.91552734375
5.4931640625
12.8173828125
20.1416015625
19.22607421875
17.39501953125
21.97265625
30.21240234375
45.7763671875
61.34033203125
63.17138671875
61.34033203125
57.67822265625
54.931640625
59.50927734375
60.4248046875
63.17138671875
70.49560546875
78.7353515625
85.14404296875
88.80615234375
87.890625
77.81982421875
77.81982421875
75.98876953125
73.2421875
71.4111328125
73.2421875
77.81982421875
93.3837890625
92.46826171875
91.552734375
94.29931640625
94.29931640625
91.552734375
85.14404296875
86.0595703125
84.228515625
97.0458984375
111.6943359375
113.525390625
111.6943359375
111.6943359375
109.86328125
109.86328125
104.3701171875
98.876953125
111.6943359375
126.3427734375
128.173828125
134.58251953125
133.6669921875
140.9912109375
137.3291015625
134.58251953125
138.24462890625
135.498046875
143.73779296875
151.9775390625
160.21728515625
168.45703125
171.20361328125
162.04833984375
160.21728515625
165.71044921875
170.2880859375
166.6259765625
177.6123046875
189.51416015625
193.17626953125
196.83837890625
193.17626953125
201.416015625
190.4296875
184.9365234375
187.68310546875
187.68310546875
192.2607421875
200.50048828125
203.2470703125
211.48681640625
210.5712890625
204.16259765625
200.50048828125
192.2607421875
190.4296875
188.5986328125
178.52783203125
190.4296875
197.75390625
195.00732421875
193.17626953125
188.5986328125
183.10546875
173.03466796875
170.2880859375
151.9775390625
149.23095703125
149.23095703125
150.146484375
148.3154296875
139.16015625
131.8359375
126.3427734375
125.42724609375
106.201171875
95.21484375
87.890625
86.97509765625
78.7353515625
76.904296875
70.49560546875
60.4248046875
54.01611328125
48.52294921875
37.53662109375
34.7900390625
38.4521484375
39.36767578125
42.1142578125
41.19873046875
39.36767578125
32.958984375
20.1416015625
20.1416015625
19.22607421875
13.73291015625
18.310546875
18.310546875
21.97265625
21.05712890625
21.97265625
11.90185546875
7.32421875
10.07080078125
5.4931640625
-2.74658203125
0.91552734375
8.23974609375
10.986328125
14.6484375
11.90185546875
3.662109375
5.4931640625
0.91552734375
-1.8310546875
-0.91552734375
10.986328125
18.310546875
18.310546875
21.05712890625
25.634765625
23.8037109375
20.1416015625
18.310546875
14.6484375
6.40869140625
4.57763671875
15.56396484375
24.71923828125
35.70556640625
32.958984375
26.55029296875
16.4794921875
19.22607421875
12.8173828125
10.986328125
19.22607421875
21.05712890625
23.8037109375
24.71923828125
27.4658203125
27.4658203125
14.6484375
6.40869140625
-3.662109375
-3.662109375
2.74658203125
7.32421875
18.310546875
20.1416015625
19.22607421875
17.39501953125
4.57763671875
0.91552734375
0.91552734375
3.662109375
7.32421875
6.40869140625
11.90185546875
13.73291015625
2.74658203125
-2.74658203125
-8.23974609375
-10.07080078125
-10.07080078125
-13.73291015625
-15.56396484375
-5.4931640625
4.57763671875
8.23974609375
9.1552734375
1.8310546875
-1.8310546875
-0.91552734375
-11.90185546875
-16.4794921875
-16.4794921875
-13.73291015625
-6.40869140625
-5.4931640625
-1.8310546875
-0.91552734375
-12.8173828125
-15.56396484375
-16.4794921875
-17.39501953125
-13.73291015625
-5.4931640625
-3.662109375
-8.23974609375
-8.23974609375
-10.986328125
-20.1416015625
-18.310546875
-18.310546875
-17.39501953125
-18.310546875
-19.22607421875
-11.90185546875
-3.662109375
-4.57763671875
-11.90185546875
-17.39501953125
-16.4794921875
-18.310546875
-23.8037109375
-21.05712890625
-17.39501953125
-3.662109375
-4.57763671875
-9.1552734375
-13.73291015625
-12.8173828125
-21.05712890625
-21.97265625
-22.88818359375
-18.310546875
-15.56396484375
-9.1552734375
-8.23974609375
-17.39501953125
-19.22607421875
-15.56396484375
-19.22607421875
-19.22607421875
-25.634765625
-32.04345703125
-24.71923828125
-15.56396484375
-10.986328125
-9.1552734375
-13.73291015625
-13.73291015625
-18.310546875
-18.310546875
-26.55029296875
-21.97265625
-10.986328125
-6.40869140625
-6.40869140625
-11.90185546875
-15.56396484375
-21.97265625
-26.55029296875
-26.55029296875
-22.88818359375
-21.97265625
-18.310546875
-13.73291015625
-5.4931640625
-14.6484375
-16.4794921875
-14.6484375
-12.8173828125
-19.22607421875
-21.97265625
-24.71923828125
-21.97265625
-2.74658203125
5.4931640625
-0.91552734375
-3.662109375
3.662109375
19.22607421875
20.1416015625
21.97265625
36.62109375
47.607421875
54.01611328125
45.7763671875
33.87451171875
27.4658203125
32.958984375
34.7900390625
30.21240234375
20.1416015625
20.1416015625
34.7900390625
60.4248046875
78.7353515625
77.81982421875
60.4248046875
60.4248046875
65.91796875
55.84716796875
53.1005859375
65.00244140625
70.49560546875
55.84716796875
47.607421875
38.4521484375
38.4521484375
42.1142578125
31.1279296875
22.88818359375
22.88818359375
28.38134765625
21.05712890625
17.39501953125
15.56396484375
5.4931640625
-4.57763671875
-21.05712890625
-27.4658203125
-32.04345703125
-33.87451171875
-28.38134765625
-29.296875
-18.310546875
-22.88818359375
-27.4658203125
-25.634765625
-26.55029296875
-34.7900390625
-38.4521484375
-44.86083984375
-39.36767578125
-37.53662109375
-28.38134765625
-24.71923828125
-31.1279296875
-37.53662109375
-44.86083984375
-42.1142578125
-33.87451171875
-43.9453125
-40.283203125
-32.04345703125
-21.97265625
-24.71923828125
-24.71923828125
-28.38134765625
-32.04345703125
-43.9453125
-44.86083984375
-40.283203125
-21.97265625
4.57763671875
29.296875
49.4384765625
51.26953125
54.931640625
54.01611328125
43.02978515625
51.26953125
62.255859375
66.83349609375
79.65087890625
102.5390625
123.59619140625
135.498046875
161.1328125
181.2744140625
173.03466796875
161.1328125
81.48193359375
-87.890625
-270.08056640625
-448.6083984375
-657.3486328125
-792.8466796875
-897.216796875
-986.02294921875
-986.02294921875
-963.134765625
-918.27392578125
-858.7646484375
-778.1982421875
-682.06787109375
-585.02197265625
-527.34375
-476.07421875
-440.36865234375
-401.0009765625
-359.80224609375
-336.9140625
-316.7724609375
-287.4755859375
-261.8408203125
-238.037109375
-221.5576171875
-204.16259765625
-215.14892578125
-212.40234375
-208.740234375
-213.31787109375
-207.82470703125
-197.75390625
-184.9365234375
-173.03466796875
-172.119140625
-173.03466796875
-172.119140625
-166.6259765625
-162.9638671875
-159.3017578125
-149.23095703125
-129.08935546875
-102.5390625
-93.3837890625
-84.228515625
-85.14404296875
-80.56640625
-78.7353515625
-75.0732421875
-62.255859375
-43.9453125
-34.7900390625
-10.07080078125
5.4931640625
8.23974609375
21.05712890625
28.38134765625
31.1279296875
35.70556640625
33.87451171875
44.86083984375
55.84716796875
60.4248046875
71.4111328125
74.15771484375
82.3974609375
75.0732421875
67.7490234375
68.66455078125
63.17138671875
68.66455078125
85.14404296875
86.97509765625
86.97509765625
74.15771484375
70.49560546875
77.81982421875
82.3974609375
71.4111328125
62.255859375
65.00244140625
74.15771484375
85.14404296875
100.7080078125
99.79248046875
98.876953125
97.0458984375
90.63720703125
90.63720703125
90.63720703125
100.7080078125
112.60986328125
124.51171875
121.76513671875
118.10302734375
124.51171875
119.0185546875
115.3564453125
110.77880859375
122.6806640625
124.51171875
131.8359375
135.498046875
138.24462890625
136.41357421875
139.16015625
134.58251953125
132.75146484375
137.3291015625
131.8359375
154.72412109375
167.54150390625
181.2744140625
184.02099609375
187.68310546875
182.18994140625
183.10546875
181.2744140625
178.52783203125
181.2744140625
188.5986328125
194.091796875
194.091796875
205.99365234375
206.9091796875
189.51416015625
190.4296875
200.50048828125
198.66943359375
197.75390625
205.078125
213.31787109375
220.64208984375
219.7265625
215.14892578125
206.9091796875
204.16259765625
201.416015625
202.33154296875
196.83837890625
191.34521484375
189.51416015625
191.34521484375
202.33154296875
191.34521484375
185.85205078125
182.18994140625
176.69677734375
163.87939453125
155.6396484375
155.6396484375
162.04833984375
159.3017578125
147.39990234375
132.75146484375
119.0185546875
113.525390625
102.5390625
90.63720703125
89.7216796875
100.7080078125
95.21484375
97.0458984375
92.46826171875
83.31298828125
81.48193359375
74.15771484375
63.17138671875
46.69189453125
42.1142578125
42.1142578125
44.86083984375
47.607421875
48.52294921875
45.7763671875
34.7900390625
21.97265625
21.97265625
26.55029296875
24.71923828125
25.634765625
29.296875
32.958984375
42.1142578125
31.1279296875
10.07080078125
10.07080078125
13.73291015625
10.986328125
10.986328125
16.4794921875
22.88818359375
32.958984375
29.296875
24.71923828125
12.8173828125
14.6484375
18.310546875
16.4794921875
9.1552734375
17.39501953125
25.634765625
27.4658203125
32.958984375
34.7900390625
27.4658203125
27.4658203125
25.634765625
22.88818359375
29.296875
33.87451171875
45.7763671875
51.26953125
43.9453125
31.1279296875
28.38134765625
31.1279296875
24.71923828125
16.4794921875
15.56396484375
26.55029296875
27.4658203125
33.87451171875
37.53662109375
32.958984375
40.283203125
40.283203125
31.1279296875
23.8037109375
19.22607421875
20.1416015625
26.55029296875
29.296875
33.87451171875
25.634765625
21.97265625
14.6484375
10.07080078125
0.91552734375
4.57763671875
13.73291015625
21.97265625
21.97265625
24.71923828125
28.38134765625
24.71923828125
8.23974609375
10.07080078125
11.90185546875
5.4931640625
7.32421875
16.4794921875
21.05712890625
16.4794921875
13.73291015625
12.8173828125
15.56396484375
10.07080078125
7.32421875
1.8310546875
0.91552734375
7.32421875
16.4794921875
16.4794921875
10.986328125
5.4931640625
-4.57763671875
-10.07080078125
-7.32421875
-13.73291015625
-5.4931640625
4.57763671875
2.74658203125
11.90185546875
14.6484375
12.8173828125
6.40869140625
-4.57763671875
-12.8173828125
-14.6484375
-12.8173828125
-5.4931640625
6.40869140625
9.1552734375
5.4931640625
2.74658203125
-2.74658203125
-4.57763671875
-8.23974609375
-7.32421875
-11.90185546875
-2.74658203125
0
18.310546875
7.32421875
-1.8310546875
0
-9.1552734375
-14.6484375
-19.22607421875
-11.90185546875
-1.8310546875
6.40869140625
10.986328125
1.8310546875
10.07080078125
0.91552734375
-11.90185546875
-8.23974609375
0
5.4931640625
4.57763671875
3.662109375
4.57763671875
7.32421875
9.1552734375
18.310546875
19.22607421875
20.1416015625
27.4658203125
40.283203125
58.59375
54.01611328125
55.84716796875
49.4384765625
53.1005859375
51.26953125
38.4521484375
42.1142578125
31.1279296875
41.19873046875
58.59375
80.56640625
89.7216796875
75.98876953125
62.255859375
67.7490234375
69.580078125
65.00244140625
63.17138671875
70.49560546875
71.4111328125
65.91796875
74.15771484375
61.34033203125
60.4248046875
56.7626953125
54.01611328125
54.931640625
42.1142578125
35.70556640625
30.21240234375
32.04345703125
32.958984375
23.8037109375
4.57763671875
-13.73291015625
-14.6484375
-17.39501953125
-26.55029296875
-27.4658203125
-14.6484375
-10.07080078125
-11.90185546875
-14.6484375
-12.8173828125
-23.8037109375
-27.4658203125
-14.6484375
-23.8037109375
-29.296875
-23.8037109375
-10.07080078125
-11.90185546875
-19.22607421875
-15.56396484375
-22.88818359375
-32.958984375
-34.7900390625
-35.70556640625
-22.88818359375
-22.88818359375
-8.23974609375
-7.32421875
-9.1552734375
-7.32421875
-11.90185546875
-21.97265625
-22.88818359375
-21.05712890625
-17.39501953125
-1.8310546875
26.55029296875
43.9453125
61.34033203125
71.4111328125
75.98876953125
62.255859375
62.255859375
65.91796875
72.32666015625
74.15771484375
95.21484375
109.86328125
113.525390625
122.6806640625
145.56884765625
133.6669921875
123.59619140625
68.66455078125
-75.98876953125
-275.57373046875
-446.77734375
-662.841796875
-829.4677734375
-904.541015625
-986.02294921875
-995.17822265625
-955.810546875
-910.94970703125
-855.1025390625
-782.77587890625
-679.3212890625
-564.88037109375
-496.2158203125
-444.9462890625
-411.9873046875
-389.09912109375
-348.81591796875
-329.58984375
-301.20849609375
-271.91162109375
-237.12158203125
-222.47314453125
-207.82470703125
-193.17626953125
-193.17626953125
-196.83837890625
-195.00732421875
-200.50048828125
-199.5849609375
-188.5986328125
-180.35888671875
-162.04833984375
-159.3017578125
-150.146484375
-149.23095703125
-149.23095703125
-140.07568359375
-143.73779296875
-140.07568359375
-125.42724609375
-104.3701171875
-87.890625
-80.56640625
-77.81982421875
-73.2421875
-68.66455078125
-70.49560546875
-73.2421875
-43.9453125
-16.4794921875
2.74658203125
28.38134765625
30.21240234375
28.38134765625
38.4521484375
44.86083984375
39.36767578125
43.9453125
54.931640625
56.7626953125
65.00244140625
83.31298828125
84.228515625
86.97509765625
75.98876953125
72.32666015625
73.2421875
73.2421875
81.48193359375
83.31298828125
82.3974609375
86.0595703125
89.7216796875
98.876953125
95.21484375
82.3974609375
79.65087890625
91.552734375
98.876953125
104.3701171875
106.201171875
105.28564453125
102.5390625
107.11669921875
112.60986328125
108.0322265625
99.79248046875
99.79248046875
109.86328125
114.44091796875
120.849609375
133.6669921875
138.24462890625
140.9912109375
129.08935546875
125.42724609375
124.51171875
129.08935546875
130.92041015625
130.0048828125
140.07568359375
158.38623046875
161.1328125
154.72412109375
143.73779296875
149.23095703125
155.6396484375
157.470703125
164.794921875
164.794921875
175.78125
173.9501953125
176.69677734375
177.6123046875
178.52783203125
184.9365234375
181.2744140625
183.10546875
195.9228515625
201.416015625
221.5576171875
214.2333984375
216.97998046875
212.40234375
212.40234375
206.9091796875
209.65576171875
212.40234375
215.14892578125
218.81103515625
218.81103515625
222.47314453125
222.47314453125
220.64208984375
216.064453125
219.7265625
209.65576171875
205.99365234375
210.5712890625
213.31787109375
207.82470703125
207.82470703125
197.75390625
167.54150390625
162.04833984375
164.794921875
166.6259765625
151.06201171875
148.3154296875
154.72412109375
153.80859375
137.3291015625
132.75146484375
118.10302734375
119.0185546875
117.1875
112.60986328125
97.0458984375
89.7216796875
83.31298828125
76.904296875
77.81982421875
76.904296875
67.7490234375
67.7490234375
54.01611328125
43.02978515625
45.7763671875
36.62109375
38.4521484375
45.7763671875
53.1005859375
45.7763671875
30.21240234375
24.71923828125
16.4794921875
18.310546875
9.1552734375
21.05712890625
28.38134765625
33.87451171875
43.9453125
44.86083984375
34.7900390625
26.55029296875
24.71923828125
21.05712890625
22.88818359375
28.38134765625
23.8037109375
31.1279296875
32.04345703125
24.71923828125
36.62109375
33.87451171875
21.97265625
11.90185546875
21.05712890625
16.4794921875
30.21240234375
35.70556640625
44.86083984375
49.4384765625
42.1142578125
36.62109375
37.53662109375
26.55029296875
30.21240234375
31.1279296875
33.87451171875
46.69189453125
45.7763671875
42.1142578125
31.1279296875
30.21240234375
32.958984375
32.958984375
22.88818359375
24.71923828125
36.62109375
38.4521484375
32.958984375
35.70556640625
37.53662109375
32.04345703125
21.97265625
31.1279296875
14.6484375
16.4794921875
20.1416015625
31.1279296875
32.04345703125
32.04345703125
25.634765625
18.310546875
6.40869140625
9.1552734375
10.986328125
17.39501953125
25.634765625
27.4658203125
22.88818359375
29.296875
21.97265625
13.73291015625
15.56396484375
10.07080078125
9.1552734375
10.07080078125
16.4794921875
13.73291015625
17.39501953125
10.986328125
13.73291015625
16.4794921875
15.56396484375
4.57763671875
0.91552734375
1.8310546875
6.40869140625
16.4794921875
21.05712890625
20.1416015625
9.1552734375
8.23974609375
14.6484375
1.8310546875
-9.1552734375
0.91552734375
-1.8310546875
9.1552734375
18.310546875
18.310546875
14.6484375
10.07080078125
7.32421875
-5.4931640625
-18.310546875
-13.73291015625
-6.40869140625
0.91552734375
1.8310546875
2.74658203125
6.40869140625
0.91552734375
-4.57763671875
-4.57763671875
-10.986328125
6.40869140625
14.6484375
27.4658203125
41.19873046875
57.67822265625
46.69189453125
42.1142578125
40.283203125
34.7900390625
38.4521484375
47.607421875
56.7626953125
65.00244140625
65.00244140625
60.4248046875
55.84716796875
45.7763671875
45.7763671875
48.52294921875
38.4521484375
48.52294921875
56.7626953125
65.91796875
73.2421875
69.580078125
57.67822265625
55.84716796875
63.17138671875
58.59375
48.52294921875
52.18505859375
44.86083984375
52.18505859375
54.01611328125
42.1142578125
46.69189453125
19.22607421875
10.07080078125
-1.8310546875
-2.74658203125
-5.4931640625
-0.91552734375
-3.662109375
-4.57763671875
-7.32421875
-14.6484375
-11.90185546875
-17.39501953125
-30.21240234375
-28.38134765625
-24.71923828125
-15.56396484375
-15.56396484375
-11.90185546875
-17.39501953125
-13.73291015625
-16.4794921875
-23.8037109375
-30.21240234375
-31.1279296875
-28.38134765625
-25.634765625
-14.6484375
-6.40869140625
-6.40869140625
-8.23974609375
-12.8173828125
-18.310546875
-13.73291015625
-24.71923828125
-15.56396484375
-12.8173828125
-14.6484375
-10.986328125
-14.6484375
-10.07080078125
-8.23974609375
11.90185546875
22.88818359375
39.36767578125
71.4111328125
84.228515625
90.63720703125
108.0322265625
105.28564453125
86.97509765625
75.0732421875
84.228515625
90.63720703125
98.876953125
116.27197265625
134.58251953125
136.41357421875
143.73779296875
95.21484375
-65.00244140625
-259.09423828125
-444.03076171875
-670.166015625
-838.623046875
-912.78076171875
-983.2763671875
-990.6005859375
-940.24658203125
-891.7236328125
-840.4541015625
-772.705078125
-686.6455078125
-596.923828125
-525.5126953125
-476.07421875
-435.791015625
-386.3525390625
-332.33642578125
-315.85693359375
-305.7861328125
-294.7998046875
-276.4892578125
-249.0234375
-241.69921875
-218.81103515625
-214.2333984375
-209.65576171875
-193.17626953125
-184.9365234375
-185.85205078125
-183.10546875
-184.9365234375
-178.52783203125
-170.2880859375
-150.146484375
-138.24462890625
-125.42724609375
-111.6943359375
-107.11669921875
-116.27197265625
-116.27197265625
-109.86328125
-94.29931640625
-88.80615234375
-78.7353515625
-68.66455078125
-52.18505859375
-46.69189453125
-52.18505859375
-43.02978515625
-18.310546875
2.74658203125
16.4794921875
18.310546875
26.55029296875
45.7763671875
56.7626953125
59.50927734375
66.83349609375
76.904296875
68.66455078125
70.49560546875
73.2421875
65.91796875
73.2421875
87.890625
86.97509765625
102.5390625
89.7216796875
84.228515625
82.3974609375
94.29931640625
86.97509765625
82.3974609375
87.890625
96.13037109375
103.45458984375
116.27197265625
105.28564453125
105.28564453125
105.28564453125
97.96142578125
97.0458984375
102.5390625
103.45458984375
108.94775390625
120.849609375
129.08935546875
130.92041015625
119.0185546875
124.51171875
133.6669921875
134.58251953125
126.3427734375
138.24462890625
138.24462890625
137.3291015625
152.89306640625
161.1328125
159.3017578125
157.470703125
155.6396484375
146.484375
147.39990234375
156.55517578125
165.71044921875
179.443359375
188.5986328125
178.52783203125
179.443359375
184.9365234375
184.9365234375
185.85205078125
172.119140625
180.35888671875
198.66943359375
203.2470703125
209.65576171875
216.064453125
210.5712890625
203.2470703125
200.50048828125
202.33154296875
203.2470703125
214.2333984375
217.8955078125
220.64208984375
231.62841796875
225.2197265625
218.81103515625
223.388671875
216.064453125
215.14892578125
214.2333984375
216.97998046875
216.97998046875
228.8818359375
228.8818359375
218.81103515625
210.5712890625
199.5849609375
194.091796875
183.10546875
177.6123046875
180.35888671875
181.2744140625
185.85205078125
182.18994140625
168.45703125
162.9638671875
155.6396484375
140.07568359375
130.92041015625
122.6806640625
118.10302734375
114.44091796875
106.201171875
109.86328125
92.46826171875
79.65087890625
78.7353515625
70.49560546875
56.7626953125
44.86083984375
50.35400390625
62.255859375
64.0869140625
62.255859375
49.4384765625
41.19873046875
24.71923828125
20.1416015625
21.97265625
13.73291015625
10.07080078125
10.07080078125
24.71923828125
42.1142578125
39.36767578125
34.7900390625
26.55029296875
24.71923828125
20.1416015625
19.22607421875
26.55029296875
28.38134765625
27.4658203125
36.62109375
29.296875
20.1416015625
19.22607421875
16.4794921875
19.22607421875
17.39501953125
23.8037109375
29.296875
36.62109375
38.4521484375
39.36767578125
33.87451171875
32.04345703125
13.73291015625
18.310546875
12.8173828125
14.6484375
30.21240234375
40.283203125
47.607421875
54.931640625
53.1005859375
49.4384765625
43.9453125
40.283203125
30.21240234375
28.38134765625
32.04345703125
40.283203125
43.02978515625
52.18505859375
52.18505859375
43.02978515625
44.86083984375
38.4521484375
25.634765625
27.4658203125
37.53662109375
44.86083984375
48.52294921875
49.4384765625
36.62109375
31.1279296875
30.21240234375
19.22607421875
8.23974609375
12.8173828125
27.4658203125
32.958984375
40.283203125
26.55029296875
20.1416015625
24.71923828125
15.56396484375
9.1552734375
0
8.23974609375
20.1416015625
27.4658203125
33.87451171875
21.97265625
26.55029296875
27.4658203125
24.71923828125
14.6484375
9.1552734375
4.57763671875
18.310546875
21.05712890625
32.04345703125
18.310546875
14.6484375
12.8173828125
0.91552734375
-8.23974609375
-9.1552734375
-8.23974609375
3.662109375
14.6484375
21.05712890625
10.986328125
5.4931640625
5.4931640625
-0.91552734375
-6.40869140625
-5.4931640625
3.662109375
-0.91552734375
1.8310546875
10.986328125
10.07080078125
10.07080078125
5.4931640625
0
2.74658203125
-0.91552734375
-5.4931640625
1.8310546875
19.22607421875
21.97265625
22.88818359375
17.39501953125
16.4794921875
29.296875
35.70556640625
24.71923828125
36.62109375
49.4384765625
57.67822265625
55.84716796875
55.84716796875
59.50927734375
62.255859375
54.931640625
46.69189453125
29.296875
28.38134765625
34.7900390625
54.01611328125
61.34033203125
53.1005859375
56.7626953125
49.4384765625
53.1005859375
65.91796875
55.84716796875
57.67822265625
52.18505859375
61.34033203125
65.00244140625
61.34033203125
40.283203125
39.36767578125
36.62109375
32.04345703125
24.71923828125
16.4794921875
10.07080078125
8.23974609375
13.73291015625
10.986328125
4.57763671875
-10.07080078125
-19.22607421875
-21.05712890625
-22.88818359375
-18.310546875
-10.986328125
-11.90185546875
-10.986328125
-12.8173828125
-11.90185546875
-19.22607421875
-21.05712890625
-28.38134765625
-34.7900390625
-31.1279296875
-26.55029296875
-21.05712890625
-17.39501953125
-21.05712890625
-17.39501953125
-20.1416015625
-16.4794921875
-16.4794921875
-21.97265625
-16.4794921875
-2.74658203125
-2.74658203125
1.8310546875
-5.4931640625
-16.4794921875
-7.32421875
-6.40869140625
-15.56396484375
-9.1552734375
6.40869140625
30.21240234375
50.35400390625
73.2421875
94.29931640625
99.79248046875
96.13037109375
88.80615234375
93.3837890625
86.97509765625
92.46826171875
119.93408203125
140.9912109375
155.6396484375
180.35888671875
187.68310546875
175.78125
162.04833984375
86.97509765625
-84.228515625
-277.40478515625
-453.18603515625
-680.23681640625
-820.3125
-898.13232421875
-967.71240234375
-980.52978515625
-944.82421875
-902.7099609375
-860.595703125
-793.76220703125
-692.138671875
-582.275390625
-515.44189453125
-472.412109375
-430.2978515625
-391.845703125
-358.88671875
-341.49169921875
-324.0966796875
-292.96875
-251.77001953125
-224.30419921875
-215.14892578125
-205.99365234375
-201.416015625
-200.50048828125
-193.17626953125
-189.51416015625
-185.85205078125
-185.85205078125
-177.6123046875
-166.6259765625
-151.06201171875
-148.3154296875
-148.3154296875
-147.39990234375
-130.92041015625
-131.8359375
-128.173828125
-120.849609375
-109.86328125
-91.552734375
-77.81982421875
-74.15771484375
-60.4248046875
-51.26953125
-42.1142578125
-44.86083984375
-38.4521484375
-10.07080078125
4.57763671875
31.1279296875
46.69189453125
43.9453125
41.19873046875
50.35400390625
48.52294921875
51.26953125
61.34033203125
77.81982421875
86.0595703125
87.890625
96.13037109375
93.3837890625
86.0595703125
80.56640625
78.7353515625
68.66455078125
69.580078125
79.65087890625
89.7216796875
94.29931640625
106.201171875
108.94775390625
105.28564453125
101.62353515625
96.13037109375
101.62353515625
96.13037109375
109.86328125
116.27197265625
123.59619140625
139.16015625
130.0048828125
125.42724609375
124.51171875
123.59619140625
119.93408203125
119.93408203125
125.42724609375
134.58251953125
149.23095703125
155.6396484375
151.9775390625
148.3154296875
142.822265625
147.39990234375
143.73779296875
138.24462890625
149.23095703125
165.71044921875
170.2880859375
179.443359375
182.18994140625
178.52783203125
172.119140625
173.03466796875
173.03466796875
179.443359375
191.34521484375
195.00732421875
195.9228515625
209.65576171875
213.31787109375
214.2333984375
205.99365234375
206.9091796875
204.16259765625
211.48681640625
214.2333984375
220.64208984375
232.5439453125
239.8681640625
238.95263671875
241.69921875
238.037109375
232.5439453125
230.712890625
228.8818359375
237.12158203125
239.8681640625
255.43212890625
252.685546875
245.361328125
238.037109375
239.8681640625
231.62841796875
217.8955078125
203.2470703125
204.16259765625
205.99365234375
205.078125
205.99365234375
195.00732421875
179.443359375
173.03466796875
173.9501953125
159.3017578125
144.6533203125
143.73779296875
145.56884765625
140.9912109375
148.3154296875
141.90673828125
123.59619140625
105.28564453125
97.0458984375
92.46826171875
76.904296875
75.0732421875
80.56640625
85.14404296875
80.56640625
66.83349609375
54.931640625
50.35400390625
49.4384765625
39.36767578125
36.62109375
37.53662109375
46.69189453125
47.607421875
48.52294921875
41.19873046875
35.70556640625
18.310546875
20.1416015625
20.1416015625
9.1552734375
19.22607421875
28.38134765625
26.55029296875
24.71923828125
21.05712890625
30.21240234375
29.296875
23.8037109375
12.8173828125
11.90185546875
7.32421875
16.4794921875
31.1279296875
35.70556640625
38.4521484375
23.8037109375
21.97265625
25.634765625
22.88818359375
25.634765625
32.958984375
31.1279296875
44.86083984375
52.18505859375
45.7763671875
46.69189453125
43.02978515625
39.36767578125
35.70556640625
36.62109375
34.7900390625
37.53662109375
47.607421875
59.50927734375
47.607421875
44.86083984375
42.1142578125
38.4521484375
35.70556640625
26.55029296875
33.87451171875
43.02978515625
51.26953125
43.9453125
42.1142578125
37.53662109375
36.62109375
36.62109375
27.4658203125
21.05712890625
29.296875
44.86083984375
42.1142578125
37.53662109375
30.21240234375
28.38134765625
26.55029296875
20.1416015625
16.4794921875
17.39501953125
21.05712890625
28.38134765625
40.283203125
41.19873046875
28.38134765625
35.70556640625
31.1279296875
19.22607421875
4.57763671875
4.57763671875
16.4794921875
21.97265625
19.22607421875
24.71923828125
19.22607421875
15.56396484375
10.986328125
9.1552734375
0.91552734375
0.91552734375
8.23974609375
12.8173828125
16.4794921875
18.310546875
14.6484375
14.6484375
16.4794921875
9.1552734375
12.8173828125
-6.40869140625
-1.8310546875
-0.91552734375
9.1552734375
13.73291015625
13.73291015625
10.986328125
9.1552734375
3.662109375
-5.4931640625
-8.23974609375
-3.662109375
-3.662109375
2.74658203125
15.56396484375
16.4794921875
15.56396484375
7.32421875
7.32421875
-0.91552734375
-9.1552734375
-5.4931640625
3.662109375
5.4931640625
12.8173828125
4.57763671875
4.57763671875
6.40869140625
4.57763671875
7.32421875
7.32421875
13.73291015625
29.296875
43.9453125
54.931640625
53.1005859375
48.52294921875
54.01611328125
51.26953125
43.9453125
39.36767578125
51.26953125
66.83349609375
71.4111328125
65.91796875
45.7763671875
28.38134765625
37.53662109375
41.19873046875
42.1142578125
43.02978515625
50.35400390625
53.1005859375
52.18505859375
60.4248046875
59.50927734375
49.4384765625
45.7763671875
47.607421875
42.1142578125
33.87451171875
36.62109375
43.9453125
56.7626953125
56.7626953125
52.18505859375
37.53662109375
23.8037109375
13.73291015625
10.07080078125
-1.8310546875
4.57763671875
1.8310546875
-1.8310546875
-0.91552734375
-19.22607421875
-18.310546875
-18.310546875
-22.88818359375
-18.310546875
-29.296875
-26.55029296875
-25.634765625
-15.56396484375
-10.07080078125
-16.4794921875
-21.97265625
-28.38134765625
-21.97265625
-22.88818359375
-39.36767578125
-39.36767578125
-22.88818359375
-12.8173828125
-4.57763671875
-8.23974609375
-11.90185546875
-16.4794921875
-22.88818359375
-30.21240234375
-27.4658203125
-23.8037109375
-15.56396484375
-11.90185546875
-5.4931640625
-6.40869140625
-10.07080078125
-7.32421875
13.73291015625
28.38134765625
34.7900390625
58.59375
73.2421875
75.98876953125
88.80615234375
90.63720703125
96.13037109375
102.5390625
109.86328125
130.92041015625
147.39990234375
163.87939453125
202.33154296875
215.14892578125
213.31787109375
176.69677734375
68.66455078125
-113.525390625
-308.53271484375
-505.37109375
-726.9287109375
-831.298828125
-921.93603515625
-997.9248046875
-981.4453125
-943.90869140625
-905.45654296875
-857.84912109375
-786.43798828125
-701.2939453125
-604.248046875
-535.58349609375
-473.32763671875
-432.12890625
-389.09912109375
-355.224609375
-333.251953125
-314.94140625
-284.72900390625
-260.92529296875
-244.44580078125
-224.30419921875
-200.50048828125
-188.5986328125
-181.2744140625
-181.2744140625
-183.10546875
-195.9228515625
-195.00732421875
-185.85205078125
-175.78125
-179.443359375
-163.87939453125
-142.822265625
-127.25830078125
-115.3564453125
-119.0185546875
-117.1875
-108.94775390625
-100.7080078125
-105.28564453125
-86.0595703125
-70.49560546875
-54.931640625
-45.7763671875
-43.9453125
-39.36767578125
-25.634765625
-14.6484375
-6.40869140625
-0.91552734375
13.73291015625
39.36767578125
54.01611328125
56.7626953125
54.01611328125
61.34033203125
59.50927734375
55.84716796875
62.255859375
55.84716796875
59.50927734375
70.49560546875
75.98876953125
79.65087890625
73.2421875
69.580078125
72.32666015625
78.7353515625
85.14404296875
88.80615234375
93.3837890625
97.96142578125
101.62353515625
102.5390625
103.45458984375
97.0458984375
89.7216796875
97.0458984375
99.79248046875
97.96142578125
104.3701171875
113.525390625
125.42724609375
130.0048828125
130.92041015625
128.173828125
124.51171875
127.25830078125
123.59619140625
128.173828125
134.58251953125
138.24462890625
147.39990234375
152.89306640625
152.89306640625
154.72412109375
153.80859375
150.146484375
151.9775390625
152.89306640625
163.87939453125
179.443359375
189.51416015625
195.00732421875
188.5986328125
193.17626953125
187.68310546875
185.85205078125
195.00732421875
195.00732421875
197.75390625
205.99365234375
217.8955078125
222.47314453125
227.05078125
218.81103515625
210.5712890625
209.65576171875
211.48681640625
216.064453125
233.45947265625
243.5302734375
248.10791015625
249.93896484375
249.93896484375
254.5166015625
249.93896484375
239.8681640625
230.712890625
220.64208984375
226.13525390625
243.5302734375
252.685546875
253.60107421875
236.2060546875
230.712890625
230.712890625
219.7265625
206.9091796875
194.091796875
191.34521484375
190.4296875
195.00732421875
193.17626953125
180.35888671875
170.2880859375
151.9775390625
141.90673828125
130.0048828125
122.6806640625
120.849609375
120.849609375
118.10302734375
116.27197265625
108.94775390625
97.96142578125
86.0595703125
84.228515625
71.4111328125
64.0869140625
63.17138671875
62.255859375
60.4248046875
55.84716796875
50.35400390625
46.69189453125
32.958984375
29.296875
30.21240234375
18.310546875
22.88818359375
28.38134765625
25.634765625
27.4658203125
20.1416015625
23.8037109375
13.73291015625
9.1552734375
4.57763671875
0.91552734375
3.662109375
9.1552734375
19.22607421875
28.38134765625
15.56396484375
16.4794921875
10.986328125
5.4931640625
-2.74658203125
-6.40869140625
3.662109375
10.986328125
14.6484375
21.97265625
35.70556640625
30.21240234375
27.4658203125
24.71923828125
20.1416015625
13.73291015625
21.05712890625
28.38134765625
39.36767578125
35.70556640625
32.958984375
32.04345703125
22.88818359375
22.88818359375
27.4658203125
19.22607421875
21.05712890625
29.296875
36.62109375
43.9453125
43.9453125
35.70556640625
32.958984375
29.296875
27.4658203125
22.88818359375
30.21240234375
36.62109375
38.4521484375
42.1142578125
41.19873046875
32.958984375
31.1279296875
25.634765625
12.8173828125
9.1552734375
16.4794921875
27.4658203125
39.36767578125
35.70556640625
28.38134765625
34.7900390625
28.38134765625
21.05712890625
8.23974609375
5.4931640625
13.73291015625
14.6484375
21.05712890625
23.8037109375
22.88818359375
16.4794921875
6.40869140625
-0.91552734375
-0.91552734375
-4.57763671875
1.8310546875
5.4931640625
17.39501953125
20.1416015625
15.56396484375
12.8173828125
4.57763671875
-0.91552734375
-10.986328125
-10.07080078125
-1.8310546875
-4.57763671875
0.91552734375
10.986328125
11.90185546875
12.8173828125
6.40869140625
1.8310546875
-6.40869140625
-8.23974609375
0
-0.91552734375
1.8310546875
13.73291015625
8.23974609375
3.662109375
-5.4931640625
-9.1552734375
-15.56396484375
-19.22607421875
-10.07080078125
-0.91552734375
11.90185546875
15.56396484375
11.90185546875
10.07080078125
5.4931640625
-10.986328125
-16.4794921875
-20.1416015625
-16.4794921875
-6.40869140625
-0.91552734375
6.40869140625
9.1552734375
-1.8310546875
-21.97265625
-25.634765625
-15.56396484375
-10.07080078125
-4.57763671875
2.74658203125
8.23974609375
8.23974609375
2.74658203125
0
-9.1552734375
-7.32421875
-10.986328125
-17.39501953125
-10.986328125
-6.40869140625
-3.662109375
9.1552734375
0
-6.40869140625
-9.1552734375
-2.74658203125
-16.4794921875
-28.38134765625
-13.73291015625
-4.57763671875
10.07080078125
20.1416015625
24.71923828125
21.97265625
23.8037109375
36.62109375
35.70556640625
33.87451171875
34.7900390625
40.283203125
50.35400390625
65.91796875
64.0869140625
57.67822265625
43.02978515625
35.70556640625
27.4658203125
18.310546875
25.634765625
37.53662109375
52.18505859375
61.34033203125
59.50927734375
46.69189453125
45.7763671875
45.7763671875
35.70556640625
32.958984375
42.1142578125
45.7763671875
48.52294921875
54.01611328125
47.607421875
36.62109375
31.1279296875
25.634765625
25.634765625
19.22607421875
10.07080078125
11.90185546875
18.310546875
19.22607421875
12.8173828125
0.91552734375
-10.07080078125
-21.97265625
-24.71923828125
-32.04345703125
-32.958984375
-20.1416015625
-14.6484375
-10.07080078125
-7.32421875
-16.4794921875
-27.4658203125
-21.05712890625
-28.38134765625
-37.53662109375
-35.70556640625
-32.958984375
-25.634765625
-17.39501953125
-15.56396484375
-16.4794921875
-21.05712890625
-32.04345703125
-32.958984375
-31.1279296875
-31.1279296875
-22.88818359375
-17.39501953125
-13.73291015625
-21.97265625
-32.958984375
-32.04345703125
-34.7900390625
-35.70556640625
-26.55029296875
-9.1552734375
6.40869140625
29.296875
50.35400390625
70.49560546875
70.49560546875
68.66455078125
65.00244140625
66.83349609375
70.49560546875
76.904296875
95.21484375
126.3427734375
153.80859375
172.119140625
193.17626953125
208.740234375
196.83837890625
186.767578125
118.10302734375
-43.02978515625
-240.78369140625
-414.73388671875
-635.3759765625
-780.94482421875
-883.48388671875
-985.107421875
-1001.5869140625
-970.458984375
-938.41552734375
-880.7373046875
-807.4951171875
-717.7734375
-609.7412109375
-530.09033203125
-482.48291015625
-450.439453125
-414.73388671875
-372.61962890625
-346.98486328125
-318.603515625
-282.89794921875
-249.93896484375
-222.47314453125
-206.9091796875
-205.078125
-197.75390625
-198.66943359375
-200.50048828125
-195.9228515625
-197.75390625
-185.85205078125
-169.37255859375
-156.55517578125
-165.71044921875
-164.794921875
-155.6396484375
-154.72412109375
-151.06201171875
-141.90673828125
-138.24462890625
-119.93408203125
-93.3837890625
-86.0595703125
-85.14404296875
-73.2421875
-71.4111328125
-60.4248046875
-64.0869140625
-64.0869140625
-43.9453125
-17.39501953125
11.90185546875
31.1279296875
24.71923828125
31.1279296875
35.70556640625
33.87451171875
32.04345703125
33.87451171875
51.26953125
62.255859375
69.580078125
78.7353515625
74.15771484375
74.15771484375
66.83349609375
63.17138671875
73.2421875
72.32666015625
72.32666015625
78.7353515625
87.890625
92.46826171875
90.63720703125
76.904296875
59.50927734375
61.34033203125
56.7626953125
60.4248046875
65.00244140625
75.98876953125
116.27197265625
138.24462890625
117.1875
109.86328125
131.8359375
122.6806640625
109.86328125
119.0185546875
119.0185546875
122.6806640625
130.92041015625
139.16015625
133.6669921875
133.6669921875
136.41357421875
130.0048828125
120.849609375
130.0048828125
142.822265625
161.1328125
170.2880859375
176.69677734375
170.2880859375
162.04833984375
156.55517578125
163.87939453125
161.1328125
149.23095703125
162.9638671875
185.85205078125
205.99365234375
216.97998046875
212.40234375
206.9091796875
205.99365234375
199.5849609375
204.16259765625
207.82470703125
213.31787109375
230.712890625
243.5302734375
248.10791015625
238.037109375
232.5439453125
231.62841796875
222.47314453125
215.14892578125
222.47314453125
225.2197265625
234.375
242.61474609375
243.5302734375
240.78369140625
229.79736328125
226.13525390625
225.2197265625
216.97998046875
205.99365234375
211.48681640625
218.81103515625
222.47314453125
218.81103515625
210.5712890625
196.83837890625
184.02099609375
177.6123046875
170.2880859375
166.6259765625
161.1328125
163.87939453125
162.04833984375
156.55517578125
142.822265625
127.25830078125
117.1875
108.94775390625
91.552734375
80.56640625
84.228515625
87.890625
90.63720703125
90.63720703125
75.98876953125
70.49560546875
65.00244140625
42.1142578125
34.7900390625
32.958984375
32.958984375
30.21240234375
32.958984375
32.958984375
26.55029296875
19.22607421875
17.39501953125
26.55029296875
18.310546875
8.23974609375
9.1552734375
19.22607421875
22.88818359375
21.05712890625
10.986328125
13.73291015625
4.57763671875
8.23974609375
1.8310546875
0
5.4931640625
18.310546875
16.4794921875
21.05712890625
13.73291015625
0
0.91552734375
5.4931640625
-2.74658203125
-5.4931640625
3.662109375
7.32421875
16.4794921875
21.97265625
21.97265625
22.88818359375
9.1552734375
3.662109375
6.40869140625
6.40869140625
4.57763671875
10.986328125
21.97265625
26.55029296875
18.310546875
18.310546875
26.55029296875
15.56396484375
8.23974609375
2.74658203125
21.05712890625
29.296875
29.296875
26.55029296875
21.05712890625
15.56396484375
11.90185546875
18.310546875
8.23974609375
9.1552734375
19.22607421875
21.97265625
25.634765625
28.38134765625
22.88818359375
21.05712890625
16.4794921875
18.310546875
14.6484375
1.8310546875
3.662109375
11.90185546875
14.6484375
18.310546875
6.40869140625
0.91552734375
-4.57763671875
-5.4931640625
-8.23974609375
-5.4931640625
-3.662109375
13.73291015625
16.4794921875
7.32421875
2.74658203125
0
-10.07080078125
-10.986328125
-13.73291015625
-20.1416015625
-12.8173828125
-5.4931640625
1.8310546875
-1.8310546875
-10.07080078125
-12.8173828125
-19.22607421875
-21.97265625
-20.1416015625
-16.4794921875
-13.73291015625
-13.73291015625
-5.4931640625
4.57763671875
8.23974609375
-4.57763671875
-1.8310546875
-10.986328125
-27.4658203125
-21.97265625
-18.310546875
-19.22607421875
-3.662109375
-3.662109375
-7.32421875
-5.4931640625
-14.6484375
-20.1416015625
-13.73291015625
-20.1416015625
-15.56396484375
-6.40869140625
6.40869140625
5.4931640625
-1.8310546875
-5.4931640625
-2.74658203125
-14.6484375
-25.634765625
-19.22607421875
-12.8173828125
-10.986328125
-10.986328125
-7.32421875
-7.32421875
-12.8173828125
-13.73291015625
-18.310546875
-22.88818359375
-29.296875
-27.4658203125
-24.71923828125
-12.8173828125
-3.662109375
-7.32421875
-9.1552734375
-11.90185546875
-11.90185546875
-16.4794921875
-21.97265625
-19.22607421875
-11.90185546875
-0.91552734375
5.4931640625
-3.662109375
-8.23974609375
-10.986328125
-21.05712890625
-23.8037109375
-26.55029296875
-24.71923828125
-16.4794921875
-5.4931640625
0
-5.4931640625
-9.1552734375
-9.1552734375
-13.73291015625
-15.56396484375
-19.22607421875
-23.8037109375
-13.73291015625
0
2.74658203125
8.23974609375
10.07080078125
-2.74658203125
-2.74658203125
-5.4931640625
1.8310546875
11.90185546875
28.38134765625
50.35400390625
54.01611328125
46.69189453125
42.1142578125
47.607421875
42.1142578125
43.02978515625
39.36767578125
34.7900390625
34.7900390625
41.19873046875
34.7900390625
35.70556640625
36.62109375
45.7763671875
54.931640625
54.931640625
45.7763671875
36.62109375
52.18505859375
60.4248046875
55.84716796875
56.7626953125
54.01611328125
42.1142578125
35.70556640625
30.21240234375
22.88818359375
28.38134765625
32.04345703125
37.53662109375
31.1279296875
22.88818359375
2.74658203125
1.8310546875
-5.4931640625
-12.8173828125
-18.310546875
-13.73291015625
-8.23974609375
-4.57763671875
-14.6484375
-23.8037109375
-23.8037109375
-20.1416015625
-18.310546875
-31.1279296875
-31.1279296875
-34.7900390625
-21.05712890625
-20.1416015625
-9.1552734375
-19.22607421875
-23.8037109375
-25.634765625
-30.21240234375
-37.53662109375
-30.21240234375
-21.05712890625
-17.39501953125
-15.56396484375
-9.1552734375
-15.56396484375
-27.4658203125
-21.05712890625
-14.6484375
-16.4794921875
-21.05712890625
-23.8037109375
-17.39501953125
-10.07080078125
-7.32421875
-0.91552734375
8.23974609375
26.55029296875
35.70556640625
53.1005859375
54.931640625
64.0869140625
65.00244140625
77.81982421875
80.56640625
81.48193359375
86.0595703125
101.62353515625
124.51171875
140.07568359375
159.3017578125
186.767578125
188.5986328125
191.34521484375
139.16015625
-21.97265625
-212.40234375
-404.6630859375
-639.0380859375
-795.59326171875
-892.63916015625
-975.03662109375
-986.9384765625
-942.07763671875
-902.7099609375
-858.7646484375
-788.26904296875
-704.04052734375
-607.91015625
-535.58349609375
-490.72265625
-446.77734375
-403.74755859375
-354.30908203125
-318.603515625
-303.03955078125
-271.91162109375
-258.1787109375
-245.361328125
-234.375
-210.5712890625
-191.34521484375
-186.767578125
-181.2744140625
-172.119140625
-176.69677734375
-181.2744140625
-172.119140625
-172.119140625
-169.37255859375
-169.37255859375
-167.54150390625
-143.73779296875
-123.59619140625
-119.0185546875
-123.59619140625
-116.27197265625
-108.94775390625
-98.876953125
-98.876953125
-89.7216796875
-68.66455078125
-54.01611328125
-47.607421875
-34.7900390625
-21.97265625
-8.23974609375
-3.662109375
-0.91552734375
4.57763671875
14.6484375
23.8037109375
33.87451171875
54.01611328125
65.00244140625
64.0869140625
69.580078125
67.7490234375
62.255859375
62.255859375
54.931640625
70.49560546875
77.81982421875
80.56640625
86.0595703125
81.48193359375
84.228515625
87.890625
79.65087890625
69.580078125
69.580078125
77.81982421875
79.65087890625
93.3837890625
106.201171875
109.86328125
94.29931640625
94.29931640625
87.890625
88.80615234375
91.552734375
97.0458984375
111.6943359375
119.0185546875
117.1875
121.76513671875
115.3564453125
111.6943359375
119.0185546875
119.0185546875
113.525390625
119.93408203125
132.75146484375
145.56884765625
157.470703125
155.6396484375
145.56884765625
146.484375
149.23095703125
136.41357421875
136.41357421875
151.9775390625
164.794921875
170.2880859375
171.20361328125
178.52783203125
178.52783203125
173.03466796875
173.03466796875
175.78125
173.03466796875
175.78125
194.091796875
206.9091796875
209.65576171875
208.740234375
212.40234375
214.2333984375
200.50048828125
202.33154296875
203.2470703125
209.65576171875
222.47314453125
234.375
247.1923828125
240.78369140625
228.8818359375
223.388671875
221.5576171875
221.5576171875
212.40234375
215.14892578125
223.388671875
227.05078125
232.5439453125
231.62841796875
217.8955078125
211.48681640625
202.33154296875
195.9228515625
188.5986328125
179.443359375
184.9365234375
187.68310546875
189.51416015625
183.10546875
168.45703125
157.470703125
147.39990234375
148.3154296875
126.3427734375
119.0185546875
119.93408203125
117.1875
119.93408203125
105.28564453125
98.876953125
87.890625
75.98876953125
57.67822265625
55.84716796875
51.26953125
49.4384765625
53.1005859375
60.4248046875
51.26953125
39.36767578125
31.1279296875
28.38134765625
32.04345703125
22.88818359375
35.70556640625
31.1279296875
35.70556640625
27.4658203125
30.21240234375
25.634765625
15.56396484375
18.310546875
10.986328125
2.74658203125
7.32421875
19.22607421875
20.1416015625
23.8037109375
26.55029296875
27.4658203125
11.90185546875
8.23974609375
11.90185546875
10.07080078125
10.986328125
16.4794921875
25.634765625
34.7900390625
26.55029296875
21.05712890625
24.71923828125
15.56396484375
7.32421875
16.4794921875
23.8037109375
27.4658203125
39.36767578125
41.19873046875
35.70556640625
30.21240234375
27.4658203125
19.22607421875
18.310546875
23.8037109375
24.71923828125
21.97265625
39.36767578125
40.283203125
33.87451171875
35.70556640625
31.1279296875
15.56396484375
6.40869140625
17.39501953125
31.1279296875
34.7900390625
38.4521484375
43.02978515625
43.02978515625
36.62109375
26.55029296875
19.22607421875
18.310546875
14.6484375
10.07080078125
17.39501953125
24.71923828125
35.70556640625
24.71923828125
34.7900390625
28.38134765625
26.55029296875
17.39501953125
11.90185546875
16.4794921875
23.8037109375
30.21240234375
24.71923828125
10.986328125
16.4794921875
10.986328125
0
-7.32421875
-10.07080078125
-4.57763671875
1.8310546875
10.07080078125
20.1416015625
11.90185546875
6.40869140625
10.07080078125
10.07080078125
2.74658203125
-14.6484375
-7.32421875
-1.8310546875
8.23974609375
13.73291015625
3.662109375
2.74658203125
8.23974609375
-3.662109375
-10.986328125
-18.310546875
-13.73291015625
-2.74658203125
8.23974609375
9.1552734375
4.57763671875
-7.32421875
-9.1552734375
-15.56396484375
-20.1416015625
-23.8037109375
-20.1416015625
-3.662109375
6.40869140625
13.73291015625
11.90185546875
0.91552734375
-12.8173828125
-11.90185546875
-12.8173828125
-9.1552734375
-8.23974609375
-3.662109375
0.91552734375
10.07080078125
8.23974609375
1.8310546875
-2.74658203125
-10.986328125
-8.23974609375
-21.97265625
-19.22607421875
-2.74658203125
2.74658203125
6.40869140625
0
-6.40869140625
-4.57763671875
-5.4931640625
-12.8173828125
-14.6484375
-10.986328125
8.23974609375
21.97265625
28.38134765625
34.7900390625
33.87451171875
35.70556640625
43.9453125
41.19873046875
31.1279296875
39.36767578125
57.67822265625
66.83349609375
59.50927734375
41.19873046875
36.62109375
32.958984375
33.87451171875
38.4521484375
45.7763671875
54.931640625
54.931640625
58.59375
66.83349609375
60.4248046875
53.1005859375
51.26953125
53.1005859375
49.4384765625
39.36767578125
32.958984375
43.02978515625
51.26953125
47.607421875
46.69189453125
43.9453125
28.38134765625
5.4931640625
-8.23974609375
-11.90185546875
-4.57763671875
-15.56396484375
-15.56396484375
-9.1552734375
-17.39501953125
-15.56396484375
-18.310546875
-32.04345703125
-43.02978515625
-45.7763671875
-43.02978515625
-30.21240234375
-24.71923828125
-22.88818359375
-24.71923828125
-32.04345703125
-27.4658203125
-32.04345703125
-40.283203125
-43.9453125
-30.21240234375
-32.04345703125
-22.88818359375
-18.310546875
-21.05712890625
-21.97265625
-27.4658203125
-26.55029296875
-31.1279296875
-32.04345703125
-25.634765625
-20.1416015625
-17.39501953125
-9.1552734375
-16.4794921875
-22.88818359375
-27.4658203125
-27.4658203125
-21.97265625
-11.90185546875
15.56396484375
35.70556640625
59.50927734375
68.66455078125
55.84716796875
59.50927734375
56.7626953125
46.69189453125
40.283203125
55.84716796875
80.56640625
101.62353515625
119.0185546875
154.72412109375
142.822265625
128.173828125
77.81982421875
-64.0869140625
-250.8544921875
-437.6220703125
-639.95361328125
-826.72119140625
-891.7236328125
-961.3037109375
-995.17822265625
-964.05029296875
-920.10498046875
-867.919921875
-810.24169921875
-732.421875
-624.3896484375
-545.654296875
-484.31396484375
-436.70654296875
-406.494140625
-370.78857421875
-347.900390625
-331.4208984375
-315.85693359375
-300.29296875
-270.99609375
-258.1787109375
-229.79736328125
-224.30419921875
-211.48681640625
-201.416015625
-203.2470703125
-207.82470703125
-199.5849609375
-205.078125
-199.5849609375
-185.85205078125
-170.2880859375
-152.89306640625
-152.89306640625
-143.73779296875
-140.07568359375
-155.6396484375
-163.87939453125
-162.04833984375
-145.56884765625
-118.10302734375
-97.96142578125
-82.3974609375
-76.904296875
-75.0732421875
-75.0732421875
-73.2421875
-55.84716796875
-36.62109375
-17.39501953125
5.4931640625
16.4794921875
23.8037109375
24.71923828125
18.310546875
19.22607421875
34.7900390625
41.19873046875
36.62109375
49.4384765625
58.59375
62.255859375
71.4111328125
74.15771484375
73.2421875
72.32666015625
64.0869140625
52.18505859375
52.18505859375
65.91796875
75.98876953125
87.890625
92.46826171875
85.14404296875
71.4111328125
73.2421875
72.32666015625
65.00244140625
65.91796875
76.904296875
78.7353515625
91.552734375
102.5390625
94.29931640625
88.80615234375
93.3837890625
90.63720703125
86.97509765625
86.0595703125
91.552734375
94.29931640625
106.201171875
119.93408203125
125.42724609375
111.6943359375
110.77880859375
106.201171875
122.6806640625
119.93408203125
120.849609375
123.59619140625
142.822265625
151.9775390625
144.6533203125
147.39990234375
152.89306640625
165.71044921875
162.9638671875
157.470703125
151.06201171875
168.45703125
173.03466796875
182.18994140625
181.2744140625
187.68310546875
184.02099609375
182.18994140625
187.68310546875
178.52783203125
192.2607421875
202.33154296875
211.48681640625
216.97998046875
209.65576171875
205.078125
205.078125
197.75390625
188.5986328125
186.767578125
195.9228515625
199.5849609375
198.66943359375
208.740234375
197.75390625
197.75390625
193.17626953125
180.35888671875
176.69677734375
166.6259765625
167.54150390625
177.6123046875
182.18994140625
181.2744140625
175.78125
158.38623046875
147.39990234375
140.9912109375
123.59619140625
105.28564453125
96.13037109375
95.21484375
95.21484375
87.890625
81.48193359375
82.3974609375
81.48193359375
66.83349609375
63.17138671875
50.35400390625
45.7763671875
54.01611328125
51.26953125
51.26953125
44.86083984375
40.283203125
29.296875
17.39501953125
8.23974609375
8.23974609375
10.986328125
15.56396484375
18.310546875
18.310546875
11.90185546875
6.40869140625
-5.4931640625
-5.4931640625
-10.07080078125
-14.6484375
-11.90185546875
-4.57763671875
6.40869140625
11.90185546875
3.662109375
-4.57763671875
-9.1552734375
-8.23974609375
-8.23974609375
-12.8173828125
-2.74658203125
0
0.91552734375
5.4931640625
4.57763671875
2.74658203125
-2.74658203125
-9.1552734375
-9.1552734375
-11.90185546875
-1.8310546875
7.32421875
13.73291015625
9.1552734375
12.8173828125
8.23974609375
5.4931640625
6.40869140625
-4.57763671875
-7.32421875
-2.74658203125
7.32421875
21.05712890625
20.1416015625
16.4794921875
16.4794921875
6.40869140625
2.74658203125
9.1552734375
-0.91552734375
-1.8310546875
0
5.4931640625
14.6484375
10.986328125
4.57763671875
7.32421875
7.32421875
-2.74658203125
-14.6484375
-9.1552734375
1.8310546875
4.57763671875
1.8310546875
7.32421875
0.91552734375
-2.74658203125
-8.23974609375
-12.8173828125
-10.07080078125
-7.32421875
-3.662109375
1.8310546875
1.8310546875
-5.4931640625
-12.8173828125
-15.56396484375
-15.56396484375
-13.73291015625
-23.8037109375
-24.71923828125
-18.310546875
-12.8173828125
-4.57763671875
-9.1552734375
-13.73291015625
-10.986328125
-23.8037109375
-30.21240234375
-27.4658203125
-24.71923828125
-19.22607421875
-17.39501953125
-11.90185546875
-12.8173828125
-23.8037109375
-33.87451171875
-39.36767578125
-37.53662109375
-43.02978515625
-32.958984375
-24.71923828125
-16.4794921875
-11.90185546875
-10.07080078125
-21.97265625
-20.1416015625
-26.55029296875
-28.38134765625
-32.958984375
-29.296875
-32.04345703125
-11.90185546875
-6.40869140625
-19.22607421875
-28.38134765625
-32.04345703125
-24.71923828125
-26.55029296875
-30.21240234375
-24.71923828125
-23.8037109375
-17.39501953125
-14.6484375
-12.8173828125
-17.39501953125
-25.634765625
-32.958984375
-32.04345703125
-25.634765625
-18.310546875
-13.73291015625
-0.91552734375
7.32421875
22.88818359375
21.97265625
19.22607421875
18.310546875
13.73291015625
20.1416015625
18.310546875
31.1279296875
44.86083984375
38.4521484375
26.55029296875
10.07080078125
7.32421875
1.8310546875
3.662109375
14.6484375
23.8037109375
23.8037109375
21.05712890625
32.958984375
32.04345703125
23.8037109375
28.38134765625
23.8037109375
30.21240234375
21.05712890625
21.05712890625
22.88818359375
26.55029296875
15.56396484375
12.8173828125
15.56396484375
0.91552734375
-7.32421875
-17.39501953125
-27.4658203125
-17.39501953125
-20.1416015625
-21.97265625
-24.71923828125
-30.21240234375
-38.4521484375
-39.36767578125
-50.35400390625
-55.84716796875
-59.50927734375
-52.18505859375
-47.607421875
-47.607421875
-43.02978515625
-42.1142578125
-37.53662109375
-45.7763671875
-55.84716796875
-54.931640625
-56.7626953125
-47.607421875
-46.69189453125
-43.02978515625
-34.7900390625
-32.958984375
-27.4658203125
