ECG
-6.40869140625
0
7.32421875
12.8173828125
6.40869140625
1.8310546875
-9.1552734375
-7.32421875
-16.4794921875
-16.4794921875
-10.986328125
0
9.1552734375
23.8037109375
16.4794921875
16.4794921875
7.32421875
8.23974609375
0
-3.662109375
5.4931640625
10.07080078125
10.986328125
7.32421875
-1.8310546875
1.8310546875
-0.91552734375
-4.57763671875
-10.986328125
-10.986328125
-7.32421875
-3.662109375
-0.91552734375
6.40869140625
0.91552734375
-1.8310546875
-4.57763671875
-10.07080078125
-11.90185546875
-7.32421875
-10.07080078125
-1.8310546875
6.40869140625
2.74658203125
-2.74658203125
5.4931640625
0
-13.73291015625
-20.1416015625
-16.4794921875
-9.1552734375
-4.57763671875
0.91552734375
-3.662109375
-5.4931640625
-11.90185546875
-20.1416015625
-22.88818359375
-28.38134765625
-29.296875
-21.97265625
-23.8037109375
-16.4794921875
-15.56396484375
-16.4794921875
-21.97265625
-30.21240234375
-32.958984375
-39.36767578125
-32.958984375
-28.38134765625
-24.71923828125
-11.90185546875
-15.56396484375
-15.56396484375
-18.310546875
-25.634765625
-29.296875
-33.87451171875
-37.53662109375
-32.958984375
-21.97265625
-17.39501953125
-26.55029296875
-31.1279296875
-34.7900390625
-42.1142578125
-41.19873046875
-39.36767578125
-37.53662109375
-28.38134765625
-17.39501953125
-16.4794921875
-17.39501953125
-18.310546875
-19.22607421875
-23.8037109375
-23.8037109375
-26.55029296875
-29.296875
-28.38134765625
-13.73291015625
-14.6484375
-16.4794921875
-23.8037109375
-29.296875
-33.87451171875
-35.70556640625
-36.62109375
-32.04345703125
-30.21240234375
-21.97265625
-21.05712890625
-19.22607421875
-29.296875
-28.38134765625
-28.38134765625
-27.4658203125
-34.7900390625
-35.70556640625
-26.55029296875
-9.1552734375
-0.91552734375
-2.74658203125
-11.90185546875
-20.1416015625
-21.97265625
-32.04345703125
-29.296875
-34.7900390625
-26.55029296875
-8.23974609375
6.40869140625
20.1416015625
28.38134765625
31.1279296875
29.296875
26.55029296875
22.88818359375
24.71923828125
33.87451171875
41.19873046875
43.02978515625
38.4521484375
32.04345703125
24.71923828125
16.4794921875
28.38134765625
39.36767578125
41.19873046875
43.02978515625
50.35400390625
64.0869140625
55.84716796875
47.607421875
43.02978515625
47.607421875
42.1142578125
39.36767578125
32.958984375
32.958984375
33.87451171875
37.53662109375
33.87451171875
30.21240234375
23.8037109375
0.91552734375
-9.1552734375
-16.4794921875
-29.296875
-27.4658203125
-28.38134765625
-21.97265625
-24.71923828125
-26.55029296875
-32.04345703125
-37.53662109375
-43.9453125
-52.18505859375
-54.01611328125
-51.26953125
-45.7763671875
-44.86083984375
-43.9453125
-46.69189453125
-53.1005859375
-51.26953125
-46.69189453125
-50.35400390625
-49.4384765625
-49.4384765625
-40.283203125
-32.958984375
-26.55029296875
-30.21240234375
-33.87451171875
-41.19873046875
-46.69189453125
-43.02978515625
-44.86083984375
-43.02978515625
-38.4521484375
-34.7900390625
-35.70556640625
-44.86083984375
-36.62109375
-41.19873046875
-32.04345703125
-5.4931640625
10.07080078125
32.04345703125
54.01611328125
68.66455078125
64.0869140625
59.50927734375
59.50927734375
55.84716796875
56.7626953125
70.49560546875
89.7216796875
122.6806640625
143.73779296875
184.9365234375
190.4296875
170.2880859375
132.75146484375
8.23974609375
-177.6123046875
-369.873046875
-572.20458984375
-766.29638671875
-846.86279296875
-932.0068359375
-997.9248046875
-983.2763671875
-936.58447265625
-890.80810546875
-826.72119140625
-746.15478515625
-654.60205078125
-563.96484375
-499.8779296875
-451.35498046875
-409.24072265625
-377.197265625
-346.98486328125
-324.0966796875
-303.955078125
-277.40478515625
-249.93896484375
-225.2197265625
-199.5849609375
-181.2744140625
-177.6123046875
-178.52783203125
-181.2744140625
-184.02099609375
-185.85205078125
-194.091796875
-190.4296875
-181.2744140625
-166.6259765625
-158.38623046875
-150.146484375
-141.90673828125
-136.41357421875
-130.92041015625
-117.1875
-108.94775390625
-101.62353515625
-96.13037109375
-83.31298828125
-78.7353515625
-65.91796875
-62.255859375
-59.50927734375
-52.18505859375
-29.296875
-16.4794921875
-9.1552734375
6.40869140625
17.39501953125
33.87451171875
35.70556640625
34.7900390625
38.4521484375
43.02978515625
47.607421875
45.7763671875
54.01611328125
57.67822265625
62.255859375
68.66455078125
71.4111328125
70.49560546875
69.580078125
62.255859375
57.67822265625
58.59375
57.67822265625
65.91796875
75.0732421875
81.48193359375
80.56640625
78.7353515625
70.49560546875
74.15771484375
69.580078125
73.2421875
75.0732421875
78.7353515625
87.890625
101.62353515625
103.45458984375
99.79248046875
91.552734375
94.29931640625
92.46826171875
92.46826171875
97.96142578125
107.11669921875
110.77880859375
117.1875
109.86328125
104.3701171875
110.77880859375
112.60986328125
119.93408203125
119.93408203125
130.0048828125
137.3291015625
149.23095703125
164.794921875
162.04833984375
162.04833984375
162.9638671875
158.38623046875
154.72412109375
159.3017578125
161.1328125
169.37255859375
171.20361328125
187.68310546875
185.85205078125
186.767578125
187.68310546875
186.767578125
190.4296875
189.51416015625
195.00732421875
197.75390625
203.2470703125
219.7265625
216.064453125
216.97998046875
214.2333984375
216.064453125
208.740234375
201.416015625
205.078125
214.2333984375
219.7265625
223.388671875
213.31787109375
208.740234375
203.2470703125
202.33154296875
195.9228515625
181.2744140625
171.20361328125
175.78125
183.10546875
182.18994140625
178.52783203125
165.71044921875
151.9775390625
142.822265625
131.8359375
124.51171875
113.525390625
108.94775390625
111.6943359375
119.93408203125
115.3564453125
99.79248046875
88.80615234375
79.65087890625
65.91796875
57.67822265625
53.1005859375
58.59375
59.50927734375
56.7626953125
44.86083984375
36.62109375
33.87451171875
29.296875
20.1416015625
9.1552734375
11.90185546875
15.56396484375
20.1416015625
30.21240234375
29.296875
20.1416015625
12.8173828125
8.23974609375
2.74658203125
5.4931640625
0
12.8173828125
18.310546875
21.05712890625
22.88818359375
16.4794921875
10.986328125
2.74658203125
-1.8310546875
-7.32421875
3.662109375
10.07080078125
15.56396484375
23.8037109375
33.87451171875
26.55029296875
21.05712890625
15.56396484375
5.4931640625
-1.8310546875
0.91552734375
21.97265625
31.1279296875
35.70556640625
34.7900390625
32.04345703125
25.634765625
20.1416015625
12.8173828125
9.1552734375
11.90185546875
16.4794921875
21.05712890625
35.70556640625
29.296875
26.55029296875
21.97265625
8.23974609375
2.74658203125
-0.91552734375
0
5.4931640625
14.6484375
21.97265625
23.8037109375
15.56396484375
10.986328125
1.8310546875
-2.74658203125
-3.662109375
-5.4931640625
-4.57763671875
5.4931640625
12.8173828125
11.90185546875
10.986328125
7.32421875
-3.662109375
-7.32421875
-14.6484375
-20.1416015625
-10.07080078125
-6.40869140625
4.57763671875
-0.91552734375
-2.74658203125
-7.32421875
-13.73291015625
-14.6484375
-11.90185546875
-19.22607421875
-16.4794921875
-10.07080078125
0
-9.1552734375
-11.90185546875
-14.6484375
-14.6484375
-17.39501953125
-22.88818359375
-21.97265625
-21.97265625
-20.1416015625
-10.07080078125
-11.90185546875
-16.4794921875
-19.22607421875
-23.8037109375
-21.97265625
-24.71923828125
-31.1279296875
-27.4658203125
-21.97265625
-16.4794921875
-16.4794921875
-18.310546875
-10.07080078125
-19.22607421875
-26.55029296875
-24.71923828125
-23.8037109375
-20.1416015625
-18.310546875
-7.32421875
-7.32421875
-9.1552734375
-16.4794921875
-14.6484375
-20.1416015625
-21.97265625
-29.296875
-22.88818359375
-10.07080078125
0
-7.32421875
-14.6484375
-15.56396484375
-21.05712890625
-23.8037109375
-30.21240234375
-30.21240234375
-20.1416015625
-12.8173828125
-6.40869140625
1.8310546875
-4.57763671875
-10.986328125
-17.39501953125
-12.8173828125
3.662109375
10.986328125
21.97265625
44.86083984375
56.7626953125
54.931640625
44.86083984375
40.283203125
37.53662109375
39.36767578125
33.87451171875
25.634765625
29.296875
39.36767578125
54.01611328125
55.84716796875
65.91796875
69.580078125
62.255859375
54.931640625
56.7626953125
69.580078125
65.91796875
79.65087890625
90.63720703125
77.81982421875
64.0869140625
51.26953125
41.19873046875
35.70556640625
34.7900390625
25.634765625
27.4658203125
24.71923828125
20.1416015625
16.4794921875
10.07080078125
-2.74658203125
-9.1552734375
-20.1416015625
-21.97265625
-19.22607421875
-19.22607421875
-13.73291015625
-10.07080078125
-15.56396484375
-21.05712890625
-21.97265625
-32.04345703125
-36.62109375
-41.19873046875
-39.36767578125
-37.53662109375
-28.38134765625
-21.97265625
-21.05712890625
-30.21240234375
-27.4658203125
-38.4521484375
-32.958984375
-35.70556640625
-43.02978515625
-43.02978515625
-31.1279296875
-20.1416015625
-18.310546875
-18.310546875
-18.310546875
-20.1416015625
-25.634765625
-31.1279296875
-33.87451171875
-29.296875
-21.97265625
-10.07080078125
8.23974609375
27.4658203125
42.1142578125
57.67822265625
65.91796875
62.255859375
56.7626953125
69.580078125
75.0732421875
75.98876953125
78.7353515625
85.14404296875
92.46826171875
97.96142578125
110.77880859375
124.51171875
104.3701171875
108.94775390625
51.26953125
-108.0322265625
-298.4619140625
-484.31396484375
-705.87158203125
-833.1298828125
-910.0341796875
-991.51611328125
-997.9248046875
-942.9931640625
-877.0751953125
-808.41064453125
-731.50634765625
-645.44677734375
-557.55615234375
-500.79345703125
-450.439453125
-420.22705078125
-376.28173828125
-325.01220703125
-294.7998046875
-264.58740234375
-243.5302734375
-224.30419921875
-209.65576171875
-205.99365234375
-191.34521484375
-181.2744140625
-178.52783203125
-162.9638671875
-151.9775390625
-140.07568359375
-141.90673828125
-151.9775390625
-154.72412109375
-141.90673828125
-138.24462890625
-131.8359375
-130.92041015625
-118.10302734375
-108.94775390625
-94.29931640625
-95.21484375
-86.97509765625
-87.890625
-74.15771484375
-67.7490234375
-69.580078125
-71.4111328125
-58.59375
-39.36767578125
-11.90185546875
6.40869140625
17.39501953125
30.21240234375
32.04345703125
35.70556640625
35.70556640625
38.4521484375
49.4384765625
61.34033203125
73.2421875
76.904296875
78.7353515625
83.31298828125
81.48193359375
75.0732421875
70.49560546875
71.4111328125
82.3974609375
90.63720703125
93.3837890625
88.80615234375
86.97509765625
89.7216796875
82.3974609375
87.890625
87.890625
82.3974609375
97.0458984375
110.77880859375
112.60986328125
117.1875
112.60986328125
110.77880859375
104.3701171875
103.45458984375
107.11669921875
108.94775390625
116.27197265625
123.59619140625
130.0048828125
132.75146484375
130.92041015625
131.8359375
121.76513671875
119.93408203125
125.42724609375
119.0185546875
130.0048828125
146.484375
153.80859375
148.3154296875
148.3154296875
155.6396484375
158.38623046875
146.484375
151.9775390625
160.21728515625
167.54150390625
175.78125
183.10546875
186.767578125
185.85205078125
190.4296875
186.767578125
184.02099609375
193.17626953125
184.9365234375
187.68310546875
203.2470703125
215.14892578125
222.47314453125
214.2333984375
225.2197265625
219.7265625
217.8955078125
214.2333984375
208.740234375
216.064453125
223.388671875
227.05078125
227.05078125
221.5576171875
218.81103515625
220.64208984375
213.31787109375
205.078125
205.078125
210.5712890625
217.8955078125
216.97998046875
209.65576171875
199.5849609375
187.68310546875
183.10546875
177.6123046875
168.45703125
162.9638671875
162.9638671875
162.04833984375
162.9638671875
153.80859375
143.73779296875
132.75146484375
122.6806640625
110.77880859375
106.201171875
97.96142578125
91.552734375
91.552734375
93.3837890625
87.890625
86.97509765625
73.2421875
64.0869140625
61.34033203125
50.35400390625
49.4384765625
51.26953125
61.34033203125
65.00244140625
70.49560546875
60.4248046875
55.84716796875
54.01611328125
41.19873046875
32.958984375
29.296875
31.1279296875
43.9453125
53.1005859375
50.35400390625
36.62109375
41.19873046875
32.04345703125
18.310546875
19.22607421875
27.4658203125
37.53662109375
42.1142578125
50.35400390625
50.35400390625
43.9453125
34.7900390625
34.7900390625
40.283203125
34.7900390625
33.87451171875
41.19873046875
50.35400390625
53.1005859375
54.931640625
58.59375
60.4248046875
50.35400390625
37.53662109375
34.7900390625
38.4521484375
40.283203125
52.18505859375
61.34033203125
54.01611328125
56.7626953125
54.931640625
53.1005859375
43.9453125
39.36767578125
43.02978515625
41.19873046875
51.26953125
49.4384765625
43.9453125
38.4521484375
29.296875
24.71923828125
38.4521484375
32.958984375
35.70556640625
36.62109375
42.1142578125
52.18505859375
52.18505859375
47.607421875
43.9453125
39.36767578125
26.55029296875
27.4658203125
25.634765625
28.38134765625
33.87451171875
39.36767578125
40.283203125
34.7900390625
34.7900390625
31.1279296875
21.97265625
18.310546875
20.1416015625
21.97265625
21.05712890625
22.88818359375
27.4658203125
38.4521484375
34.7900390625
32.958984375
27.4658203125
23.8037109375
21.97265625
26.55029296875
24.71923828125
31.1279296875
32.04345703125
27.4658203125
28.38134765625
16.4794921875
13.73291015625
12.8173828125
10.986328125
12.8173828125
19.22607421875
28.38134765625
27.4658203125
26.55029296875
24.71923828125
21.05712890625
14.6484375
10.07080078125
6.40869140625
9.1552734375
15.56396484375
20.1416015625
27.4658203125
19.22607421875
16.4794921875
17.39501953125
14.6484375
21.05712890625
16.4794921875
18.310546875
18.310546875
26.55029296875
33.87451171875
32.04345703125
32.958984375
32.958984375
39.36767578125
40.283203125
47.607421875
67.7490234375
90.63720703125
97.96142578125
96.13037109375
87.890625
91.552734375
92.46826171875
81.48193359375
66.83349609375
56.7626953125
70.49560546875
80.56640625
96.13037109375
118.10302734375
118.10302734375
115.3564453125
108.94775390625
108.94775390625
100.7080078125
99.79248046875
108.94775390625
116.27197265625
115.3564453125
104.3701171875
92.46826171875
76.904296875
69.580078125
65.91796875
62.255859375
61.34033203125
51.26953125
49.4384765625
52.18505859375
47.607421875
38.4521484375
21.05712890625
10.07080078125
1.8310546875
6.40869140625
-3.662109375
-9.1552734375
2.74658203125
10.986328125
15.56396484375
10.986328125
2.74658203125
-2.74658203125
-8.23974609375
-7.32421875
-8.23974609375
-9.1552734375
-0.91552734375
3.662109375
8.23974609375
8.23974609375
8.23974609375
0.91552734375
-0.91552734375
-2.74658203125
-2.74658203125
1.8310546875
12.8173828125
16.4794921875
21.05712890625
14.6484375
9.1552734375
2.74658203125
-8.23974609375
-15.56396484375
-13.73291015625
2.74658203125
11.90185546875
23.8037109375
44.86083984375
57.67822265625
75.98876953125
90.63720703125
88.80615234375
85.14404296875
87.890625
94.29931640625
96.13037109375
101.62353515625
108.0322265625
111.6943359375
119.93408203125
138.24462890625
152.89306640625
131.8359375
119.0185546875
43.9453125
-107.11669921875
-272.8271484375
-448.6083984375
-669.25048828125
-789.1845703125
-873.4130859375
-955.810546875
-955.810546875
-902.7099609375
-840.4541015625
-770.8740234375
-697.6318359375
-612.48779296875
-538.330078125
-482.48291015625
-437.6220703125
-406.494140625
-358.88671875
-325.927734375
-294.7998046875
-263.671875
-225.2197265625
-198.66943359375
-187.68310546875
-179.443359375
-174.86572265625
-161.1328125
-155.6396484375
-155.6396484375
-151.9775390625
-136.41357421875
-129.08935546875
-125.42724609375
-135.498046875
-125.42724609375
-123.59619140625
-124.51171875
-118.10302734375
-114.44091796875
-98.876953125
-90.63720703125
-80.56640625
-69.580078125
-65.00244140625
-53.1005859375
-50.35400390625
-40.283203125
-41.19873046875
-43.02978515625
-26.55029296875
-2.74658203125
23.8037109375
43.02978515625
53.1005859375
55.84716796875
58.59375
65.91796875
66.83349609375
65.00244140625
81.48193359375
97.0458984375
104.3701171875
103.45458984375
95.21484375
100.7080078125
102.5390625
107.11669921875
104.3701171875
98.876953125
101.62353515625
104.3701171875
117.1875
116.27197265625
115.3564453125
117.1875
117.1875
114.44091796875
113.525390625
108.94775390625
116.27197265625
124.51171875
130.0048828125
130.92041015625
136.41357421875
128.173828125
121.76513671875
128.173828125
127.25830078125
126.3427734375
130.0048828125
136.41357421875
140.9912109375
148.3154296875
142.822265625
146.484375
147.39990234375
145.56884765625
145.56884765625
144.6533203125
153.80859375
165.71044921875
176.69677734375
176.69677734375
178.52783203125
174.86572265625
173.9501953125
174.86572265625
179.443359375
172.119140625
186.767578125
197.75390625
206.9091796875
213.31787109375
209.65576171875
211.48681640625
205.99365234375
205.078125
205.99365234375
204.16259765625
211.48681640625
223.388671875
226.13525390625
233.45947265625
227.96630859375
220.64208984375
216.064453125
225.2197265625
225.2197265625
223.388671875
233.45947265625
242.61474609375
235.29052734375
232.5439453125
229.79736328125
224.30419921875
227.96630859375
230.712890625
229.79736328125
230.712890625
228.8818359375
226.13525390625
232.5439453125
222.47314453125
217.8955078125
209.65576171875
194.091796875
184.9365234375
169.37255859375
161.1328125
155.6396484375
166.6259765625
177.6123046875
163.87939453125
151.9775390625
136.41357421875
119.93408203125
108.0322265625
112.60986328125
106.201171875
104.3701171875
103.45458984375
102.5390625
103.45458984375
96.13037109375
90.63720703125
75.98876953125
66.83349609375
54.931640625
51.26953125
64.0869140625
65.91796875
72.32666015625
71.4111328125
60.4248046875
54.931640625
54.01611328125
45.7763671875
39.36767578125
43.9453125
53.1005859375
58.59375
60.4248046875
63.17138671875
59.50927734375
51.26953125
41.19873046875
41.19873046875
41.19873046875
45.7763671875
45.7763671875
54.01611328125
60.4248046875
61.34033203125
58.59375
56.7626953125
54.931640625
54.931640625
47.607421875
44.86083984375
45.7763671875
56.7626953125
60.4248046875
57.67822265625
56.7626953125
61.34033203125
61.34033203125
65.00244140625
54.01611328125
50.35400390625
54.01611328125
68.66455078125
66.83349609375
69.580078125
64.0869140625
58.59375
49.4384765625
51.26953125
49.4384765625
36.62109375
43.9453125
52.18505859375
64.0869140625
67.7490234375
60.4248046875
58.59375
50.35400390625
43.02978515625
49.4384765625
35.70556640625
34.7900390625
50.35400390625
57.67822265625
58.59375
52.18505859375
48.52294921875
41.19873046875
31.1279296875
22.88818359375
23.8037109375
29.296875
40.283203125
43.9453125
44.86083984375
32.958984375
37.53662109375
32.958984375
22.88818359375
25.634765625
21.97265625
34.7900390625
39.36767578125
47.607421875
49.4384765625
38.4521484375
34.7900390625
25.634765625
23.8037109375
13.73291015625
13.73291015625
19.22607421875
20.1416015625
27.4658203125
33.87451171875
28.38134765625
14.6484375
13.73291015625
10.07080078125
12.8173828125
16.4794921875
19.22607421875
24.71923828125
27.4658203125
31.1279296875
24.71923828125
21.97265625
14.6484375
4.57763671875
2.74658203125
2.74658203125
7.32421875
14.6484375
20.1416015625
21.05712890625
22.88818359375
18.310546875
10.986328125
10.07080078125
4.57763671875
4.57763671875
12.8173828125
19.22607421875
20.1416015625
12.8173828125
6.40869140625
14.6484375
11.90185546875
12.8173828125
6.40869140625
11.90185546875
20.1416015625
19.22607421875
27.4658203125
29.296875
26.55029296875
25.634765625
29.296875
17.39501953125
4.57763671875
6.40869140625
8.23974609375
12.8173828125
17.39501953125
21.05712890625
25.634765625
32.04345703125
29.296875
35.70556640625
35.70556640625
41.19873046875
60.4248046875
63.17138671875
80.56640625
86.0595703125
78.7353515625
73.2421875
75.98876953125
65.91796875
54.931640625
58.59375
63.17138671875
72.32666015625
90.63720703125
104.3701171875
112.60986328125
110.77880859375
87.890625
76.904296875
79.65087890625
86.0595703125
90.63720703125
108.94775390625
110.77880859375
100.7080078125
88.80615234375
76.904296875
60.4248046875
54.01611328125
43.02978515625
37.53662109375
43.9453125
41.19873046875
37.53662109375
37.53662109375
34.7900390625
28.38134765625
14.6484375
3.662109375
-8.23974609375
-17.39501953125
-13.73291015625
-11.90185546875
-8.23974609375
-2.74658203125
-6.40869140625
-15.56396484375
-15.56396484375
-15.56396484375
-13.73291015625
-21.05712890625
-20.1416015625
-15.56396484375
-5.4931640625
1.8310546875
-9.1552734375
-11.90185546875
-18.310546875
-21.05712890625
-27.4658203125
-21.05712890625
-29.296875
-14.6484375
-5.4931640625
-4.57763671875
-14.6484375
-18.310546875
-16.4794921875
-15.56396484375
-21.05712890625
-31.1279296875
-17.39501953125
-10.986328125
9.1552734375
34.7900390625
44.86083984375
56.7626953125
65.91796875
75.98876953125
70.49560546875
66.83349609375
73.2421875
80.56640625
100.7080078125
115.3564453125
128.173828125
145.56884765625
154.72412109375
180.35888671875
177.6123046875
169.37255859375
132.75146484375
2.74658203125
-174.86572265625
-349.7314453125
-556.640625
-740.66162109375
-827.63671875
-918.27392578125
-977.783203125
-950.3173828125
-903.62548828125
-835.87646484375
-772.705078125
-704.04052734375
-621.64306640625
-552.978515625
-507.2021484375
-462.34130859375
-415.6494140625
-371.7041015625
-325.01220703125
-291.1376953125
-255.43212890625
-228.8818359375
-216.064453125
-202.33154296875
-189.51416015625
-178.52783203125
-183.10546875
-182.18994140625
-173.9501953125
-166.6259765625
-162.04833984375
-158.38623046875
-161.1328125
-159.3017578125
-156.55517578125
-151.06201171875
-144.6533203125
-129.08935546875
-114.44091796875
-108.0322265625
-94.29931640625
-89.7216796875
-78.7353515625
-75.0732421875
-70.49560546875
-68.66455078125
-64.0869140625
-59.50927734375
-52.18505859375
-34.7900390625
-6.40869140625
10.986328125
28.38134765625
32.958984375
29.296875
32.04345703125
29.296875
33.87451171875
50.35400390625
68.66455078125
80.56640625
87.890625
87.890625
80.56640625
73.2421875
72.32666015625
71.4111328125
66.83349609375
73.2421875
87.890625
93.3837890625
84.228515625
86.0595703125
89.7216796875
84.228515625
78.7353515625
73.2421875
72.32666015625
83.31298828125
90.63720703125
104.3701171875
110.77880859375
103.45458984375
94.29931640625
92.46826171875
90.63720703125
97.0458984375
95.21484375
108.0322265625
113.525390625
126.3427734375
129.08935546875
128.173828125
125.42724609375
118.10302734375
123.59619140625
122.6806640625
120.849609375
129.08935546875
130.92041015625
142.822265625
140.07568359375
150.146484375
151.9775390625
149.23095703125
147.39990234375
142.822265625
143.73779296875
150.146484375
165.71044921875
172.119140625
177.6123046875
180.35888671875
172.119140625
166.6259765625
172.119140625
179.443359375
177.6123046875
184.9365234375
203.2470703125
219.7265625
221.5576171875
221.5576171875
218.81103515625
216.97998046875
216.064453125
208.740234375
199.5849609375
202.33154296875
205.078125
223.388671875
229.79736328125
227.05078125
221.5576171875
216.064453125
212.40234375
209.65576171875
205.078125
205.078125
205.99365234375
211.48681640625
212.40234375
200.50048828125
193.17626953125
177.6123046875
171.20361328125
162.04833984375
156.55517578125
157.470703125
151.9775390625
156.55517578125
149.23095703125
138.24462890625
124.51171875
116.27197265625
106.201171875
88.80615234375
75.0732421875
76.904296875
84.228515625
86.97509765625
86.97509765625
81.48193359375
71.4111328125
57.67822265625
51.26953125
50.35400390625
43.9453125
39.36767578125
42.1142578125
43.02978515625
32.04345703125
38.4521484375
42.1142578125
32.958984375
35.70556640625
22.88818359375
13.73291015625
21.97265625
24.71923828125
30.21240234375
42.1142578125
41.19873046875
38.4521484375
32.04345703125
25.634765625
21.97265625
13.73291015625
19.22607421875
22.88818359375
32.04345703125
35.70556640625
33.87451171875
33.87451171875
32.958984375
25.634765625
24.71923828125
24.71923828125
29.296875
34.7900390625
43.9453125
45.7763671875
44.86083984375
37.53662109375
32.958984375
27.4658203125
23.8037109375
28.38134765625
33.87451171875
35.70556640625
43.9453125
49.4384765625
47.607421875
40.283203125
31.1279296875
30.21240234375
30.21240234375
29.296875
34.7900390625
36.62109375
44.86083984375
43.02978515625
41.19873046875
35.70556640625
27.4658203125
18.310546875
10.986328125
11.90185546875
16.4794921875
14.6484375
21.97265625
32.04345703125
37.53662109375
41.19873046875
32.04345703125
21.97265625
20.1416015625
11.90185546875
12.8173828125
22.88818359375
22.88818359375
23.8037109375
18.310546875
21.97265625
8.23974609375
3.662109375
3.662109375
1.8310546875
5.4931640625
8.23974609375
18.310546875
21.05712890625
17.39501953125
7.32421875
-8.23974609375
-4.57763671875
-3.662109375
-7.32421875
-7.32421875
4.57763671875
2.74658203125
5.4931640625
4.57763671875
2.74658203125
-1.8310546875
-4.57763671875
-10.07080078125
-7.32421875
-1.8310546875
0
7.32421875
10.986328125
6.40869140625
-8.23974609375
-11.90185546875
-19.22607421875
-19.22607421875
-19.22607421875
-8.23974609375
-12.8173828125
-10.986328125
0
0
-2.74658203125
-4.57763671875
-9.1552734375
-16.4794921875
-6.40869140625
0.91552734375
2.74658203125
9.1552734375
7.32421875
3.662109375
-3.662109375
-14.6484375
-11.90185546875
-10.986328125
-19.22607421875
-18.310546875
-8.23974609375
-2.74658203125
0
-0.91552734375
-7.32421875
-9.1552734375
-12.8173828125
-17.39501953125
-18.310546875
-16.4794921875
-8.23974609375
-3.662109375
-2.74658203125
-10.986328125
-15.56396484375
-19.22607421875
-17.39501953125
-19.22607421875
-24.71923828125
-11.90185546875
-4.57763671875
2.74658203125
0
-1.8310546875
-6.40869140625
-11.90185546875
-18.310546875
-21.97265625
-27.4658203125
-17.39501953125
-9.1552734375
-0.91552734375
-0.91552734375
-7.32421875
-13.73291015625
-18.310546875
-17.39501953125
-21.05712890625
-21.05712890625
-17.39501953125
1.8310546875
20.1416015625
42.1142578125
45.7763671875
42.1142578125
51.26953125
55.84716796875
49.4384765625
45.7763671875
46.69189453125
51.26953125
67.7490234375
75.0732421875
65.00244140625
56.7626953125
49.4384765625
48.52294921875
59.50927734375
75.98876953125
77.81982421875
74.15771484375
74.15771484375
75.0732421875
76.904296875
71.4111328125
70.49560546875
71.4111328125
60.4248046875
45.7763671875
41.19873046875
28.38134765625
26.55029296875
24.71923828125
16.4794921875
23.8037109375
19.22607421875
22.88818359375
27.4658203125
21.05712890625
15.56396484375
8.23974609375
6.40869140625
16.4794921875
5.4931640625
0
-5.4931640625
-12.8173828125
-16.4794921875
-23.8037109375
-22.88818359375
-19.22607421875
-11.90185546875
-15.56396484375
-15.56396484375
-27.4658203125
-26.55029296875
-31.1279296875
-34.7900390625
-44.86083984375
-44.86083984375
-27.4658203125
-16.4794921875
-8.23974609375
-13.73291015625
-21.97265625
-23.8037109375
-23.8037109375
-29.296875
-35.70556640625
-27.4658203125
-23.8037109375
-15.56396484375
-10.986328125
-23.8037109375
-21.97265625
-19.22607421875
-17.39501953125
-13.73291015625
5.4931640625
28.38134765625
51.26953125
69.580078125
71.4111328125
71.4111328125
75.0732421875
78.7353515625
77.81982421875
85.14404296875
97.0458984375
120.849609375
158.38623046875
205.99365234375
220.64208984375
206.9091796875
192.2607421875
104.3701171875
-75.98876953125
-269.1650390625
-456.84814453125
-675.6591796875
-780.029296875
-868.83544921875
-956.72607421875
-964.05029296875
-926.513671875
-884.3994140625
-840.4541015625
-776.3671875
-693.05419921875
-605.16357421875
-542.90771484375
-484.31396484375
-432.12890625
-382.6904296875
-342.4072265625
-322.265625
-295.71533203125
-273.74267578125
-255.43212890625
-228.8818359375
-205.078125
-187.68310546875
-178.52783203125
-185.85205078125
-184.9365234375
-190.4296875
-180.35888671875
-175.78125
-179.443359375
-174.86572265625
-160.21728515625
-149.23095703125
-138.24462890625
-131.8359375
-127.25830078125
-126.3427734375
-118.10302734375
-112.60986328125
-103.45458984375
-93.3837890625
-86.0595703125
-67.7490234375
-57.67822265625
-54.01611328125
-51.26953125
-43.9453125
-25.634765625
-16.4794921875
-3.662109375
6.40869140625
22.88818359375
40.283203125
51.26953125
46.69189453125
51.26953125
49.4384765625
51.26953125
48.52294921875
47.607421875
51.26953125
59.50927734375
70.49560546875
67.7490234375
63.17138671875
59.50927734375
65.00244140625
66.83349609375
62.255859375
60.4248046875
74.15771484375
78.7353515625
86.0595703125
90.63720703125
75.98876953125
81.48193359375
73.2421875
75.98876953125
76.904296875
76.904296875
87.890625
97.0458984375
101.62353515625
109.86328125
105.28564453125
105.28564453125
100.7080078125
100.7080078125
94.29931640625
89.7216796875
99.79248046875
108.0322265625
109.86328125
120.849609375
118.10302734375
119.0185546875
113.525390625
116.27197265625
118.10302734375
122.6806640625
130.92041015625
145.56884765625
158.38623046875
167.54150390625
161.1328125
156.55517578125
148.3154296875
146.484375
151.9775390625
158.38623046875
163.87939453125
179.443359375
183.10546875
186.767578125
183.10546875
179.443359375
173.9501953125
176.69677734375
182.18994140625
184.02099609375
195.00732421875
212.40234375
211.48681640625
211.48681640625
216.064453125
212.40234375
201.416015625
198.66943359375
195.9228515625
201.416015625
205.078125
212.40234375
220.64208984375
223.388671875
216.064453125
205.99365234375
188.5986328125
187.68310546875
191.34521484375
188.5986328125
194.091796875
189.51416015625
187.68310546875
181.2744140625
171.20361328125
162.04833984375
155.6396484375
149.23095703125
130.0048828125
127.25830078125
127.25830078125
128.173828125
125.42724609375
124.51171875
109.86328125
94.29931640625
89.7216796875
72.32666015625
65.91796875
57.67822265625
57.67822265625
58.59375
56.7626953125
52.18505859375
40.283203125
35.70556640625
35.70556640625
31.1279296875
23.8037109375
21.05712890625
18.310546875
21.97265625
31.1279296875
37.53662109375
32.958984375
25.634765625
20.1416015625
17.39501953125
15.56396484375
14.6484375
16.4794921875
14.6484375
23.8037109375
23.8037109375
22.88818359375
19.22607421875
23.8037109375
20.1416015625
9.1552734375
7.32421875
15.56396484375
24.71923828125
33.87451171875
39.36767578125
38.4521484375
33.87451171875
24.71923828125
21.05712890625
20.1416015625
21.97265625
28.38134765625
31.1279296875
37.53662109375
43.9453125
41.19873046875
42.1142578125
37.53662109375
26.55029296875
17.39501953125
14.6484375
24.71923828125
40.283203125
47.607421875
51.26953125
43.02978515625
39.36767578125
32.958984375
27.4658203125
21.05712890625
10.07080078125
19.22607421875
24.71923828125
24.71923828125
30.21240234375
24.71923828125
26.55029296875
21.05712890625
24.71923828125
18.310546875
15.56396484375
21.05712890625
24.71923828125
31.1279296875
33.87451171875
24.71923828125
11.90185546875
4.57763671875
5.4931640625
10.07080078125
2.74658203125
0
14.6484375
23.8037109375
24.71923828125
17.39501953125
10.07080078125
7.32421875
3.662109375
-6.40869140625
-0.91552734375
4.57763671875
0
9.1552734375
8.23974609375
5.4931640625
10.986328125
-2.74658203125
-1.8310546875
-1.8310546875
-10.07080078125
-4.57763671875
0
10.986328125
11.90185546875
4.57763671875
-0.91552734375
-5.4931640625
-3.662109375
-13.73291015625
-14.6484375
-11.90185546875
0
9.1552734375
-0.91552734375
0
-0.91552734375
-10.07080078125
-12.8173828125
-14.6484375
-21.05712890625
-21.97265625
-17.39501953125
-3.662109375
5.4931640625
-3.662109375
-8.23974609375
-6.40869140625
-5.4931640625
-12.8173828125
-15.56396484375
-16.4794921875
-0.91552734375
10.07080078125
5.4931640625
0.91552734375
4.57763671875
2.74658203125
0
-14.6484375
-14.6484375
-12.8173828125
-4.57763671875
9.1552734375
13.73291015625
14.6484375
13.73291015625
7.32421875
-17.39501953125
-22.88818359375
-10.07080078125
-6.40869140625
-16.4794921875
-7.32421875
0.91552734375
-5.4931640625
-7.32421875
-16.4794921875
-20.1416015625
-21.05712890625
-19.22607421875
-10.986328125
-7.32421875
-4.57763671875
-3.662109375
-3.662109375
-7.32421875
-10.986328125
-13.73291015625
-12.8173828125
-19.22607421875
-21.97265625
-20.1416015625
-10.986328125
-2.74658203125
0.91552734375
6.40869140625
5.4931640625
14.6484375
26.55029296875
32.958984375
42.1142578125
53.1005859375
66.83349609375
70.49560546875
67.7490234375
61.34033203125
58.59375
52.18505859375
49.4384765625
43.9453125
46.69189453125
55.84716796875
76.904296875
102.5390625
101.62353515625
96.13037109375
82.3974609375
75.98876953125
76.904296875
67.7490234375
74.15771484375
88.80615234375
86.0595703125
81.48193359375
61.34033203125
57.67822265625
43.02978515625
36.62109375
32.04345703125
30.21240234375
29.296875
31.1279296875
41.19873046875
36.62109375
34.7900390625
18.310546875
-8.23974609375
-12.8173828125
-17.39501953125
-20.1416015625
-20.1416015625
-22.88818359375
-12.8173828125
-23.8037109375
-22.88818359375
-21.05712890625
-27.4658203125
-30.21240234375
-31.1279296875
-32.958984375
-23.8037109375
-27.4658203125
-18.310546875
-10.986328125
-11.90185546875
-17.39501953125
-21.97265625
-24.71923828125
-31.1279296875
-32.04345703125
-34.7900390625
-30.21240234375
-19.22607421875
-17.39501953125
-17.39501953125
-7.32421875
-15.56396484375
-16.4794921875
-22.88818359375
-26.55029296875
-15.56396484375
-5.4931640625
15.56396484375
36.62109375
52.18505859375
64.0869140625
66.83349609375
65.00244140625
59.50927734375
65.00244140625
76.904296875
80.56640625
97.0458984375
117.1875
137.3291015625
150.146484375
177.6123046875
184.9365234375
166.6259765625
153.80859375
70.49560546875
-103.45458984375
-283.8134765625
-466.9189453125
-685.72998046875
-785.5224609375
-887.14599609375
-988.76953125
-986.02294921875
-951.23291015625
-890.80810546875
-823.05908203125
-740.66162109375
-636.29150390625
-552.06298828125
-508.11767578125
-466.00341796875
-428.466796875
-381.77490234375
-346.0693359375
-314.02587890625
-281.982421875
-248.10791015625
-216.064453125
-204.16259765625
-189.51416015625
-185.85205078125
-181.2744140625
-180.35888671875
-183.10546875
-172.119140625
-166.6259765625
-160.21728515625
-159.3017578125
-156.55517578125
-156.55517578125
-153.80859375
-155.6396484375
-149.23095703125
-136.41357421875
-118.10302734375
-107.11669921875
-87.890625
-75.0732421875
-74.15771484375
-66.83349609375
-63.17138671875
-64.0869140625
-61.34033203125
-65.91796875
-51.26953125
-21.97265625
1.8310546875
19.22607421875
25.634765625
33.87451171875
38.4521484375
38.4521484375
31.1279296875
32.958984375
44.86083984375
60.4248046875
69.580078125
78.7353515625
77.81982421875
76.904296875
80.56640625
77.81982421875
65.91796875
66.83349609375
74.15771484375
80.56640625
89.7216796875
91.552734375
95.21484375
96.13037109375
85.14404296875
76.904296875
72.32666015625
66.83349609375
75.0732421875
81.48193359375
91.552734375
98.876953125
96.13037109375
97.96142578125
112.60986328125
108.94775390625
103.45458984375
95.21484375
109.86328125
111.6943359375
108.94775390625
115.3564453125
121.76513671875
130.0048828125
124.51171875
125.42724609375
127.25830078125
124.51171875
128.173828125
132.75146484375
149.23095703125
154.72412109375
152.89306640625
157.470703125
150.146484375
141.90673828125
141.90673828125
146.484375
156.55517578125
160.21728515625
173.9501953125
185.85205078125
183.10546875
177.6123046875
179.443359375
175.78125
173.03466796875
177.6123046875
190.4296875
211.48681640625
214.2333984375
214.2333984375
209.65576171875
214.2333984375
212.40234375
201.416015625
198.66943359375
196.83837890625
210.5712890625
216.064453125
217.8955078125
223.388671875
223.388671875
217.8955078125
212.40234375
205.99365234375
204.16259765625
202.33154296875
196.83837890625
195.9228515625
213.31787109375
217.8955078125
215.14892578125
205.078125
192.2607421875
191.34521484375
178.52783203125
164.794921875
160.21728515625
157.470703125
157.470703125
150.146484375
137.3291015625
125.42724609375
115.3564453125
119.0185546875
118.10302734375
106.201171875
101.62353515625
94.29931640625
92.46826171875
96.13037109375
83.31298828125
69.580078125
64.0869140625
62.255859375
55.84716796875
56.7626953125
59.50927734375
65.00244140625
69.580078125
54.931640625
49.4384765625
50.35400390625
51.26953125
45.7763671875
36.62109375
35.70556640625
36.62109375
44.86083984375
45.7763671875
54.01611328125
45.7763671875
48.52294921875
43.9453125
35.70556640625
32.04345703125
28.38134765625
31.1279296875
31.1279296875
39.36767578125
44.86083984375
41.19873046875
40.283203125
37.53662109375
35.70556640625
32.958984375
35.70556640625
40.283203125
52.18505859375
54.01611328125
56.7626953125
62.255859375
56.7626953125
56.7626953125
44.86083984375
46.69189453125
38.4521484375
43.02978515625
50.35400390625
58.59375
68.66455078125
61.34033203125
60.4248046875
54.931640625
40.283203125
36.62109375
32.958984375
35.70556640625
41.19873046875
43.02978515625
52.18505859375
50.35400390625
52.18505859375
51.26953125
43.9453125
32.04345703125
38.4521484375
40.283203125
42.1142578125
58.59375
56.7626953125
53.1005859375
45.7763671875
38.4521484375
32.04345703125
29.296875
26.55029296875
34.7900390625
43.02978515625
43.9453125
42.1142578125
35.70556640625
27.4658203125
28.38134765625
22.88818359375
17.39501953125
19.22607421875
21.05712890625
17.39501953125
30.21240234375
39.36767578125
25.634765625
19.22607421875
21.05712890625
29.296875
19.22607421875
9.1552734375
10.07080078125
18.310546875
43.9453125
48.52294921875
36.62109375
32.04345703125
31.1279296875
27.4658203125
28.38134765625
15.56396484375
19.22607421875
30.21240234375
38.4521484375
33.87451171875
27.4658203125
17.39501953125
13.73291015625
18.310546875
14.6484375
11.90185546875
15.56396484375
22.88818359375
26.55029296875
36.62109375
27.4658203125
29.296875
22.88818359375
22.88818359375
19.22607421875
8.23974609375
10.07080078125
17.39501953125
21.05712890625
24.71923828125
12.8173828125
16.4794921875
24.71923828125
20.1416015625
13.73291015625
8.23974609375
15.56396484375
28.38134765625
32.958984375
33.87451171875
29.296875
30.21240234375
22.88818359375
20.1416015625
18.310546875
15.56396484375
25.634765625
31.1279296875
33.87451171875
38.4521484375
43.02978515625
41.19873046875
35.70556640625
37.53662109375
39.36767578125
46.69189453125
65.91796875
83.31298828125
85.14404296875
101.62353515625
98.876953125
96.13037109375
95.21484375
83.31298828125
76.904296875
69.580078125
75.98876953125
74.15771484375
94.29931640625
122.6806640625
130.0048828125
119.93408203125
119.0185546875
118.10302734375
117.1875
115.3564453125
127.25830078125
139.16015625
136.41357421875
124.51171875
103.45458984375
89.7216796875
88.80615234375
89.7216796875
86.0595703125
85.14404296875
74.15771484375
75.98876953125
73.2421875
84.228515625
75.0732421875
60.4248046875
48.52294921875
34.7900390625
21.05712890625
12.8173828125
18.310546875
18.310546875
17.39501953125
37.53662109375
26.55029296875
27.4658203125
23.8037109375
13.73291015625
4.57763671875
0.91552734375
2.74658203125
3.662109375
14.6484375
20.1416015625
29.296875
30.21240234375
14.6484375
17.39501953125
19.22607421875
14.6484375
19.22607421875
30.21240234375
47.607421875
43.9453125
50.35400390625
30.21240234375
25.634765625
17.39501953125
11.90185546875
20.1416015625
31.1279296875
45.7763671875
59.50927734375
83.31298828125
100.7080078125
100.7080078125
116.27197265625
130.0048828125
114.44091796875
118.10302734375
114.44091796875
125.42724609375
126.3427734375
130.0048828125
150.146484375
159.3017578125
162.04833984375
184.9365234375
162.9638671875
139.16015625
103.45458984375
-38.4521484375
-196.83837890625
-370.78857421875
-589.599609375
-736.083984375
-814.8193359375
-887.14599609375
-910.94970703125
-876.15966796875
-822.1435546875
-761.71875
-682.9833984375
-585.02197265625
-502.62451171875
-450.439453125
-397.3388671875
-367.12646484375
-324.0966796875
-297.54638671875
-271.91162109375
-251.77001953125
-219.7265625
-191.34521484375
-173.9501953125
-156.55517578125
-140.07568359375
-132.75146484375
-125.42724609375
-132.75146484375
-128.173828125
-119.0185546875
-98.876953125
-81.48193359375
-86.0595703125
-88.80615234375
-81.48193359375
-83.31298828125
-79.65087890625
-74.15771484375
-64.0869140625
-65.91796875
-51.26953125
-29.296875
-14.6484375
-7.32421875
-4.57763671875
1.8310546875
9.1552734375
12.8173828125
19.22607421875
46.69189453125
65.00244140625
89.7216796875
101.62353515625
100.7080078125
106.201171875
119.0185546875
125.42724609375
122.6806640625
132.75146484375
159.3017578125
167.54150390625
177.6123046875
176.69677734375
177.6123046875
162.9638671875
162.9638671875
169.37255859375
168.45703125
174.86572265625
179.443359375
182.18994140625
190.4296875
191.34521484375
184.02099609375
180.35888671875
175.78125
177.6123046875
176.69677734375
177.6123046875
193.17626953125
208.740234375
205.078125
199.5849609375
201.416015625
185.85205078125
182.18994140625
176.69677734375
181.2744140625
201.416015625
216.97998046875
222.47314453125
232.5439453125
236.2060546875
231.62841796875
227.96630859375
228.8818359375
236.2060546875
235.29052734375
227.96630859375
235.29052734375
250.8544921875
254.5166015625
255.43212890625
262.75634765625
263.671875
259.09423828125
260.92529296875
253.60107421875
260.009765625
273.74267578125
294.7998046875
296.630859375
301.20849609375
293.88427734375
292.05322265625
306.70166015625
303.03955078125
305.7861328125
305.7861328125
318.603515625
333.251953125
331.4208984375
321.35009765625
327.7587890625
332.33642578125
337.82958984375
337.82958984375
327.7587890625
321.35009765625
333.251953125
353.3935546875
353.3935546875
330.50537109375
348.81591796875
348.81591796875
339.66064453125
331.4208984375
324.0966796875
326.84326171875
326.84326171875
342.4072265625
351.5625
350.64697265625
346.0693359375
335.99853515625
327.7587890625
319.51904296875
291.1376953125
295.71533203125
296.630859375
305.7861328125
306.70166015625
292.96875
292.05322265625
284.72900390625
268.24951171875
279.23583984375
278.3203125
270.08056640625
273.74267578125
273.74267578125
283.8134765625
280.1513671875
273.74267578125
264.58740234375
251.77001953125
241.69921875
238.037109375
239.8681640625
243.5302734375
239.8681640625
241.69921875
232.5439453125
221.5576171875
228.8818359375
227.96630859375
230.712890625
216.97998046875
224.30419921875
236.2060546875
224.30419921875
238.95263671875
241.69921875
236.2060546875
225.2197265625
239.8681640625
234.375
236.2060546875
244.44580078125
250.8544921875
264.58740234375
271.91162109375
260.92529296875
265.5029296875
264.58740234375
261.8408203125
264.58740234375
270.99609375
263.671875
267.333984375
271.91162109375
278.3203125
290.22216796875
299.37744140625
300.29296875
291.1376953125
292.05322265625
294.7998046875
306.70166015625
310.36376953125
311.279296875
320.4345703125
318.603515625
323.18115234375
329.58984375
326.84326171875
320.4345703125
315.85693359375
315.85693359375
332.33642578125
345.15380859375
340.576171875
340.576171875
338.7451171875
335.0830078125
331.4208984375
329.58984375
324.0966796875
324.0966796875
322.265625
333.251953125
348.81591796875
359.80224609375
359.80224609375
349.7314453125
333.251953125
335.0830078125
328.67431640625
338.7451171875
333.251953125
326.84326171875
343.32275390625
350.64697265625
357.0556640625
352.47802734375
343.32275390625
342.4072265625
340.576171875
346.98486328125
346.0693359375
363.46435546875
374.45068359375
365.29541015625
362.548828125
357.97119140625
356.14013671875
346.0693359375
347.900390625
346.0693359375
351.5625
357.97119140625
362.548828125
367.12646484375
362.548828125
363.46435546875
365.29541015625
351.5625
338.7451171875
350.64697265625
356.14013671875
358.88671875
367.12646484375
371.7041015625
370.78857421875
370.78857421875
380.859375
389.09912109375
393.6767578125
403.74755859375
418.39599609375
433.04443359375
440.36865234375
442.19970703125
439.453125
444.9462890625
432.12890625
426.6357421875
417.48046875
405.57861328125
416.56494140625
444.03076171875
474.2431640625
482.48291015625
480.65185546875
481.5673828125
474.2431640625
479.736328125
471.49658203125
473.32763671875
473.32763671875
465.087890625
457.763671875
449.52392578125
434.87548828125
434.87548828125
434.87548828125
430.2978515625
412.90283203125
411.07177734375
409.24072265625
411.07177734375
404.6630859375
387.26806640625
372.61962890625
357.97119140625
339.66064453125
340.576171875
345.15380859375
354.30908203125
370.78857421875
370.78857421875
363.46435546875
361.63330078125
350.64697265625
332.33642578125
326.84326171875
324.0966796875
317.68798828125
322.265625
331.4208984375
335.99853515625
330.50537109375
331.4208984375
331.4208984375
333.251953125
334.16748046875
325.927734375
310.36376953125
305.7861328125
318.603515625
335.99853515625
339.66064453125
334.16748046875
333.251953125
333.251953125
324.0966796875
324.0966796875
312.19482421875
314.02587890625
324.0966796875
335.99853515625
346.98486328125
359.80224609375
364.3798828125
367.12646484375
380.859375
388.18359375
371.7041015625
372.61962890625
383.60595703125
388.18359375
398.25439453125
404.6630859375
409.24072265625
431.21337890625
437.6220703125
465.087890625
469.66552734375
445.86181640625
387.26806640625
252.685546875
84.228515625
-88.80615234375
-285.64453125
-419.3115234375
-531.005859375
-623.47412109375
-639.0380859375
-580.4443359375
-515.44189453125
-471.49658203125
-390.93017578125
-314.02587890625
-257.26318359375
-213.31787109375
-164.794921875
-126.3427734375
-79.65087890625
-41.19873046875
-16.4794921875
17.39501953125
45.7763671875
59.50927734375
87.890625
97.96142578125
96.13037109375
109.86328125
105.28564453125
110.77880859375
117.1875
133.6669921875
134.58251953125
128.173828125
127.25830078125
141.90673828125
150.146484375
155.6396484375
166.6259765625
166.6259765625
172.119140625
190.4296875
202.33154296875
204.16259765625
222.47314453125
224.30419921875
234.375
244.44580078125
243.5302734375
248.10791015625
264.58740234375
289.306640625
317.68798828125
336.9140625
357.0556640625
360.7177734375
368.95751953125
375.3662109375
372.61962890625
368.95751953125
383.60595703125
409.24072265625
420.22705078125
425.72021484375
426.6357421875
414.73388671875
402.83203125
408.3251953125
403.74755859375
413.818359375
431.21337890625
444.03076171875
448.6083984375
447.69287109375
448.6083984375
442.19970703125
440.36865234375
444.03076171875
434.87548828125
431.21337890625
426.6357421875
436.70654296875
446.77734375
444.03076171875
448.6083984375
445.86181640625
442.19970703125
444.03076171875
435.791015625
437.6220703125
447.69287109375
456.84814453125
464.17236328125
463.2568359375
453.18603515625
448.6083984375
444.9462890625
447.69287109375
449.52392578125
450.439453125
453.18603515625
466.00341796875
467.83447265625
469.66552734375
460.51025390625
456.84814453125
460.51025390625
466.9189453125
455.9326171875
455.01708984375
465.087890625
480.65185546875
482.48291015625
482.48291015625
485.2294921875
484.31396484375
486.14501953125
488.8916015625
476.07421875
474.2431640625
478.82080078125
485.2294921875
485.2294921875
476.07421875
474.2431640625
469.66552734375
464.17236328125
459.5947265625
452.2705078125
457.763671875
465.087890625
473.32763671875
478.82080078125
472.412109375
467.83447265625
455.9326171875
443.115234375
436.70654296875
439.453125
438.53759765625
434.87548828125
433.04443359375
435.791015625
426.6357421875
415.6494140625
400.08544921875
393.6767578125
373.53515625
367.12646484375
360.7177734375
361.63330078125
365.29541015625
357.0556640625
346.98486328125
333.251953125
325.927734375
306.70166015625
298.4619140625
288.39111328125
275.57373046875
276.4892578125
278.3203125
287.4755859375
267.333984375
270.99609375
273.74267578125
253.60107421875
237.12158203125
226.13525390625
226.13525390625
233.45947265625
247.1923828125
246.27685546875
236.2060546875
237.12158203125
232.5439453125
215.14892578125
202.33154296875
195.00732421875
191.34521484375
191.34521484375
195.9228515625
201.416015625
195.00732421875
184.02099609375
181.2744140625
178.52783203125
175.78125
166.6259765625
166.6259765625
174.86572265625
175.78125
175.78125
173.03466796875
172.119140625
166.6259765625
160.21728515625
144.6533203125
143.73779296875
142.822265625
143.73779296875
142.822265625
149.23095703125
151.06201171875
151.9775390625
145.56884765625
141.90673828125
140.07568359375
137.3291015625
128.173828125
131.8359375
131.8359375
134.58251953125
122.6806640625
117.1875
116.27197265625
111.6943359375
101.62353515625
89.7216796875
89.7216796875
100.7080078125
107.11669921875
116.27197265625
113.525390625
101.62353515625
86.97509765625
80.56640625
83.31298828125
68.66455078125
66.83349609375
60.4248046875
73.2421875
68.66455078125
74.15771484375
65.00244140625
52.18505859375
55.84716796875
56.7626953125
44.86083984375
41.19873046875
41.19873046875
52.18505859375
52.18505859375
57.67822265625
45.7763671875
39.36767578125
30.21240234375
22.88818359375
10.986328125
20.1416015625
6.40869140625
15.56396484375
21.97265625
30.21240234375
33.87451171875
39.36767578125
15.56396484375
10.986328125
9.1552734375
9.1552734375
14.6484375
19.22607421875
16.4794921875
13.73291015625
8.23974609375
-3.662109375
-11.90185546875
-1.8310546875
-16.4794921875
-14.6484375
-5.4931640625
-8.23974609375
3.662109375
6.40869140625
-14.6484375
-12.8173828125
-10.07080078125
-9.1552734375
-0.91552734375
13.73291015625
28.38134765625
38.4521484375
49.4384765625
54.01611328125
67.7490234375
67.7490234375
55.84716796875
54.931640625
46.69189453125
37.53662109375
42.1142578125
48.52294921875
58.59375
60.4248046875
64.0869140625
81.48193359375
94.29931640625
81.48193359375
68.66455078125
73.2421875
73.2421875
85.14404296875
97.0458984375
89.7216796875
68.66455078125
54.931640625
41.19873046875
29.296875
16.4794921875
11.90185546875
13.73291015625
29.296875
33.87451171875
28.38134765625
18.310546875
-0.91552734375
-21.05712890625
-32.958984375
-51.26953125
-52.18505859375
-41.19873046875
-30.21240234375
-41.19873046875
-54.931640625
-64.0869140625
-61.34033203125
-70.49560546875
-81.48193359375
-81.48193359375
-79.65087890625
-75.0732421875
-63.17138671875
-60.4248046875
-71.4111328125
-69.580078125
-72.32666015625
-74.15771484375
-67.7490234375
-71.4111328125
-65.91796875
-61.34033203125
-54.931640625
-52.18505859375
-57.67822265625
-54.931640625
-60.4248046875
-74.15771484375
-76.904296875
-82.3974609375
-93.3837890625
-78.7353515625
-58.59375
-56.7626953125
-58.59375
-59.50927734375
-45.7763671875
-30.21240234375
-17.39501953125
5.4931640625
15.56396484375
24.71923828125
32.958984375
54.01611328125
54.931640625
48.52294921875
62.255859375
74.15771484375
102.5390625
130.0048828125
151.9775390625
154.72412109375
146.484375
96.13037109375
-42.1142578125
-219.7265625
-401.91650390625
-613.4033203125
-792.8466796875
-922.8515625
-1042.78564453125
-1107.7880859375
-1085.8154296875
-1037.29248046875
-980.52978515625
-929.26025390625
-853.271484375
-770.8740234375
-723.2666015625
-684.814453125
-624.3896484375
-536.4990234375
-483.3984375
-445.86181640625
-406.494140625
-376.28173828125
-344.23828125
-324.0966796875
-297.54638671875
-285.64453125
-289.306640625
-274.658203125
-255.43212890625
-234.375
-236.2060546875
-232.5439453125
-221.5576171875
-211.48681640625
-210.5712890625
-207.82470703125
-186.767578125
-170.2880859375
-165.71044921875
-143.73779296875
-140.9912109375
-138.24462890625
-140.9912109375
-139.16015625
-134.58251953125
-130.0048828125
-116.27197265625
-97.96142578125
-78.7353515625
-56.7626953125
-42.1142578125
-32.958984375
-32.04345703125
-25.634765625
-13.73291015625
-3.662109375
3.662109375
9.1552734375
25.634765625
37.53662109375
42.1142578125
43.02978515625
35.70556640625
32.958984375
30.21240234375
33.87451171875
36.62109375
40.283203125
44.86083984375
51.26953125
50.35400390625
46.69189453125
53.1005859375
51.26953125
47.607421875
34.7900390625
32.958984375
35.70556640625
48.52294921875
54.931640625
56.7626953125
62.255859375
72.32666015625
75.0732421875
67.7490234375
63.17138671875
67.7490234375
69.580078125
75.0732421875
87.890625
93.3837890625
88.80615234375
80.56640625
84.228515625
90.63720703125
86.0595703125
97.96142578125
104.3701171875
113.525390625
119.0185546875
122.6806640625
121.76513671875
118.10302734375
116.27197265625
111.6943359375
112.60986328125
114.44091796875
123.59619140625
136.41357421875
146.484375
149.23095703125
143.73779296875
142.822265625
144.6533203125
140.07568359375
140.9912109375
143.73779296875
147.39990234375
157.470703125
166.6259765625
168.45703125
168.45703125
170.2880859375
162.9638671875
162.04833984375
160.21728515625
165.71044921875
171.20361328125
177.6123046875
190.4296875
188.5986328125
182.18994140625
174.86572265625
174.86572265625
173.9501953125
165.71044921875
154.72412109375
158.38623046875
174.86572265625
178.52783203125
173.03466796875
162.04833984375
148.3154296875
140.9912109375
131.8359375
124.51171875
122.6806640625
121.76513671875
114.44091796875
117.1875
113.525390625
108.94775390625
94.29931640625
80.56640625
67.7490234375
54.01611328125
45.7763671875
50.35400390625
43.02978515625
46.69189453125
41.19873046875
25.634765625
18.310546875
13.73291015625
6.40869140625
-1.8310546875
-8.23974609375
-1.8310546875
2.74658203125
8.23974609375
9.1552734375
2.74658203125
0.91552734375
-3.662109375
-6.40869140625
-16.4794921875
-15.56396484375
-10.986328125
-10.986328125
-4.57763671875
0
-10.986328125
-21.05712890625
-19.22607421875
-24.71923828125
-28.38134765625
-28.38134765625
-20.1416015625
-15.56396484375
-18.310546875
-15.56396484375
-7.32421875
-8.23974609375
-12.8173828125
-9.1552734375
-4.57763671875
-8.23974609375
-7.32421875
0
8.23974609375
10.07080078125
10.986328125
10.07080078125
0.91552734375
-0.91552734375
-2.74658203125
-7.32421875
6.40869140625
16.4794921875
13.73291015625
12.8173828125
8.23974609375
10.986328125
11.90185546875
0
-6.40869140625
-10.07080078125
-4.57763671875
4.57763671875
7.32421875
8.23974609375
8.23974609375
6.40869140625
-3.662109375
-9.1552734375
-11.90185546875
-11.90185546875
-13.73291015625
-4.57763671875
-2.74658203125
-6.40869140625
-14.6484375
-9.1552734375
-10.986328125
-21.97265625
-25.634765625
-23.8037109375
-26.55029296875
-13.73291015625
-3.662109375
-9.1552734375
-17.39501953125
-19.22607421875
-24.71923828125
-28.38134765625
-38.4521484375
-32.958984375
-21.97265625
-19.22607421875
-12.8173828125
-13.73291015625
-23.8037109375
-28.38134765625
-26.55029296875
-22.88818359375
-32.04345703125
-26.55029296875
-20.1416015625
-9.1552734375
10.07080078125
16.4794921875
22.88818359375
20.1416015625
21.97265625
22.88818359375
12.8173828125
14.6484375
14.6484375
19.22607421875
27.4658203125
27.4658203125
26.55029296875
26.55029296875
37.53662109375
54.931640625
70.49560546875
78.7353515625
86.0595703125
99.79248046875
93.3837890625
95.21484375
94.29931640625
73.2421875
66.83349609375
65.91796875
49.4384765625
41.19873046875
32.04345703125
32.958984375
43.9453125
43.9453125
33.87451171875
15.56396484375
5.4931640625
-8.23974609375
-18.310546875
-30.21240234375
-30.21240234375
-33.87451171875
-25.634765625
-32.958984375
-43.02978515625
-56.7626953125
-71.4111328125
-65.00244140625
-79.65087890625
-81.48193359375
-64.0869140625
-53.1005859375
-44.86083984375
-47.607421875
-51.26953125
-61.34033203125
-68.66455078125
-69.580078125
-75.98876953125
-73.2421875
-69.580078125
-63.17138671875
-56.7626953125
-57.67822265625
-62.255859375
-65.00244140625
-69.580078125
-71.4111328125
-82.3974609375
-80.56640625
-76.904296875
-71.4111328125
-66.83349609375
-61.34033203125
-64.0869140625
-73.2421875
-77.81982421875
-78.7353515625
-62.255859375
-43.02978515625
-21.05712890625
3.662109375
15.56396484375
11.90185546875
9.1552734375
25.634765625
13.73291015625
18.310546875
21.97265625
20.1416015625
32.04345703125
47.607421875
77.81982421875
96.13037109375
83.31298828125
44.86083984375
-99.79248046875
-289.306640625
-467.83447265625
-649.10888671875
-824.89013671875
-892.63916015625
-962.21923828125
-1007.99560546875
-992.431640625
-932.92236328125
-876.15966796875
-822.1435546875
-747.0703125
-661.92626953125
-590.51513671875
-531.92138671875
-478.82080078125
-430.2978515625
-390.0146484375
-368.95751953125
-347.900390625
-327.7587890625
-315.85693359375
-296.630859375
-283.8134765625
-260.009765625
-239.8681640625
-239.8681640625
-236.2060546875
-227.96630859375
-228.8818359375
-231.62841796875
-238.95263671875
-232.5439453125
-222.47314453125
-215.14892578125
-198.66943359375
-190.4296875
-184.9365234375
-180.35888671875
-179.443359375
-182.18994140625
-175.78125
-162.04833984375
-142.822265625
-130.92041015625
-114.44091796875
-110.77880859375
-112.60986328125
-106.201171875
-98.876953125
-79.65087890625
-67.7490234375
-52.18505859375
-40.283203125
-25.634765625
-4.57763671875
-4.57763671875
-10.986328125
-4.57763671875
4.57763671875
0
-4.57763671875
7.32421875
11.90185546875
19.22607421875
30.21240234375
37.53662109375
30.21240234375
34.7900390625
30.21240234375
20.1416015625
18.310546875
26.55029296875
36.62109375
40.283203125
47.607421875
46.69189453125
50.35400390625
53.1005859375
47.607421875
43.02978515625
38.4521484375
40.283203125
38.4521484375
52.18505859375
60.4248046875
65.00244140625
63.17138671875
69.580078125
66.83349609375
63.17138671875
68.66455078125
71.4111328125
74.15771484375
85.14404296875
90.63720703125
95.21484375
91.552734375
97.0458984375
98.876953125
93.3837890625
96.13037109375
100.7080078125
112.60986328125
125.42724609375
134.58251953125
130.92041015625
134.58251953125
130.92041015625
129.08935546875
138.24462890625
133.6669921875
137.3291015625
140.07568359375
144.6533203125
146.484375
152.89306640625
160.21728515625
171.20361328125
167.54150390625
171.20361328125
177.6123046875
178.52783203125
175.78125
187.68310546875
196.83837890625
195.00732421875
195.9228515625
201.416015625
196.83837890625
190.4296875
192.2607421875
186.767578125
187.68310546875
185.85205078125
191.34521484375
185.85205078125
182.18994140625
171.20361328125
156.55517578125
150.146484375
146.484375
137.3291015625
130.0048828125
133.6669921875
128.173828125
124.51171875
113.525390625
107.11669921875
87.890625
77.81982421875
68.66455078125
64.0869140625
57.67822265625
55.84716796875
59.50927734375
48.52294921875
35.70556640625
35.70556640625
29.296875
30.21240234375
19.22607421875
11.90185546875
10.07080078125
13.73291015625
9.1552734375
10.07080078125
18.310546875
3.662109375
-7.32421875
-18.310546875
-22.88818359375
-21.05712890625
-16.4794921875
-11.90185546875
-5.4931640625
-6.40869140625
-10.986328125
-18.310546875
-18.310546875
-28.38134765625
-29.296875
-34.7900390625
-28.38134765625
-23.8037109375
-22.88818359375
-28.38134765625
-25.634765625
-28.38134765625
-38.4521484375
-39.36767578125
-42.1142578125
-38.4521484375
-30.21240234375
-20.1416015625
-15.56396484375
-13.73291015625
-19.22607421875
-12.8173828125
-23.8037109375
-30.21240234375
-36.62109375
-35.70556640625
-36.62109375
-31.1279296875
-21.05712890625
-13.73291015625
-12.8173828125
-10.986328125
-19.22607421875
-24.71923828125
-36.62109375
-32.958984375
-31.1279296875
-24.71923828125
-20.1416015625
-17.39501953125
-23.8037109375
-31.1279296875
-31.1279296875
-40.283203125
-43.9453125
-44.86083984375
-43.02978515625
-41.19873046875
-34.7900390625
-28.38134765625
-33.87451171875
-48.52294921875
-51.26953125
-40.283203125
-43.9453125
-42.1142578125
-43.02978515625
-36.62109375
-32.958984375
-33.87451171875
-37.53662109375
-39.36767578125
-51.26953125
-59.50927734375
-62.255859375
-63.17138671875
-55.84716796875
-43.9453125
-34.7900390625
-39.36767578125
-44.86083984375
-54.931640625
-54.931640625
-59.50927734375
-57.67822265625
-50.35400390625
-45.7763671875
-43.9453125
-39.36767578125
-40.283203125
-51.26953125
-54.931640625
-62.255859375
-69.580078125
-67.7490234375
-71.4111328125
-55.84716796875
-43.9453125
-42.1142578125
-48.52294921875
-53.1005859375
-51.26953125
-54.01611328125
-58.59375
-65.00244140625
-63.17138671875
-54.01611328125
-44.86083984375
-36.62109375
-35.70556640625
-24.71923828125
-25.634765625
-26.55029296875
-25.634765625
-18.310546875
-4.57763671875
10.07080078125
17.39501953125
13.73291015625
7.32421875
-7.32421875
-11.90185546875
-6.40869140625
2.74658203125
16.4794921875
38.4521484375
54.01611328125
54.931640625
68.66455078125
67.7490234375
62.255859375
59.50927734375
49.4384765625
41.19873046875
32.958984375
22.88818359375
18.310546875
4.57763671875
3.662109375
-2.74658203125
-4.57763671875
3.662109375
-16.4794921875
-27.4658203125
-33.87451171875
-37.53662109375
-43.02978515625
-51.26953125
-55.84716796875
-62.255859375
-66.83349609375
-74.15771484375
-85.14404296875
-92.46826171875
-81.48193359375
-89.7216796875
-87.890625
-86.97509765625
-83.31298828125
-82.3974609375
-88.80615234375
-94.29931640625
-106.201171875
-104.3701171875
-110.77880859375
-103.45458984375
-97.0458984375
-94.29931640625
-97.96142578125
-87.890625
-81.48193359375
-89.7216796875
-107.11669921875
-107.11669921875
-109.86328125
-111.6943359375
-100.7080078125
-89.7216796875
-80.56640625
-84.228515625
-87.890625
-88.80615234375
-97.96142578125
-90.63720703125
-93.3837890625
-84.228515625
-60.4248046875
-31.1279296875
-19.22607421875
6.40869140625
8.23974609375
-10.07080078125
-9.1552734375
-1.8310546875
-9.1552734375
-10.07080078125
0.91552734375
14.6484375
45.7763671875
78.7353515625
98.876953125
82.3974609375
58.59375
-31.1279296875
-215.14892578125
-420.22705078125
-583.19091796875
-781.8603515625
-875.244140625
-954.89501953125
-1025.390625
-1026.30615234375
-993.34716796875
-947.57080078125
-891.7236328125
-820.3125
-719.6044921875
-627.13623046875
-566.71142578125
-520.01953125
-486.14501953125
-443.115234375
-417.48046875
-384.521484375
-362.548828125
-343.32275390625
-314.94140625
-292.96875
-270.08056640625
-251.77001953125
-246.27685546875
-246.27685546875
-252.685546875
-254.5166015625
-252.685546875
-257.26318359375
-257.26318359375
-245.361328125
-223.388671875
-206.9091796875
-206.9091796875
-220.64208984375
-216.97998046875
-208.740234375
-201.416015625
-184.02099609375
-171.20361328125
-144.6533203125
-138.24462890625
-131.8359375
-125.42724609375
-114.44091796875
-122.6806640625
-111.6943359375
-100.7080078125
-83.31298828125
-59.50927734375
-40.283203125
-24.71923828125
-20.1416015625
-23.8037109375
-23.8037109375
-17.39501953125
-15.56396484375
-14.6484375
-8.23974609375
-0.91552734375
14.6484375
16.4794921875
30.21240234375
33.87451171875
16.4794921875
23.8037109375
28.38134765625
27.4658203125
24.71923828125
21.97265625
28.38134765625
42.1142578125
43.9453125
39.36767578125
36.62109375
32.958984375
28.38134765625
34.7900390625
32.04345703125
37.53662109375
50.35400390625
55.84716796875
55.84716796875
54.01611328125
55.84716796875
54.931640625
48.52294921875
46.69189453125
48.52294921875
54.931640625
68.66455078125
78.7353515625
77.81982421875
70.49560546875
65.91796875
70.49560546875
77.81982421875
78.7353515625
82.3974609375
90.63720703125
98.876953125
108.0322265625
115.3564453125
119.0185546875
114.44091796875
113.525390625
113.525390625
105.28564453125
104.3701171875
106.201171875
127.25830078125
140.07568359375
145.56884765625
145.56884765625
153.80859375
156.55517578125
150.146484375
139.16015625
150.146484375
151.9775390625
162.04833984375
169.37255859375
167.54150390625
162.04833984375
163.87939453125
157.470703125
162.9638671875
167.54150390625
161.1328125
161.1328125
175.78125
186.767578125
179.443359375
175.78125
173.9501953125
162.04833984375
151.9775390625
144.6533203125
142.822265625
133.6669921875
137.3291015625
140.9912109375
136.41357421875
120.849609375
110.77880859375
98.876953125
93.3837890625
86.0595703125
71.4111328125
75.98876953125
75.98876953125
68.66455078125
64.0869140625
57.67822265625
45.7763671875
46.69189453125
31.1279296875
14.6484375
0
10.07080078125
4.57763671875
6.40869140625
16.4794921875
13.73291015625
8.23974609375
-2.74658203125
-8.23974609375
-8.23974609375
-19.22607421875
-8.23974609375
-4.57763671875
-10.07080078125
-11.90185546875
-10.07080078125
-12.8173828125
-33.87451171875
-28.38134765625
-31.1279296875
-32.958984375
-30.21240234375
-35.70556640625
-32.04345703125
-20.1416015625
-14.6484375
-19.22607421875
-18.310546875
-17.39501953125
-21.05712890625
-15.56396484375
-26.55029296875
-21.05712890625
-0.91552734375
-1.8310546875
-9.1552734375
-13.73291015625
-29.296875
-28.38134765625
-32.958984375
-32.04345703125
-50.35400390625
-47.607421875
-19.22607421875
-11.90185546875
-40.283203125
-24.71923828125
-34.7900390625
-49.4384765625
-45.7763671875
-52.18505859375
-39.36767578125
-28.38134765625
-7.32421875
-25.634765625
-25.634765625
-22.88818359375
-33.87451171875
-39.36767578125
-36.62109375
-48.52294921875
-45.7763671875
-33.87451171875
-23.8037109375
-16.4794921875
-25.634765625
-34.7900390625
-38.4521484375
-36.62109375
-32.958984375
-32.958984375
-45.7763671875
-40.283203125
-21.05712890625
-17.39501953125
-30.21240234375
-43.02978515625
-42.1142578125
-43.9453125
-42.1142578125
-46.69189453125
-42.1142578125
-32.958984375
-28.38134765625
-32.958984375
-45.7763671875
-43.9453125
-53.1005859375
-47.607421875
-51.26953125
-55.84716796875
-52.18505859375
-37.53662109375
-35.70556640625
-36.62109375
-45.7763671875
-42.1142578125
-54.01611328125
-59.50927734375
-66.83349609375
-61.34033203125
-54.01611328125
-48.52294921875
-44.86083984375
-33.87451171875
-36.62109375
-49.4384765625
-54.931640625
-58.59375
-63.17138671875
-62.255859375
-54.01611328125
-41.19873046875
-29.296875
-10.986328125
-0.91552734375
-1.8310546875
-1.8310546875
-2.74658203125
-0.91552734375
-0.91552734375
-3.662109375
-11.90185546875
-10.07080078125
-6.40869140625
-0.91552734375
10.07080078125
21.97265625
33.87451171875
45.7763671875
55.84716796875
68.66455078125
65.00244140625
66.83349609375
75.98876953125
68.66455078125
62.255859375
68.66455078125
52.18505859375
28.38134765625
14.6484375
9.1552734375
3.662109375
0.91552734375
5.4931640625
3.662109375
-5.4931640625
-14.6484375
-9.1552734375
-26.55029296875
-54.931640625
-60.4248046875
-49.4384765625
-38.4521484375
-45.7763671875
-62.255859375
-75.0732421875
-71.4111328125
-70.49560546875
-72.32666015625
-66.83349609375
-62.255859375
-58.59375
-69.580078125
-69.580078125
-75.0732421875
-77.81982421875
-81.48193359375
-80.56640625
-78.7353515625
-89.7216796875
-88.80615234375
-73.2421875
-43.9453125
-32.04345703125
-32.04345703125
-51.26953125
-78.7353515625
-74.15771484375
-69.580078125
-84.228515625
-78.7353515625
-81.48193359375
-84.228515625
-75.98876953125
-82.3974609375
-61.34033203125
-51.26953125
-61.34033203125
-46.69189453125
-19.22607421875
-20.1416015625
-29.296875
37.53662109375
24.71923828125
25.634765625
26.55029296875
35.70556640625
33.87451171875
46.69189453125
59.50927734375
86.97509765625
123.59619140625
131.8359375
130.92041015625
130.0048828125
84.228515625
-55.84716796875
-244.44580078125
-425.72021484375
-622.55859375
-804.74853515625
-888.97705078125
-935.6689453125
-985.107421875
-986.02294921875
-955.810546875
-912.78076171875
-841.36962890625
-744.32373046875
-627.13623046875
-571.2890625
-514.5263671875
-458.67919921875
-412.90283203125
-375.3662109375
-368.95751953125
-332.33642578125
-303.955078125
-303.03955078125
-288.39111328125
-256.34765625
-243.5302734375
-248.10791015625
-218.81103515625
-209.65576171875
-221.5576171875
-218.81103515625
-209.65576171875
-213.31787109375
-201.416015625
-202.33154296875
-204.16259765625
-202.33154296875
-205.078125
-192.2607421875
-184.9365234375
-172.119140625
-176.69677734375
-176.69677734375
-148.3154296875
-140.07568359375
-127.25830078125
-108.0322265625
-102.5390625
-106.201171875
-107.11669921875
-98.876953125
-80.56640625
-72.32666015625
-67.7490234375
-28.38134765625
-25.634765625
-8.23974609375
-1.8310546875
-9.1552734375
-14.6484375
-4.57763671875
-9.1552734375
-10.986328125
-9.1552734375
-3.662109375
0.91552734375
28.38134765625
39.36767578125
31.1279296875
42.1142578125
34.7900390625
26.55029296875
14.6484375
19.22607421875
15.56396484375
11.90185546875
21.05712890625
25.634765625
28.38134765625
43.9453125
38.4521484375
30.21240234375
36.62109375
31.1279296875
38.4521484375
65.00244140625
70.49560546875
69.580078125
62.255859375
59.50927734375
55.84716796875
46.69189453125
37.53662109375
43.9453125
67.7490234375
74.15771484375
84.228515625
76.904296875
72.32666015625
73.2421875
90.63720703125
96.13037109375
91.552734375
76.904296875
86.0595703125
93.3837890625
97.96142578125
110.77880859375
114.44091796875
108.94775390625
105.28564453125
108.0322265625
114.44091796875
108.94775390625
102.5390625
118.10302734375
124.51171875
137.3291015625
131.8359375
140.9912109375
136.41357421875
137.3291015625
135.498046875
132.75146484375
132.75146484375
140.07568359375
147.39990234375
155.6396484375
149.23095703125
145.56884765625
140.9912109375
135.498046875
141.90673828125
137.3291015625
129.08935546875
146.484375
157.470703125
157.470703125
151.06201171875
143.73779296875
127.25830078125
122.6806640625
105.28564453125
87.890625
91.552734375
93.3837890625
97.96142578125
98.876953125
91.552734375
78.7353515625
60.4248046875
51.26953125
45.7763671875
34.7900390625
28.38134765625
29.296875
30.21240234375
28.38134765625
11.90185546875
-1.8310546875
-4.57763671875
-9.1552734375
-18.310546875
-30.21240234375
-21.97265625
-12.8173828125
-1.8310546875
0
-2.74658203125
-6.40869140625
-18.310546875
-28.38134765625
-39.36767578125
-45.7763671875
-42.1142578125
-35.70556640625
-31.1279296875
-28.38134765625
-26.55029296875
-27.4658203125
-33.87451171875
-37.53662109375
-42.1142578125
-48.52294921875
-45.7763671875
-49.4384765625
-43.9453125
-36.62109375
-35.70556640625
-41.19873046875
-46.69189453125
-45.7763671875
-45.7763671875
-53.1005859375
-43.02978515625
-43.02978515625
-36.62109375
-31.1279296875
-32.04345703125
-39.36767578125
-52.18505859375
-49.4384765625
-46.69189453125
-49.4384765625
-52.18505859375
-48.52294921875
-38.4521484375
-36.62109375
-44.86083984375
-50.35400390625
-50.35400390625
-52.18505859375
-53.1005859375
-60.4248046875
-52.18505859375
-44.86083984375
-39.36767578125
-38.4521484375
-45.7763671875
-47.607421875
-46.69189453125
-53.1005859375
-61.34033203125
-76.904296875
-74.15771484375
-65.00244140625
-54.931640625
-49.4384765625
-57.67822265625
-65.91796875
-61.34033203125
-64.0869140625
-64.0869140625
-68.66455078125
-69.580078125
-65.91796875
-59.50927734375
-47.607421875
-54.01611328125
-63.17138671875
-68.66455078125
-74.15771484375
-80.56640625
-79.65087890625
-71.4111328125
-64.0869140625
-46.69189453125
-44.86083984375
-44.86083984375
-39.36767578125
-35.70556640625
-25.634765625
-21.97265625
-29.296875
-14.6484375
-6.40869140625
-3.662109375
-6.40869140625
-14.6484375
-21.97265625
-21.97265625
-19.22607421875
-8.23974609375
2.74658203125
33.87451171875
43.9453125
49.4384765625
61.34033203125
51.26953125
51.26953125
45.7763671875
36.62109375
35.70556640625
23.8037109375
10.986328125
-1.8310546875
-2.74658203125
-4.57763671875
-21.05712890625
-21.05712890625
-26.55029296875
-36.62109375
-43.02978515625
-52.18505859375
-54.01611328125
-61.34033203125
-62.255859375
-71.4111328125
-84.228515625
-86.0595703125
-95.21484375
-105.28564453125
-112.60986328125
-124.51171875
-119.0185546875
-117.1875
-110.77880859375
-102.5390625
-108.0322265625
-107.11669921875
-110.77880859375
-105.28564453125
-111.6943359375
-119.0185546875
-113.525390625
-118.10302734375
-114.44091796875
-97.0458984375
-97.96142578125
-105.28564453125
-116.27197265625
-117.1875
-126.3427734375
-126.3427734375
-120.849609375
-113.525390625
-102.5390625
-103.45458984375
-107.11669921875
-108.0322265625
-115.3564453125
-119.93408203125
-121.76513671875
-110.77880859375
-97.96142578125
-66.83349609375
-42.1142578125
-28.38134765625
-12.8173828125
-10.986328125
-16.4794921875
-21.97265625
-21.05712890625
-15.56396484375
0.91552734375
19.22607421875
35.70556640625
53.1005859375
83.31298828125
95.21484375
86.97509765625
48.52294921875
-82.3974609375
-287.4755859375
-466.9189453125
-645.44677734375
-828.55224609375
-903.62548828125
-989.68505859375
-1055.60302734375
-1052.8564453125
-1021.728515625
-967.71240234375
-899.96337890625
-816.650390625
-721.435546875
-620.7275390625
-560.302734375
-521.8505859375
-483.3984375
-437.6220703125
-418.39599609375
-390.93017578125
-361.63330078125
-335.99853515625
-298.4619140625
-277.40478515625
-259.09423828125
-247.1923828125
-251.77001953125
-255.43212890625
-258.1787109375
-261.8408203125
-267.333984375
-258.1787109375
-248.10791015625
-233.45947265625
-226.13525390625
-227.96630859375
-226.13525390625
-221.5576171875
-208.740234375
-205.99365234375
-197.75390625
-182.18994140625
-164.794921875
-151.06201171875
-139.16015625
-134.58251953125
-134.58251953125
-142.822265625
-134.58251953125
-125.42724609375
-103.45458984375
-85.14404296875
-64.0869140625
-46.69189453125
-35.70556640625
-24.71923828125
-25.634765625
-23.8037109375
-21.05712890625
-18.310546875
-25.634765625
-20.1416015625
-2.74658203125
9.1552734375
16.4794921875
11.90185546875
10.07080078125
7.32421875
7.32421875
4.57763671875
-0.91552734375
4.57763671875
11.90185546875
16.4794921875
29.296875
35.70556640625
35.70556640625
29.296875
18.310546875
14.6484375
12.8173828125
21.97265625
37.53662109375
43.02978515625
53.1005859375
53.1005859375
52.18505859375
58.59375
52.18505859375
52.18505859375
44.86083984375
54.01611328125
64.0869140625
79.65087890625
88.80615234375
72.32666015625
74.15771484375
83.31298828125
77.81982421875
77.81982421875
77.81982421875
83.31298828125
86.97509765625
97.96142578125
106.201171875
111.6943359375
108.0322265625
112.60986328125
112.60986328125
115.3564453125
115.3564453125
119.0185546875
124.51171875
130.0048828125
141.90673828125
140.9912109375
133.6669921875
129.08935546875
135.498046875
142.822265625
147.39990234375
157.470703125
163.87939453125
171.20361328125
174.86572265625
172.119140625
171.20361328125
168.45703125
170.2880859375
165.71044921875
157.470703125
167.54150390625
174.86572265625
179.443359375
179.443359375
171.20361328125
162.9638671875
160.21728515625
148.3154296875
134.58251953125
123.59619140625
126.3427734375
127.25830078125
123.59619140625
120.849609375
111.6943359375
97.96142578125
90.63720703125
74.15771484375
70.49560546875
62.255859375
49.4384765625
49.4384765625
51.26953125
47.607421875
39.36767578125
31.1279296875
24.71923828125
6.40869140625
-5.4931640625
-12.8173828125
-16.4794921875
-18.310546875
-7.32421875
-5.4931640625
-17.39501953125
-12.8173828125
-19.22607421875
-18.310546875
-21.05712890625
-29.296875
-34.7900390625
-32.958984375
-30.21240234375
-23.8037109375
-32.04345703125
-35.70556640625
-38.4521484375
-44.86083984375
-41.19873046875
-39.36767578125
-42.1142578125
-40.283203125
-41.19873046875
-48.52294921875
-42.1142578125
-47.607421875
-43.02978515625
-47.607421875
-52.18505859375
-54.931640625
-48.52294921875
-44.86083984375
-29.296875
-27.4658203125
-27.4658203125
-43.02978515625
-53.1005859375
-54.931640625
-47.607421875
-54.931640625
-52.18505859375
-48.52294921875
-35.70556640625
-26.55029296875
-34.7900390625
-44.86083984375
-43.9453125
-50.35400390625
-57.67822265625
-51.26953125
-54.931640625
-46.69189453125
-37.53662109375
-35.70556640625
-44.86083984375
-46.69189453125
-52.18505859375
-62.255859375
-64.0869140625
-67.7490234375
-61.34033203125
-57.67822265625
-54.01611328125
-44.86083984375
-47.607421875
-50.35400390625
-54.931640625
-60.4248046875
-61.34033203125
-66.83349609375
-67.7490234375
-62.255859375
-49.4384765625
-47.607421875
-42.1142578125
-39.36767578125
-43.9453125
-44.86083984375
-35.70556640625
-30.21240234375
-23.8037109375
-21.97265625
-14.6484375
2.74658203125
-2.74658203125
-13.73291015625
-19.22607421875
-25.634765625
-25.634765625
-21.05712890625
-1.8310546875
21.97265625
49.4384765625
54.931640625
45.7763671875
47.607421875
40.283203125
46.69189453125
38.4521484375
26.55029296875
28.38134765625
24.71923828125
20.1416015625
20.1416015625
9.1552734375
-3.662109375
-10.986328125
-21.05712890625
-38.4521484375
-45.7763671875
-53.1005859375
-51.26953125
-47.607421875
-52.18505859375
-65.91796875
-80.56640625
-92.46826171875
-91.552734375
-97.0458984375
-105.28564453125
-101.62353515625
-97.0458984375
-86.97509765625
-83.31298828125
-89.7216796875
-91.552734375
-99.79248046875
-106.201171875
-114.44091796875
-120.849609375
-123.59619140625
-114.44091796875
-107.11669921875
-104.3701171875
-106.201171875
-97.96142578125
-94.29931640625
-104.3701171875
-113.525390625
-123.59619140625
-109.86328125
-103.45458984375
-93.3837890625
-87.890625
-92.46826171875
-97.0458984375
-101.62353515625
-117.1875
-121.76513671875
-122.6806640625
-119.0185546875
-108.94775390625
-81.48193359375
-48.52294921875
-32.958984375
-21.05712890625
-9.1552734375
-19.22607421875
-21.97265625
-20.1416015625
-1.8310546875
13.73291015625
24.71923828125
46.69189453125
60.4248046875
76.904296875
98.876953125
103.45458984375
79.65087890625
24.71923828125
-99.79248046875
-298.4619140625
-472.412109375
-649.10888671875
-831.298828125
-908.203125
-984.19189453125
-1043.701171875
-1040.95458984375
-1007.99560546875
-940.24658203125
-872.49755859375
-778.1982421875
-667.41943359375
-580.4443359375
-523.681640625
-484.31396484375
-442.19970703125
-406.494140625
-387.26806640625
-360.7177734375
-319.51904296875
-295.71533203125
-267.333984375
-259.09423828125
-240.78369140625
-238.95263671875
-238.037109375
-244.44580078125
-247.1923828125
-238.95263671875
-232.5439453125
-218.81103515625
-204.16259765625
-202.33154296875
-216.064453125
-211.48681640625
-215.14892578125
-205.078125
-205.99365234375
-199.5849609375
-183.10546875
-162.9638671875
-141.90673828125
-130.0048828125
-130.92041015625
-127.25830078125
-130.92041015625
-129.08935546875
-130.92041015625
-102.5390625
-72.32666015625
-46.69189453125
-28.38134765625
-28.38134765625
-20.1416015625
-28.38134765625
-18.310546875
-19.22607421875
-20.1416015625
-9.1552734375
5.4931640625
24.71923828125
33.87451171875
33.87451171875
27.4658203125
20.1416015625
18.310546875
12.8173828125
7.32421875
14.6484375
22.88818359375
33.87451171875
49.4384765625
48.52294921875
43.9453125
46.69189453125
43.02978515625
34.7900390625
29.296875
32.958984375
48.52294921875
57.67822265625
63.17138671875
58.59375
62.255859375
65.00244140625
60.4248046875
60.4248046875
60.4248046875
66.83349609375
79.65087890625
94.29931640625
105.28564453125
101.62353515625
103.45458984375
107.11669921875
103.45458984375
93.3837890625
89.7216796875
99.79248046875
114.44091796875
124.51171875
139.16015625
140.07568359375
134.58251953125
128.173828125
119.93408203125
118.10302734375
121.76513671875
128.173828125
140.07568359375
154.72412109375
171.20361328125
174.86572265625
170.2880859375
171.20361328125
166.6259765625
161.1328125
158.38623046875
165.71044921875
179.443359375
192.2607421875
203.2470703125
207.82470703125
198.66943359375
197.75390625
187.68310546875
187.68310546875
187.68310546875
189.51416015625
198.66943359375
211.48681640625
217.8955078125
209.65576171875
199.5849609375
198.66943359375
181.2744140625
171.20361328125
155.6396484375
161.1328125
163.87939453125
169.37255859375
171.20361328125
161.1328125
151.06201171875
132.75146484375
119.93408203125
107.11669921875
86.97509765625
85.14404296875
85.14404296875
100.7080078125
94.29931640625
86.0595703125
75.98876953125
70.49560546875
63.17138671875
46.69189453125
29.296875
32.958984375
39.36767578125
54.931640625
51.26953125
42.1142578125
26.55029296875
13.73291015625
0.91552734375
0
-8.23974609375
2.74658203125
5.4931640625
20.1416015625
31.1279296875
29.296875
24.71923828125
7.32421875
0.91552734375
-6.40869140625
-18.310546875
-19.22607421875
-15.56396484375
-2.74658203125
5.4931640625
10.07080078125
5.4931640625
-3.662109375
-10.986328125
-15.56396484375
-25.634765625
-22.88818359375
-9.1552734375
1.8310546875
13.73291015625
2.74658203125
0
-10.07080078125
-14.6484375
-27.4658203125
-32.04345703125
-15.56396484375
-15.56396484375
-9.1552734375
1.8310546875
-0.91552734375
0
-3.662109375
-19.22607421875
-24.71923828125
-33.87451171875
-31.1279296875
-19.22607421875
-13.73291015625
-0.91552734375
1.8310546875
-5.4931640625
-10.07080078125
-23.8037109375
-31.1279296875
-37.53662109375
-32.958984375
-22.88818359375
-14.6484375
-9.1552734375
-14.6484375
-19.22607421875
-23.8037109375
-31.1279296875
-35.70556640625
-42.1142578125
-37.53662109375
-22.88818359375
-14.6484375
-7.32421875
-7.32421875
-11.90185546875
-18.310546875
-26.55029296875
-35.70556640625
-43.02978515625
-49.4384765625
-39.36767578125
-23.8037109375
-16.4794921875
-18.310546875
-26.55029296875
-29.296875
-42.1142578125
-43.9453125
-47.607421875
-48.52294921875
-41.19873046875
-30.21240234375
-24.71923828125
-28.38134765625
-26.55029296875
-20.1416015625
-24.71923828125
-34.7900390625
-27.4658203125
-9.1552734375
6.40869140625
27.4658203125
43.02978515625
37.53662109375
37.53662109375
30.21240234375
21.97265625
7.32421875
-2.74658203125
8.23974609375
25.634765625
63.17138671875
88.80615234375
88.80615234375
88.80615234375
89.7216796875
85.14404296875
72.32666015625
66.83349609375
65.00244140625
82.3974609375
82.3974609375
78.7353515625
66.83349609375
51.26953125
31.1279296875
21.97265625
8.23974609375
9.1552734375
6.40869140625
9.1552734375
19.22607421875
20.1416015625
-0.91552734375
-7.32421875
-26.55029296875
-39.36767578125
-50.35400390625
-51.26953125
-57.67822265625
-54.01611328125
-45.7763671875
-38.4521484375
-41.19873046875
-49.4384765625
-53.1005859375
-59.50927734375
-70.49560546875
-74.15771484375
-73.2421875
-64.0869140625
-50.35400390625
-43.9453125
-44.86083984375
-53.1005859375
-60.4248046875
-61.34033203125
-61.34033203125
-65.91796875
-64.0869140625
-56.7626953125
-47.607421875
-35.70556640625
-42.1142578125
-47.607421875
-49.4384765625
-48.52294921875
-56.7626953125
-68.66455078125
-66.83349609375
-58.59375
-45.7763671875
-29.296875
-10.986328125
0.91552734375
11.90185546875
30.21240234375
37.53662109375
28.38134765625
30.21240234375
54.931640625
69.580078125
82.3974609375
95.21484375
97.0458984375
108.94775390625
119.0185546875
134.58251953125
127.25830078125
111.6943359375
48.52294921875
-113.525390625
-308.53271484375
-477.9052734375
-688.4765625
-828.55224609375
-903.62548828125
-979.6142578125
-1004.33349609375
-978.69873046875
-913.6962890625
-838.623046875
-758.97216796875
-670.166015625
-577.69775390625
-523.681640625
-480.65185546875
-440.36865234375
-404.6630859375
-369.873046875
-333.251953125
-303.03955078125
-270.99609375
-258.1787109375
-241.69921875
-227.96630859375
-225.2197265625
-221.5576171875
-227.96630859375
-222.47314453125
-212.40234375
-195.9228515625
-188.5986328125
-181.2744140625
-177.6123046875
-162.9638671875
-168.45703125
-172.119140625
-167.54150390625
-159.3017578125
-147.39990234375
-130.0048828125
-116.27197265625
-104.3701171875
-100.7080078125
-104.3701171875
-96.13037109375
-92.46826171875
-84.228515625
-76.904296875
-65.91796875
-32.04345703125
-0.91552734375
17.39501953125
12.8173828125
14.6484375
19.22607421875
21.05712890625
19.22607421875
18.310546875
34.7900390625
51.26953125
66.83349609375
70.49560546875
59.50927734375
60.4248046875
54.01611328125
54.931640625
57.67822265625
54.01611328125
62.255859375
78.7353515625
93.3837890625
90.63720703125
84.228515625
72.32666015625
73.2421875
71.4111328125
74.15771484375
70.49560546875
77.81982421875
91.552734375
98.876953125
98.876953125
108.0322265625
100.7080078125
99.79248046875
95.21484375
86.97509765625
90.63720703125
100.7080078125
109.86328125
125.42724609375
118.10302734375
111.6943359375
114.44091796875
110.77880859375
107.11669921875
109.86328125
108.0322265625
120.849609375
142.822265625
160.21728515625
172.119140625
165.71044921875
165.71044921875
160.21728515625
158.38623046875
155.6396484375
162.04833984375
177.6123046875
185.85205078125
200.50048828125
205.99365234375
205.078125
195.9228515625
189.51416015625
191.34521484375
189.51416015625
193.17626953125
214.2333984375
225.2197265625
233.45947265625
237.12158203125
233.45947265625
225.2197265625
222.47314453125
217.8955078125
212.40234375
214.2333984375
233.45947265625
245.361328125
257.26318359375
256.34765625
255.43212890625
246.27685546875
231.62841796875
226.13525390625
208.740234375
208.740234375
217.8955078125
224.30419921875
227.96630859375
220.64208984375
211.48681640625
196.83837890625
178.52783203125
161.1328125
143.73779296875
140.07568359375
145.56884765625
156.55517578125
160.21728515625
147.39990234375
132.75146484375
117.1875
104.3701171875
98.876953125
93.3837890625
85.14404296875
87.890625
95.21484375
107.11669921875
97.96142578125
94.29931640625
79.65087890625
73.2421875
66.83349609375
54.01611328125
49.4384765625
59.50927734375
72.32666015625
82.3974609375
72.32666015625
67.7490234375
62.255859375
52.18505859375
44.86083984375
34.7900390625
33.87451171875
43.02978515625
55.84716796875
59.50927734375
56.7626953125
55.84716796875
47.607421875
45.7763671875
38.4521484375
27.4658203125
30.21240234375
39.36767578125
51.26953125
67.7490234375
62.255859375
54.01611328125
50.35400390625
37.53662109375
32.04345703125
27.4658203125
21.97265625
27.4658203125
45.7763671875
54.931640625
56.7626953125
49.4384765625
43.02978515625
30.21240234375
27.4658203125
24.71923828125
32.958984375
34.7900390625
40.283203125
49.4384765625
49.4384765625
40.283203125
33.87451171875
26.55029296875
23.8037109375
14.6484375
14.6484375
21.05712890625
33.87451171875
46.69189453125
43.9453125
34.7900390625
32.04345703125
19.22607421875
13.73291015625
7.32421875
10.07080078125
22.88818359375
32.958984375
39.36767578125
38.4521484375
38.4521484375
28.38134765625
18.310546875
4.57763671875
-0.91552734375
3.662109375
14.6484375
26.55029296875
34.7900390625
36.62109375
30.21240234375
28.38134765625
18.310546875
7.32421875
3.662109375
0.91552734375
9.1552734375
23.8037109375
28.38134765625
29.296875
23.8037109375
19.22607421875
14.6484375
1.8310546875
-5.4931640625
-2.74658203125
11.90185546875
17.39501953125
28.38134765625
28.38134765625
27.4658203125
28.38134765625
21.97265625
24.71923828125
22.88818359375
28.38134765625
45.7763671875
70.49560546875
81.48193359375
80.56640625
79.65087890625
72.32666015625
70.49560546875
63.17138671875
50.35400390625
41.19873046875
47.607421875
72.32666015625
100.7080078125
119.0185546875
126.3427734375
119.93408203125
124.51171875
134.58251953125
127.25830078125
116.27197265625
126.3427734375
137.3291015625
140.9912109375
137.3291015625
120.849609375
94.29931640625
84.228515625
71.4111328125
61.34033203125
65.00244140625
68.66455078125
70.49560546875
67.7490234375
57.67822265625
54.931640625
36.62109375
23.8037109375
9.1552734375
1.8310546875
6.40869140625
3.662109375
16.4794921875
22.88818359375
16.4794921875
13.73291015625
-0.91552734375
-8.23974609375
-10.986328125
-14.6484375
-14.6484375
-10.07080078125
1.8310546875
10.07080078125
10.986328125
5.4931640625
-0.91552734375
-11.90185546875
-17.39501953125
-21.05712890625
-30.21240234375
-16.4794921875
-3.662109375
8.23974609375
8.23974609375
0
3.662109375
-3.662109375
-13.73291015625
-20.1416015625
-29.296875
-17.39501953125
-6.40869140625
5.4931640625
14.6484375
15.56396484375
29.296875
26.55029296875
40.283203125
55.84716796875
63.17138671875
72.32666015625
89.7216796875
114.44091796875
111.6943359375
108.94775390625
106.201171875
100.7080078125
104.3701171875
114.44091796875
132.75146484375
150.146484375
150.146484375
106.201171875
-49.4384765625
-256.34765625
-445.86181640625
-641.78466796875
-791.015625
-867.00439453125
-936.58447265625
-949.40185546875
-908.203125
-842.28515625
-785.5224609375
-725.09765625
-634.46044921875
-550.23193359375
-492.5537109375
-455.01708984375
-410.15625
-363.46435546875
-309.4482421875
-276.4892578125
-252.685546875
-238.037109375
-224.30419921875
-207.82470703125
-200.50048828125
-194.091796875
-182.18994140625
-162.9638671875
-144.6533203125
-135.498046875
-130.0048828125
-131.8359375
-137.3291015625
-144.6533203125
-140.07568359375
-139.16015625
-131.8359375
-117.1875
-91.552734375
-81.48193359375
-78.7353515625
-82.3974609375
-74.15771484375
-65.91796875
-61.34033203125
-62.255859375
-56.7626953125
-42.1142578125
-24.71923828125
-11.90185546875
6.40869140625
25.634765625
43.02978515625
48.52294921875
46.69189453125
39.36767578125
43.9453125
64.0869140625
77.81982421875
89.7216796875
97.0458984375
99.79248046875
101.62353515625
98.876953125
93.3837890625
87.890625
89.7216796875
93.3837890625
115.3564453125
128.173828125
131.8359375
129.08935546875
128.173828125
110.77880859375
103.45458984375
104.3701171875
94.29931640625
105.28564453125
130.0048828125
149.23095703125
147.39990234375
143.73779296875
135.498046875
130.0048828125
128.173828125
124.51171875
119.0185546875
130.0048828125
144.6533203125
158.38623046875
162.9638671875
162.9638671875
157.470703125
146.484375
143.73779296875
143.73779296875
144.6533203125
154.72412109375
173.9501953125
187.68310546875
181.2744140625
173.03466796875
163.87939453125
173.9501953125
175.78125
173.03466796875
176.69677734375
181.2744140625
201.416015625
224.30419921875
226.13525390625
211.48681640625
212.40234375
205.99365234375
202.33154296875
205.078125
205.078125
213.31787109375
225.2197265625
240.78369140625
246.27685546875
240.78369140625
250.8544921875
243.5302734375
241.69921875
239.8681640625
234.375
253.60107421875
267.333984375
271.91162109375
273.74267578125
274.658203125
266.41845703125
253.60107421875
249.93896484375
239.8681640625
235.29052734375
248.10791015625
250.8544921875
258.1787109375
260.009765625
244.44580078125
231.62841796875
225.2197265625
210.5712890625
202.33154296875
194.091796875
190.4296875
194.091796875
193.17626953125
193.17626953125
182.18994140625
170.2880859375
158.38623046875
154.72412109375
143.73779296875
125.42724609375
127.25830078125
140.9912109375
149.23095703125
142.822265625
128.173828125
122.6806640625
111.6943359375
105.28564453125
93.3837890625
85.14404296875
97.0458984375
106.201171875
117.1875
112.60986328125
104.3701171875
90.63720703125
83.31298828125
75.0732421875
64.0869140625
65.00244140625
70.49560546875
81.48193359375
80.56640625
84.228515625
86.97509765625
83.31298828125
68.66455078125
72.32666015625
62.255859375
67.7490234375
68.66455078125
76.904296875
87.890625
88.80615234375
89.7216796875
79.65087890625
70.49560546875
68.66455078125
59.50927734375
54.931640625
68.66455078125
78.7353515625
86.97509765625
92.46826171875
84.228515625
69.580078125
59.50927734375
56.7626953125
50.35400390625
48.52294921875
59.50927734375
65.91796875
76.904296875
76.904296875
75.0732421875
72.32666015625
56.7626953125
43.9453125
41.19873046875
40.283203125
44.86083984375
55.84716796875
69.580078125
78.7353515625
60.4248046875
53.1005859375
39.36767578125
32.04345703125
27.4658203125
31.1279296875
42.1142578125
52.18505859375
60.4248046875
56.7626953125
52.18505859375
38.4521484375
30.21240234375
22.88818359375
19.22607421875
22.88818359375
33.87451171875
39.36767578125
55.84716796875
48.52294921875
37.53662109375
32.04345703125
28.38134765625
24.71923828125
21.97265625
22.88818359375
27.4658203125
42.1142578125
49.4384765625
50.35400390625
38.4521484375
34.7900390625
26.55029296875
19.22607421875
10.986328125
12.8173828125
19.22607421875
26.55029296875
37.53662109375
38.4521484375
30.21240234375
27.4658203125
23.8037109375
18.310546875
11.90185546875
1.8310546875
12.8173828125
24.71923828125
35.70556640625
33.87451171875
24.71923828125
26.55029296875
17.39501953125
12.8173828125
15.56396484375
16.4794921875
38.4521484375
55.84716796875
79.65087890625
93.3837890625
84.228515625
76.904296875
74.15771484375
67.7490234375
67.7490234375
66.83349609375
68.66455078125
70.49560546875
75.0732421875
78.7353515625
88.80615234375
99.79248046875
96.13037109375
88.80615234375
79.65087890625
81.48193359375
99.79248046875
109.86328125
119.93408203125
123.59619140625
111.6943359375
98.876953125
78.7353515625
72.32666015625
62.255859375
47.607421875
54.01611328125
65.00244140625
76.904296875
65.91796875
54.01611328125
49.4384765625
26.55029296875
17.39501953125
-1.8310546875
-14.6484375
-12.8173828125
3.662109375
12.8173828125
8.23974609375
-1.8310546875
-0.91552734375
-16.4794921875
-21.97265625
-29.296875
-34.7900390625
-25.634765625
-17.39501953125
-9.1552734375
-10.07080078125
-16.4794921875
-12.8173828125
-16.4794921875
-25.634765625
-35.70556640625
-41.19873046875
-41.19873046875
-34.7900390625
-10.986328125
-14.6484375
-18.310546875
-23.8037109375
-32.958984375
-32.958984375
-36.62109375
-39.36767578125
-32.958984375
-21.05712890625
-12.8173828125
-10.986328125
-14.6484375
-8.23974609375
0
14.6484375
24.71923828125
37.53662109375
50.35400390625
55.84716796875
66.83349609375
73.2421875
67.7490234375
59.50927734375
58.59375
60.4248046875
66.83349609375
84.228515625
127.25830078125
135.498046875
130.92041015625
78.7353515625
-86.0595703125
-280.1513671875
-469.66552734375
-673.828125
-823.974609375
-901.79443359375
-968.6279296875
-994.2626953125
-941.162109375
-881.65283203125
-835.87646484375
-768.12744140625
-686.6455078125
-607.91015625
-553.89404296875
-509.033203125
-455.9326171875
-397.3388671875
-346.0693359375
-318.603515625
-294.7998046875
-277.40478515625
-267.333984375
-256.34765625
-253.60107421875
-239.8681640625
-217.8955078125
-200.50048828125
-183.10546875
-173.9501953125
-190.4296875
-196.83837890625
-206.9091796875
-196.83837890625
-194.091796875
-184.9365234375
-165.71044921875
-149.23095703125
-130.92041015625
-118.10302734375
-119.93408203125
-125.42724609375
-119.0185546875
-112.60986328125
-105.28564453125
-104.3701171875
-92.46826171875
-69.580078125
-56.7626953125
-51.26953125
-46.69189453125
-30.21240234375
-21.97265625
-10.07080078125
-14.6484375
-6.40869140625
16.4794921875
32.04345703125
45.7763671875
51.26953125
54.931640625
58.59375
44.86083984375
37.53662109375
29.296875
32.04345703125
48.52294921875
55.84716796875
65.91796875
75.98876953125
78.7353515625
71.4111328125
68.66455078125
63.17138671875
55.84716796875
49.4384765625
60.4248046875
71.4111328125
78.7353515625
87.890625
87.890625
90.63720703125
81.48193359375
75.0732421875
70.49560546875
69.580078125
85.14404296875
94.29931640625
108.0322265625
117.1875
105.28564453125
105.28564453125
97.96142578125
85.14404296875
83.31298828125
81.48193359375
95.21484375
117.1875
138.24462890625
143.73779296875
137.3291015625
127.25830078125
132.75146484375
125.42724609375
121.76513671875
126.3427734375
130.0048828125
140.07568359375
154.72412109375
161.1328125
153.80859375
159.3017578125
160.21728515625
162.9638671875
154.72412109375
157.470703125
166.6259765625
173.03466796875
190.4296875
195.00732421875
190.4296875
184.9365234375
184.9365234375
177.6123046875
173.03466796875
173.9501953125
187.68310546875
199.5849609375
211.48681640625
215.14892578125
216.97998046875
207.82470703125
204.16259765625
201.416015625
192.2607421875
181.2744140625
193.17626953125
202.33154296875
207.82470703125
207.82470703125
193.17626953125
179.443359375
164.794921875
149.23095703125
142.822265625
137.3291015625
141.90673828125
140.07568359375
147.39990234375
144.6533203125
122.6806640625
108.94775390625
100.7080078125
90.63720703125
79.65087890625
66.83349609375
73.2421875
76.904296875
77.81982421875
65.91796875
58.59375
53.1005859375
42.1142578125
44.86083984375
39.36767578125
41.19873046875
38.4521484375
48.52294921875
50.35400390625
47.607421875
43.02978515625
40.283203125
27.4658203125
17.39501953125
10.986328125
7.32421875
13.73291015625
19.22607421875
36.62109375
42.1142578125
37.53662109375
27.4658203125
15.56396484375
10.07080078125
0.91552734375
-5.4931640625
-0.91552734375
17.39501953125
21.97265625
27.4658203125
23.8037109375
21.05712890625
12.8173828125
3.662109375
-5.4931640625
-8.23974609375
-4.57763671875
14.6484375
24.71923828125
26.55029296875
28.38134765625
20.1416015625
7.32421875
-0.91552734375
-9.1552734375
-8.23974609375
0.91552734375
10.986328125
21.97265625
20.1416015625
14.6484375
13.73291015625
4.57763671875
2.74658203125
-3.662109375
-11.90185546875
-3.662109375
0.91552734375
13.73291015625
9.1552734375
-4.57763671875
-12.8173828125
-13.73291015625
-13.73291015625
-26.55029296875
-37.53662109375
-22.88818359375
-17.39501953125
-9.1552734375
-6.40869140625
-5.4931640625
-16.4794921875
-21.97265625
-24.71923828125
-33.87451171875
-34.7900390625
-24.71923828125
-21.05712890625
-5.4931640625
0.91552734375
-10.986328125
-10.986328125
-21.05712890625
-32.958984375
-39.36767578125
-41.19873046875
-34.7900390625
-21.97265625
-5.4931640625
-3.662109375
-11.90185546875
-19.22607421875
-24.71923828125
-34.7900390625
-45.7763671875
-57.67822265625
-47.607421875
-35.70556640625
-18.310546875
-11.90185546875
-23.8037109375
-26.55029296875
-32.04345703125
-39.36767578125
-53.1005859375
-55.84716796875
-47.607421875
-39.36767578125
-22.88818359375
-20.1416015625
-28.38134765625
-35.70556640625
-43.02978515625
-51.26953125
-54.931640625
-57.67822265625
-52.18505859375
-38.4521484375
-30.21240234375
-27.4658203125
-30.21240234375
-31.1279296875
-39.36767578125
-48.52294921875
-48.52294921875
-55.84716796875
-56.7626953125
-41.19873046875
-33.87451171875
-29.296875
-36.62109375
-38.4521484375
-40.283203125
-50.35400390625
-59.50927734375
-66.83349609375
-58.59375
-46.69189453125
-37.53662109375
-35.70556640625
-33.87451171875
-36.62109375
-43.02978515625
-49.4384765625
-52.18505859375
-55.84716796875
-45.7763671875
-20.1416015625
0
13.73291015625
12.8173828125
5.4931640625
4.57763671875
7.32421875
-1.8310546875
0
8.23974609375
23.8037109375
37.53662109375
33.87451171875
21.97265625
12.8173828125
9.1552734375
10.07080078125
15.56396484375
12.8173828125
15.56396484375
16.4794921875
30.21240234375
43.02978515625
33.87451171875
24.71923828125
25.634765625
19.22607421875
3.662109375
-2.74658203125
-5.4931640625
-6.40869140625
0
3.662109375
-2.74658203125
-18.310546875
-26.55029296875
-38.4521484375
-45.7763671875
-57.67822265625
-52.18505859375
-51.26953125
-41.19873046875
-43.9453125
-51.26953125
-56.7626953125
-67.7490234375
-76.904296875
-86.97509765625
-93.3837890625
-86.97509765625
-75.98876953125
-65.91796875
-59.50927734375
-65.91796875
-65.91796875
-75.98876953125
-79.65087890625
-90.63720703125
-91.552734375
-86.97509765625
-75.0732421875
-62.255859375
-59.50927734375
-62.255859375
-72.32666015625
-76.904296875
-82.3974609375
-82.3974609375
-92.46826171875
-89.7216796875
-71.4111328125
-65.00244140625
-65.00244140625
-71.4111328125
-75.98876953125
-74.15771484375
-59.50927734375
-37.53662109375
-16.4794921875
5.4931640625
15.56396484375
28.38134765625
36.62109375
44.86083984375
44.86083984375
42.1142578125
43.9453125
52.18505859375
70.49560546875
96.13037109375
135.498046875
156.55517578125
143.73779296875
93.3837890625
-50.35400390625
-243.5302734375
-427.55126953125
-637.20703125
-812.07275390625
-893.5546875
-976.86767578125
-1026.30615234375
-995.17822265625
-953.06396484375
-907.28759765625
-843.20068359375
-766.29638671875
-685.72998046875
-627.13623046875
-562.1337890625
-495.30029296875
-434.87548828125
-393.6767578125
-366.2109375
-340.576171875
-327.7587890625
-308.53271484375
-295.71533203125
-283.8134765625
-264.58740234375
-248.10791015625
-232.5439453125
-221.5576171875
-225.2197265625
-220.64208984375
-219.7265625
-226.13525390625
-232.5439453125
-227.96630859375
-214.2333984375
-203.2470703125
-180.35888671875
-159.3017578125
-157.470703125
-157.470703125
-158.38623046875
-151.9775390625
-148.3154296875
-151.9775390625
-131.8359375
-112.60986328125
-99.79248046875
-93.3837890625
-89.7216796875
-77.81982421875
-67.7490234375
-48.52294921875
-50.35400390625
-53.1005859375
-41.19873046875
-14.6484375
0.91552734375
15.56396484375
19.22607421875
25.634765625
21.97265625
14.6484375
10.07080078125
8.23974609375
17.39501953125
28.38134765625
37.53662109375
45.7763671875
35.70556640625
33.87451171875
32.04345703125
28.38134765625
16.4794921875
8.23974609375
17.39501953125
34.7900390625
54.01611328125
67.7490234375
61.34033203125
54.01611328125
49.4384765625
46.69189453125
43.9453125
38.4521484375
46.69189453125
62.255859375
73.2421875
81.48193359375
74.15771484375
70.49560546875
67.7490234375
62.255859375
63.17138671875
57.67822265625
65.91796875
80.56640625
94.29931640625
102.5390625
102.5390625
93.3837890625
81.48193359375
78.7353515625
75.0732421875
81.48193359375
92.46826171875
106.201171875
122.6806640625
125.42724609375
122.6806640625
111.6943359375
110.77880859375
110.77880859375
112.60986328125
109.86328125
124.51171875
143.73779296875
158.38623046875
160.21728515625
155.6396484375
158.38623046875
155.6396484375
145.56884765625
150.146484375
141.90673828125
152.89306640625
171.20361328125
184.9365234375
192.2607421875
179.443359375
173.9501953125
175.78125
170.2880859375
162.9638671875
154.72412109375
163.87939453125
168.45703125
180.35888671875
186.767578125
173.9501953125
167.54150390625
155.6396484375
145.56884765625
133.6669921875
117.1875
123.59619140625
125.42724609375
136.41357421875
132.75146484375
116.27197265625
105.28564453125
94.29931640625
78.7353515625
66.83349609375
43.9453125
44.86083984375
65.00244140625
70.49560546875
72.32666015625
54.931640625
37.53662109375
32.958984375
16.4794921875
6.40869140625
-3.662109375
-2.74658203125
8.23974609375
15.56396484375
23.8037109375
21.05712890625
11.90185546875
4.57763671875
-1.8310546875
-13.73291015625
-29.296875
-23.8037109375
-16.4794921875
-7.32421875
1.8310546875
-10.07080078125
-13.73291015625
-15.56396484375
-26.55029296875
-29.296875
-45.7763671875
-32.04345703125
-18.310546875
-4.57763671875
2.74658203125
0
-7.32421875
-11.90185546875
-21.97265625
-32.04345703125
-31.1279296875
-25.634765625
-18.310546875
-1.8310546875
3.662109375
0.91552734375
-1.8310546875
-10.07080078125
-18.310546875
-22.88818359375
-30.21240234375
-19.22607421875
-11.90185546875
2.74658203125
12.8173828125
3.662109375
-2.74658203125
-14.6484375
-23.8037109375
-28.38134765625
-30.21240234375
-25.634765625
-10.07080078125
0
0.91552734375
-14.6484375
-20.1416015625
-17.39501953125
-24.71923828125
-37.53662109375
-38.4521484375
-37.53662109375
-30.21240234375
-21.05712890625
-14.6484375
-16.4794921875
-29.296875
-43.9453125
-48.52294921875
-43.02978515625
-60.4248046875
-51.26953125
-42.1142578125
-32.958984375
-22.88818359375
-22.88818359375
-31.1279296875
-44.86083984375
-51.26953125
-57.67822265625
-63.17138671875
-60.4248046875
-48.52294921875
-34.7900390625
-33.87451171875
-40.283203125
-45.7763671875
-48.52294921875
-54.931640625
-60.4248046875
-74.15771484375
-72.32666015625
-61.34033203125
-44.86083984375
-35.70556640625
-40.283203125
-48.52294921875
-55.84716796875
-61.34033203125
-66.83349609375
-72.32666015625
-64.0869140625
-56.7626953125
-49.4384765625
-41.19873046875
-51.26953125
-54.931640625
-60.4248046875
-68.66455078125
-80.56640625
-87.890625
-84.228515625
-75.0732421875
-64.0869140625
-55.84716796875
-51.26953125
-54.01611328125
-61.34033203125
-67.7490234375
-77.81982421875
-83.31298828125
-76.904296875
-74.15771484375
-60.4248046875
-50.35400390625
-55.84716796875
-55.84716796875
-63.17138671875
-66.83349609375
-74.15771484375
-79.65087890625
-72.32666015625
-65.91796875
-55.84716796875
-50.35400390625
-54.01611328125
-65.00244140625
-66.83349609375
-78.7353515625
-85.14404296875
-83.31298828125
-78.7353515625
-75.0732421875
-59.50927734375
-48.52294921875
-55.84716796875
-61.34033203125
-70.49560546875
-84.228515625
-94.29931640625
-91.552734375
-83.31298828125
-68.66455078125
-54.931640625
-46.69189453125
-55.84716796875
-65.00244140625
-70.49560546875
-75.0732421875
-83.31298828125
-92.46826171875
-88.80615234375
-74.15771484375
-51.26953125
-39.36767578125
-42.1142578125
-40.283203125
-38.4521484375
-41.19873046875
-43.9453125
-34.7900390625
-23.8037109375
-12.8173828125
-2.74658203125
1.8310546875
-1.8310546875
0
-3.662109375
-11.90185546875
-21.97265625
-32.04345703125
-35.70556640625
-16.4794921875
13.73291015625
32.958984375
26.55029296875
14.6484375
7.32421875
-0.91552734375
-4.57763671875
-13.73291015625
-6.40869140625
3.662109375
14.6484375
11.90185546875
-15.56396484375
-15.56396484375
-19.22607421875
-32.958984375
-38.4521484375
-50.35400390625
-54.01611328125
-52.18505859375
-40.283203125
-38.4521484375
-53.1005859375
-62.255859375
-76.904296875
-89.7216796875
-95.21484375
-110.77880859375
-101.62353515625
-94.29931640625
-84.228515625
-75.98876953125
-75.0732421875
-80.56640625
-90.63720703125
-100.7080078125
-105.28564453125
-113.525390625
-109.86328125
-96.13037109375
-84.228515625
-81.48193359375
-84.228515625
-94.29931640625
-101.62353515625
-110.77880859375
-110.77880859375
-103.45458984375
-97.0458984375
-95.21484375
-75.98876953125
-67.7490234375
-76.904296875
-83.31298828125
-94.29931640625
-102.5390625
-110.77880859375
-119.0185546875
-101.62353515625
-75.98876953125
-53.1005859375
-28.38134765625
-16.4794921875
3.662109375
5.4931640625
-4.57763671875
-11.90185546875
-12.8173828125
-11.90185546875
1.8310546875
31.1279296875
56.7626953125
68.66455078125
85.14404296875
113.525390625
114.44091796875
95.21484375
58.59375
-49.4384765625
-230.712890625
-405.57861328125
-590.51513671875
-792.8466796875
-884.3994140625
-986.02294921875
-1057.43408203125
-1048.27880859375
-1012.5732421875
-952.1484375
-882.568359375
-792.8466796875
-692.138671875
-617.98095703125
-574.03564453125
-529.1748046875
-490.72265625
-449.52392578125
-422.05810546875
-388.18359375
-355.224609375
-315.85693359375
-289.306640625
-290.22216796875
-280.1513671875
-271.91162109375
-263.671875
-260.009765625
-267.333984375
-261.8408203125
-252.685546875
-240.78369140625
-227.05078125
-224.30419921875
-227.96630859375
-225.2197265625
-226.13525390625
-221.5576171875
-216.064453125
-207.82470703125
-191.34521484375
-162.9638671875
-140.9912109375
-131.8359375
-135.498046875
-136.41357421875
-140.07568359375
-136.41357421875
-137.3291015625
-117.1875
-93.3837890625
-55.84716796875
-36.62109375
-32.958984375
-34.7900390625
-36.62109375
-38.4521484375
-41.19873046875
-37.53662109375
-27.4658203125
-10.07080078125
5.4931640625
10.07080078125
7.32421875
5.4931640625
2.74658203125
-4.57763671875
-5.4931640625
-13.73291015625
-2.74658203125
13.73291015625
24.71923828125
38.4521484375
32.04345703125
28.38134765625
25.634765625
17.39501953125
13.73291015625
5.4931640625
4.57763671875
20.1416015625
31.1279296875
40.283203125
43.02978515625
40.283203125
30.21240234375
27.4658203125
27.4658203125
20.1416015625
23.8037109375
37.53662109375
57.67822265625
69.580078125
69.580078125
60.4248046875
66.83349609375
64.0869140625
55.84716796875
55.84716796875
56.7626953125
65.91796875
83.31298828125
93.3837890625
95.21484375
88.80615234375
84.228515625
82.3974609375
76.904296875
72.32666015625
76.904296875
88.80615234375
106.201171875
123.59619140625
122.6806640625
115.3564453125
117.1875
108.0322265625
108.0322265625
99.79248046875
102.5390625
117.1875
136.41357421875
148.3154296875
151.06201171875
147.39990234375
140.9912109375
135.498046875
130.92041015625
122.6806640625
129.08935546875
142.822265625
161.1328125
168.45703125
160.21728515625
156.55517578125
146.484375
139.16015625
130.0048828125
123.59619140625
123.59619140625
125.42724609375
130.92041015625
138.24462890625
131.8359375
121.76513671875
109.86328125
100.7080078125
89.7216796875
72.32666015625
62.255859375
65.00244140625
70.49560546875
75.98876953125
65.91796875
54.01611328125
50.35400390625
39.36767578125
26.55029296875
24.71923828125
16.4794921875
17.39501953125
32.958984375
34.7900390625
28.38134765625
24.71923828125
8.23974609375
-10.07080078125
-23.8037109375
-36.62109375
-38.4521484375
-26.55029296875
-18.310546875
-10.07080078125
-16.4794921875
-13.73291015625
-23.8037109375
-35.70556640625
-42.1142578125
-54.931640625
-52.18505859375
-46.69189453125
-34.7900390625
-19.22607421875
-27.4658203125
-29.296875
-34.7900390625
-48.52294921875
-49.4384765625
-55.84716796875
-47.607421875
-40.283203125
-26.55029296875
-15.56396484375
-22.88818359375
-32.958984375
-36.62109375
-41.19873046875
-50.35400390625
-55.84716796875
-53.1005859375
-48.52294921875
-28.38134765625
-10.07080078125
-21.05712890625
-25.634765625
-29.296875
-37.53662109375
-42.1142578125
-48.52294921875
-53.1005859375
-43.02978515625
-29.296875
-15.56396484375
-17.39501953125
-23.8037109375
-30.21240234375
-43.02978515625
-56.7626953125
-63.17138671875
-51.26953125
-49.4384765625
-33.87451171875
-12.8173828125
-21.05712890625
-34.7900390625
-37.53662109375
-44.86083984375
-49.4384765625
-62.255859375
-55.84716796875
-54.931640625
-40.283203125
-31.1279296875
-37.53662109375
-44.86083984375
-48.52294921875
-59.50927734375
-59.50927734375
-62.255859375
-64.0869140625
-56.7626953125
-48.52294921875
-40.283203125
-43.9453125
-52.18505859375
-56.7626953125
-62.255859375
-75.0732421875
-83.31298828125
-82.3974609375
-73.2421875
-59.50927734375
-52.18505859375
-59.50927734375
-71.4111328125
-67.7490234375
-77.81982421875
-91.552734375
-93.3837890625
-92.46826171875
-75.98876953125
-66.83349609375
-57.67822265625
-55.84716796875
-63.17138671875
-77.81982421875
-86.0595703125
-87.890625
-95.21484375
-94.29931640625
-80.56640625
-69.580078125
-61.34033203125
-64.0869140625
-68.66455078125
-79.65087890625
-80.56640625
-94.29931640625
-107.11669921875
-105.28564453125
-88.80615234375
-73.2421875
-62.255859375
-73.2421875
-87.890625
-88.80615234375
-83.31298828125
-82.3974609375
-86.0595703125
-92.46826171875
-82.3974609375
-69.580078125
-54.01611328125
-53.1005859375
-67.7490234375
-72.32666015625
-85.14404296875
-90.63720703125
-94.29931640625
-93.3837890625
-84.228515625
-70.49560546875
-60.4248046875
-74.15771484375
-75.0732421875
-78.7353515625
-91.552734375
-88.80615234375
-93.3837890625
-88.80615234375
-78.7353515625
-71.4111328125
-65.00244140625
-64.0869140625
-72.32666015625
-78.7353515625
-82.3974609375
-91.552734375
-97.0458984375
-98.876953125
-87.890625
-78.7353515625
-69.580078125
-70.49560546875
-74.15771484375
-72.32666015625
-82.3974609375
-97.0458984375
-100.7080078125
-90.63720703125
-86.97509765625
-75.0732421875
-65.00244140625
-72.32666015625
-74.15771484375
-78.7353515625
-79.65087890625
-81.48193359375
-77.81982421875
-68.66455078125
-52.18505859375
-25.634765625
-5.4931640625
-6.40869140625
-8.23974609375
-13.73291015625
-18.310546875
-17.39501953125
-26.55029296875
-27.4658203125
-21.05712890625
-10.986328125
0
2.74658203125
18.310546875
19.22607421875
9.1552734375
-4.57763671875
-17.39501953125
-9.1552734375
0
14.6484375
27.4658203125
14.6484375
0
-19.22607421875
-23.8037109375
-31.1279296875
-38.4521484375
-45.7763671875
-42.1142578125
-34.7900390625
-28.38134765625
-28.38134765625
-39.36767578125
-57.67822265625
-81.48193359375
-100.7080078125
-100.7080078125
-95.21484375
-87.890625
-77.81982421875
-74.15771484375
-75.98876953125
-83.31298828125
-93.3837890625
-104.3701171875
-112.60986328125
-116.27197265625
-112.60986328125
-111.6943359375
-96.13037109375
-86.0595703125
-89.7216796875
-99.79248046875
-104.3701171875
-110.77880859375
-118.10302734375
-120.849609375
-109.86328125
-101.62353515625
-93.3837890625
-82.3974609375
-80.56640625
-92.46826171875
-95.21484375
-106.201171875
-109.86328125
-116.27197265625
-112.60986328125
-98.876953125
-86.97509765625
-79.65087890625
-58.59375
-47.607421875
-32.958984375
-23.8037109375
-18.310546875
-26.55029296875
-29.296875
-11.90185546875
10.986328125
16.4794921875
21.05712890625
32.04345703125
48.52294921875
53.1005859375
80.56640625
92.46826171875
94.29931640625
86.97509765625
10.986328125
-153.80859375
-354.30908203125
-540.1611328125
-762.63427734375
-882.568359375
-975.03662109375
-1064.75830078125
-1061.09619140625
-1005.2490234375
-937.5
-876.15966796875
-799.25537109375
-705.87158203125
-630.79833984375
-581.35986328125
-541.07666015625
-509.033203125
-462.34130859375
-416.56494140625
-377.197265625
-347.900390625
-324.0966796875
-305.7861328125
-298.4619140625
-289.306640625
-275.57373046875
-276.4892578125
-278.3203125
-262.75634765625
-243.5302734375
-234.375
-239.8681640625
-248.10791015625
-248.10791015625
-245.361328125
-246.27685546875
-243.5302734375
-232.5439453125
-206.9091796875
-197.75390625
-183.10546875
-173.9501953125
-164.794921875
-163.87939453125
-165.71044921875
-147.39990234375
-148.3154296875
-143.73779296875
-126.3427734375
-103.45458984375
-82.3974609375
-66.83349609375
-53.1005859375
-50.35400390625
-50.35400390625
-44.86083984375
-44.86083984375
-40.283203125
-25.634765625
-3.662109375
10.07080078125
15.56396484375
2.74658203125
2.74658203125
-3.662109375
-8.23974609375
-13.73291015625
-10.07080078125
2.74658203125
15.56396484375
29.296875
26.55029296875
21.05712890625
20.1416015625
13.73291015625
4.57763671875
3.662109375
5.4931640625
8.23974609375
20.1416015625
36.62109375
35.70556640625
33.87451171875
36.62109375
25.634765625
17.39501953125
20.1416015625
19.22607421875
27.4658203125
41.19873046875
51.26953125
50.35400390625
53.1005859375
53.1005859375
45.7763671875
37.53662109375
36.62109375
40.283203125
54.01611328125
71.4111328125
84.228515625
77.81982421875
75.0732421875
75.98876953125
74.15771484375
67.7490234375
56.7626953125
61.34033203125
79.65087890625
93.3837890625
112.60986328125
115.3564453125
108.94775390625
108.0322265625
102.5390625
97.96142578125
91.552734375
90.63720703125
115.3564453125
129.08935546875
138.24462890625
141.90673828125
135.498046875
138.24462890625
129.08935546875
130.92041015625
121.76513671875
124.51171875
136.41357421875
147.39990234375
158.38623046875
162.04833984375
151.06201171875
142.822265625
138.24462890625
136.41357421875
131.8359375
127.25830078125
136.41357421875
140.9912109375
148.3154296875
153.80859375
146.484375
129.08935546875
111.6943359375
107.11669921875
92.46826171875
85.14404296875
91.552734375
92.46826171875
98.876953125
90.63720703125
72.32666015625
63.17138671875
48.52294921875
29.296875
22.88818359375
15.56396484375
22.88818359375
41.19873046875
48.52294921875
39.36767578125
24.71923828125
10.07080078125
-3.662109375
-17.39501953125
-16.4794921875
-16.4794921875
-14.6484375
-8.23974609375
-4.57763671875
-6.40869140625
-10.07080078125
-25.634765625
-28.38134765625
-42.1142578125
-49.4384765625
-48.52294921875
-32.958984375
-21.97265625
-15.56396484375
-14.6484375
-20.1416015625
-25.634765625
-32.04345703125
-40.283203125
-49.4384765625
-43.02978515625
-37.53662109375
-26.55029296875
-9.1552734375
-16.4794921875
-21.97265625
-22.88818359375
-29.296875
-38.4521484375
-46.69189453125
-49.4384765625
-39.36767578125
-30.21240234375
-21.05712890625
-19.22607421875
-23.8037109375
-31.1279296875
-31.1279296875
-36.62109375
-41.19873046875
-43.02978515625
-37.53662109375
-21.97265625
-14.6484375
-14.6484375
-16.4794921875
-30.21240234375
-34.7900390625
-37.53662109375
-46.69189453125
-52.18505859375
-35.70556640625
-30.21240234375
-21.05712890625
-21.97265625
-26.55029296875
-28.38134765625
-31.1279296875
-43.9453125
-45.7763671875
-49.4384765625
-40.283203125
-31.1279296875
-27.4658203125
-34.7900390625
-35.70556640625
-43.9453125
-43.9453125
-48.52294921875
-58.59375
-57.67822265625
-58.59375
-43.02978515625
-36.62109375
-38.4521484375
-43.02978515625
-43.02978515625
-50.35400390625
-60.4248046875
-72.32666015625
-69.580078125
-55.84716796875
-47.607421875
-37.53662109375
-40.283203125
-45.7763671875
-49.4384765625
-65.00244140625
-70.49560546875
-76.904296875
-75.98876953125
-70.49560546875
-59.50927734375
-45.7763671875
-50.35400390625
-54.931640625
-51.26953125
-61.34033203125
-64.0869140625
-73.2421875
-80.56640625
-64.0869140625
-59.50927734375
-42.1142578125
-46.69189453125
-59.50927734375
-62.255859375
-66.83349609375
-74.15771484375
-75.98876953125
-80.56640625
-65.91796875
-62.255859375
-48.52294921875
-45.7763671875
-53.1005859375
-54.01611328125
-64.0869140625
-67.7490234375
-75.98876953125
-85.14404296875
-72.32666015625
-63.17138671875
-58.59375
-63.17138671875
-58.59375
-63.17138671875
-77.81982421875
-80.56640625
-86.0595703125
-86.0595703125
-76.904296875
-65.91796875
-54.01611328125
-55.84716796875
-58.59375
-64.0869140625
-73.2421875
-73.2421875
-80.56640625
-79.65087890625
-76.904296875
-65.00244140625
-47.607421875
-43.02978515625
-44.86083984375
-40.283203125
-33.87451171875
-38.4521484375
-32.04345703125
-29.296875
-16.4794921875
-10.07080078125
-10.986328125
-10.986328125
-4.57763671875
-9.1552734375
-14.6484375
-22.88818359375
-33.87451171875
-33.87451171875
-5.4931640625
27.4658203125
46.69189453125
32.04345703125
25.634765625
22.88818359375
20.1416015625
9.1552734375
3.662109375
10.07080078125
17.39501953125
18.310546875
15.56396484375
1.8310546875
-1.8310546875
-6.40869140625
-12.8173828125
-27.4658203125
-41.19873046875
-46.69189453125
-42.1142578125
-35.70556640625
-31.1279296875
-43.9453125
-60.4248046875
-69.580078125
-79.65087890625
-82.3974609375
-90.63720703125
-97.0458984375
-92.46826171875
-81.48193359375
-57.67822265625
-57.67822265625
-64.0869140625
-82.3974609375
-95.21484375
-95.21484375
-107.11669921875
-106.201171875
-97.96142578125
-84.228515625
-75.0732421875
-70.49560546875
-79.65087890625
-80.56640625
-87.890625
-92.46826171875
-94.29931640625
-99.79248046875
-87.890625
-72.32666015625
-65.00244140625
-64.0869140625
-66.83349609375
-73.2421875
-81.48193359375
-87.890625
-91.552734375
-83.31298828125
-70.49560546875
-32.958984375
-3.662109375
7.32421875
13.73291015625
12.8173828125
1.8310546875
-3.662109375
-10.07080078125
0
9.1552734375
24.71923828125
43.02978515625
54.01611328125
65.91796875
83.31298828125
60.4248046875
43.02978515625
-44.86083984375
-222.47314453125
-410.15625
-581.35986328125
-784.60693359375
-896.30126953125
-970.458984375
-1047.36328125
-1046.44775390625
-1002.50244140625
-942.9931640625
-882.568359375
-791.93115234375
-686.6455078125
-596.00830078125
-551.1474609375
-510.8642578125
-472.412109375
-422.05810546875
-390.93017578125
-379.94384765625
-357.97119140625
-317.68798828125
-289.306640625
-260.009765625
-246.27685546875
-238.037109375
-233.45947265625
-237.12158203125
-238.037109375
-243.5302734375
-238.95263671875
-228.8818359375
-217.8955078125
-205.99365234375
-195.00732421875
-203.2470703125
-195.9228515625
-193.17626953125
-192.2607421875
-198.66943359375
-195.9228515625
-180.35888671875
-161.1328125
-138.24462890625
-123.59619140625
-115.3564453125
-111.6943359375
-112.60986328125
-118.10302734375
-113.525390625
-97.96142578125
-68.66455078125
-36.62109375
-14.6484375
-14.6484375
-21.97265625
-13.73291015625
-10.07080078125
-12.8173828125
-9.1552734375
-13.73291015625
12.8173828125
28.38134765625
35.70556640625
37.53662109375
40.283203125
30.21240234375
10.07080078125
5.4931640625
11.90185546875
16.4794921875
21.97265625
32.04345703125
44.86083984375
49.4384765625
54.931640625
43.9453125
32.958984375
21.97265625
21.97265625
24.71923828125
26.55029296875
48.52294921875
65.00244140625
63.17138671875
57.67822265625
52.18505859375
42.1142578125
45.7763671875
40.283203125
46.69189453125
48.52294921875
68.66455078125
82.3974609375
80.56640625
79.65087890625
80.56640625
69.580078125
64.0869140625
58.59375
68.66455078125
78.7353515625
95.21484375
106.201171875
112.60986328125
109.86328125
107.11669921875
101.62353515625
99.79248046875
88.80615234375
85.14404296875
92.46826171875
110.77880859375
129.08935546875
136.41357421875
131.8359375
140.07568359375
134.58251953125
119.93408203125
118.10302734375
114.44091796875
119.93408203125
133.6669921875
157.470703125
156.55517578125
153.80859375
155.6396484375
147.39990234375
139.16015625
134.58251953125
143.73779296875
158.38623046875
162.9638671875
175.78125
176.69677734375
165.71044921875
157.470703125
151.06201171875
142.822265625
127.25830078125
129.08935546875
133.6669921875
143.73779296875
152.89306640625
147.39990234375
137.3291015625
122.6806640625
106.201171875
96.13037109375
78.7353515625
76.904296875
79.65087890625
85.14404296875
93.3837890625
85.14404296875
78.7353515625
61.34033203125
53.1005859375
32.958984375
18.310546875
10.986328125
19.22607421875
29.296875
31.1279296875
23.8037109375
17.39501953125
6.40869140625
-2.74658203125
-6.40869140625
-9.1552734375
-6.40869140625
7.32421875
11.90185546875
20.1416015625
15.56396484375
11.90185546875
4.57763671875
-14.6484375
-24.71923828125
-25.634765625
-32.958984375
-23.8037109375
-8.23974609375
-0.91552734375
2.74658203125
-6.40869140625
-15.56396484375
-18.310546875
-18.310546875
-19.22607421875
-27.4658203125
-21.97265625
-3.662109375
6.40869140625
10.986328125
-0.91552734375
-7.32421875
-13.73291015625
-21.97265625
-23.8037109375
-23.8037109375
-16.4794921875
2.74658203125
2.74658203125
-0.91552734375
2.74658203125
1.8310546875
-6.40869140625
-16.4794921875
-25.634765625
-21.05712890625
-14.6484375
-3.662109375
9.1552734375
16.4794921875
