ECG
26.55029296875
26.55029296875
12.8173828125
20.1416015625
25.634765625
32.04345703125
35.70556640625
34.7900390625
30.21240234375
32.958984375
23.8037109375
25.634765625
17.39501953125
21.05712890625
21.97265625
21.05712890625
31.1279296875
31.1279296875
30.21240234375
19.22607421875
11.90185546875
10.07080078125
6.40869140625
19.22607421875
19.22607421875
31.1279296875
32.958984375
19.22607421875
16.4794921875
14.6484375
8.23974609375
0.91552734375
-6.40869140625
9.1552734375
16.4794921875
12.8173828125
17.39501953125
23.8037109375
12.8173828125
15.56396484375
10.07080078125
2.74658203125
-4.57763671875
0.91552734375
5.4931640625
12.8173828125
17.39501953125
15.56396484375
10.986328125
5.4931640625
0.91552734375
1.8310546875
-0.91552734375
2.74658203125
8.23974609375
12.8173828125
15.56396484375
6.40869140625
10.07080078125
5.4931640625
-2.74658203125
-9.1552734375
-9.1552734375
-5.4931640625
10.986328125
5.4931640625
23.8037109375
31.1279296875
37.53662109375
46.69189453125
38.4521484375
43.02978515625
41.19873046875
54.931640625
66.83349609375
66.83349609375
66.83349609375
66.83349609375
65.00244140625
58.59375
55.84716796875
50.35400390625
46.69189453125
68.66455078125
83.31298828125
108.0322265625
113.525390625
101.62353515625
86.97509765625
77.81982421875
68.66455078125
65.00244140625
75.0732421875
81.48193359375
84.228515625
89.7216796875
87.890625
79.65087890625
65.91796875
55.84716796875
54.01611328125
43.02978515625
32.04345703125
29.296875
35.70556640625
36.62109375
22.88818359375
12.8173828125
4.57763671875
-3.662109375
-13.73291015625
-16.4794921875
-21.05712890625
-19.22607421875
-15.56396484375
-9.1552734375
-9.1552734375
-0.91552734375
-8.23974609375
-18.310546875
-23.8037109375
-32.04345703125
-35.70556640625
-25.634765625
-18.310546875
-4.57763671875
-10.07080078125
-11.90185546875
-15.56396484375
-14.6484375
-27.4658203125
-22.88818359375
-20.1416015625
-22.88818359375
-19.22607421875
-8.23974609375
-0.91552734375
-9.1552734375
-15.56396484375
-18.310546875
-26.55029296875
-23.8037109375
-14.6484375
10.07080078125
41.19873046875
67.7490234375
82.3974609375
75.98876953125
67.7490234375
67.7490234375
65.00244140625
54.01611328125
56.7626953125
75.98876953125
86.0595703125
101.62353515625
122.6806640625
134.58251953125
129.08935546875
117.1875
94.29931640625
-29.296875
-225.2197265625
-415.6494140625
-612.48779296875
-797.42431640625
-889.892578125
-967.71240234375
-1021.728515625
-986.9384765625
-942.07763671875
-895.3857421875
-825.8056640625
-736.083984375
-632.62939453125
-540.1611328125
-478.82080078125
-444.03076171875
-409.24072265625
-375.3662109375
-340.576171875
-319.51904296875
-303.955078125
-278.3203125
-254.5166015625
-233.45947265625
-208.740234375
-196.83837890625
-190.4296875
-187.68310546875
-191.34521484375
-195.00732421875
-202.33154296875
-195.00732421875
-184.02099609375
-159.3017578125
-144.6533203125
-148.3154296875
-146.484375
-147.39990234375
-141.90673828125
-143.73779296875
-135.498046875
-118.10302734375
-101.62353515625
-71.4111328125
-71.4111328125
-65.91796875
-61.34033203125
-58.59375
-58.59375
-55.84716796875
-43.9453125
-10.07080078125
10.986328125
27.4658203125
40.283203125
39.36767578125
43.9453125
48.52294921875
57.67822265625
55.84716796875
56.7626953125
60.4248046875
65.00244140625
77.81982421875
85.14404296875
75.0732421875
76.904296875
86.0595703125
83.31298828125
74.15771484375
69.580078125
68.66455078125
75.98876953125
87.890625
92.46826171875
98.876953125
102.5390625
102.5390625
98.876953125
97.96142578125
92.46826171875
97.96142578125
108.0322265625
111.6943359375
118.10302734375
119.93408203125
114.44091796875
109.86328125
108.94775390625
118.10302734375
117.1875
114.44091796875
119.0185546875
137.3291015625
147.39990234375
145.56884765625
142.822265625
144.6533203125
151.06201171875
155.6396484375
150.146484375
151.9775390625
149.23095703125
168.45703125
182.18994140625
183.10546875
175.78125
169.37255859375
169.37255859375
174.86572265625
173.03466796875
183.10546875
192.2607421875
195.00732421875
201.416015625
195.9228515625
205.078125
205.99365234375
201.416015625
195.00732421875
197.75390625
211.48681640625
223.388671875
227.96630859375
228.8818359375
221.5576171875
209.65576171875
207.82470703125
212.40234375
224.30419921875
210.5712890625
216.064453125
224.30419921875
218.81103515625
224.30419921875
230.712890625
227.05078125
213.31787109375
190.4296875
186.767578125
181.2744140625
180.35888671875
181.2744140625
185.85205078125
184.9365234375
175.78125
170.2880859375
157.470703125
145.56884765625
130.92041015625
114.44091796875
119.0185546875
120.849609375
122.6806640625
119.0185546875
97.96142578125
87.890625
81.48193359375
75.98876953125
67.7490234375
56.7626953125
58.59375
68.66455078125
74.15771484375
69.580078125
59.50927734375
49.4384765625
45.7763671875
33.87451171875
29.296875
27.4658203125
28.38134765625
20.1416015625
32.04345703125
32.958984375
30.21240234375
28.38134765625
27.4658203125
21.97265625
14.6484375
5.4931640625
13.73291015625
37.53662109375
42.1142578125
38.4521484375
32.958984375
26.55029296875
25.634765625
25.634765625
22.88818359375
21.97265625
23.8037109375
32.04345703125
38.4521484375
43.02978515625
32.04345703125
30.21240234375
30.21240234375
28.38134765625
23.8037109375
25.634765625
36.62109375
35.70556640625
48.52294921875
59.50927734375
55.84716796875
43.02978515625
36.62109375
29.296875
32.04345703125
27.4658203125
27.4658203125
32.04345703125
48.52294921875
52.18505859375
44.86083984375
39.36767578125
30.21240234375
21.97265625
21.97265625
27.4658203125
20.1416015625
24.71923828125
34.7900390625
41.19873046875
37.53662109375
33.87451171875
30.21240234375
19.22607421875
18.310546875
12.8173828125
13.73291015625
14.6484375
25.634765625
33.87451171875
30.21240234375
20.1416015625
19.22607421875
10.986328125
8.23974609375
6.40869140625
3.662109375
11.90185546875
14.6484375
16.4794921875
11.90185546875
8.23974609375
7.32421875
0.91552734375
1.8310546875
2.74658203125
8.23974609375
7.32421875
9.1552734375
11.90185546875
17.39501953125
14.6484375
4.57763671875
-0.91552734375
-7.32421875
-10.986328125
-4.57763671875
5.4931640625
3.662109375
13.73291015625
12.8173828125
8.23974609375
8.23974609375
7.32421875
-1.8310546875
-10.986328125
-9.1552734375
-0.91552734375
6.40869140625
8.23974609375
10.07080078125
3.662109375
-0.91552734375
-0.91552734375
-9.1552734375
-18.310546875
-3.662109375
12.8173828125
32.958984375
54.931640625
56.7626953125
51.26953125
43.02978515625
43.02978515625
43.9453125
46.69189453125
43.9453125
45.7763671875
58.59375
57.67822265625
49.4384765625
46.69189453125
41.19873046875
43.9453125
64.0869140625
70.49560546875
91.552734375
97.96142578125
92.46826171875
86.0595703125
83.31298828125
74.15771484375
68.66455078125
65.91796875
55.84716796875
52.18505859375
49.4384765625
43.9453125
52.18505859375
63.17138671875
58.59375
54.01611328125
30.21240234375
21.97265625
16.4794921875
11.90185546875
0.91552734375
0
-2.74658203125
-4.57763671875
-1.8310546875
-3.662109375
-10.07080078125
-21.97265625
-27.4658203125
-35.70556640625
-42.1142578125
-30.21240234375
-22.88818359375
-20.1416015625
-21.05712890625
-30.21240234375
-30.21240234375
-29.296875
-32.04345703125
-42.1142578125
-36.62109375
-27.4658203125
-26.55029296875
-21.97265625
-21.97265625
-21.05712890625
-22.88818359375
-26.55029296875
-33.87451171875
-31.1279296875
-28.38134765625
-32.958984375
-23.8037109375
-15.56396484375
-23.8037109375
-21.97265625
-22.88818359375
-16.4794921875
1.8310546875
9.1552734375
37.53662109375
64.0869140625
65.00244140625
76.904296875
70.49560546875
70.49560546875
67.7490234375
67.7490234375
83.31298828125
94.29931640625
118.10302734375
143.73779296875
177.6123046875
171.20361328125
157.470703125
108.0322265625
-52.18505859375
-244.44580078125
-424.8046875
-651.85546875
-816.650390625
-895.3857421875
-979.6142578125
-1014.404296875
-986.9384765625
-952.1484375
-903.62548828125
-841.36962890625
-760.80322265625
-660.09521484375
-566.71142578125
-490.72265625
-439.453125
-401.91650390625
-363.46435546875
-341.49169921875
-320.4345703125
-298.4619140625
-281.06689453125
-261.8408203125
-232.5439453125
-204.16259765625
-187.68310546875
-185.85205078125
-184.02099609375
-195.00732421875
-202.33154296875
-193.17626953125
-192.2607421875
-192.2607421875
-184.9365234375
-171.20361328125
-152.89306640625
-138.24462890625
-135.498046875
-136.41357421875
-135.498046875
-130.92041015625
-121.76513671875
-123.59619140625
-105.28564453125
-94.29931640625
-75.0732421875
-62.255859375
-52.18505859375
-44.86083984375
-36.62109375
-17.39501953125
-10.07080078125
-1.8310546875
9.1552734375
12.8173828125
30.21240234375
44.86083984375
51.26953125
52.18505859375
52.18505859375
54.931640625
51.26953125
45.7763671875
57.67822265625
70.49560546875
77.81982421875
86.0595703125
81.48193359375
76.904296875
68.66455078125
67.7490234375
62.255859375
59.50927734375
75.98876953125
86.0595703125
87.890625
96.13037109375
94.29931640625
94.29931640625
91.552734375
93.3837890625
89.7216796875
87.890625
92.46826171875
104.3701171875
106.201171875
117.1875
114.44091796875
111.6943359375
119.0185546875
117.1875
108.94775390625
107.11669921875
109.86328125
119.0185546875
140.07568359375
140.07568359375
137.3291015625
142.822265625
145.56884765625
153.80859375
155.6396484375
154.72412109375
151.06201171875
158.38623046875
166.6259765625
173.03466796875
176.69677734375
173.03466796875
173.9501953125
174.86572265625
171.20361328125
170.2880859375
182.18994140625
198.66943359375
205.078125
215.14892578125
211.48681640625
211.48681640625
209.65576171875
211.48681640625
210.5712890625
205.078125
210.5712890625
216.97998046875
223.388671875
228.8818359375
228.8818359375
219.7265625
219.7265625
217.8955078125
218.81103515625
213.31787109375
207.82470703125
206.9091796875
214.2333984375
217.8955078125
210.5712890625
197.75390625
191.34521484375
176.69677734375
170.2880859375
157.470703125
159.3017578125
162.04833984375
167.54150390625
173.9501953125
157.470703125
146.484375
123.59619140625
106.201171875
96.13037109375
86.0595703125
86.0595703125
90.63720703125
90.63720703125
88.80615234375
78.7353515625
67.7490234375
53.1005859375
42.1142578125
38.4521484375
37.53662109375
34.7900390625
36.62109375
50.35400390625
53.1005859375
48.52294921875
41.19873046875
28.38134765625
19.22607421875
10.07080078125
2.74658203125
10.986328125
17.39501953125
27.4658203125
32.04345703125
22.88818359375
18.310546875
11.90185546875
1.8310546875
-3.662109375
1.8310546875
-1.8310546875
1.8310546875
15.56396484375
22.88818359375
17.39501953125
17.39501953125
16.4794921875
12.8173828125
9.1552734375
0.91552734375
3.662109375
10.986328125
26.55029296875
25.634765625
23.8037109375
19.22607421875
20.1416015625
20.1416015625
15.56396484375
7.32421875
15.56396484375
10.986328125
26.55029296875
35.70556640625
33.87451171875
22.88818359375
14.6484375
25.634765625
25.634765625
19.22607421875
11.90185546875
24.71923828125
30.21240234375
31.1279296875
25.634765625
20.1416015625
17.39501953125
21.05712890625
7.32421875
2.74658203125
11.90185546875
22.88818359375
27.4658203125
32.958984375
34.7900390625
21.97265625
7.32421875
3.662109375
1.8310546875
-1.8310546875
6.40869140625
3.662109375
2.74658203125
19.22607421875
14.6484375
10.986328125
15.56396484375
2.74658203125
-2.74658203125
-11.90185546875
-5.4931640625
1.8310546875
8.23974609375
4.57763671875
-6.40869140625
-3.662109375
-3.662109375
-9.1552734375
-6.40869140625
-11.90185546875
-13.73291015625
-10.986328125
-0.91552734375
2.74658203125
-2.74658203125
-6.40869140625
-10.07080078125
-16.4794921875
-18.310546875
-23.8037109375
-10.986328125
-5.4931640625
1.8310546875
2.74658203125
-1.8310546875
-1.8310546875
-4.57763671875
-6.40869140625
-11.90185546875
-22.88818359375
-19.22607421875
-15.56396484375
-13.73291015625
-7.32421875
-7.32421875
-8.23974609375
-16.4794921875
-20.1416015625
-21.97265625
-20.1416015625
-15.56396484375
-14.6484375
-10.07080078125
-6.40869140625
-6.40869140625
-7.32421875
-21.05712890625
-22.88818359375
-23.8037109375
-24.71923828125
-21.05712890625
-13.73291015625
-2.74658203125
6.40869140625
12.8173828125
10.986328125
17.39501953125
17.39501953125
27.4658203125
26.55029296875
41.19873046875
45.7763671875
54.931640625
61.34033203125
50.35400390625
48.52294921875
45.7763671875
38.4521484375
21.05712890625
21.05712890625
32.04345703125
55.84716796875
70.49560546875
78.7353515625
65.91796875
50.35400390625
39.36767578125
33.87451171875
25.634765625
32.958984375
52.18505859375
63.17138671875
66.83349609375
63.17138671875
47.607421875
49.4384765625
43.02978515625
31.1279296875
21.97265625
6.40869140625
3.662109375
7.32421875
9.1552734375
15.56396484375
5.4931640625
-4.57763671875
-21.97265625
-28.38134765625
-32.04345703125
-40.283203125
-36.62109375
-23.8037109375
-12.8173828125
-13.73291015625
-18.310546875
-21.05712890625
-26.55029296875
-29.296875
-34.7900390625
-47.607421875
-42.1142578125
-30.21240234375
-24.71923828125
-22.88818359375
-27.4658203125
-31.1279296875
-26.55029296875
-34.7900390625
-36.62109375
-43.02978515625
-32.958984375
-21.05712890625
-16.4794921875
-8.23974609375
-15.56396484375
-28.38134765625
-26.55029296875
-20.1416015625
-26.55029296875
-24.71923828125
2.74658203125
27.4658203125
45.7763671875
63.17138671875
71.4111328125
60.4248046875
56.7626953125
60.4248046875
66.83349609375
74.15771484375
92.46826171875
118.10302734375
140.07568359375
158.38623046875
184.9365234375
186.767578125
172.119140625
139.16015625
26.55029296875
-163.87939453125
-350.64697265625
-549.31640625
-741.5771484375
-841.36962890625
-943.90869140625
-1014.404296875
-1002.50244140625
-975.03662109375
-942.07763671875
-882.568359375
-793.76220703125
-682.06787109375
-573.1201171875
-501.708984375
-455.01708984375
-422.9736328125
-379.0283203125
-344.23828125
-325.927734375
-306.70166015625
-272.8271484375
-240.78369140625
-219.7265625
-205.078125
-186.767578125
-182.18994140625
-190.4296875
-199.5849609375
-204.16259765625
-204.16259765625
-193.17626953125
-183.10546875
-170.2880859375
-162.04833984375
-155.6396484375
-148.3154296875
-144.6533203125
-148.3154296875
-151.06201171875
-141.90673828125
-126.3427734375
-103.45458984375
-87.890625
-75.98876953125
-73.2421875
-69.580078125
-70.49560546875
-72.32666015625
-57.67822265625
-32.04345703125
-10.986328125
6.40869140625
16.4794921875
32.04345703125
31.1279296875
26.55029296875
25.634765625
35.70556640625
43.02978515625
43.02978515625
47.607421875
59.50927734375
65.91796875
75.0732421875
70.49560546875
66.83349609375
60.4248046875
54.931640625
51.26953125
53.1005859375
62.255859375
73.2421875
88.80615234375
89.7216796875
85.14404296875
78.7353515625
73.2421875
74.15771484375
75.0732421875
75.98876953125
81.48193359375
89.7216796875
105.28564453125
110.77880859375
100.7080078125
99.79248046875
103.45458984375
101.62353515625
102.5390625
102.5390625
119.0185546875
128.173828125
129.08935546875
133.6669921875
130.92041015625
136.41357421875
135.498046875
135.498046875
136.41357421875
133.6669921875
151.9775390625
153.80859375
162.04833984375
164.794921875
163.87939453125
162.9638671875
155.6396484375
158.38623046875
162.9638671875
166.6259765625
171.20361328125
187.68310546875
195.9228515625
201.416015625
201.416015625
207.82470703125
198.66943359375
198.66943359375
196.83837890625
187.68310546875
196.83837890625
206.9091796875
223.388671875
237.12158203125
233.45947265625
220.64208984375
216.064453125
220.64208984375
221.5576171875
214.2333984375
213.31787109375
223.388671875
229.79736328125
239.8681640625
236.2060546875
223.388671875
214.2333984375
205.078125
198.66943359375
182.18994140625
179.443359375
188.5986328125
191.34521484375
195.00732421875
174.86572265625
159.3017578125
151.06201171875
140.07568359375
129.08935546875
114.44091796875
111.6943359375
119.0185546875
111.6943359375
111.6943359375
97.96142578125
88.80615234375
77.81982421875
66.83349609375
58.59375
54.01611328125
56.7626953125
57.67822265625
62.255859375
58.59375
47.607421875
45.7763671875
39.36767578125
32.958984375
14.6484375
13.73291015625
28.38134765625
32.958984375
28.38134765625
27.4658203125
22.88818359375
19.22607421875
13.73291015625
9.1552734375
0.91552734375
4.57763671875
13.73291015625
13.73291015625
28.38134765625
28.38134765625
19.22607421875
5.4931640625
1.8310546875
3.662109375
0.91552734375
1.8310546875
7.32421875
16.4794921875
26.55029296875
36.62109375
30.21240234375
22.88818359375
20.1416015625
18.310546875
13.73291015625
11.90185546875
20.1416015625
25.634765625
31.1279296875
38.4521484375
32.958984375
30.21240234375
27.4658203125
25.634765625
6.40869140625
8.23974609375
10.986328125
21.97265625
30.21240234375
45.7763671875
33.87451171875
21.05712890625
23.8037109375
14.6484375
-1.8310546875
20.1416015625
13.73291015625
9.1552734375
20.1416015625
39.36767578125
32.04345703125
9.1552734375
25.634765625
29.296875
21.05712890625
-21.97265625
13.73291015625
0.91552734375
4.57763671875
12.8173828125
13.73291015625
28.38134765625
-1.8310546875
-9.1552734375
0.91552734375
5.4931640625
-1.8310546875
14.6484375
10.986328125
18.310546875
9.1552734375
5.4931640625
-1.8310546875
10.07080078125
2.74658203125
-6.40869140625
-2.74658203125
13.73291015625
12.8173828125
23.8037109375
10.986328125
9.1552734375
-9.1552734375
-12.8173828125
-10.986328125
-17.39501953125
-9.1552734375
18.310546875
15.56396484375
13.73291015625
-5.4931640625
-11.90185546875
-6.40869140625
-10.986328125
-14.6484375
-18.310546875
-7.32421875
-6.40869140625
-0.91552734375
5.4931640625
1.8310546875
5.4931640625
-1.8310546875
-11.90185546875
-7.32421875
-14.6484375
-3.662109375
-0.91552734375
8.23974609375
10.07080078125
5.4931640625
0.91552734375
-4.57763671875
-3.662109375
-5.4931640625
-10.07080078125
-12.8173828125
2.74658203125
26.55029296875
30.21240234375
39.36767578125
51.26953125
43.02978515625
38.4521484375
44.86083984375
53.1005859375
58.59375
74.15771484375
73.2421875
74.15771484375
62.255859375
50.35400390625
43.02978515625
47.607421875
51.26953125
58.59375
75.0732421875
69.580078125
75.98876953125
91.552734375
74.15771484375
63.17138671875
60.4248046875
46.69189453125
43.02978515625
52.18505859375
68.66455078125
54.931640625
62.255859375
53.1005859375
59.50927734375
47.607421875
27.4658203125
5.4931640625
19.22607421875
30.21240234375
21.97265625
27.4658203125
19.22607421875
19.22607421875
10.07080078125
10.07080078125
-8.23974609375
-23.8037109375
-27.4658203125
-10.986328125
-12.8173828125
0.91552734375
-25.634765625
-24.71923828125
-22.88818359375
-18.310546875
-10.07080078125
-14.6484375
-21.97265625
-11.90185546875
10.07080078125
-2.74658203125
2.74658203125
0.91552734375
12.8173828125
-0.91552734375
0.91552734375
3.662109375
5.4931640625
0.91552734375
5.4931640625
11.90185546875
5.4931640625
20.1416015625
21.97265625
27.4658203125
32.04345703125
52.18505859375
75.98876953125
76.904296875
100.7080078125
94.29931640625
115.3564453125
130.0048828125
135.498046875
141.90673828125
140.9912109375
166.6259765625
180.35888671875
176.69677734375
191.34521484375
169.37255859375
166.6259765625
115.3564453125
-25.634765625
-218.81103515625
-397.3388671875
-605.16357421875
-769.95849609375
-853.271484375
-933.837890625
-953.06396484375
-921.93603515625
-877.99072265625
-800.1708984375
-742.49267578125
-637.20703125
-517.27294921875
-430.2978515625
-378.11279296875
-330.50537109375
-298.4619140625
-248.10791015625
-212.40234375
-182.18994140625
-167.54150390625
-149.23095703125
-145.56884765625
-126.3427734375
-117.1875
-125.42724609375
-123.59619140625
-112.60986328125
-127.25830078125
-138.24462890625
-130.0048828125
-133.6669921875
-132.75146484375
-136.41357421875
-128.173828125
-132.75146484375
-127.25830078125
-106.201171875
-108.94775390625
-99.79248046875
-94.29931640625
-95.21484375
-75.0732421875
-69.580078125
-50.35400390625
-40.283203125
-29.296875
-24.71923828125
-3.662109375
10.07080078125
23.8037109375
30.21240234375
38.4521484375
40.283203125
53.1005859375
67.7490234375
77.81982421875
94.29931640625
107.11669921875
111.6943359375
101.62353515625
108.94775390625
109.86328125
99.79248046875
105.28564453125
121.76513671875
116.27197265625
119.93408203125
117.1875
117.1875
131.8359375
134.58251953125
132.75146484375
131.8359375
132.75146484375
126.3427734375
135.498046875
145.56884765625
145.56884765625
166.6259765625
155.6396484375
158.38623046875
165.71044921875
154.72412109375
150.146484375
162.04833984375
163.87939453125
184.9365234375
181.2744140625
178.52783203125
180.35888671875
185.85205078125
175.78125
160.21728515625
162.04833984375
169.37255859375
182.18994140625
207.82470703125
222.47314453125
203.2470703125
200.50048828125
197.75390625
192.2607421875
192.2607421875
197.75390625
204.16259765625
225.2197265625
227.05078125
227.96630859375
229.79736328125
224.30419921875
223.388671875
224.30419921875
227.05078125
233.45947265625
250.8544921875
270.08056640625
292.96875
291.1376953125
288.39111328125
266.41845703125
264.58740234375
243.5302734375
264.58740234375
255.43212890625
268.24951171875
263.671875
280.1513671875
298.4619140625
310.36376953125
308.53271484375
292.05322265625
276.4892578125
268.24951171875
280.1513671875
277.40478515625
263.671875
273.74267578125
281.06689453125
276.4892578125
252.685546875
249.0234375
239.8681640625
234.375
225.2197265625
213.31787109375
216.97998046875
216.064453125
215.14892578125
208.740234375
206.9091796875
193.17626953125
179.443359375
171.20361328125
162.9638671875
150.146484375
151.9775390625
158.38623046875
161.1328125
157.470703125
150.146484375
135.498046875
127.25830078125
119.0185546875
112.60986328125
108.94775390625
115.3564453125
115.3564453125
108.94775390625
110.77880859375
102.5390625
95.21484375
87.890625
94.29931640625
92.46826171875
91.552734375
84.228515625
82.3974609375
86.0595703125
82.3974609375
73.2421875
77.81982421875
56.7626953125
55.84716796875
53.1005859375
65.00244140625
70.49560546875
87.890625
86.0595703125
78.7353515625
70.49560546875
59.50927734375
66.83349609375
67.7490234375
68.66455078125
68.66455078125
74.15771484375
75.98876953125
64.0869140625
75.98876953125
67.7490234375
55.84716796875
63.17138671875
67.7490234375
62.255859375
71.4111328125
74.15771484375
79.65087890625
77.81982421875
72.32666015625
72.32666015625
74.15771484375
59.50927734375
44.86083984375
52.18505859375
58.59375
58.59375
63.17138671875
66.83349609375
50.35400390625
47.607421875
49.4384765625
58.59375
68.66455078125
58.59375
58.59375
69.580078125
82.3974609375
55.84716796875
63.17138671875
59.50927734375
51.26953125
59.50927734375
39.36767578125
38.4521484375
55.84716796875
53.1005859375
62.255859375
60.4248046875
70.49560546875
66.83349609375
60.4248046875
45.7763671875
39.36767578125
41.19873046875
43.9453125
36.62109375
37.53662109375
54.931640625
36.62109375
52.18505859375
56.7626953125
55.84716796875
43.02978515625
38.4521484375
51.26953125
41.19873046875
48.52294921875
52.18505859375
46.69189453125
41.19873046875
54.01611328125
52.18505859375
29.296875
32.04345703125
35.70556640625
42.1142578125
54.01611328125
50.35400390625
50.35400390625
44.86083984375
33.87451171875
28.38134765625
30.21240234375
32.958984375
37.53662109375
40.283203125
49.4384765625
58.59375
77.81982421875
82.3974609375
74.15771484375
72.32666015625
82.3974609375
92.46826171875
105.28564453125
119.93408203125
124.51171875
137.3291015625
129.08935546875
120.849609375
110.77880859375
104.3701171875
94.29931640625
93.3837890625
108.0322265625
107.11669921875
115.3564453125
115.3564453125
109.86328125
107.11669921875
115.3564453125
110.77880859375
92.46826171875
83.31298828125
78.7353515625
75.0732421875
75.98876953125
70.49560546875
65.00244140625
57.67822265625
49.4384765625
29.296875
18.310546875
10.07080078125
23.8037109375
33.87451171875
55.84716796875
71.4111328125
62.255859375
47.607421875
38.4521484375
21.97265625
22.88818359375
25.634765625
36.62109375
42.1142578125
39.36767578125
43.02978515625
32.958984375
38.4521484375
43.9453125
48.52294921875
40.283203125
34.7900390625
37.53662109375
43.02978515625
50.35400390625
50.35400390625
54.01611328125
48.52294921875
31.1279296875
24.71923828125
28.38134765625
18.310546875
25.634765625
37.53662109375
48.52294921875
54.931640625
59.50927734375
69.580078125
89.7216796875
107.11669921875
121.76513671875
137.3291015625
140.9912109375
147.39990234375
162.04833984375
162.9638671875
162.04833984375
163.87939453125
182.18994140625
183.10546875
181.2744140625
184.9365234375
201.416015625
187.68310546875
158.38623046875
65.91796875
-120.849609375
-324.0966796875
-500.79345703125
-694.88525390625
-792.8466796875
-850.52490234375
-916.44287109375
-910.0341796875
-875.244140625
-810.24169921875
-728.759765625
-634.46044921875
-531.005859375
-419.3115234375
-350.64697265625
-302.1240234375
-275.57373046875
-237.12158203125
-199.5849609375
-165.71044921875
-151.9775390625
-139.16015625
-135.498046875
-108.94775390625
-102.5390625
-89.7216796875
-75.0732421875
-72.32666015625
-68.66455078125
-86.97509765625
-93.3837890625
-97.96142578125
-93.3837890625
-96.13037109375
-106.201171875
-114.44091796875
-108.94775390625
-108.0322265625
-95.21484375
-83.31298828125
-85.14404296875
-66.83349609375
-54.01611328125
-57.67822265625
-39.36767578125
-37.53662109375
-37.53662109375
-21.05712890625
-5.4931640625
13.73291015625
60.4248046875
75.98876953125
58.59375
43.02978515625
44.86083984375
57.67822265625
68.66455078125
86.0595703125
97.96142578125
95.21484375
96.13037109375
86.0595703125
91.552734375
108.0322265625
110.77880859375
132.75146484375
130.0048828125
132.75146484375
135.498046875
135.498046875
133.6669921875
140.9912109375
130.92041015625
107.11669921875
105.28564453125
113.525390625
135.498046875
127.25830078125
153.80859375
162.04833984375
151.9775390625
146.484375
145.56884765625
137.3291015625
139.16015625
153.80859375
153.80859375
171.20361328125
161.1328125
173.03466796875
177.6123046875
173.9501953125
159.3017578125
170.2880859375
169.37255859375
173.03466796875
181.2744140625
187.68310546875
199.5849609375
198.66943359375
187.68310546875
216.064453125
212.40234375
196.83837890625
187.68310546875
199.5849609375
205.99365234375
228.8818359375
227.05078125
226.13525390625
217.8955078125
229.79736328125
223.388671875
204.16259765625
205.99365234375
220.64208984375
249.0234375
263.671875
262.75634765625
261.8408203125
257.26318359375
249.93896484375
257.26318359375
262.75634765625
258.1787109375
248.10791015625
249.93896484375
265.5029296875
281.982421875
290.22216796875
290.22216796875
290.22216796875
285.64453125
270.08056640625
246.27685546875
241.69921875
242.61474609375
250.8544921875
253.60107421875
260.92529296875
248.10791015625
242.61474609375
239.8681640625
229.79736328125
230.712890625
221.5576171875
204.16259765625
207.82470703125
198.66943359375
180.35888671875
161.1328125
166.6259765625
159.3017578125
155.6396484375
140.9912109375
133.6669921875
130.92041015625
126.3427734375
128.173828125
127.25830078125
121.76513671875
111.6943359375
112.60986328125
102.5390625
93.3837890625
97.96142578125
103.45458984375
100.7080078125
104.3701171875
108.0322265625
96.13037109375
90.63720703125
76.904296875
68.66455078125
64.0869140625
59.50927734375
65.91796875
65.91796875
75.0732421875
88.80615234375
90.63720703125
84.228515625
72.32666015625
62.255859375
52.18505859375
49.4384765625
44.86083984375
51.26953125
57.67822265625
64.0869140625
63.17138671875
58.59375
59.50927734375
55.84716796875
54.01611328125
50.35400390625
54.01611328125
62.255859375
66.83349609375
60.4248046875
51.26953125
48.52294921875
34.7900390625
39.36767578125
35.70556640625
31.1279296875
43.9453125
47.607421875
54.931640625
47.607421875
43.9453125
48.52294921875
44.86083984375
38.4521484375
34.7900390625
33.87451171875
44.86083984375
52.18505859375
51.26953125
48.52294921875
43.9453125
40.283203125
32.04345703125
34.7900390625
32.04345703125
36.62109375
37.53662109375
34.7900390625
34.7900390625
28.38134765625
30.21240234375
32.958984375
28.38134765625
35.70556640625
31.1279296875
31.1279296875
38.4521484375
41.19873046875
39.36767578125
30.21240234375
24.71923828125
25.634765625
26.55029296875
23.8037109375
13.73291015625
14.6484375
20.1416015625
24.71923828125
38.4521484375
32.04345703125
22.88818359375
21.05712890625
23.8037109375
21.97265625
21.97265625
14.6484375
17.39501953125
32.958984375
31.1279296875
19.22607421875
21.97265625
22.88818359375
21.05712890625
27.4658203125
26.55029296875
33.87451171875
49.4384765625
58.59375
71.4111328125
73.2421875
73.2421875
73.2421875
72.32666015625
71.4111328125
69.580078125
51.26953125
54.931640625
58.59375
60.4248046875
63.17138671875
69.580078125
81.48193359375
78.7353515625
66.83349609375
58.59375
53.1005859375
61.34033203125
56.7626953125
72.32666015625
74.15771484375
74.15771484375
71.4111328125
57.67822265625
49.4384765625
40.283203125
28.38134765625
22.88818359375
24.71923828125
27.4658203125
28.38134765625
32.04345703125
40.283203125
15.56396484375
-9.1552734375
-10.07080078125
-5.4931640625
-5.4931640625
-13.73291015625
-10.986328125
-14.6484375
-24.71923828125
-24.71923828125
-16.4794921875
-17.39501953125
-10.986328125
-6.40869140625
-2.74658203125
-5.4931640625
-6.40869140625
1.8310546875
4.57763671875
0
-13.73291015625
-22.88818359375
-19.22607421875
-23.8037109375
-22.88818359375
-21.05712890625
-3.662109375
-0.91552734375
-1.8310546875
-4.57763671875
-11.90185546875
-14.6484375
-10.986328125
-8.23974609375
6.40869140625
25.634765625
54.01611328125
77.81982421875
90.63720703125
100.7080078125
97.96142578125
99.79248046875
101.62353515625
89.7216796875
97.0458984375
117.1875
139.16015625
159.3017578125
162.9638671875
170.2880859375
151.06201171875
130.92041015625
51.26953125
-111.6943359375
-313.1103515625
-484.31396484375
-694.88525390625
-823.974609375
-893.5546875
-976.86767578125
-1006.16455078125
-974.12109375
-921.0205078125
-860.595703125
-776.3671875
-666.50390625
-563.04931640625
-486.14501953125
-443.115234375
-402.83203125
-363.46435546875
-329.58984375
-298.4619140625
-278.3203125
-249.93896484375
-222.47314453125
-198.66943359375
-175.78125
-166.6259765625
-166.6259765625
-168.45703125
-173.9501953125
-176.69677734375
-181.2744140625
-176.69677734375
-151.06201171875
-133.6669921875
-133.6669921875
-127.25830078125
-130.0048828125
-131.8359375
-112.60986328125
-119.0185546875
-116.27197265625
-97.0458984375
-78.7353515625
-65.00244140625
-64.0869140625
-73.2421875
-57.67822265625
-47.607421875
-53.1005859375
-44.86083984375
-14.6484375
12.8173828125
36.62109375
55.84716796875
63.17138671875
64.0869140625
60.4248046875
46.69189453125
55.84716796875
61.34033203125
65.00244140625
77.81982421875
87.890625
95.21484375
97.0458984375
94.29931640625
90.63720703125
87.890625
88.80615234375
88.80615234375
97.0458984375
98.876953125
100.7080078125
115.3564453125
121.76513671875
121.76513671875
112.60986328125
109.86328125
110.77880859375
103.45458984375
100.7080078125
119.0185546875
126.3427734375
139.16015625
143.73779296875
138.24462890625
137.3291015625
139.16015625
144.6533203125
129.08935546875
130.92041015625
137.3291015625
147.39990234375
164.794921875
170.2880859375
164.794921875
157.470703125
146.484375
150.146484375
151.06201171875
159.3017578125
169.37255859375
177.6123046875
204.16259765625
200.50048828125
192.2607421875
184.9365234375
176.69677734375
179.443359375
184.9365234375
184.02099609375
191.34521484375
207.82470703125
219.7265625
221.5576171875
223.388671875
227.96630859375
221.5576171875
212.40234375
211.48681640625
207.82470703125
216.064453125
234.375
253.60107421875
262.75634765625
260.009765625
256.34765625
238.95263671875
233.45947265625
224.30419921875
216.064453125
215.14892578125
230.712890625
243.5302734375
243.5302734375
240.78369140625
237.12158203125
223.388671875
218.81103515625
195.9228515625
192.2607421875
196.83837890625
201.416015625
202.33154296875
201.416015625
179.443359375
168.45703125
151.9775390625
137.3291015625
124.51171875
130.0048828125
124.51171875
131.8359375
141.90673828125
135.498046875
116.27197265625
108.0322265625
86.0595703125
75.98876953125
66.83349609375
63.17138671875
69.580078125
80.56640625
86.0595703125
88.80615234375
73.2421875
60.4248046875
45.7763671875
34.7900390625
22.88818359375
24.71923828125
51.26953125
61.34033203125
70.49560546875
71.4111328125
60.4248046875
45.7763671875
43.9453125
27.4658203125
13.73291015625
21.97265625
26.55029296875
35.70556640625
46.69189453125
49.4384765625
49.4384765625
43.02978515625
42.1142578125
38.4521484375
30.21240234375
22.88818359375
37.53662109375
59.50927734375
56.7626953125
56.7626953125
54.931640625
55.84716796875
43.9453125
35.70556640625
22.88818359375
32.958984375
52.18505859375
62.255859375
75.98876953125
74.15771484375
59.50927734375
51.26953125
49.4384765625
45.7763671875
41.19873046875
39.36767578125
39.36767578125
57.67822265625
77.81982421875
84.228515625
64.0869140625
64.0869140625
48.52294921875
38.4521484375
23.8037109375
17.39501953125
28.38134765625
42.1142578125
67.7490234375
64.0869140625
58.59375
54.01611328125
38.4521484375
17.39501953125
10.07080078125
9.1552734375
22.88818359375
37.53662109375
48.52294921875
70.49560546875
49.4384765625
32.04345703125
14.6484375
13.73291015625
8.23974609375
11.90185546875
21.05712890625
32.958984375
46.69189453125
52.18505859375
42.1142578125
40.283203125
48.52294921875
51.26953125
39.36767578125
27.4658203125
48.52294921875
70.49560546875
90.63720703125
103.45458984375
94.29931640625
92.46826171875
75.98876953125
61.34033203125
47.607421875
37.53662109375
42.1142578125
69.580078125
98.876953125
107.11669921875
87.890625
77.81982421875
76.904296875
75.98876953125
68.66455078125
59.50927734375
69.580078125
85.14404296875
89.7216796875
94.29931640625
92.46826171875
78.7353515625
60.4248046875
48.52294921875
31.1279296875
14.6484375
14.6484375
24.71923828125
43.02978515625
45.7763671875
34.7900390625
12.8173828125
6.40869140625
0.91552734375
-10.986328125
-26.55029296875
-19.22607421875
-3.662109375
17.39501953125
23.8037109375
11.90185546875
-0.91552734375
-14.6484375
-17.39501953125
-32.958984375
-39.36767578125
-12.8173828125
4.57763671875
18.310546875
25.634765625
15.56396484375
2.74658203125
-2.74658203125
-10.986328125
-25.634765625
-13.73291015625
-10.986328125
3.662109375
11.90185546875
12.8173828125
5.4931640625
-0.91552734375
-9.1552734375
-6.40869140625
-6.40869140625
8.23974609375
49.4384765625
89.7216796875
109.86328125
116.27197265625
107.11669921875
122.6806640625
109.86328125
119.0185546875
116.27197265625
104.3701171875
118.10302734375
141.90673828125
161.1328125
173.9501953125
159.3017578125
133.6669921875
18.310546875
-178.52783203125
-387.26806640625
-568.54248046875
-771.78955078125
-858.7646484375
-923.76708984375
-992.431640625
-997.9248046875
-953.9794921875
-905.45654296875
-850.52490234375
-775.45166015625
-676.57470703125
-565.7958984375
-502.62451171875
-414.73388671875
-373.53515625
-329.58984375
-286.56005859375
-274.658203125
-270.99609375
-260.009765625
-247.1923828125
-221.5576171875
-191.34521484375
-168.45703125
-152.89306640625
-146.484375
-135.498046875
-151.9775390625
-155.6396484375
-170.2880859375
-173.9501953125
-153.80859375
-140.9912109375
-113.525390625
-98.876953125
-97.0458984375
-89.7216796875
-97.0458984375
-108.0322265625
-104.3701171875
-104.3701171875
-75.98876953125
-55.84716796875
-42.1142578125
-29.296875
-36.62109375
-34.7900390625
-33.87451171875
-26.55029296875
-8.23974609375
22.88818359375
38.4521484375
55.84716796875
75.98876953125
73.2421875
64.0869140625
73.2421875
76.904296875
72.32666015625
68.66455078125
57.67822265625
67.7490234375
91.552734375
119.0185546875
111.6943359375
118.10302734375
104.3701171875
100.7080078125
88.80615234375
86.97509765625
83.31298828125
95.21484375
124.51171875
131.8359375
131.8359375
124.51171875
137.3291015625
114.44091796875
100.7080078125
107.11669921875
101.62353515625
109.86328125
130.92041015625
151.9775390625
151.9775390625
145.56884765625
142.822265625
133.6669921875
139.16015625
140.07568359375
140.07568359375
152.89306640625
175.78125
187.68310546875
183.10546875
177.6123046875
167.54150390625
162.9638671875
155.6396484375
155.6396484375
153.80859375
178.52783203125
200.50048828125
216.97998046875
219.7265625
214.2333984375
208.740234375
201.416015625
206.9091796875
205.078125
193.17626953125
207.82470703125
228.8818359375
249.0234375
248.10791015625
234.375
232.5439453125
224.30419921875
230.712890625
214.2333984375
217.8955078125
237.12158203125
252.685546875
275.57373046875
275.57373046875
263.671875
263.671875
241.69921875
228.8818359375
212.40234375
203.2470703125
226.13525390625
234.375
240.78369140625
236.2060546875
235.29052734375
219.7265625
198.66943359375
195.9228515625
180.35888671875
183.10546875
174.86572265625
186.767578125
181.2744140625
173.03466796875
154.72412109375
151.9775390625
127.25830078125
112.60986328125
94.29931640625
85.14404296875
94.29931640625
96.13037109375
104.3701171875
91.552734375
88.80615234375
67.7490234375
52.18505859375
49.4384765625
34.7900390625
33.87451171875
54.01611328125
64.0869140625
82.3974609375
68.66455078125
64.0869140625
49.4384765625
36.62109375
28.38134765625
12.8173828125
16.4794921875
18.310546875
25.634765625
45.7763671875
49.4384765625
32.958984375
28.38134765625
13.73291015625
14.6484375
22.88818359375
16.4794921875
22.88818359375
40.283203125
55.84716796875
50.35400390625
47.607421875
36.62109375
31.1279296875
31.1279296875
27.4658203125
14.6484375
21.97265625
36.62109375
54.01611328125
55.84716796875
50.35400390625
43.02978515625
42.1142578125
43.9453125
32.958984375
27.4658203125
41.19873046875
60.4248046875
71.4111328125
80.56640625
72.32666015625
59.50927734375
42.1142578125
31.1279296875
20.1416015625
15.56396484375
29.296875
47.607421875
65.91796875
67.7490234375
53.1005859375
39.36767578125
39.36767578125
34.7900390625
12.8173828125
12.8173828125
12.8173828125
21.05712890625
32.958984375
37.53662109375
30.21240234375
37.53662109375
22.88818359375
6.40869140625
6.40869140625
16.4794921875
14.6484375
24.71923828125
30.21240234375
34.7900390625
32.04345703125
32.958984375
32.04345703125
32.958984375
36.62109375
45.7763671875
60.4248046875
65.91796875
68.66455078125
69.580078125
78.7353515625
80.56640625
57.67822265625
31.1279296875
27.4658203125
42.1142578125
51.26953125
77.81982421875
117.1875
117.1875
102.5390625
101.62353515625
87.890625
73.2421875
66.83349609375
71.4111328125
92.46826171875
108.94775390625
110.77880859375
95.21484375
86.0595703125
65.00244140625
65.91796875
63.17138671875
50.35400390625
41.19873046875
35.70556640625
43.02978515625
38.4521484375
22.88818359375
15.56396484375
-3.662109375
-9.1552734375
-12.8173828125
-17.39501953125
-11.90185546875
-10.986328125
-11.90185546875
-11.90185546875
-13.73291015625
-21.97265625
-23.8037109375
-29.296875
-36.62109375
-37.53662109375
-33.87451171875
-27.4658203125
-19.22607421875
-6.40869140625
-6.40869140625
-17.39501953125
-16.4794921875
-27.4658203125
-35.70556640625
-31.1279296875
-34.7900390625
-28.38134765625
-16.4794921875
-2.74658203125
-14.6484375
-11.90185546875
-5.4931640625
-21.05712890625
-31.1279296875
-38.4521484375
-23.8037109375
-9.1552734375
7.32421875
26.55029296875
53.1005859375
65.91796875
74.15771484375
78.7353515625
83.31298828125
89.7216796875
85.14404296875
96.13037109375
116.27197265625
143.73779296875
140.07568359375
150.146484375
148.3154296875
155.6396484375
132.75146484375
104.3701171875
10.07080078125
-151.06201171875
-344.23828125
-521.8505859375
-747.0703125
-890.80810546875
-972.2900390625
-1033.63037109375
-1048.27880859375
-1011.65771484375
-952.1484375
-877.0751953125
-812.07275390625
-711.36474609375
-604.248046875
-538.330078125
-503.5400390625
-453.18603515625
-414.73388671875
-385.43701171875
-342.4072265625
-301.20849609375
-281.982421875
-250.8544921875
-227.05078125
-216.064453125
-197.75390625
-184.02099609375
-193.17626953125
-188.5986328125
-175.78125
-182.18994140625
-173.9501953125
-151.06201171875
-143.73779296875
-140.9912109375
-143.73779296875
-131.8359375
-125.42724609375
-128.173828125
-117.1875
-108.0322265625
-87.890625
-75.98876953125
-58.59375
-64.0869140625
-57.67822265625
-62.255859375
-68.66455078125
-55.84716796875
-39.36767578125
-17.39501953125
4.57763671875
33.87451171875
38.4521484375
54.01611328125
49.4384765625
50.35400390625
43.02978515625
46.69189453125
63.17138671875
72.32666015625
75.98876953125
84.228515625
92.46826171875
97.0458984375
99.79248046875
88.80615234375
89.7216796875
75.98876953125
72.32666015625
85.14404296875
87.890625
102.5390625
108.0322265625
106.201171875
100.7080078125
102.5390625
103.45458984375
108.0322265625
102.5390625
119.0185546875
140.9912109375
138.24462890625
126.3427734375
115.3564453125
123.59619140625
124.51171875
116.27197265625
114.44091796875
125.42724609375
134.58251953125
147.39990234375
158.38623046875
162.04833984375
155.6396484375
160.21728515625
152.89306640625
150.146484375
158.38623046875
165.71044921875
170.2880859375
189.51416015625
205.99365234375
200.50048828125
203.2470703125
201.416015625
184.02099609375
187.68310546875
182.18994140625
192.2607421875
195.00732421875
214.2333984375
229.79736328125
210.5712890625
217.8955078125
233.45947265625
229.79736328125
228.8818359375
229.79736328125
227.05078125
233.45947265625
245.361328125
250.8544921875
238.95263671875
233.45947265625
234.375
235.29052734375
236.2060546875
230.712890625
226.13525390625
226.13525390625
234.375
232.5439453125
233.45947265625
225.2197265625
216.064453125
214.2333984375
194.091796875
185.85205078125
184.02099609375
183.10546875
185.85205078125
190.4296875
183.10546875
162.04833984375
142.822265625
140.07568359375
134.58251953125
117.1875
105.28564453125
116.27197265625
130.0048828125
125.42724609375
96.13037109375
89.7216796875
69.580078125
64.0869140625
62.255859375
34.7900390625
31.1279296875
43.9453125
51.26953125
65.00244140625
65.91796875
55.84716796875
47.607421875
40.283203125
24.71923828125
14.6484375
15.56396484375
32.04345703125
32.04345703125
38.4521484375
38.4521484375
35.70556640625
27.4658203125
27.4658203125
21.05712890625
18.310546875
15.56396484375
28.38134765625
43.02978515625
50.35400390625
32.04345703125
21.97265625
33.87451171875
29.296875
24.71923828125
15.56396484375
21.97265625
18.310546875
24.71923828125
40.283203125
37.53662109375
42.1142578125
31.1279296875
32.04345703125
32.04345703125
33.87451171875
33.87451171875
60.4248046875
53.1005859375
48.52294921875
62.255859375
52.18505859375
33.87451171875
30.21240234375
27.4658203125
23.8037109375
26.55029296875
37.53662109375
46.69189453125
55.84716796875
54.931640625
52.18505859375
42.1142578125
27.4658203125
25.634765625
20.1416015625
20.1416015625
22.88818359375
35.70556640625
42.1142578125
41.19873046875
29.296875
30.21240234375
27.4658203125
21.05712890625
9.1552734375
21.97265625
43.9453125
54.01611328125
60.4248046875
71.4111328125
75.98876953125
67.7490234375
71.4111328125
66.83349609375
67.7490234375
69.580078125
71.4111328125
59.50927734375
56.7626953125
64.0869140625
69.580078125
82.3974609375
106.201171875
123.59619140625
129.08935546875
123.59619140625
135.498046875
129.08935546875
125.42724609375
119.93408203125
123.59619140625
118.10302734375
122.6806640625
115.3564453125
99.79248046875
70.49560546875
71.4111328125
85.14404296875
86.97509765625
81.48193359375
65.00244140625
50.35400390625
43.02978515625
34.7900390625
10.07080078125
7.32421875
6.40869140625
7.32421875
10.07080078125
0.91552734375
-6.40869140625
-21.97265625
-24.71923828125
-32.04345703125
-38.4521484375
-20.1416015625
-15.56396484375
-2.74658203125
-12.8173828125
-19.22607421875
-24.71923828125
-26.55029296875
-32.04345703125
-29.296875
-32.958984375
-21.05712890625
-25.634765625
-13.73291015625
-6.40869140625
-3.662109375
2.74658203125
-14.6484375
-27.4658203125
-40.283203125
-44.86083984375
-33.87451171875
-32.04345703125
-13.73291015625
-14.6484375
-18.310546875
-16.4794921875
-8.23974609375
-0.91552734375
7.32421875
21.97265625
42.1142578125
68.66455078125
98.876953125
107.11669921875
102.5390625
118.10302734375
110.77880859375
104.3701171875
97.96142578125
97.96142578125
111.6943359375
133.6669921875
161.1328125
171.20361328125
153.80859375
92.46826171875
-55.84716796875
-263.671875
-448.6083984375
-656.43310546875
-836.7919921875
-919.189453125
-986.02294921875
-1031.79931640625
-1001.5869140625
-956.72607421875
-894.47021484375
-827.63671875
-745.2392578125
-639.0380859375
-563.04931640625
-512.6953125
-451.35498046875
-398.25439453125
-363.46435546875
-331.4208984375
-306.70166015625
-296.630859375
-284.72900390625
-265.5029296875
-246.27685546875
-220.64208984375
-200.50048828125
-190.4296875
-179.443359375
-176.69677734375
-184.02099609375
-184.02099609375
-182.18994140625
-177.6123046875
-173.03466796875
-154.72412109375
-130.92041015625
-118.10302734375
-104.3701171875
-96.13037109375
-105.28564453125
-104.3701171875
-102.5390625
-93.3837890625
-83.31298828125
-76.904296875
-50.35400390625
-48.52294921875
-60.4248046875
-51.26953125
-36.62109375
-20.1416015625
-2.74658203125
15.56396484375
19.22607421875
34.7900390625
46.69189453125
54.931640625
65.00244140625
65.91796875
67.7490234375
66.83349609375
81.48193359375
79.65087890625
70.49560546875
86.97509765625
98.876953125
104.3701171875
102.5390625
86.0595703125
93.3837890625
95.21484375
96.13037109375
83.31298828125
88.80615234375
101.62353515625
107.11669921875
113.525390625
108.0322265625
112.60986328125
111.6943359375
101.62353515625
97.0458984375
97.0458984375
97.0458984375
114.44091796875
128.173828125
135.498046875
134.58251953125
138.24462890625
127.25830078125
121.76513671875
125.42724609375
134.58251953125
134.58251953125
135.498046875
146.484375
155.6396484375
159.3017578125
162.9638671875
163.87939453125
162.9638671875
162.04833984375
161.1328125
175.78125
184.9365234375
189.51416015625
199.5849609375
193.17626953125
189.51416015625
189.51416015625
192.2607421875
191.34521484375
188.5986328125
186.767578125
205.99365234375
218.81103515625
227.96630859375
233.45947265625
238.95263671875
239.8681640625
227.05078125
218.81103515625
214.2333984375
210.5712890625
222.47314453125
239.8681640625
250.8544921875
238.95263671875
233.45947265625
225.2197265625
218.81103515625
215.14892578125
204.16259765625
204.16259765625
216.064453125
214.2333984375
209.65576171875
196.83837890625
180.35888671875
171.20361328125
158.38623046875
142.822265625
140.07568359375
141.90673828125
141.90673828125
140.9912109375
135.498046875
115.3564453125
108.0322265625
109.86328125
82.3974609375
78.7353515625
64.0869140625
49.4384765625
58.59375
49.4384765625
55.84716796875
53.1005859375
48.52294921875
36.62109375
21.05712890625
23.8037109375
18.310546875
11.90185546875
20.1416015625
31.1279296875
22.88818359375
22.88818359375
21.05712890625
21.05712890625
15.56396484375
7.32421875
-2.74658203125
-0.91552734375
-6.40869140625
0.91552734375
12.8173828125
12.8173828125
11.90185546875
8.23974609375
3.662109375
6.40869140625
7.32421875
4.57763671875
13.73291015625
21.05712890625
32.958984375
25.634765625
11.90185546875
7.32421875
14.6484375
5.4931640625
-4.57763671875
2.74658203125
18.310546875
36.62109375
37.53662109375
43.02978515625
26.55029296875
18.310546875
10.07080078125
10.07080078125
11.90185546875
17.39501953125
30.21240234375
41.19873046875
44.86083984375
30.21240234375
30.21240234375
21.97265625
12.8173828125
7.32421875
6.40869140625
12.8173828125
14.6484375
15.56396484375
27.4658203125
21.97265625
11.90185546875
17.39501953125
16.4794921875
6.40869140625
-7.32421875
5.4931640625
20.1416015625
15.56396484375
10.986328125
6.40869140625
7.32421875
10.986328125
5.4931640625
-1.8310546875
-1.8310546875
4.57763671875
18.310546875
22.88818359375
22.88818359375
3.662109375
1.8310546875
-8.23974609375
-25.634765625
-20.1416015625
-21.05712890625
-21.97265625
-9.1552734375
-1.8310546875
13.73291015625
12.8173828125
4.57763671875
5.4931640625
17.39501953125
14.6484375
21.97265625
30.21240234375
35.70556640625
43.9453125
56.7626953125
65.00244140625
54.931640625
40.283203125
26.55029296875
21.05712890625
20.1416015625
34.7900390625
80.56640625
121.76513671875
128.173828125
108.0322265625
89.7216796875
73.2421875
55.84716796875
62.255859375
65.00244140625
79.65087890625
88.80615234375
94.29931640625
96.13037109375
76.904296875
57.67822265625
42.1142578125
32.04345703125
27.4658203125
24.71923828125
14.6484375
10.986328125
21.97265625
20.1416015625
15.56396484375
0.91552734375
-17.39501953125
-28.38134765625
-44.86083984375
-50.35400390625
-45.7763671875
-44.86083984375
-36.62109375
-28.38134765625
-37.53662109375
-38.4521484375
-41.19873046875
-44.86083984375
-52.18505859375
-65.00244140625
-65.91796875
-60.4248046875
-43.9453125
-32.958984375
-39.36767578125
-38.4521484375
-42.1142578125
-51.26953125
-51.26953125
-59.50927734375
-49.4384765625
-41.19873046875
-45.7763671875
-37.53662109375
-42.1142578125
-35.70556640625
-41.19873046875
-46.69189453125
-52.18505859375
-54.01611328125
-52.18505859375
-46.69189453125
-27.4658203125
-6.40869140625
18.310546875
25.634765625
33.87451171875
43.02978515625
40.283203125
39.36767578125
53.1005859375
60.4248046875
64.0869140625
82.3974609375
89.7216796875
97.96142578125
105.28564453125
125.42724609375
123.59619140625
100.7080078125
59.50927734375
-83.31298828125
-276.4892578125
-443.115234375
-665.58837890625
-851.4404296875
-948.486328125
-1030.8837890625
-1072.998046875
-1041.8701171875
-1002.50244140625
-942.07763671875
-866.0888671875
-780.029296875
-687.56103515625
-595.0927734375
-543.8232421875
-500.79345703125
-464.17236328125
-423.88916015625
-382.6904296875
-358.88671875
-318.603515625
-282.89794921875
-261.8408203125
-256.34765625
-239.8681640625
-229.79736328125
-235.29052734375
-231.62841796875
-215.14892578125
-199.5849609375
-184.9365234375
-174.86572265625
-184.02099609375
-187.68310546875
-191.34521484375
-184.9365234375
-164.794921875
-161.1328125
-155.6396484375
-146.484375
-130.92041015625
-119.93408203125
-108.94775390625
-100.7080078125
-94.29931640625
-93.3837890625
-86.0595703125
-84.228515625
-75.98876953125
-53.1005859375
-24.71923828125
-10.986328125
7.32421875
9.1552734375
11.90185546875
18.310546875
15.56396484375
13.73291015625
15.56396484375
42.1142578125
52.18505859375
61.34033203125
50.35400390625
46.69189453125
49.4384765625
50.35400390625
39.36767578125
35.70556640625
52.18505859375
64.0869140625
75.0732421875
79.65087890625
82.3974609375
80.56640625
78.7353515625
68.66455078125
65.91796875
61.34033203125
66.83349609375
86.97509765625
94.29931640625
90.63720703125
90.63720703125
105.28564453125
98.876953125
96.13037109375
99.79248046875
84.228515625
99.79248046875
104.3701171875
119.93408203125
121.76513671875
121.76513671875
122.6806640625
114.44091796875
113.525390625
118.10302734375
111.6943359375
124.51171875
132.75146484375
139.16015625
140.9912109375
142.822265625
147.39990234375
157.470703125
169.37255859375
167.54150390625
172.119140625
178.52783203125
177.6123046875
189.51416015625
191.34521484375
193.17626953125
193.17626953125
201.416015625
197.75390625
194.091796875
190.4296875
193.17626953125
201.416015625
198.66943359375
215.14892578125
215.14892578125
215.14892578125
207.82470703125
202.33154296875
203.2470703125
202.33154296875
209.65576171875
211.48681640625
222.47314453125
214.2333984375
210.5712890625
208.740234375
198.66943359375
182.18994140625
182.18994140625
169.37255859375
166.6259765625
172.119140625
171.20361328125
177.6123046875
169.37255859375
150.146484375
130.92041015625
124.51171875
103.45458984375
93.3837890625
86.0595703125
86.0595703125
98.876953125
94.29931640625
79.65087890625
65.91796875
68.66455078125
59.50927734375
44.86083984375
42.1142578125
30.21240234375
32.04345703125
36.62109375
29.296875
32.958984375
33.87451171875
16.4794921875
7.32421875
0
0.91552734375
-0.91552734375
13.73291015625
17.39501953125
10.07080078125
-0.91552734375
-1.8310546875
-10.07080078125
-17.39501953125
-21.97265625
-31.1279296875
-12.8173828125
4.57763671875
7.32421875
6.40869140625
4.57763671875
-0.91552734375
1.8310546875
-0.91552734375
-11.90185546875
-15.56396484375
-3.662109375
-3.662109375
11.90185546875
23.8037109375
25.634765625
20.1416015625
15.56396484375
16.4794921875
-0.91552734375
-6.40869140625
-4.57763671875
1.8310546875
22.88818359375
32.04345703125
29.296875
25.634765625
15.56396484375
14.6484375
13.73291015625
7.32421875
13.73291015625
19.22607421875
26.55029296875
33.87451171875
24.71923828125
19.22607421875
10.986328125
11.90185546875
1.8310546875
-0.91552734375
0.91552734375
2.74658203125
14.6484375
16.4794921875
18.310546875
20.1416015625
24.71923828125
21.05712890625
3.662109375
-10.07080078125
-0.91552734375
13.73291015625
14.6484375
10.07080078125
16.4794921875
17.39501953125
-7.32421875
-10.07080078125
-10.986328125
-13.73291015625
-7.32421875
-3.662109375
-4.57763671875
-10.986328125
-10.986328125
-10.07080078125
-17.39501953125
-18.310546875
-24.71923828125
-28.38134765625
-22.88818359375
-15.56396484375
-6.40869140625
4.57763671875
3.662109375
-5.4931640625
0
-10.07080078125
-10.07080078125
-17.39501953125
-22.88818359375
-22.88818359375
-14.6484375
-13.73291015625
-14.6484375
-17.39501953125
-18.310546875
-30.21240234375
-30.21240234375
-35.70556640625
-26.55029296875
-16.4794921875
2.74658203125
12.8173828125
13.73291015625
19.22607421875
22.88818359375
20.1416015625
22.88818359375
17.39501953125
26.55029296875
29.296875
35.70556640625
31.1279296875
24.71923828125
21.05712890625
15.56396484375
25.634765625
46.69189453125
67.7490234375
86.0595703125
81.48193359375
92.46826171875
95.21484375
85.14404296875
65.00244140625
65.91796875
75.98876953125
72.32666015625
63.17138671875
53.1005859375
48.52294921875
52.18505859375
50.35400390625
42.1142578125
34.7900390625
18.310546875
9.1552734375
-0.91552734375
-7.32421875
-13.73291015625
-19.22607421875
-19.22607421875
-18.310546875
-23.8037109375
-32.958984375
-34.7900390625
-42.1142578125
-51.26953125
-61.34033203125
-52.18505859375
-45.7763671875
-48.52294921875
-41.19873046875
-46.69189453125
-54.01611328125
-49.4384765625
-54.01611328125
-61.34033203125
-65.91796875
-54.931640625
-54.01611328125
-44.86083984375
-38.4521484375
-44.86083984375
-49.4384765625
-54.931640625
-63.17138671875
-65.00244140625
-65.00244140625
-68.66455078125
-61.34033203125
-47.607421875
-43.02978515625
-44.86083984375
-43.02978515625
-41.19873046875
-42.1142578125
-52.18505859375
-51.26953125
-32.04345703125
-0.91552734375
27.4658203125
41.19873046875
55.84716796875
47.607421875
40.283203125
45.7763671875
48.52294921875
47.607421875
59.50927734375
77.81982421875
103.45458984375
139.16015625
157.470703125
142.822265625
131.8359375
95.21484375
-29.296875
-229.79736328125
-404.6630859375
-605.16357421875
-803.8330078125
-894.47021484375
-997.00927734375
-1072.998046875
-1055.60302734375
-1010.7421875
-967.71240234375
-915.52734375
-833.1298828125
-726.9287109375
-615.234375
-548.40087890625
-498.046875
-464.17236328125
-427.55126953125
-398.25439453125
-383.60595703125
-355.224609375
-321.35009765625
-291.1376953125
-257.26318359375
-232.5439453125
-227.05078125
-220.64208984375
-221.5576171875
-216.064453125
-214.2333984375
-216.064453125
-215.14892578125
-203.2470703125
-194.091796875
-188.5986328125
-178.52783203125
-174.86572265625
-160.21728515625
-160.21728515625
-164.794921875
-157.470703125
-146.484375
-127.25830078125
-102.5390625
-84.228515625
-81.48193359375
-87.890625
-79.65087890625
-76.904296875
-72.32666015625
-65.00244140625
-41.19873046875
-23.8037109375
-5.4931640625
7.32421875
10.07080078125
10.07080078125
10.986328125
17.39501953125
18.310546875
22.88818359375
27.4658203125
40.283203125
54.01611328125
54.01611328125
47.607421875
47.607421875
47.607421875
39.36767578125
40.283203125
40.283203125
54.931640625
65.91796875
75.98876953125
74.15771484375
62.255859375
58.59375
59.50927734375
58.59375
60.4248046875
61.34033203125
68.66455078125
79.65087890625
86.97509765625
90.63720703125
84.228515625
87.890625
81.48193359375
86.97509765625
89.7216796875
86.0595703125
100.7080078125
110.77880859375
117.1875
123.59619140625
121.76513671875
119.0185546875
117.1875
114.44091796875
115.3564453125
124.51171875
134.58251953125
134.58251953125
147.39990234375
159.3017578125
152.89306640625
157.470703125
152.89306640625
147.39990234375
153.80859375
162.9638671875
172.119140625
173.9501953125
177.6123046875
186.767578125
184.9365234375
180.35888671875
178.52783203125
183.10546875
185.85205078125
173.9501953125
182.18994140625
193.17626953125
200.50048828125
212.40234375
201.416015625
199.5849609375
195.00732421875
197.75390625
199.5849609375
196.83837890625
196.83837890625
193.17626953125
202.33154296875
216.97998046875
198.66943359375
184.02099609375
171.20361328125
162.04833984375
161.1328125
155.6396484375
149.23095703125
151.06201171875
148.3154296875
142.822265625
135.498046875
130.0048828125
119.0185546875
109.86328125
95.21484375
76.904296875
79.65087890625
87.890625
80.56640625
75.0732421875
70.49560546875
60.4248046875
48.52294921875
37.53662109375
31.1279296875
21.05712890625
23.8037109375
28.38134765625
26.55029296875
15.56396484375
11.90185546875
3.662109375
-4.57763671875
-18.310546875
-11.90185546875
-6.40869140625
-0.91552734375
8.23974609375
4.57763671875
9.1552734375
0
-0.91552734375
-8.23974609375
-3.662109375
-3.662109375
-13.73291015625
-10.07080078125
-5.4931640625
-0.91552734375
1.8310546875
-3.662109375
-16.4794921875
-19.22607421875
-18.310546875
-17.39501953125
-18.310546875
-10.07080078125
0
9.1552734375
9.1552734375
7.32421875
4.57763671875
-1.8310546875
0
6.40869140625
9.1552734375
6.40869140625
14.6484375
23.8037109375
23.8037109375
15.56396484375
8.23974609375
4.57763671875
-4.57763671875
-9.1552734375
-7.32421875
3.662109375
8.23974609375
16.4794921875
21.97265625
18.310546875
16.4794921875
10.07080078125
3.662109375
-9.1552734375
-12.8173828125
-4.57763671875
-2.74658203125
7.32421875
13.73291015625
0
0.91552734375
2.74658203125
0
-10.986328125
-21.05712890625
-21.05712890625
-17.39501953125
-4.57763671875
-1.8310546875
-3.662109375
-10.07080078125
-8.23974609375
-7.32421875
-16.4794921875
-32.04345703125
-19.22607421875
-0.91552734375
12.8173828125
18.310546875
8.23974609375
-10.07080078125
-7.32421875
-10.07080078125
-20.1416015625
-29.296875
-25.634765625
-18.310546875
-4.57763671875
9.1552734375
-1.8310546875
-6.40869140625
-9.1552734375
-17.39501953125
-28.38134765625
-28.38134765625
-15.56396484375
-9.1552734375
2.74658203125
4.57763671875
-2.74658203125
-8.23974609375
-16.4794921875
-18.310546875
-18.310546875
-21.05712890625
-19.22607421875
-6.40869140625
-4.57763671875
-6.40869140625
-12.8173828125
-15.56396484375
-18.310546875
-22.88818359375
-26.55029296875
-28.38134765625
-29.296875
-23.8037109375
-10.986328125
-4.57763671875
-3.662109375
0
-15.56396484375
-26.55029296875
-23.8037109375
-31.1279296875
-27.4658203125
-19.22607421875
-14.6484375
-9.1552734375
-16.4794921875
-6.40869140625
-14.6484375
-21.97265625
-13.73291015625
-17.39501953125
-24.71923828125
-25.634765625
-14.6484375
-8.23974609375
-11.90185546875
-12.8173828125
-19.22607421875
-21.97265625
-25.634765625
-26.55029296875
-21.97265625
-20.1416015625
-20.1416015625
-12.8173828125
-10.986328125
-13.73291015625
-21.97265625
-29.296875
-25.634765625
-24.71923828125
-15.56396484375
-11.90185546875
-18.310546875
-16.4794921875
-19.22607421875
-29.296875
-30.21240234375
-24.71923828125
-19.22607421875
-19.22607421875
-4.57763671875
6.40869140625
21.05712890625
38.4521484375
51.26953125
54.931640625
44.86083984375
37.53662109375
32.04345703125
20.1416015625
27.4658203125
31.1279296875
40.283203125
37.53662109375
46.69189453125
66.83349609375
75.0732421875
81.48193359375
75.98876953125
65.00244140625
54.931640625
58.59375
67.7490234375
79.65087890625
86.97509765625
83.31298828125
72.32666015625
53.1005859375
32.04345703125
18.310546875
22.88818359375
27.4658203125
31.1279296875
33.87451171875
25.634765625
15.56396484375
10.07080078125
-3.662109375
-18.310546875
-29.296875
-34.7900390625
-18.310546875
-10.986328125
-9.1552734375
-26.55029296875
-33.87451171875
-31.1279296875
-32.958984375
-43.02978515625
-53.1005859375
-55.84716796875
-53.1005859375
-39.36767578125
-30.21240234375
-33.87451171875
-40.283203125
-47.607421875
-59.50927734375
-65.00244140625
-62.255859375
-48.52294921875
-38.4521484375
-26.55029296875
-22.88818359375
-30.21240234375
-30.21240234375
-31.1279296875
-42.1142578125
-51.26953125
-54.01611328125
-45.7763671875
-38.4521484375
-25.634765625
-18.310546875
-30.21240234375
-25.634765625
-9.1552734375
14.6484375
22.88818359375
35.70556640625
51.26953125
46.69189453125
52.18505859375
63.17138671875
57.67822265625
65.91796875
75.98876953125
97.0458984375
123.59619140625
127.25830078125
154.72412109375
162.04833984375
165.71044921875
134.58251953125
16.4794921875
-175.78125
-370.78857421875
-588.68408203125
-792.8466796875
-899.96337890625
-987.85400390625
-1048.27880859375
-1023.5595703125
-979.6142578125
-943.90869140625
-889.892578125
-816.650390625
-725.09765625
-625.30517578125
-551.1474609375
-498.046875
-454.1015625
-400.08544921875
-363.46435546875
-350.64697265625
-329.58984375
-303.03955078125
-285.64453125
-264.58740234375
-238.037109375
-216.97998046875
-207.82470703125
-205.078125
-198.66943359375
-196.83837890625
-187.68310546875
-192.2607421875
-204.16259765625
-202.33154296875
-204.16259765625
-195.00732421875
-177.6123046875
-148.3154296875
-145.56884765625
-155.6396484375
-145.56884765625
-135.498046875
-130.92041015625
-130.92041015625
-113.525390625
-94.29931640625
-82.3974609375
-71.4111328125
-75.0732421875
-58.59375
-34.7900390625
-16.4794921875
-12.8173828125
-17.39501953125
-13.73291015625
0
14.6484375
25.634765625
38.4521484375
43.9453125
39.36767578125
37.53662109375
36.62109375
31.1279296875
32.958984375
44.86083984375
48.52294921875
59.50927734375
59.50927734375
60.4248046875
59.50927734375
52.18505859375
50.35400390625
50.35400390625
47.607421875
62.255859375
72.32666015625
75.0732421875
74.15771484375
75.98876953125
81.48193359375
75.0732421875
67.7490234375
72.32666015625
74.15771484375
86.0595703125
90.63720703125
88.80615234375
102.5390625
99.79248046875
98.876953125
94.29931640625
94.29931640625
94.29931640625
94.29931640625
99.79248046875
111.6943359375
121.76513671875
130.0048828125
130.0048828125
131.8359375
130.0048828125
133.6669921875
128.173828125
131.8359375
142.822265625
151.06201171875
157.470703125
165.71044921875
168.45703125
167.54150390625
167.54150390625
165.71044921875
165.71044921875
167.54150390625
175.78125
184.02099609375
194.091796875
210.5712890625
210.5712890625
209.65576171875
198.66943359375
198.66943359375
197.75390625
195.00732421875
206.9091796875
212.40234375
226.13525390625
233.45947265625
225.2197265625
217.8955078125
217.8955078125
206.9091796875
199.5849609375
204.16259765625
209.65576171875
213.31787109375
218.81103515625
211.48681640625
207.82470703125
200.50048828125
185.85205078125
173.03466796875
162.9638671875
159.3017578125
162.04833984375
158.38623046875
160.21728515625
157.470703125
141.90673828125
130.92041015625
114.44091796875
107.11669921875
102.5390625
89.7216796875
94.29931640625
92.46826171875
90.63720703125
87.890625
86.97509765625
79.65087890625
65.00244140625
50.35400390625
35.70556640625
30.21240234375
27.4658203125
23.8037109375
30.21240234375
24.71923828125
17.39501953125
19.22607421875
21.97265625
23.8037109375
9.1552734375
-0.91552734375
8.23974609375
11.90185546875
12.8173828125
18.310546875
17.39501953125
12.8173828125
4.57763671875
5.4931640625
3.662109375
-1.8310546875
0.91552734375
9.1552734375
19.22607421875
19.22607421875
14.6484375
12.8173828125
6.40869140625
-2.74658203125
-5.4931640625
-1.8310546875
10.07080078125
18.310546875
28.38134765625
28.38134765625
17.39501953125
20.1416015625
15.56396484375
13.73291015625
16.4794921875
10.986328125
15.56396484375
21.97265625
34.7900390625
32.04345703125
28.38134765625
24.71923828125
16.4794921875
15.56396484375
7.32421875
5.4931640625
14.6484375
21.05712890625
30.21240234375
32.958984375
26.55029296875
23.8037109375
23.8037109375
17.39501953125
13.73291015625
8.23974609375
13.73291015625
18.310546875
31.1279296875
30.21240234375
19.22607421875
14.6484375
10.986328125
11.90185546875
12.8173828125
0.91552734375
-0.91552734375
-0.91552734375
7.32421875
10.986328125
13.73291015625
8.23974609375
-9.1552734375
-9.1552734375
-10.07080078125
-12.8173828125
-11.90185546875
-3.662109375
0
6.40869140625
8.23974609375
-2.74658203125
-5.4931640625
-13.73291015625
-19.22607421875
-23.8037109375
-14.6484375
-8.23974609375
3.662109375
-2.74658203125
-4.57763671875
-7.32421875
-11.90185546875
-10.07080078125
-15.56396484375
-16.4794921875
-9.1552734375
0
-1.8310546875
-6.40869140625
-7.32421875
-12.8173828125
-18.310546875
-30.21240234375
-29.296875
-31.1279296875
-23.8037109375
-18.310546875
-8.23974609375
-6.40869140625
-6.40869140625
-10.986328125
-16.4794921875
-18.310546875
-19.22607421875
-18.310546875
-17.39501953125
-10.07080078125
-4.57763671875
-8.23974609375
-13.73291015625
-17.39501953125
-15.56396484375
-21.97265625
-26.55029296875
-25.634765625
-24.71923828125
-17.39501953125
-9.1552734375
-4.57763671875
-9.1552734375
-23.8037109375
-23.8037109375
-25.634765625
-32.04345703125
-33.87451171875
-29.296875
-21.05712890625
-9.1552734375
-7.32421875
-11.90185546875
-10.07080078125
-11.90185546875
-18.310546875
-26.55029296875
-28.38134765625
-25.634765625
-19.22607421875
-16.4794921875
-10.986328125
-10.986328125
-7.32421875
-14.6484375
-24.71923828125
-30.21240234375
-34.7900390625
-27.4658203125
-17.39501953125
-6.40869140625
-10.986328125
-15.56396484375
-21.05712890625
-21.05712890625
-23.8037109375
-23.8037109375
-36.62109375
-32.958984375
-25.634765625
-18.310546875
-12.8173828125
-19.22607421875
-20.1416015625
-15.56396484375
-24.71923828125
-33.87451171875
-39.36767578125
-37.53662109375
-25.634765625
-17.39501953125
-16.4794921875
-14.6484375
-21.05712890625
-23.8037109375
-31.1279296875
-26.55029296875
-27.4658203125
-21.97265625
-23.8037109375
-9.1552734375
-1.8310546875
-5.4931640625
2.74658203125
10.986328125
5.4931640625
7.32421875
14.6484375
25.634765625
31.1279296875
44.86083984375
45.7763671875
46.69189453125
38.4521484375
25.634765625
25.634765625
11.90185546875
11.90185546875
39.36767578125
69.580078125
89.7216796875
101.62353515625
96.13037109375
78.7353515625
65.91796875
55.84716796875
50.35400390625
60.4248046875
75.98876953125
79.65087890625
67.7490234375
58.59375
44.86083984375
32.958984375
31.1279296875
29.296875
25.634765625
10.986328125
8.23974609375
14.6484375
23.8037109375
21.05712890625
-5.4931640625
-20.1416015625
-30.21240234375
-33.87451171875
-41.19873046875
-51.26953125
-43.02978515625
-35.70556640625
-29.296875
-28.38134765625
-40.283203125
-36.62109375
-51.26953125
-50.35400390625
-62.255859375
-64.0869140625
-48.52294921875
-32.958984375
-26.55029296875
-27.4658203125
-27.4658203125
-23.8037109375
-33.87451171875
-46.69189453125
-54.01611328125
-51.26953125
-39.36767578125
-27.4658203125
-21.97265625
-25.634765625
-32.958984375
-37.53662109375
-42.1142578125
-51.26953125
-59.50927734375
-55.84716796875
-40.283203125
-19.22607421875
7.32421875
31.1279296875
46.69189453125
53.1005859375
44.86083984375
40.283203125
40.283203125
47.607421875
50.35400390625
67.7490234375
97.96142578125
128.173828125
135.498046875
159.3017578125
163.87939453125
151.06201171875
138.24462890625
53.1005859375
-119.93408203125
-312.19482421875
-509.033203125
-729.67529296875
-853.271484375
-948.486328125
-1035.46142578125
-1033.63037109375
-1007.080078125
-967.71240234375
-911.865234375
-820.3125
-715.9423828125
-612.48779296875
-539.24560546875
-494.384765625
-462.34130859375
-418.39599609375
-379.0283203125
-357.0556640625
-334.16748046875
-291.1376953125
-261.8408203125
-234.375
-218.81103515625
-214.2333984375
-216.064453125
-213.31787109375
-219.7265625
-222.47314453125
-206.9091796875
-201.416015625
-195.00732421875
-185.85205078125
-188.5986328125
-187.68310546875
-177.6123046875
-172.119140625
-173.9501953125
-180.35888671875
-162.04833984375
-132.75146484375
-110.77880859375
-108.0322265625
-103.45458984375
-90.63720703125
-85.14404296875
-81.48193359375
-82.3974609375
-82.3974609375
-64.0869140625
-40.283203125
-5.4931640625
8.23974609375
2.74658203125
5.4931640625
10.07080078125
19.22607421875
21.97265625
32.04345703125
43.9453125
54.01611328125
54.01611328125
59.50927734375
61.34033203125
54.931640625
46.69189453125
39.36767578125
40.283203125
43.02978515625
52.18505859375
56.7626953125
65.00244140625
75.98876953125
76.904296875
78.7353515625
66.83349609375
65.00244140625
62.255859375
67.7490234375
71.4111328125
72.32666015625
75.0732421875
81.48193359375
83.31298828125
97.96142578125
87.890625
75.98876953125
75.98876953125
86.0595703125
96.13037109375
103.45458984375
112.60986328125
117.1875
115.3564453125
107.11669921875
107.11669921875
115.3564453125
119.93408203125
120.849609375
122.6806640625
133.6669921875
149.23095703125
150.146484375
145.56884765625
146.484375
141.90673828125
143.73779296875
150.146484375
152.89306640625
161.1328125
175.78125
184.02099609375
188.5986328125
185.85205078125
184.02099609375
182.18994140625
182.18994140625
180.35888671875
177.6123046875
186.767578125
203.2470703125
214.2333984375
213.31787109375
211.48681640625
210.5712890625
204.16259765625
203.2470703125
197.75390625
195.9228515625
204.16259765625
216.97998046875
227.05078125
227.96630859375
219.7265625
209.65576171875
198.66943359375
195.9228515625
192.2607421875
184.9365234375
190.4296875
199.5849609375
195.9228515625
189.51416015625
179.443359375
175.78125
160.21728515625
150.146484375
142.822265625
138.24462890625
137.3291015625
130.0048828125
133.6669921875
129.08935546875
116.27197265625
100.7080078125
90.63720703125
87.890625
74.15771484375
69.580078125
66.83349609375
60.4248046875
57.67822265625
55.84716796875
48.52294921875
41.19873046875
35.70556640625
34.7900390625
31.1279296875
23.8037109375
30.21240234375
38.4521484375
36.62109375
23.8037109375
24.71923828125
27.4658203125
20.1416015625
8.23974609375
10.07080078125
-1.8310546875
8.23974609375
19.22607421875
30.21240234375
30.21240234375
22.88818359375
10.986328125
2.74658203125
-1.8310546875
-7.32421875
-2.74658203125
6.40869140625
10.07080078125
21.05712890625
19.22607421875
17.39501953125
14.6484375
14.6484375
19.22607421875
11.90185546875
-0.91552734375
6.40869140625
16.4794921875
30.21240234375
28.38134765625
29.296875
24.71923828125
23.8037109375
21.97265625
18.310546875
16.4794921875
21.05712890625
30.21240234375
32.958984375
27.4658203125
18.310546875
18.310546875
18.310546875
18.310546875
21.05712890625
13.73291015625
18.310546875
28.38134765625
36.62109375
30.21240234375
17.39501953125
8.23974609375
9.1552734375
13.73291015625
5.4931640625
6.40869140625
9.1552734375
22.88818359375
24.71923828125
15.56396484375
14.6484375
13.73291015625
2.74658203125
2.74658203125
-0.91552734375
-3.662109375
5.4931640625
6.40869140625
13.73291015625
12.8173828125
8.23974609375
4.57763671875
-0.91552734375
0.91552734375
-6.40869140625
-15.56396484375
-23.8037109375
-21.97265625
-9.1552734375
0.91552734375
-2.74658203125
1.8310546875
-1.8310546875
-7.32421875
-6.40869140625
-12.8173828125
-9.1552734375
2.74658203125
7.32421875
1.8310546875
0
-3.662109375
-10.07080078125
-15.56396484375
-11.90185546875
-21.97265625
-17.39501953125
-5.4931640625
7.32421875
8.23974609375
-10.07080078125
-8.23974609375
-4.57763671875
-13.73291015625
-25.634765625
-22.88818359375
-21.97265625
-12.8173828125
-2.74658203125
-1.8310546875
-3.662109375
-13.73291015625
-14.6484375
-16.4794921875
-21.05712890625
-19.22607421875
-10.07080078125
4.57763671875
5.4931640625
-5.4931640625
-11.90185546875
-15.56396484375
-16.4794921875
-16.4794921875
-29.296875
-28.38134765625
-23.8037109375
-13.73291015625
-1.8310546875
-2.74658203125
-10.986328125
-9.1552734375
-11.90185546875
-12.8173828125
-22.88818359375
-22.88818359375
-3.662109375
6.40869140625
-6.40869140625
-7.32421875
-10.986328125
-16.4794921875
-15.56396484375
-22.88818359375
-26.55029296875
-28.38134765625
-14.6484375
-8.23974609375
-5.4931640625
-5.4931640625
-4.57763671875
-10.986328125
-14.6484375
-12.8173828125
-15.56396484375
-20.1416015625
-21.05712890625
-13.73291015625
0
-2.74658203125
-11.90185546875
-11.90185546875
-17.39501953125
-25.634765625
-21.97265625
-21.05712890625
-13.73291015625
8.23974609375
21.97265625
20.1416015625
25.634765625
41.19873046875
41.19873046875
35.70556640625
35.70556640625
40.283203125
43.9453125
47.607421875
55.84716796875
59.50927734375
50.35400390625
36.62109375
23.8037109375
30.21240234375
38.4521484375
60.4248046875
82.3974609375
92.46826171875
82.3974609375
68.66455078125
70.49560546875
65.00244140625
65.00244140625
64.0869140625
57.67822265625
43.02978515625
44.86083984375
44.86083984375
45.7763671875
40.283203125
39.36767578125
39.36767578125
35.70556640625
32.958984375
23.8037109375
15.56396484375
17.39501953125
17.39501953125
10.986328125
2.74658203125
-13.73291015625
-16.4794921875
-26.55029296875
-33.87451171875
-36.62109375
-35.70556640625
-35.70556640625
-32.04345703125
-21.97265625
-13.73291015625
-23.8037109375
-40.283203125
-38.4521484375
-31.1279296875
-39.36767578125
-52.18505859375
-39.36767578125
-31.1279296875
-36.62109375
-31.1279296875
-30.21240234375
-30.21240234375
-33.87451171875
-40.283203125
-41.19873046875
-41.19873046875
-38.4521484375
-26.55029296875
-15.56396484375
-21.97265625
-25.634765625
-29.296875
-31.1279296875
-27.4658203125
-21.05712890625
-1.8310546875
25.634765625
43.9453125
68.66455078125
65.91796875
49.4384765625
56.7626953125
64.0869140625
50.35400390625
55.84716796875
61.34033203125
86.97509765625
110.77880859375
132.75146484375
164.794921875
148.3154296875
135.498046875
76.904296875
-76.904296875
-272.8271484375
-475.15869140625
-698.54736328125
-843.20068359375
-918.27392578125
-1002.50244140625
-1027.2216796875
-1005.2490234375
-964.05029296875
-918.27392578125
-846.86279296875
-745.2392578125
-637.20703125
-544.73876953125
-473.32763671875
-439.453125
-404.6630859375
-363.46435546875
-340.576171875
-321.35009765625
-299.37744140625
-282.89794921875
-258.1787109375
-227.05078125
-198.66943359375
-191.34521484375
-193.17626953125
-194.091796875
-205.99365234375
-205.078125
-215.14892578125
-220.64208984375
-204.16259765625
-186.767578125
-174.86572265625
-164.794921875
-166.6259765625
-154.72412109375
-155.6396484375
-162.04833984375
-153.80859375
-143.73779296875
-115.3564453125
-97.96142578125
-88.80615234375
-79.65087890625
-74.15771484375
-76.904296875
-69.580078125
-56.7626953125
-38.4521484375
-24.71923828125
-10.986328125
5.4931640625
14.6484375
18.310546875
26.55029296875
34.7900390625
48.52294921875
53.1005859375
47.607421875
41.19873046875
49.4384765625
57.67822265625
65.91796875
69.580078125
62.255859375
65.91796875
62.255859375
58.59375
52.18505859375
54.931640625
59.50927734375
75.0732421875
91.552734375
88.80615234375
78.7353515625
77.81982421875
70.49560546875
72.32666015625
74.15771484375
70.49560546875
80.56640625
88.80615234375
98.876953125
99.79248046875
97.96142578125
102.5390625
98.876953125
95.21484375
91.552734375
92.46826171875
98.876953125
116.27197265625
134.58251953125
130.92041015625
125.42724609375
126.3427734375
119.93408203125
113.525390625
116.27197265625
112.60986328125
125.42724609375
146.484375
159.3017578125
160.21728515625
154.72412109375
153.80859375
162.04833984375
162.9638671875
158.38623046875
162.9638671875
173.03466796875
182.18994140625
196.83837890625
205.99365234375
205.99365234375
202.33154296875
204.16259765625
199.5849609375
191.34521484375
185.85205078125
192.2607421875
200.50048828125
209.65576171875
221.5576171875
218.81103515625
212.40234375
209.65576171875
210.5712890625
205.99365234375
199.5849609375
204.16259765625
213.31787109375
220.64208984375
214.2333984375
206.9091796875
202.33154296875
192.2607421875
185.85205078125
167.54150390625
174.86572265625
183.10546875
178.52783203125
179.443359375
183.10546875
175.78125
158.38623046875
142.822265625
135.498046875
121.76513671875
117.1875
115.3564453125
119.0185546875
117.1875
107.11669921875
95.21484375
86.0595703125
75.98876953125
69.580078125
54.931640625
47.607421875
45.7763671875
54.931640625
62.255859375
62.255859375
49.4384765625
39.36767578125
33.87451171875
30.21240234375
12.8173828125
13.73291015625
21.05712890625
32.04345703125
34.7900390625
27.4658203125
15.56396484375
11.90185546875
10.07080078125
-2.74658203125
-10.07080078125
-10.07080078125
1.8310546875
11.90185546875
22.88818359375
24.71923828125
21.97265625
19.22607421875
13.73291015625
8.23974609375
-2.74658203125
3.662109375
16.4794921875
21.05712890625
36.62109375
32.04345703125
24.71923828125
21.97265625
19.22607421875
13.73291015625
10.07080078125
2.74658203125
8.23974609375
32.04345703125
40.283203125
40.283203125
36.62109375
26.55029296875
14.6484375
19.22607421875
13.73291015625
13.73291015625
14.6484375
24.71923828125
34.7900390625
34.7900390625
31.1279296875
26.55029296875
21.05712890625
15.56396484375
10.986328125
12.8173828125
21.97265625
32.958984375
38.4521484375
35.70556640625
28.38134765625
21.97265625
15.56396484375
10.986328125
3.662109375
0.91552734375
9.1552734375
22.88818359375
28.38134765625
28.38134765625
16.4794921875
11.90185546875
7.32421875
9.1552734375
2.74658203125
-2.74658203125
2.74658203125
4.57763671875
12.8173828125
3.662109375
8.23974609375
0
-7.32421875
-11.90185546875
-18.310546875
-20.1416015625
-15.56396484375
6.40869140625
20.1416015625
21.05712890625
16.4794921875
13.73291015625
8.23974609375
-7.32421875
-20.1416015625
-19.22607421875
-11.90185546875
1.8310546875
13.73291015625
9.1552734375
9.1552734375
7.32421875
1.8310546875
-3.662109375
-11.90185546875
-16.4794921875
-10.07080078125
3.662109375
9.1552734375
0
-1.8310546875
-10.986328125
-15.56396484375
-13.73291015625
-20.1416015625
-23.8037109375
-19.22607421875
-5.4931640625
-0.91552734375
5.4931640625
15.56396484375
6.40869140625
-6.40869140625
-11.90185546875
-18.310546875
-21.05712890625
-22.88818359375
-8.23974609375
2.74658203125
2.74658203125
-9.1552734375
-11.90185546875
-19.22607421875
-19.22607421875
-24.71923828125
-26.55029296875
-18.310546875
-6.40869140625
2.74658203125
2.74658203125
-2.74658203125
-7.32421875
-9.1552734375
-14.6484375
-3.662109375
-5.4931640625
-5.4931640625
-3.662109375
4.57763671875
1.8310546875
-1.8310546875
-3.662109375
-11.90185546875
-15.56396484375
-19.22607421875
-16.4794921875
-12.8173828125
-5.4931640625
-2.74658203125
-0.91552734375
2.74658203125
7.32421875
2.74658203125
10.07080078125
16.4794921875
24.71923828125
41.19873046875
56.7626953125
59.50927734375
58.59375
54.931640625
47.607421875
46.69189453125
48.52294921875
35.70556640625
33.87451171875
41.19873046875
51.26953125
67.7490234375
90.63720703125
105.28564453125
95.21484375
80.56640625
65.91796875
59.50927734375
53.1005859375
65.00244140625
80.56640625
87.890625
81.48193359375
70.49560546875
53.1005859375
44.86083984375
35.70556640625
31.1279296875
34.7900390625
40.283203125
33.87451171875
29.296875
22.88818359375
18.310546875
9.1552734375
-3.662109375
-16.4794921875
-31.1279296875
-28.38134765625
-20.1416015625
-7.32421875
-5.4931640625
-9.1552734375
-16.4794921875
-22.88818359375
-32.04345703125
-43.02978515625
-40.283203125
-41.19873046875
-38.4521484375
-27.4658203125
-24.71923828125
-25.634765625
-7.32421875
-10.07080078125
-26.55029296875
-37.53662109375
-43.9453125
-41.19873046875
-32.04345703125
-28.38134765625
-18.310546875
-21.05712890625
-24.71923828125
-28.38134765625
-30.21240234375
-35.70556640625
-40.283203125
-36.62109375
-28.38134765625
-13.73291015625
5.4931640625
24.71923828125
44.86083984375
50.35400390625
54.01611328125
52.18505859375
46.69189453125
44.86083984375
56.7626953125
69.580078125
79.65087890625
98.876953125
107.11669921875
107.11669921875
129.08935546875
135.498046875
128.173828125
106.201171875
17.39501953125
-140.07568359375
-312.19482421875
-503.5400390625
-726.9287109375
-841.36962890625
-933.837890625
-1024.47509765625
-1025.390625
-989.68505859375
-937.5
-871.58203125
-773.62060546875
-671.08154296875
-584.1064453125
-509.94873046875
-459.5947265625
-428.466796875
-400.08544921875
-355.224609375
-321.35009765625
-297.54638671875
-269.1650390625
-240.78369140625
-225.2197265625
-215.14892578125
-203.2470703125
-207.82470703125
-218.81103515625
-214.2333984375
-204.16259765625
-192.2607421875
-179.443359375
-182.18994140625
-179.443359375
-174.86572265625
-177.6123046875
-181.2744140625
-175.78125
-162.04833984375
-149.23095703125
-138.24462890625
-126.3427734375
-111.6943359375
-111.6943359375
-95.21484375
-86.97509765625
-86.97509765625
-81.48193359375
-68.66455078125
-53.1005859375
-22.88818359375
-1.8310546875
1.8310546875
3.662109375
5.4931640625
8.23974609375
14.6484375
12.8173828125
29.296875
51.26953125
57.67822265625
71.4111328125
71.4111328125
63.17138671875
59.50927734375
58.59375
57.67822265625
52.18505859375
46.69189453125
57.67822265625
87.890625
78.7353515625
82.3974609375
90.63720703125
82.3974609375
78.7353515625
70.49560546875
61.34033203125
77.81982421875
86.97509765625
91.552734375
108.0322265625
105.28564453125
99.79248046875
96.13037109375
91.552734375
86.0595703125
84.228515625
96.13037109375
102.5390625
106.201171875
111.6943359375
112.60986328125
115.3564453125
110.77880859375
108.94775390625
106.201171875
105.28564453125
103.45458984375
114.44091796875
133.6669921875
151.9775390625
156.55517578125
149.23095703125
148.3154296875
146.484375
140.07568359375
141.90673828125
158.38623046875
166.6259765625
170.2880859375
184.02099609375
192.2607421875
185.85205078125
175.78125
184.02099609375
178.52783203125
176.69677734375
180.35888671875
187.68310546875
203.2470703125
216.97998046875
216.97998046875
206.9091796875
204.16259765625
206.9091796875
209.65576171875
202.33154296875
208.740234375
211.48681640625
215.14892578125
226.13525390625
228.8818359375
219.7265625
209.65576171875
195.9228515625
190.4296875
193.17626953125
195.9228515625
203.2470703125
214.2333984375
211.48681640625
199.5849609375
184.9365234375
170.2880859375
161.1328125
151.06201171875
138.24462890625
139.16015625
140.07568359375
134.58251953125
143.73779296875
139.16015625
130.0048828125
104.3701171875
86.97509765625
82.3974609375
72.32666015625
72.32666015625
70.49560546875
82.3974609375
86.97509765625
75.0732421875
56.7626953125
53.1005859375
42.1142578125
32.04345703125
17.39501953125
13.73291015625
26.55029296875
33.87451171875
35.70556640625
38.4521484375
36.62109375
33.87451171875
25.634765625
19.22607421875
10.986328125
12.8173828125
25.634765625
31.1279296875
29.296875
27.4658203125
22.88818359375
16.4794921875
10.986328125
9.1552734375
-3.662109375
-3.662109375
4.57763671875
13.73291015625
27.4658203125
26.55029296875
27.4658203125
25.634765625
29.296875
14.6484375
0.91552734375
3.662109375
10.07080078125
28.38134765625
30.21240234375
29.296875
30.21240234375
20.1416015625
10.986328125
10.986328125
15.56396484375
13.73291015625
21.05712890625
33.87451171875
37.53662109375
34.7900390625
30.21240234375
26.55029296875
22.88818359375
12.8173828125
4.57763671875
8.23974609375
15.56396484375
30.21240234375
36.62109375
26.55029296875
22.88818359375
15.56396484375
13.73291015625
5.4931640625
-2.74658203125
1.8310546875
9.1552734375
16.4794921875
23.8037109375
28.38134765625
21.05712890625
14.6484375
1.8310546875
-0.91552734375
-12.8173828125
-13.73291015625
0.91552734375
22.88818359375
31.1279296875
21.97265625
10.07080078125
7.32421875
-1.8310546875
-4.57763671875
-17.39501953125
-17.39501953125
-4.57763671875
10.07080078125
21.05712890625
23.8037109375
23.8037109375
13.73291015625
3.662109375
-0.91552734375
-8.23974609375
-8.23974609375
-3.662109375
10.07080078125
21.05712890625
8.23974609375
2.74658203125
-5.4931640625
-11.90185546875
-6.40869140625
-5.4931640625
-13.73291015625
-13.73291015625
0.91552734375
10.07080078125
1.8310546875
-7.32421875
-3.662109375
-8.23974609375
-17.39501953125
-27.4658203125
-24.71923828125
-13.73291015625
-9.1552734375
0
5.4931640625
8.23974609375
-2.74658203125
-9.1552734375
-13.73291015625
-21.97265625
-20.1416015625
-18.310546875
-3.662109375
0.91552734375
-7.32421875
-2.74658203125
-1.8310546875
-19.22607421875
-29.296875
-23.8037109375
-14.6484375
-6.40869140625
2.74658203125
5.4931640625
2.74658203125
5.4931640625
2.74658203125
-7.32421875
-10.07080078125
-21.05712890625
-23.8037109375
-15.56396484375
-0.91552734375
7.32421875
13.73291015625
19.22607421875
24.71923828125
28.38134765625
36.62109375
30.21240234375
29.296875
43.9453125
59.50927734375
65.91796875
65.91796875
59.50927734375
51.26953125
43.9453125
34.7900390625
31.1279296875
47.607421875
66.83349609375
91.552734375
98.876953125
86.97509765625
78.7353515625
68.66455078125
58.59375
61.34033203125
65.00244140625
74.15771484375
68.66455078125
68.66455078125
71.4111328125
63.17138671875
54.01611328125
54.01611328125
47.607421875
34.7900390625
13.73291015625
8.23974609375
16.4794921875
24.71923828125
14.6484375
-2.74658203125
-17.39501953125
-26.55029296875
-31.1279296875
-30.21240234375
-21.05712890625
-11.90185546875
-15.56396484375
-16.4794921875
-19.22607421875
-25.634765625
-27.4658203125
-30.21240234375
-35.70556640625
-38.4521484375
-44.86083984375
-37.53662109375
-30.21240234375
-17.39501953125
-6.40869140625
-18.310546875
-21.05712890625
-24.71923828125
-27.4658203125
-34.7900390625
-46.69189453125
-49.4384765625
-44.86083984375
-25.634765625
-5.4931640625
-15.56396484375
-17.39501953125
-17.39501953125
-24.71923828125
-26.55029296875
-24.71923828125
-2.74658203125
21.05712890625
48.52294921875
74.15771484375
74.15771484375
67.7490234375
70.49560546875
79.65087890625
75.98876953125
72.32666015625
78.7353515625
104.3701171875
130.92041015625
147.39990234375
162.04833984375
155.6396484375
140.07568359375
97.0458984375
-27.4658203125
-238.95263671875
-423.88916015625
-630.79833984375
-800.1708984375
-869.7509765625
-969.54345703125
-1005.2490234375
-975.03662109375
-942.07763671875
-900.87890625
-840.4541015625
-746.15478515625
-628.96728515625
-524.59716796875
-463.2568359375
-420.22705078125
-382.6904296875
-343.32275390625
-316.7724609375
-314.02587890625
-301.20849609375
-282.89794921875
-251.77001953125
-216.97998046875
-192.2607421875
-190.4296875
-190.4296875
-188.5986328125
-193.17626953125
-197.75390625
-202.33154296875
-201.416015625
-180.35888671875
-165.71044921875
-155.6396484375
-156.55517578125
-152.89306640625
-150.146484375
-156.55517578125
-162.04833984375
-154.72412109375
-128.173828125
-108.0322265625
-87.890625
-65.00244140625
-57.67822265625
-59.50927734375
-61.34033203125
-57.67822265625
-42.1142578125
-28.38134765625
-18.310546875
-0.91552734375
12.8173828125
28.38134765625
40.283203125
38.4521484375
42.1142578125
44.86083984375
47.607421875
49.4384765625
54.931640625
56.7626953125
73.2421875
83.31298828125
82.3974609375
83.31298828125
80.56640625
65.00244140625
66.83349609375
64.0869140625
63.17138671875
72.32666015625
91.552734375
95.21484375
93.3837890625
88.80615234375
83.31298828125
84.228515625
85.14404296875
85.14404296875
85.14404296875
97.96142578125
110.77880859375
119.0185546875
113.525390625
119.93408203125
111.6943359375
109.86328125
101.62353515625
98.876953125
113.525390625
117.1875
132.75146484375
136.41357421875
137.3291015625
141.90673828125
145.56884765625
137.3291015625
133.6669921875
130.92041015625
138.24462890625
144.6533203125
165.71044921875
176.69677734375
175.78125
174.86572265625
167.54150390625
161.1328125
158.38623046875
164.794921875
174.86572265625
183.10546875
193.17626953125
211.48681640625
212.40234375
201.416015625
205.078125
203.2470703125
192.2607421875
190.4296875
201.416015625
211.48681640625
225.2197265625
238.037109375
234.375
229.79736328125
227.96630859375
230.712890625
220.64208984375
219.7265625
222.47314453125
221.5576171875
228.8818359375
234.375
231.62841796875
220.64208984375
206.9091796875
204.16259765625
198.66943359375
186.767578125
186.767578125
184.02099609375
186.767578125
187.68310546875
176.69677734375
163.87939453125
162.04833984375
155.6396484375
140.9912109375
131.8359375
129.08935546875
131.8359375
132.75146484375
129.08935546875
114.44091796875
109.86328125
94.29931640625
83.31298828125
72.32666015625
65.91796875
53.1005859375
53.1005859375
66.83349609375
77.81982421875
75.0732421875
65.00244140625
54.931640625
43.02978515625
34.7900390625
25.634765625
29.296875
39.36767578125
54.01611328125
52.18505859375
46.69189453125
43.02978515625
38.4521484375
31.1279296875
21.97265625
13.73291015625
21.05712890625
32.04345703125
34.7900390625
41.19873046875
39.36767578125
46.69189453125
32.04345703125
14.6484375
8.23974609375
4.57763671875
16.4794921875
24.71923828125
38.4521484375
43.9453125
45.7763671875
42.1142578125
30.21240234375
21.97265625
21.97265625
13.73291015625
22.88818359375
36.62109375
49.4384765625
61.34033203125
55.84716796875
46.69189453125
46.69189453125
37.53662109375
28.38134765625
22.88818359375
28.38134765625
32.958984375
43.02978515625
44.86083984375
34.7900390625
32.958984375
29.296875
30.21240234375
28.38134765625
25.634765625
27.4658203125
32.958984375
40.283203125
37.53662109375
28.38134765625
32.958984375
22.88818359375
21.05712890625
27.4658203125
18.310546875
22.88818359375
21.97265625
24.71923828125
29.296875
27.4658203125
22.88818359375
10.07080078125
4.57763671875
2.74658203125
7.32421875
18.310546875
25.634765625
31.1279296875
40.283203125
34.7900390625
25.634765625
14.6484375
3.662109375
6.40869140625
-2.74658203125
2.74658203125
11.90185546875
24.71923828125
28.38134765625
31.1279296875
26.55029296875
12.8173828125
2.74658203125
0
-7.32421875
-6.40869140625
5.4931640625
9.1552734375
16.4794921875
13.73291015625
3.662109375
-3.662109375
-3.662109375
-6.40869140625
-6.40869140625
4.57763671875
-0.91552734375
4.57763671875
4.57763671875
7.32421875
11.90185546875
14.6484375
9.1552734375
6.40869140625
0.91552734375
0
1.8310546875
5.4931640625
15.56396484375
17.39501953125
13.73291015625
10.07080078125
10.986328125
0
-7.32421875
-10.986328125
-3.662109375
10.07080078125
21.05712890625
15.56396484375
8.23974609375
6.40869140625
-0.91552734375
0
-1.8310546875
0
10.986328125
17.39501953125
21.97265625
21.05712890625
17.39501953125
11.90185546875
0.91552734375
-4.57763671875
-6.40869140625
-2.74658203125
3.662109375
12.8173828125
29.296875
41.19873046875
43.02978515625
49.4384765625
52.18505859375
53.1005859375
49.4384765625
54.931640625
65.91796875
65.91796875
75.98876953125
75.98876953125
68.66455078125
56.7626953125
46.69189453125
45.7763671875
53.1005859375
75.0732421875
97.0458984375
104.3701171875
94.29931640625
80.56640625
77.81982421875
81.48193359375
87.890625
90.63720703125
83.31298828125
85.14404296875
82.3974609375
75.0732421875
71.4111328125
74.15771484375
67.7490234375
61.34033203125
55.84716796875
33.87451171875
20.1416015625
17.39501953125
26.55029296875
28.38134765625
21.97265625
7.32421875
6.40869140625
1.8310546875
-5.4931640625
-14.6484375
-16.4794921875
-18.310546875
-15.56396484375
-10.07080078125
-0.91552734375
-7.32421875
-11.90185546875
-20.1416015625
-25.634765625
-26.55029296875
-33.87451171875
-23.8037109375
-13.73291015625
-4.57763671875
2.74658203125
2.74658203125
-0.91552734375
-2.74658203125
-9.1552734375
-20.1416015625
-25.634765625
-27.4658203125
-14.6484375
-3.662109375
-4.57763671875
-8.23974609375
-10.986328125
-11.90185546875
-10.986328125
-1.8310546875
9.1552734375
28.38134765625
51.26953125
79.65087890625
88.80615234375
82.3974609375
82.3974609375
86.0595703125
82.3974609375
88.80615234375
104.3701171875
119.0185546875
128.173828125
153.80859375
181.2744140625
171.20361328125
160.21728515625
89.7216796875
-76.904296875
-275.57373046875
-466.00341796875
-678.40576171875
-809.326171875
-882.568359375
-971.37451171875
-993.34716796875
-953.06396484375
-913.6962890625
-865.17333984375
-798.33984375
-705.87158203125
-599.67041015625
-516.357421875
-446.77734375
-404.6630859375
-369.873046875
-325.01220703125
-303.03955078125
-280.1513671875
-265.5029296875
-259.09423828125
-229.79736328125
-195.9228515625
-176.69677734375
-165.71044921875
-167.54150390625
-166.6259765625
-177.6123046875
-188.5986328125
-187.68310546875
-187.68310546875
-176.69677734375
-162.04833984375
-145.56884765625
-134.58251953125
-131.8359375
-127.25830078125
-130.92041015625
-127.25830078125
-122.6806640625
-113.525390625
-97.0458984375
-78.7353515625
-55.84716796875
-42.1142578125
-38.4521484375
-46.69189453125
-43.02978515625
-30.21240234375
-11.90185546875
0
18.310546875
25.634765625
44.86083984375
57.67822265625
56.7626953125
54.931640625
55.84716796875
64.0869140625
65.00244140625
60.4248046875
68.66455078125
75.0732421875
87.890625
87.890625
91.552734375
93.3837890625
90.63720703125
76.904296875
66.83349609375
65.91796875
75.98876953125
91.552734375
95.21484375
106.201171875
100.7080078125
98.876953125
97.0458984375
97.96142578125
101.62353515625
100.7080078125
112.60986328125
120.849609375
116.27197265625
124.51171875
133.6669921875
128.173828125
124.51171875
119.93408203125
116.27197265625
108.94775390625
119.93408203125
131.8359375
152.89306640625
158.38623046875
159.3017578125
161.1328125
151.06201171875
149.23095703125
150.146484375
149.23095703125
162.9638671875
173.9501953125
194.091796875
195.9228515625
193.17626953125
188.5986328125
182.18994140625
184.02099609375
183.10546875
183.10546875
188.5986328125
192.2607421875
209.65576171875
218.81103515625
210.5712890625
211.48681640625
204.16259765625
207.82470703125
207.82470703125
206.9091796875
220.64208984375
217.8955078125
236.2060546875
243.5302734375
248.10791015625
246.27685546875
245.361328125
236.2060546875
219.7265625
212.40234375
228.8818359375
237.12158203125
237.12158203125
240.78369140625
236.2060546875
227.96630859375
219.7265625
207.82470703125
199.5849609375
190.4296875
193.17626953125
197.75390625
205.99365234375
204.16259765625
191.34521484375
181.2744140625
173.03466796875
159.3017578125
141.90673828125
135.498046875
135.498046875
132.75146484375
139.16015625
144.6533203125
124.51171875
118.10302734375
100.7080078125
92.46826171875
86.0595703125
73.2421875
79.65087890625
85.14404296875
90.63720703125
98.876953125
88.80615234375
72.32666015625
65.91796875
55.84716796875
44.86083984375
39.36767578125
51.26953125
59.50927734375
70.49560546875
72.32666015625
59.50927734375
55.84716796875
48.52294921875
43.9453125
37.53662109375
31.1279296875
29.296875
38.4521484375
48.52294921875
58.59375
48.52294921875
35.70556640625
32.958984375
32.04345703125
36.62109375
36.62109375
34.7900390625
51.26953125
68.66455078125
70.49560546875
63.17138671875
67.7490234375
64.0869140625
53.1005859375
49.4384765625
50.35400390625
54.01611328125
58.59375
69.580078125
70.49560546875
70.49560546875
75.98876953125
71.4111328125
54.931640625
52.18505859375
45.7763671875
53.1005859375
58.59375
67.7490234375
71.4111328125
72.32666015625
63.17138671875
58.59375
61.34033203125
53.1005859375
43.02978515625
46.69189453125
56.7626953125
63.17138671875
75.98876953125
61.34033203125
58.59375
50.35400390625
43.02978515625
36.62109375
28.38134765625
33.87451171875
40.283203125
49.4384765625
62.255859375
60.4248046875
51.26953125
43.9453125
33.87451171875
35.70556640625
27.4658203125
35.70556640625
41.19873046875
57.67822265625
56.7626953125
45.7763671875
43.02978515625
30.21240234375
29.296875
30.21240234375
31.1279296875
36.62109375
39.36767578125
41.19873046875
45.7763671875
52.18505859375
46.69189453125
34.7900390625
31.1279296875
37.53662109375
32.958984375
23.8037109375
32.958984375
48.52294921875
47.607421875
39.36767578125
35.70556640625
27.4658203125
25.634765625
16.4794921875
12.8173828125
21.05712890625
25.634765625
38.4521484375
43.02978515625
38.4521484375
34.7900390625
37.53662109375
33.87451171875
41.19873046875
45.7763671875
60.4248046875
72.32666015625
89.7216796875
96.13037109375
94.29931640625
105.28564453125
97.0458984375
88.80615234375
88.80615234375
75.0732421875
81.48193359375
85.14404296875
95.21484375
116.27197265625
124.51171875
144.6533203125
134.58251953125
124.51171875
114.44091796875
106.201171875
112.60986328125
118.10302734375
133.6669921875
142.822265625
136.41357421875
126.3427734375
106.201171875
80.56640625
68.66455078125
65.00244140625
77.81982421875
75.98876953125
81.48193359375
86.0595703125
78.7353515625
71.4111328125
49.4384765625
34.7900390625
29.296875
26.55029296875
32.04345703125
32.958984375
35.70556640625
34.7900390625
37.53662109375
32.958984375
10.07080078125
3.662109375
3.662109375
-4.57763671875
2.74658203125
10.07080078125
19.22607421875
24.71923828125
18.310546875
12.8173828125
8.23974609375
5.4931640625
5.4931640625
10.07080078125
25.634765625
27.4658203125
32.958984375
36.62109375
38.4521484375
37.53662109375
25.634765625
29.296875
11.90185546875
6.40869140625
14.6484375
26.55029296875
47.607421875
68.66455078125
84.228515625
88.80615234375
102.5390625
109.86328125
107.11669921875
97.0458984375
109.86328125
117.1875
120.849609375
119.93408203125
126.3427734375
120.849609375
116.27197265625
132.75146484375
134.58251953125
117.1875
110.77880859375
44.86083984375
-114.44091796875
-301.20849609375
-490.72265625
-725.09765625
-848.69384765625
-932.92236328125
-992.431640625
-975.03662109375
-918.27392578125
-857.84912109375
-793.76220703125
-713.19580078125
-606.0791015625
-503.5400390625
-448.6083984375
-406.494140625
-386.3525390625
-343.32275390625
-302.1240234375
-271.91162109375
-243.5302734375
-213.31787109375
-197.75390625
-191.34521484375
-162.04833984375
-153.80859375
-164.794921875
-160.21728515625
-142.822265625
-141.90673828125
-129.08935546875
-120.849609375
-114.44091796875
-119.0185546875
-113.525390625
-113.525390625
-115.3564453125
-110.77880859375
-96.13037109375
-83.31298828125
-81.48193359375
-61.34033203125
-52.18505859375
-41.19873046875
-40.283203125
-41.19873046875
-31.1279296875
-16.4794921875
-14.6484375
2.74658203125
28.38134765625
57.67822265625
70.49560546875
77.81982421875
79.65087890625
81.48193359375
83.31298828125
87.890625
97.96142578125
102.5390625
121.76513671875
135.498046875
121.76513671875
125.42724609375
124.51171875
120.849609375
124.51171875
134.58251953125
140.9912109375
149.23095703125
156.55517578125
153.80859375
156.55517578125
156.55517578125
149.23095703125
147.39990234375
140.9912109375
132.75146484375
140.9912109375
158.38623046875
175.78125
174.86572265625
172.119140625
165.71044921875
159.3017578125
160.21728515625
161.1328125
160.21728515625
174.86572265625
179.443359375
195.9228515625
195.00732421875
195.00732421875
188.5986328125
193.17626953125
186.767578125
187.68310546875
184.9365234375
201.416015625
211.48681640625
216.97998046875
222.47314453125
212.40234375
206.9091796875
223.388671875
224.30419921875
220.64208984375
219.7265625
226.13525390625
238.037109375
251.77001953125
253.60107421875
250.8544921875
255.43212890625
244.44580078125
242.61474609375
247.1923828125
243.5302734375
245.361328125
253.60107421875
268.24951171875
275.57373046875
281.06689453125
285.64453125
278.3203125
274.658203125
277.40478515625
267.333984375
270.99609375
281.982421875
292.05322265625
298.4619140625
300.29296875
289.306640625
291.1376953125
286.56005859375
273.74267578125
267.333984375
275.57373046875
270.08056640625
280.1513671875
266.41845703125
256.34765625
255.43212890625
238.95263671875
221.5576171875
217.8955078125
205.078125
200.50048828125
205.078125
207.82470703125
209.65576171875
195.9228515625
195.9228515625
181.2744140625
165.71044921875
152.89306640625
139.16015625
144.6533203125
151.9775390625
163.87939453125
165.71044921875
152.89306640625
140.9912109375
130.92041015625
122.6806640625
118.10302734375
108.0322265625
111.6943359375
110.77880859375
122.6806640625
123.59619140625
115.3564453125
108.94775390625
101.62353515625
98.876953125
95.21484375
87.890625
101.62353515625
102.5390625
111.6943359375
119.0185546875
113.525390625
113.525390625
106.201171875
99.79248046875
88.80615234375
80.56640625
87.890625
96.13037109375
107.11669921875
113.525390625
109.86328125
100.7080078125
97.96142578125
99.79248046875
97.96142578125
88.80615234375
96.13037109375
110.77880859375
121.76513671875
124.51171875
123.59619140625
118.10302734375
115.3564453125
108.0322265625
97.96142578125
96.13037109375
108.94775390625
119.93408203125
130.92041015625
126.3427734375
119.93408203125
119.93408203125
110.77880859375
101.62353515625
95.21484375
86.97509765625
96.13037109375
105.28564453125
119.0185546875
121.76513671875
116.27197265625
108.94775390625
103.45458984375
93.3837890625
86.0595703125
81.48193359375
89.7216796875
100.7080078125
107.11669921875
108.94775390625
101.62353515625
91.552734375
84.228515625
82.3974609375
80.56640625
74.15771484375
81.48193359375
89.7216796875
100.7080078125
110.77880859375
97.0458984375
86.97509765625
84.228515625
75.98876953125
66.83349609375
63.17138671875
77.81982421875
87.890625
91.552734375
101.62353515625
88.80615234375
80.56640625
76.904296875
79.65087890625
81.48193359375
74.15771484375
85.14404296875
106.201171875
112.60986328125
134.58251953125
144.6533203125
144.6533203125
137.3291015625
131.8359375
132.75146484375
119.0185546875
126.3427734375
130.92041015625
136.41357421875
154.72412109375
159.3017578125
168.45703125
179.443359375
187.68310546875
184.02099609375
180.35888671875
182.18994140625
179.443359375
184.9365234375
195.00732421875
197.75390625
187.68310546875
177.6123046875
153.80859375
127.25830078125
114.44091796875
129.08935546875
140.07568359375
133.6669921875
130.92041015625
122.6806640625
117.1875
103.45458984375
88.80615234375
72.32666015625
55.84716796875
69.580078125
75.0732421875
84.228515625
76.904296875
61.34033203125
55.84716796875
47.607421875
33.87451171875
28.38134765625
36.62109375
42.1142578125
49.4384765625
60.4248046875
63.17138671875
61.34033203125
46.69189453125
45.7763671875
41.19873046875
34.7900390625
24.71923828125
36.62109375
53.1005859375
60.4248046875
59.50927734375
55.84716796875
65.00244140625
60.4248046875
54.931640625
47.607421875
46.69189453125
55.84716796875
56.7626953125
66.83349609375
66.83349609375
66.83349609375
73.2421875
86.0595703125
101.62353515625
117.1875
128.173828125
136.41357421875
138.24462890625
155.6396484375
162.9638671875
157.470703125
153.80859375
153.80859375
151.06201171875
160.21728515625
164.794921875
176.69677734375
183.10546875
176.69677734375
111.6943359375
-53.1005859375
-263.671875
-451.35498046875
-680.23681640625
-819.39697265625
-885.31494140625
-942.07763671875
-946.6552734375
-888.0615234375
-833.1298828125
-784.60693359375
-712.2802734375
-618.896484375
-526.42822265625
-470.5810546875
-421.142578125
-369.873046875
-323.18115234375
-276.4892578125
-248.10791015625
-237.12158203125
-218.81103515625
-198.66943359375
-182.18994140625
-169.37255859375
-154.72412109375
-141.90673828125
-128.173828125
-115.3564453125
-108.94775390625
-101.62353515625
-107.11669921875
-115.3564453125
-119.93408203125
-115.3564453125
-105.28564453125
-86.97509765625
-70.49560546875
-54.01611328125
-47.607421875
-58.59375
-55.84716796875
-46.69189453125
-33.87451171875
-32.04345703125
-28.38134765625
-9.1552734375
0
16.4794921875
28.38134765625
55.84716796875
66.83349609375
67.7490234375
74.15771484375
76.904296875
89.7216796875
107.11669921875
117.1875
132.75146484375
149.23095703125
151.9775390625
148.3154296875
145.56884765625
138.24462890625
138.24462890625
137.3291015625
143.73779296875
152.89306640625
172.119140625
179.443359375
179.443359375
177.6123046875
163.87939453125
160.21728515625
150.146484375
144.6533203125
157.470703125
168.45703125
178.52783203125
182.18994140625
173.9501953125
173.9501953125
172.119140625
178.52783203125
173.9501953125
169.37255859375
186.767578125
204.16259765625
212.40234375
220.64208984375
218.81103515625
213.31787109375
194.091796875
198.66943359375
195.9228515625
194.091796875
205.99365234375
215.14892578125
232.5439453125
236.2060546875
241.69921875
238.037109375
227.96630859375
226.13525390625
223.388671875
223.388671875
233.45947265625
249.93896484375
267.333984375
273.74267578125
265.5029296875
265.5029296875
264.58740234375
265.5029296875
253.60107421875
255.43212890625
270.08056640625
280.1513671875
296.630859375
291.1376953125
297.54638671875
300.29296875
292.96875
298.4619140625
292.05322265625
296.630859375
305.7861328125
308.53271484375
323.18115234375
324.0966796875
322.265625
323.18115234375
309.4482421875
290.22216796875
287.4755859375
281.982421875
281.06689453125
286.56005859375
292.05322265625
292.05322265625
281.982421875
273.74267578125
256.34765625
238.95263671875
229.79736328125
220.64208984375
221.5576171875
226.13525390625
232.5439453125
216.97998046875
201.416015625
196.83837890625
190.4296875
179.443359375
167.54150390625
160.21728515625
156.55517578125
163.87939453125
167.54150390625
164.794921875
155.6396484375
147.39990234375
125.42724609375
109.86328125
99.79248046875
97.0458984375
114.44091796875
125.42724609375
125.42724609375
130.92041015625
130.0048828125
118.10302734375
100.7080078125
105.28564453125
101.62353515625
94.29931640625
101.62353515625
109.86328125
109.86328125
107.11669921875
103.45458984375
103.45458984375
92.46826171875
94.29931640625
97.0458984375
97.0458984375
102.5390625
102.5390625
108.94775390625
105.28564453125
104.3701171875
111.6943359375
108.94775390625
97.0458984375
94.29931640625
96.13037109375
95.21484375
108.0322265625
113.525390625
110.77880859375
117.1875
123.59619140625
116.27197265625
104.3701171875
96.13037109375
90.63720703125
100.7080078125
114.44091796875
129.08935546875
132.75146484375
126.3427734375
118.10302734375
113.525390625
111.6943359375
109.86328125
97.96142578125
102.5390625
101.62353515625
110.77880859375
112.60986328125
111.6943359375
115.3564453125
103.45458984375
99.79248046875
95.21484375
89.7216796875
95.21484375
111.6943359375
117.1875
108.0322265625
98.876953125
90.63720703125
92.46826171875
89.7216796875
87.890625
81.48193359375
77.81982421875
80.56640625
98.876953125
105.28564453125
105.28564453125
99.79248046875
90.63720703125
71.4111328125
64.0869140625
64.0869140625
74.15771484375
87.890625
94.29931640625
95.21484375
91.552734375
89.7216796875
94.29931640625
88.80615234375
79.65087890625
83.31298828125
99.79248046875
108.0322265625
121.76513671875
130.0048828125
129.08935546875
122.6806640625
121.76513671875
130.92041015625
130.0048828125
125.42724609375
128.173828125
132.75146484375
128.173828125
126.3427734375
130.0048828125
140.07568359375
151.06201171875
166.6259765625
173.03466796875
168.45703125
180.35888671875
189.51416015625
186.767578125
179.443359375
180.35888671875
196.83837890625
188.5986328125
163.87939453125
136.41357421875
134.58251953125
142.822265625
136.41357421875
138.24462890625
148.3154296875
138.24462890625
123.59619140625
113.525390625
98.876953125
88.80615234375
75.98876953125
67.7490234375
69.580078125
77.81982421875
76.904296875
65.91796875
56.7626953125
54.931640625
54.931640625
43.02978515625
43.9453125
47.607421875
53.1005859375
60.4248046875
54.01611328125
43.02978515625
41.19873046875
39.36767578125
42.1142578125
32.04345703125
27.4658203125
44.86083984375
48.52294921875
64.0869140625
61.34033203125
54.931640625
45.7763671875
42.1142578125
45.7763671875
42.1142578125
40.283203125
45.7763671875
43.02978515625
50.35400390625
48.52294921875
43.9453125
39.36767578125
35.70556640625
46.69189453125
73.2421875
88.80615234375
109.86328125
130.92041015625
142.822265625
148.3154296875
151.06201171875
151.06201171875
145.56884765625
138.24462890625
146.484375
162.04833984375
188.5986328125
217.8955078125
239.8681640625
218.81103515625
186.767578125
109.86328125
-71.4111328125
-281.982421875
-465.087890625
-695.80078125
-812.98828125
-875.244140625
-942.9931640625
-941.162109375
-901.79443359375
-869.7509765625
-824.89013671875
-753.47900390625
-672.91259765625
-566.71142578125
-476.07421875
-418.39599609375
-366.2109375
-315.85693359375
-286.56005859375
-274.658203125
-256.34765625
-246.27685546875
-216.97998046875
-194.091796875
-170.2880859375
-156.55517578125
-130.92041015625
-119.0185546875
-127.25830078125
-127.25830078125
-127.25830078125
-133.6669921875
-131.8359375
-128.173828125
-117.1875
-99.79248046875
-78.7353515625
-67.7490234375
-62.255859375
-66.83349609375
-79.65087890625
-71.4111328125
-71.4111328125
-61.34033203125
-42.1142578125
-22.88818359375
-3.662109375
5.4931640625
8.23974609375
14.6484375
29.296875
43.9453125
55.84716796875
63.17138671875
86.0595703125
110.77880859375
119.0185546875
114.44091796875
119.0185546875
118.10302734375
117.1875
109.86328125
109.86328125
108.94775390625
108.94775390625
122.6806640625
140.9912109375
157.470703125
151.06201171875
148.3154296875
134.58251953125
124.51171875
122.6806640625
121.76513671875
130.92041015625
142.822265625
152.89306640625
162.9638671875
159.3017578125
151.06201171875
147.39990234375
139.16015625
139.16015625
136.41357421875
150.146484375
165.71044921875
182.18994140625
179.443359375
177.6123046875
180.35888671875
173.03466796875
169.37255859375
162.04833984375
162.9638671875
174.86572265625
195.9228515625
207.82470703125
216.064453125
202.33154296875
201.416015625
203.2470703125
207.82470703125
199.5849609375
198.66943359375
211.48681640625
221.5576171875
237.12158203125
246.27685546875
249.0234375
238.95263671875
238.037109375
239.8681640625
232.5439453125
241.69921875
247.1923828125
246.27685546875
271.91162109375
279.23583984375
275.57373046875
274.658203125
271.91162109375
268.24951171875
260.009765625
256.34765625
268.24951171875
277.40478515625
284.72900390625
289.306640625
284.72900390625
281.982421875
276.4892578125
266.41845703125
270.08056640625
263.671875
253.60107421875
254.5166015625
268.24951171875
266.41845703125
251.77001953125
241.69921875
234.375
227.96630859375
217.8955078125
207.82470703125
210.5712890625
212.40234375
216.97998046875
202.33154296875
191.34521484375
186.767578125
174.86572265625
168.45703125
150.146484375
140.9912109375
145.56884765625
149.23095703125
150.146484375
135.498046875
120.849609375
112.60986328125
104.3701171875
96.13037109375
81.48193359375
73.2421875
77.81982421875
81.48193359375
86.97509765625
100.7080078125
96.13037109375
78.7353515625
67.7490234375
60.4248046875
55.84716796875
50.35400390625
51.26953125
64.0869140625
71.4111328125
67.7490234375
60.4248046875
56.7626953125
58.59375
49.4384765625
43.02978515625
46.69189453125
56.7626953125
73.2421875
81.48193359375
75.0732421875
62.255859375
54.931640625
54.01611328125
50.35400390625
43.9453125
42.1142578125
64.0869140625
66.83349609375
77.81982421875
81.48193359375
83.31298828125
81.48193359375
65.91796875
59.50927734375
52.18505859375
53.1005859375
64.0869140625
80.56640625
86.97509765625
84.228515625
86.0595703125
82.3974609375
72.32666015625
74.15771484375
72.32666015625
55.84716796875
62.255859375
71.4111328125
83.31298828125
75.98876953125
67.7490234375
68.66455078125
60.4248046875
54.01611328125
54.931640625
48.52294921875
60.4248046875
72.32666015625
68.66455078125
66.83349609375
61.34033203125
56.7626953125
47.607421875
44.86083984375
41.19873046875
37.53662109375
37.53662109375
47.607421875
58.59375
60.4248046875
50.35400390625
46.69189453125
39.36767578125
32.958984375
32.958984375
27.4658203125
29.296875
37.53662109375
41.19873046875
50.35400390625
54.931640625
48.52294921875
32.04345703125
20.1416015625
14.6484375
13.73291015625
24.71923828125
37.53662109375
54.01611328125
47.607421875
40.283203125
36.62109375
40.283203125
40.283203125
34.7900390625
41.19873046875
56.7626953125
79.65087890625
99.79248046875
101.62353515625
92.46826171875
95.21484375
91.552734375
75.98876953125
69.580078125
66.83349609375
72.32666015625
86.0595703125
112.60986328125
130.92041015625
137.3291015625
139.16015625
137.3291015625
132.75146484375
109.86328125
98.876953125
106.201171875
127.25830078125
147.39990234375
138.24462890625
113.525390625
97.0458984375
75.98876953125
67.7490234375
54.931640625
65.91796875
65.00244140625
50.35400390625
60.4248046875
67.7490234375
54.931640625
37.53662109375
15.56396484375
4.57763671875
-5.4931640625
-7.32421875
0.91552734375
5.4931640625
9.1552734375
3.662109375
-4.57763671875
-8.23974609375
-17.39501953125
-19.22607421875
-23.8037109375
-21.97265625
-5.4931640625
-2.74658203125
5.4931640625
8.23974609375
-1.8310546875
-7.32421875
-10.07080078125
-23.8037109375
-17.39501953125
-11.90185546875
-8.23974609375
-5.4931640625
1.8310546875
-0.91552734375
-1.8310546875
-10.07080078125
-15.56396484375
-22.88818359375
-26.55029296875
-29.296875
-24.71923828125
-9.1552734375
3.662109375
6.40869140625
18.310546875
34.7900390625
42.1142578125
51.26953125
61.34033203125
63.17138671875
65.91796875
86.97509765625
105.28564453125
111.6943359375
116.27197265625
128.173828125
133.6669921875
138.24462890625
160.21728515625
177.6123046875
167.54150390625
158.38623046875
87.890625
-96.13037109375
-304.87060546875
-494.384765625
-726.01318359375
-845.03173828125
-927.42919921875
-1007.99560546875
-1016.2353515625
-967.71240234375
-917.3583984375
-862.4267578125
-791.93115234375
-705.87158203125
-599.67041015625
-530.09033203125
-484.31396484375
-446.77734375
-391.845703125
-344.23828125
-310.36376953125
-290.22216796875
-276.4892578125
-251.77001953125
-230.712890625
-218.81103515625
-205.078125
-200.50048828125
-189.51416015625
-170.2880859375
-158.38623046875
-166.6259765625
-168.45703125
-168.45703125
-167.54150390625
-162.04833984375
-152.89306640625
-147.39990234375
-133.6669921875
-117.1875
-106.201171875
-90.63720703125
-86.0595703125
-76.904296875
-70.49560546875
-74.15771484375
-69.580078125
-62.255859375
-47.607421875
-36.62109375
-17.39501953125
0
10.07080078125
18.310546875
21.05712890625
29.296875
32.958984375
36.62109375
50.35400390625
57.67822265625
76.904296875
89.7216796875
88.80615234375
90.63720703125
82.3974609375
71.4111328125
62.255859375
57.67822265625
69.580078125
79.65087890625
94.29931640625
103.45458984375
106.201171875
100.7080078125
96.13037109375
98.876953125
76.904296875
72.32666015625
87.890625
100.7080078125
110.77880859375
112.60986328125
111.6943359375
111.6943359375
114.44091796875
107.11669921875
104.3701171875
108.0322265625
113.525390625
128.173828125
144.6533203125
155.6396484375
147.39990234375
131.8359375
131.8359375
137.3291015625
132.75146484375
137.3291015625
148.3154296875
157.470703125
172.119140625
174.86572265625
176.69677734375
177.6123046875
181.2744140625
173.03466796875
165.71044921875
172.119140625
179.443359375
194.091796875
201.416015625
201.416015625
195.00732421875
205.078125
205.99365234375
205.99365234375
206.9091796875
207.82470703125
215.14892578125
227.96630859375
241.69921875
244.44580078125
245.361328125
245.361328125
240.78369140625
229.79736328125
223.388671875
225.2197265625
242.61474609375
254.5166015625
258.1787109375
248.10791015625
242.61474609375
241.69921875
229.79736328125
225.2197265625
220.64208984375
216.97998046875
218.81103515625
222.47314453125
226.13525390625
214.2333984375
199.5849609375
196.83837890625
186.767578125
176.69677734375
160.21728515625
148.3154296875
142.822265625
143.73779296875
147.39990234375
140.9912109375
131.8359375
117.1875
98.876953125
93.3837890625
82.3974609375
78.7353515625
84.228515625
90.63720703125
91.552734375
81.48193359375
69.580078125
62.255859375
52.18505859375
50.35400390625
35.70556640625
31.1279296875
31.1279296875
32.04345703125
39.36767578125
36.62109375
32.04345703125
32.04345703125
35.70556640625
24.71923828125
10.986328125
7.32421875
17.39501953125
27.4658203125
32.958984375
29.296875
29.296875
27.4658203125
17.39501953125
14.6484375
15.56396484375
12.8173828125
11.90185546875
23.8037109375
37.53662109375
40.283203125
38.4521484375
36.62109375
33.87451171875
32.958984375
12.8173828125
12.8173828125
29.296875
37.53662109375
44.86083984375
48.52294921875
54.931640625
43.02978515625
32.04345703125
27.4658203125
18.310546875
14.6484375
25.634765625
45.7763671875
58.59375
46.69189453125
41.19873046875
42.1142578125
32.04345703125
24.71923828125
21.97265625
18.310546875
25.634765625
39.36767578125
51.26953125
42.1142578125
29.296875
28.38134765625
22.88818359375
19.22607421875
12.8173828125
10.986328125
20.1416015625
30.21240234375
42.1142578125
40.283203125
33.87451171875
31.1279296875
26.55029296875
20.1416015625
3.662109375
-6.40869140625
6.40869140625
21.05712890625
35.70556640625
28.38134765625
23.8037109375
16.4794921875
4.57763671875
3.662109375
-9.1552734375
-12.8173828125
8.23974609375
17.39501953125
21.05712890625
21.97265625
15.56396484375
13.73291015625
7.32421875
0
-6.40869140625
-10.986328125
4.57763671875
11.90185546875
13.73291015625
15.56396484375
10.07080078125
6.40869140625
3.662109375
0
-15.56396484375
-19.22607421875
-6.40869140625
6.40869140625
15.56396484375
11.90185546875
3.662109375
-6.40869140625
-9.1552734375
-10.986328125
-13.73291015625
-9.1552734375
7.32421875
25.634765625
39.36767578125
49.4384765625
55.84716796875
52.18505859375
48.52294921875
48.52294921875
53.1005859375
46.69189453125
43.02978515625
43.9453125
58.59375
58.59375
54.01611328125
58.59375
73.2421875
87.890625
86.97509765625
98.876953125
104.3701171875
103.45458984375
101.62353515625
93.3837890625
92.46826171875
99.79248046875
94.29931640625
76.904296875
62.255859375
51.26953125
43.9453125
45.7763671875
51.26953125
59.50927734375
42.1142578125
30.21240234375
22.88818359375
22.88818359375
13.73291015625
-0.91552734375
-3.662109375
-5.4931640625
-1.8310546875
-10.986328125
-18.310546875
-21.05712890625
-21.97265625
-28.38134765625
-45.7763671875
-39.36767578125
-29.296875
-25.634765625
-18.310546875
-17.39501953125
-26.55029296875
-29.296875
-38.4521484375
-41.19873046875
-45.7763671875
-41.19873046875
-37.53662109375
-21.05712890625
-16.4794921875
-19.22607421875
-20.1416015625
-26.55029296875
-28.38134765625
-35.70556640625
-39.36767578125
-41.19873046875
-31.1279296875
-27.4658203125
-20.1416015625
-14.6484375
-20.1416015625
-22.88818359375
-21.97265625
-21.97265625
-10.986328125
6.40869140625
30.21240234375
63.17138671875
75.0732421875
67.7490234375
68.66455078125
75.0732421875
76.904296875
73.2421875
76.904296875
95.21484375
119.93408203125
143.73779296875
173.03466796875
160.21728515625
140.07568359375
72.32666015625
-85.14404296875
-295.71533203125
-482.48291015625
-693.9697265625
-833.1298828125
-897.216796875
-971.37451171875
-1007.99560546875
-990.6005859375
-958.55712890625
-911.865234375
-836.7919921875
-756.2255859375
-649.10888671875
-549.31640625
-481.5673828125
-424.8046875
-392.76123046875
-352.47802734375
-323.18115234375
-313.1103515625
-295.71533203125
-281.982421875
-251.77001953125
-217.8955078125
-193.17626953125
-182.18994140625
-179.443359375
-187.68310546875
-182.18994140625
-181.2744140625
-177.6123046875
-180.35888671875
-181.2744140625
-173.03466796875
-156.55517578125
-146.484375
-143.73779296875
-139.16015625
-145.56884765625
-149.23095703125
-147.39990234375
-128.173828125
-110.77880859375
-91.552734375
-74.15771484375
-61.34033203125
-58.59375
-50.35400390625
-45.7763671875
-27.4658203125
-10.986328125
0.91552734375
-0.91552734375
10.07080078125
35.70556640625
50.35400390625
48.52294921875
53.1005859375
60.4248046875
57.67822265625
47.607421875
41.19873046875
52.18505859375
64.0869140625
69.580078125
77.81982421875
75.98876953125
76.904296875
73.2421875
68.66455078125
59.50927734375
54.931640625
61.34033203125
72.32666015625
87.890625
100.7080078125
98.876953125
91.552734375
86.97509765625
79.65087890625
80.56640625
82.3974609375
86.0595703125
97.96142578125
107.11669921875
121.76513671875
124.51171875
119.93408203125
111.6943359375
104.3701171875
102.5390625
100.7080078125
107.11669921875
119.93408203125
135.498046875
146.484375
147.39990234375
144.6533203125
142.822265625
142.822265625
141.90673828125
139.16015625
147.39990234375
151.9775390625
161.1328125
173.03466796875
175.78125
171.20361328125
176.69677734375
177.6123046875
172.119140625
173.03466796875
184.9365234375
194.091796875
208.740234375
217.8955078125
221.5576171875
225.2197265625
219.7265625
222.47314453125
215.14892578125
206.9091796875
