ECG
-88.80615234375
-87.890625
-89.7216796875
-86.0595703125
-87.890625
-95.21484375
-97.0458984375
-91.552734375
-93.3837890625
-82.3974609375
-80.56640625
-91.552734375
-86.97509765625
-93.3837890625
-88.80615234375
-88.80615234375
-86.97509765625
-84.228515625
-88.80615234375
-84.228515625
-77.81982421875
-77.81982421875
-86.0595703125
-94.29931640625
-90.63720703125
-95.21484375
-86.97509765625
-80.56640625
-86.97509765625
-84.228515625
-86.97509765625
-92.46826171875
-86.0595703125
-79.65087890625
-86.97509765625
-90.63720703125
-86.97509765625
-90.63720703125
-75.98876953125
-85.14404296875
-88.80615234375
-75.0732421875
-63.17138671875
-77.81982421875
-87.890625
-87.890625
-97.0458984375
-98.876953125
-90.63720703125
-93.3837890625
-99.79248046875
-94.29931640625
-82.3974609375
-75.98876953125
-91.552734375
-89.7216796875
-85.14404296875
-84.228515625
-84.228515625
-77.81982421875
-81.48193359375
-82.3974609375
-88.80615234375
-83.31298828125
-70.49560546875
-81.48193359375
-79.65087890625
-81.48193359375
-81.48193359375
-90.63720703125
-87.890625
-76.904296875
-75.0732421875
-86.97509765625
-88.80615234375
-87.890625
-83.31298828125
-85.14404296875
-84.228515625
-79.65087890625
-75.98876953125
-75.98876953125
-78.7353515625
-88.80615234375
-91.552734375
-87.890625
-86.0595703125
-75.0732421875
-77.81982421875
-74.15771484375
-60.4248046875
-51.26953125
-59.50927734375
-70.49560546875
-72.32666015625
-58.59375
-54.01611328125
-54.01611328125
-49.4384765625
-53.1005859375
-54.01611328125
-59.50927734375
-53.1005859375
-51.26953125
-62.255859375
-42.1142578125
-32.04345703125
-43.02978515625
-43.9453125
-49.4384765625
-40.283203125
-32.04345703125
-39.36767578125
-32.958984375
-26.55029296875
-27.4658203125
-31.1279296875
-45.7763671875
-42.1142578125
-50.35400390625
-70.49560546875
-65.00244140625
-50.35400390625
-41.19873046875
-45.7763671875
-54.01611328125
-50.35400390625
-43.02978515625
-46.69189453125
-56.7626953125
-64.0869140625
-71.4111328125
-82.3974609375
-75.98876953125
-88.80615234375
-90.63720703125
-94.29931640625
-97.0458984375
-84.228515625
-97.96142578125
-93.3837890625
-94.29931640625
-86.97509765625
-82.3974609375
-80.56640625
-89.7216796875
-88.80615234375
-81.48193359375
-86.97509765625
-81.48193359375
-89.7216796875
-87.890625
-82.3974609375
-81.48193359375
-85.14404296875
-91.552734375
-91.552734375
-86.97509765625
-84.228515625
-80.56640625
-77.81982421875
-79.65087890625
-66.83349609375
-57.67822265625
-49.4384765625
-57.67822265625
-48.52294921875
14.6484375
73.2421875
171.20361328125
299.37744140625
435.791015625
552.978515625
623.47412109375
634.46044921875
591.4306640625
525.5126953125
447.69287109375
344.23828125
259.09423828125
199.5849609375
105.28564453125
-8.23974609375
-101.62353515625
-140.07568359375
-161.1328125
-180.35888671875
-166.6259765625
-126.3427734375
-103.45458984375
-97.96142578125
-80.56640625
-65.91796875
-55.84716796875
-46.69189453125
-50.35400390625
-55.84716796875
-54.931640625
-48.52294921875
-48.52294921875
-47.607421875
-48.52294921875
-56.7626953125
-56.7626953125
-62.255859375
-64.0869140625
-62.255859375
-58.59375
-58.59375
-56.7626953125
-55.84716796875
-48.52294921875
-42.1142578125
-45.7763671875
-53.1005859375
-56.7626953125
-61.34033203125
-49.4384765625
-49.4384765625
-44.86083984375
-47.607421875
-59.50927734375
-51.26953125
-44.86083984375
-42.1142578125
-43.02978515625
-37.53662109375
-42.1142578125
-43.9453125
-41.19873046875
-38.4521484375
-43.9453125
-35.70556640625
-32.04345703125
-23.8037109375
-43.02978515625
-43.02978515625
-46.69189453125
-28.38134765625
-24.71923828125
-29.296875
-29.296875
-20.1416015625
-28.38134765625
-37.53662109375
-34.7900390625
-27.4658203125
-22.88818359375
-23.8037109375
-14.6484375
-20.1416015625
-22.88818359375
-16.4794921875
-9.1552734375
-18.310546875
-21.97265625
-18.310546875
-9.1552734375
-4.57763671875
-3.662109375
-0.91552734375
3.662109375
-7.32421875
-5.4931640625
-3.662109375
0
-2.74658203125
9.1552734375
6.40869140625
18.310546875
26.55029296875
18.310546875
29.296875
27.4658203125
33.87451171875
32.04345703125
35.70556640625
32.958984375
43.02978515625
51.26953125
55.84716796875
58.59375
65.91796875
72.32666015625
69.580078125
63.17138671875
71.4111328125
79.65087890625
94.29931640625
85.14404296875
97.96142578125
100.7080078125
112.60986328125
108.0322265625
113.525390625
110.77880859375
122.6806640625
125.42724609375
134.58251953125
135.498046875
139.16015625
138.24462890625
151.06201171875
143.73779296875
151.06201171875
152.89306640625
155.6396484375
152.89306640625
149.23095703125
157.470703125
160.21728515625
149.23095703125
147.39990234375
135.498046875
130.92041015625
125.42724609375
118.10302734375
118.10302734375
114.44091796875
99.79248046875
94.29931640625
93.3837890625
73.2421875
59.50927734375
58.59375
46.69189453125
34.7900390625
32.958984375
17.39501953125
18.310546875
8.23974609375
10.986328125
-7.32421875
-20.1416015625
-12.8173828125
-21.05712890625
-30.21240234375
-30.21240234375
-36.62109375
-38.4521484375
-37.53662109375
-43.9453125
-39.36767578125
-52.18505859375
-55.84716796875
-54.01611328125
-59.50927734375
-54.01611328125
-54.01611328125
-50.35400390625
-43.02978515625
-55.84716796875
-50.35400390625
-49.4384765625
-56.7626953125
-50.35400390625
-54.931640625
-68.66455078125
-60.4248046875
-53.1005859375
-50.35400390625
-59.50927734375
-58.59375
-55.84716796875
-56.7626953125
-61.34033203125
-55.84716796875
-55.84716796875
-50.35400390625
-54.931640625
-58.59375
-60.4248046875
-56.7626953125
-62.255859375
-65.00244140625
-62.255859375
-60.4248046875
-54.931640625
-59.50927734375
-58.59375
-53.1005859375
-49.4384765625
-49.4384765625
-54.931640625
-56.7626953125
-60.4248046875
-59.50927734375
-52.18505859375
-55.84716796875
-60.4248046875
-58.59375
-58.59375
-44.86083984375
-63.17138671875
-65.91796875
-63.17138671875
-63.17138671875
-61.34033203125
-58.59375
-56.7626953125
-64.0869140625
-64.0869140625
-67.7490234375
-57.67822265625
-66.83349609375
-72.32666015625
-67.7490234375
-60.4248046875
-63.17138671875
-55.84716796875
-57.67822265625
-58.59375
-60.4248046875
-56.7626953125
-52.18505859375
-60.4248046875
-59.50927734375
-54.931640625
-49.4384765625
-53.1005859375
-62.255859375
-56.7626953125
-56.7626953125
-63.17138671875
-62.255859375
-66.83349609375
-62.255859375
-54.931640625
-55.84716796875
-57.67822265625
-58.59375
-56.7626953125
-61.34033203125
-71.4111328125
-68.66455078125
-70.49560546875
-65.91796875
-65.91796875
-62.255859375
-62.255859375
-70.49560546875
-68.66455078125
-65.91796875
-67.7490234375
-71.4111328125
-66.83349609375
-76.904296875
-77.81982421875
-68.66455078125
-66.83349609375
-64.0869140625
-58.59375
-64.0869140625
-66.83349609375
-53.1005859375
-70.49560546875
-85.14404296875
-77.81982421875
-70.49560546875
-69.580078125
-66.83349609375
-70.49560546875
-73.2421875
-72.32666015625
-70.49560546875
-75.0732421875
-69.580078125
-75.0732421875
-83.31298828125
-75.0732421875
-69.580078125
-68.66455078125
-69.580078125
-72.32666015625
-67.7490234375
-68.66455078125
-70.49560546875
-68.66455078125
-67.7490234375
-74.15771484375
-81.48193359375
-75.98876953125
-70.49560546875
-67.7490234375
-67.7490234375
-72.32666015625
-65.91796875
-75.98876953125
-70.49560546875
-80.56640625
-76.904296875
-69.580078125
-73.2421875
-74.15771484375
-87.890625
-81.48193359375
-79.65087890625
-68.66455078125
-68.66455078125
-74.15771484375
-80.56640625
-72.32666015625
-72.32666015625
-76.904296875
-65.91796875
-58.59375
-69.580078125
-75.0732421875
-70.49560546875
-81.48193359375
-73.2421875
-71.4111328125
-66.83349609375
-70.49560546875
-76.904296875
-73.2421875
-83.31298828125
-79.65087890625
-72.32666015625
-74.15771484375
-73.2421875
-60.4248046875
-64.0869140625
-68.66455078125
-65.91796875
-61.34033203125
-65.00244140625
-55.84716796875
-53.1005859375
-51.26953125
-50.35400390625
-40.283203125
-40.283203125
-43.02978515625
-51.26953125
-44.86083984375
-42.1142578125
-43.02978515625
-43.02978515625
-28.38134765625
-20.1416015625
-29.296875
-38.4521484375
-38.4521484375
-31.1279296875
-27.4658203125
-22.88818359375
-22.88818359375
-25.634765625
-21.05712890625
-20.1416015625
-32.958984375
-39.36767578125
-56.7626953125
-54.01611328125
-43.02978515625
-39.36767578125
-42.1142578125
-35.70556640625
-39.36767578125
-35.70556640625
-38.4521484375
-42.1142578125
-57.67822265625
-71.4111328125
-83.31298828125
-88.80615234375
-97.96142578125
-94.29931640625
-89.7216796875
-91.552734375
-94.29931640625
-85.14404296875
-80.56640625
-75.98876953125
-87.890625
-90.63720703125
-89.7216796875
-77.81982421875
-72.32666015625
-71.4111328125
-81.48193359375
-76.904296875
-77.81982421875
-73.2421875
-75.0732421875
-75.98876953125
-83.31298828125
-79.65087890625
-87.890625
-81.48193359375
-84.228515625
-87.890625
-86.0595703125
-72.32666015625
-61.34033203125
-62.255859375
-47.607421875
-50.35400390625
-35.70556640625
23.8037109375
87.890625
184.9365234375
319.51904296875
459.5947265625
577.69775390625
671.08154296875
707.70263671875
660.09521484375
581.35986328125
495.30029296875
383.60595703125
273.74267578125
183.10546875
77.81982421875
-24.71923828125
-123.59619140625
-173.03466796875
-196.83837890625
-208.740234375
-189.51416015625
-158.38623046875
-137.3291015625
-106.201171875
-97.96142578125
-84.228515625
-70.49560546875
-63.17138671875
-58.59375
-54.01611328125
-47.607421875
-44.86083984375
-48.52294921875
-50.35400390625
-53.1005859375
-58.59375
-52.18505859375
-54.931640625
-56.7626953125
-51.26953125
-48.52294921875
-41.19873046875
-45.7763671875
-48.52294921875
-52.18505859375
-50.35400390625
-50.35400390625
-48.52294921875
-39.36767578125
-43.02978515625
-40.283203125
-37.53662109375
-32.04345703125
-44.86083984375
-43.9453125
-38.4521484375
-31.1279296875
-29.296875
-40.283203125
-43.9453125
-32.04345703125
-17.39501953125
-29.296875
-33.87451171875
-28.38134765625
-31.1279296875
-31.1279296875
-32.958984375
-32.04345703125
-32.04345703125
-21.97265625
-28.38134765625
-21.05712890625
-26.55029296875
-26.55029296875
-21.97265625
-17.39501953125
-21.97265625
-11.90185546875
-18.310546875
-23.8037109375
-13.73291015625
-7.32421875
-7.32421875
-7.32421875
-9.1552734375
-13.73291015625
-7.32421875
-6.40869140625
-3.662109375
-2.74658203125
1.8310546875
0.91552734375
6.40869140625
12.8173828125
5.4931640625
10.07080078125
5.4931640625
8.23974609375
15.56396484375
21.97265625
26.55029296875
32.04345703125
32.04345703125
27.4658203125
29.296875
34.7900390625
29.296875
45.7763671875
62.255859375
59.50927734375
64.0869140625
69.580078125
64.0869140625
66.83349609375
69.580078125
76.904296875
83.31298828125
87.890625
92.46826171875
96.13037109375
103.45458984375
109.86328125
125.42724609375
133.6669921875
128.173828125
122.6806640625
131.8359375
135.498046875
143.73779296875
151.06201171875
160.21728515625
160.21728515625
155.6396484375
161.1328125
160.21728515625
164.794921875
162.9638671875
173.03466796875
169.37255859375
176.69677734375
165.71044921875
161.1328125
173.9501953125
171.20361328125
153.80859375
145.56884765625
138.24462890625
136.41357421875
133.6669921875
127.25830078125
106.201171875
104.3701171875
86.0595703125
65.91796875
67.7490234375
63.17138671875
46.69189453125
37.53662109375
32.04345703125
23.8037109375
10.986328125
8.23974609375
-6.40869140625
-0.91552734375
-10.986328125
-11.90185546875
-21.05712890625
-21.05712890625
-24.71923828125
-21.97265625
-26.55029296875
-42.1142578125
-40.283203125
-43.02978515625
-42.1142578125
-42.1142578125
-53.1005859375
-48.52294921875
-43.02978515625
-49.4384765625
-54.01611328125
-46.69189453125
-42.1142578125
-55.84716796875
-54.01611328125
-54.01611328125
-54.931640625
-54.01611328125
-54.931640625
-60.4248046875
-52.18505859375
-49.4384765625
-54.01611328125
-55.84716796875
-49.4384765625
-56.7626953125
-50.35400390625
-47.607421875
-56.7626953125
-54.01611328125
-48.52294921875
-49.4384765625
-55.84716796875
-55.84716796875
-52.18505859375
-53.1005859375
-57.67822265625
-49.4384765625
-52.18505859375
-54.01611328125
-55.84716796875
-51.26953125
-54.931640625
-51.26953125
-52.18505859375
-43.9453125
-56.7626953125
-45.7763671875
-45.7763671875
-48.52294921875
-47.607421875
-54.931640625
-55.84716796875
-57.67822265625
-56.7626953125
-59.50927734375
-48.52294921875
-58.59375
-56.7626953125
-38.4521484375
-41.19873046875
-54.01611328125
-53.1005859375
-56.7626953125
-56.7626953125
-51.26953125
-48.52294921875
-47.607421875
-45.7763671875
-44.86083984375
-46.69189453125
-51.26953125
-59.50927734375
-54.01611328125
-55.84716796875
-62.255859375
-60.4248046875
-49.4384765625
-60.4248046875
-60.4248046875
-59.50927734375
-55.84716796875
-53.1005859375
-58.59375
-61.34033203125
-52.18505859375
-56.7626953125
-57.67822265625
-61.34033203125
-68.66455078125
-66.83349609375
-63.17138671875
-64.0869140625
-54.01611328125
-48.52294921875
-54.931640625
-56.7626953125
-62.255859375
-64.0869140625
-62.255859375
-57.67822265625
-59.50927734375
-65.00244140625
-64.0869140625
-58.59375
-60.4248046875
-65.00244140625
-62.255859375
-51.26953125
-55.84716796875
-57.67822265625
-60.4248046875
-57.67822265625
-57.67822265625
-65.00244140625
-60.4248046875
-55.84716796875
-71.4111328125
-61.34033203125
-66.83349609375
-60.4248046875
-54.01611328125
-60.4248046875
-62.255859375
-56.7626953125
-56.7626953125
-52.18505859375
-60.4248046875
-57.67822265625
-53.1005859375
-56.7626953125
-59.50927734375
-60.4248046875
-68.66455078125
-73.2421875
-70.49560546875
-65.91796875
-68.66455078125
-61.34033203125
-55.84716796875
-47.607421875
-61.34033203125
-62.255859375
-61.34033203125
-65.91796875
-63.17138671875
-65.00244140625
-58.59375
-54.01611328125
-69.580078125
-59.50927734375
-65.00244140625
-61.34033203125
-60.4248046875
-70.49560546875
-66.83349609375
-59.50927734375
-66.83349609375
-58.59375
-55.84716796875
-60.4248046875
-59.50927734375
-63.17138671875
-60.4248046875
-65.00244140625
-65.00244140625
-64.0869140625
-64.0869140625
-61.34033203125
-65.91796875
-54.931640625
-57.67822265625
-52.18505859375
-43.9453125
-46.69189453125
-54.931640625
-52.18505859375
-44.86083984375
-36.62109375
-30.21240234375
-23.8037109375
-38.4521484375
-44.86083984375
-32.958984375
-32.958984375
-42.1142578125
-42.1142578125
-37.53662109375
-33.87451171875
-18.310546875
-17.39501953125
-17.39501953125
-19.22607421875
-26.55029296875
-26.55029296875
-24.71923828125
-21.05712890625
-17.39501953125
-14.6484375
-11.90185546875
-10.07080078125
-15.56396484375
-41.19873046875
-49.4384765625
-41.19873046875
-40.283203125
-26.55029296875
-26.55029296875
-32.04345703125
-36.62109375
-23.8037109375
-25.634765625
-42.1142578125
-47.607421875
-60.4248046875
-65.00244140625
-71.4111328125
-68.66455078125
-78.7353515625
-84.228515625
-75.98876953125
-70.49560546875
-77.81982421875
-83.31298828125
-90.63720703125
-86.0595703125
-83.31298828125
-86.0595703125
-76.904296875
-75.0732421875
-67.7490234375
-70.49560546875
-69.580078125
-78.7353515625
-79.65087890625
-76.904296875
-80.56640625
-76.904296875
-75.98876953125
-70.49560546875
-65.91796875
-65.00244140625
-75.98876953125
-88.80615234375
-63.17138671875
-61.34033203125
-54.01611328125
-43.02978515625
-40.283203125
-28.38134765625
11.90185546875
87.890625
164.794921875
276.4892578125
416.56494140625
531.92138671875
635.3759765625
692.138671875
677.490234375
599.67041015625
525.5126953125
431.21337890625
318.603515625
228.8818359375
152.89306640625
45.7763671875
-75.98876953125
-142.822265625
-164.794921875
-186.767578125
-185.85205078125
-158.38623046875
-124.51171875
-88.80615234375
-71.4111328125
-61.34033203125
-55.84716796875
-46.69189453125
-41.19873046875
-36.62109375
-30.21240234375
-47.607421875
-38.4521484375
-34.7900390625
-38.4521484375
-41.19873046875
-49.4384765625
-47.607421875
-48.52294921875
-39.36767578125
-27.4658203125
-43.02978515625
-34.7900390625
-36.62109375
-36.62109375
-38.4521484375
-34.7900390625
-34.7900390625
-30.21240234375
-32.04345703125
-37.53662109375
-37.53662109375
-28.38134765625
-19.22607421875
-30.21240234375
-26.55029296875
-27.4658203125
-26.55029296875
-23.8037109375
-23.8037109375
-19.22607421875
-20.1416015625
-11.90185546875
-19.22607421875
-16.4794921875
-19.22607421875
-27.4658203125
-18.310546875
-14.6484375
-7.32421875
-9.1552734375
-15.56396484375
-12.8173828125
-17.39501953125
-8.23974609375
-11.90185546875
-12.8173828125
-22.88818359375
-21.97265625
-10.986328125
-4.57763671875
-13.73291015625
-6.40869140625
-10.07080078125
0
-6.40869140625
-14.6484375
-3.662109375
0.91552734375
5.4931640625
6.40869140625
11.90185546875
14.6484375
10.07080078125
9.1552734375
10.986328125
12.8173828125
21.97265625
27.4658203125
17.39501953125
26.55029296875
32.958984375
31.1279296875
31.1279296875
30.21240234375
46.69189453125
43.9453125
43.9453125
46.69189453125
49.4384765625
60.4248046875
64.0869140625
69.580078125
76.904296875
75.98876953125
77.81982421875
70.49560546875
82.3974609375
92.46826171875
95.21484375
107.11669921875
99.79248046875
92.46826171875
108.0322265625
113.525390625
125.42724609375
125.42724609375
127.25830078125
135.498046875
142.822265625
141.90673828125
141.90673828125
148.3154296875
147.39990234375
151.06201171875
160.21728515625
155.6396484375
167.54150390625
168.45703125
170.2880859375
166.6259765625
170.2880859375
164.794921875
159.3017578125
159.3017578125
159.3017578125
144.6533203125
137.3291015625
125.42724609375
138.24462890625
132.75146484375
120.849609375
98.876953125
89.7216796875
77.81982421875
65.91796875
64.0869140625
52.18505859375
43.02978515625
36.62109375
25.634765625
25.634765625
22.88818359375
4.57763671875
1.8310546875
-4.57763671875
-12.8173828125
-18.310546875
-28.38134765625
-22.88818359375
-21.97265625
-21.05712890625
-32.958984375
-41.19873046875
-37.53662109375
-35.70556640625
-35.70556640625
-32.958984375
-41.19873046875
-32.958984375
-41.19873046875
-47.607421875
-48.52294921875
-46.69189453125
-54.01611328125
-53.1005859375
-61.34033203125
-54.931640625
-56.7626953125
-54.931640625
-49.4384765625
-43.9453125
-41.19873046875
-47.607421875
-56.7626953125
-54.01611328125
-44.86083984375
-51.26953125
-51.26953125
-62.255859375
-56.7626953125
-51.26953125
-48.52294921875
-58.59375
-49.4384765625
-49.4384765625
-43.9453125
-47.607421875
-51.26953125
-49.4384765625
-50.35400390625
-43.02978515625
-42.1142578125
-56.7626953125
-60.4248046875
-48.52294921875
-43.02978515625
-49.4384765625
-47.607421875
-44.86083984375
-43.9453125
-41.19873046875
-38.4521484375
-42.1142578125
-43.02978515625
-50.35400390625
-54.01611328125
-37.53662109375
-44.86083984375
-47.607421875
-40.283203125
-37.53662109375
-37.53662109375
-45.7763671875
-40.283203125
-46.69189453125
-47.607421875
-47.607421875
-44.86083984375
-40.283203125
-48.52294921875
-48.52294921875
-49.4384765625
-42.1142578125
-45.7763671875
-46.69189453125
-42.1142578125
-41.19873046875
-43.9453125
-40.283203125
-33.87451171875
-43.02978515625
-51.26953125
-53.1005859375
-43.02978515625
-47.607421875
-55.84716796875
-47.607421875
-45.7763671875
-43.9453125
-43.9453125
-45.7763671875
-47.607421875
-47.607421875
-48.52294921875
-45.7763671875
-48.52294921875
-51.26953125
-45.7763671875
-49.4384765625
-46.69189453125
-49.4384765625
-49.4384765625
-55.84716796875
-50.35400390625
-62.255859375
-59.50927734375
-52.18505859375
-59.50927734375
-54.931640625
-51.26953125
-44.86083984375
-44.86083984375
-54.931640625
-54.931640625
-46.69189453125
-54.01611328125
-60.4248046875
-56.7626953125
-46.69189453125
-50.35400390625
-45.7763671875
-57.67822265625
-54.931640625
-53.1005859375
-57.67822265625
-48.52294921875
-51.26953125
-55.84716796875
-50.35400390625
-41.19873046875
-43.02978515625
-53.1005859375
-42.1142578125
-53.1005859375
-58.59375
-56.7626953125
-65.00244140625
-58.59375
-43.02978515625
-48.52294921875
-43.02978515625
-44.86083984375
-58.59375
-62.255859375
-61.34033203125
-52.18505859375
-57.67822265625
-57.67822265625
-55.84716796875
-51.26953125
-57.67822265625
-56.7626953125
-52.18505859375
-58.59375
-67.7490234375
-64.0869140625
-59.50927734375
-58.59375
-63.17138671875
-65.91796875
-53.1005859375
-58.59375
-63.17138671875
-59.50927734375
-63.17138671875
-69.580078125
-79.65087890625
-64.0869140625
-58.59375
-49.4384765625
-54.931640625
-65.00244140625
-65.00244140625
-69.580078125
-72.32666015625
-70.49560546875
-73.2421875
-71.4111328125
-65.00244140625
-63.17138671875
-61.34033203125
-66.83349609375
-63.17138671875
-66.83349609375
-66.83349609375
-65.00244140625
-72.32666015625
-61.34033203125
-54.931640625
-64.0869140625
-58.59375
-61.34033203125
-68.66455078125
-64.0869140625
-67.7490234375
-70.49560546875
-71.4111328125
-64.0869140625
-65.00244140625
-51.26953125
-54.931640625
-63.17138671875
-50.35400390625
-35.70556640625
-41.19873046875
-49.4384765625
-52.18505859375
-39.36767578125
-32.958984375
-30.21240234375
-26.55029296875
-38.4521484375
-36.62109375
-39.36767578125
-33.87451171875
-39.36767578125
-31.1279296875
-29.296875
-8.23974609375
-2.74658203125
-18.310546875
-18.310546875
-30.21240234375
-28.38134765625
-10.986328125
-19.22607421875
-24.71923828125
-18.310546875
-17.39501953125
-22.88818359375
-31.1279296875
-41.19873046875
-51.26953125
-60.4248046875
-50.35400390625
-31.1279296875
-33.87451171875
-30.21240234375
-22.88818359375
-25.634765625
-21.97265625
-31.1279296875
-45.7763671875
-54.01611328125
-56.7626953125
-64.0869140625
-68.66455078125
-75.98876953125
-80.56640625
-74.15771484375
-70.49560546875
-78.7353515625
-71.4111328125
-71.4111328125
-78.7353515625
-71.4111328125
-68.66455078125
-69.580078125
-67.7490234375
-65.91796875
-70.49560546875
-64.0869140625
-63.17138671875
-67.7490234375
-68.66455078125
-65.00244140625
-62.255859375
-62.255859375
-64.0869140625
-59.50927734375
-66.83349609375
-79.65087890625
-77.81982421875
-71.4111328125
-48.52294921875
-39.36767578125
-33.87451171875
-44.86083984375
-34.7900390625
-7.32421875
50.35400390625
119.93408203125
216.064453125
356.14013671875
480.65185546875
573.1201171875
635.3759765625
634.46044921875
569.4580078125
503.5400390625
438.53759765625
337.82958984375
256.34765625
185.85205078125
81.48193359375
-33.87451171875
-107.11669921875
-133.6669921875
-137.3291015625
-146.484375
-130.0048828125
-95.21484375
-75.98876953125
-53.1005859375
-43.9453125
-44.86083984375
-40.283203125
-23.8037109375
-30.21240234375
-36.62109375
-44.86083984375
-34.7900390625
-41.19873046875
-40.283203125
-38.4521484375
-52.18505859375
-48.52294921875
-42.1142578125
-43.9453125
-41.19873046875
-43.9453125
-35.70556640625
-44.86083984375
-40.283203125
-34.7900390625
-39.36767578125
-36.62109375
-39.36767578125
-34.7900390625
-29.296875
-27.4658203125
-33.87451171875
-32.958984375
-31.1279296875
-26.55029296875
-23.8037109375
-28.38134765625
-25.634765625
-19.22607421875
-21.05712890625
-27.4658203125
-15.56396484375
-13.73291015625
-25.634765625
-21.97265625
-24.71923828125
-19.22607421875
-5.4931640625
-10.986328125
-13.73291015625
-6.40869140625
-12.8173828125
-13.73291015625
-9.1552734375
-18.310546875
-17.39501953125
-7.32421875
-9.1552734375
-22.88818359375
-18.310546875
-6.40869140625
-7.32421875
-1.8310546875
0.91552734375
-12.8173828125
-14.6484375
-7.32421875
10.986328125
5.4931640625
3.662109375
10.986328125
10.07080078125
9.1552734375
9.1552734375
10.07080078125
10.07080078125
10.986328125
20.1416015625
21.97265625
21.05712890625
26.55029296875
39.36767578125
29.296875
24.71923828125
25.634765625
37.53662109375
44.86083984375
44.86083984375
54.01611328125
56.7626953125
57.67822265625
50.35400390625
62.255859375
63.17138671875
65.91796875
72.32666015625
75.0732421875
83.31298828125
97.0458984375
97.0458984375
102.5390625
108.94775390625
110.77880859375
115.3564453125
121.76513671875
126.3427734375
117.1875
136.41357421875
146.484375
142.822265625
150.146484375
147.39990234375
153.80859375
147.39990234375
157.470703125
160.21728515625
163.87939453125
161.1328125
157.470703125
168.45703125
167.54150390625
161.1328125
153.80859375
155.6396484375
154.72412109375
141.90673828125
139.16015625
139.16015625
133.6669921875
125.42724609375
120.849609375
106.201171875
90.63720703125
84.228515625
83.31298828125
67.7490234375
50.35400390625
38.4521484375
38.4521484375
42.1142578125
22.88818359375
10.07080078125
6.40869140625
0.91552734375
-2.74658203125
-12.8173828125
-12.8173828125
-18.310546875
-15.56396484375
-21.97265625
-23.8037109375
-34.7900390625
-39.36767578125
-36.62109375
-30.21240234375
-45.7763671875
-45.7763671875
-48.52294921875
-50.35400390625
-39.36767578125
-53.1005859375
-49.4384765625
-49.4384765625
-57.67822265625
-63.17138671875
-59.50927734375
-56.7626953125
-53.1005859375
-62.255859375
-60.4248046875
-50.35400390625
-53.1005859375
-54.931640625
-55.84716796875
-56.7626953125
-55.84716796875
-55.84716796875
-49.4384765625
-49.4384765625
-55.84716796875
-51.26953125
-39.36767578125
-31.1279296875
-56.7626953125
-54.931640625
-51.26953125
-57.67822265625
-54.01611328125
-45.7763671875
-48.52294921875
-52.18505859375
-47.607421875
-54.931640625
-49.4384765625
-45.7763671875
-54.931640625
-50.35400390625
-52.18505859375
-45.7763671875
-39.36767578125
-48.52294921875
-52.18505859375
-43.9453125
-46.69189453125
-45.7763671875
-49.4384765625
-45.7763671875
-44.86083984375
-42.1142578125
-43.9453125
-45.7763671875
-41.19873046875
-43.02978515625
-44.86083984375
-37.53662109375
-34.7900390625
-45.7763671875
-46.69189453125
-45.7763671875
-48.52294921875
-44.86083984375
-37.53662109375
-32.04345703125
-45.7763671875
-45.7763671875
-44.86083984375
-51.26953125
-36.62109375
-28.38134765625
-43.9453125
-39.36767578125
-33.87451171875
-43.02978515625
-48.52294921875
-47.607421875
-44.86083984375
-49.4384765625
-54.01611328125
-44.86083984375
-48.52294921875
-49.4384765625
-54.01611328125
-58.59375
-60.4248046875
-50.35400390625
-53.1005859375
-48.52294921875
-49.4384765625
-51.26953125
-46.69189453125
-43.02978515625
-49.4384765625
-51.26953125
-54.931640625
-48.52294921875
-48.52294921875
-53.1005859375
-51.26953125
-54.01611328125
-44.86083984375
-42.1142578125
-46.69189453125
-49.4384765625
-41.19873046875
-37.53662109375
-46.69189453125
-54.931640625
-53.1005859375
-40.283203125
-43.9453125
-43.9453125
-44.86083984375
-50.35400390625
-52.18505859375
-55.84716796875
-54.01611328125
-53.1005859375
-59.50927734375
-49.4384765625
-44.86083984375
-57.67822265625
-50.35400390625
-44.86083984375
-60.4248046875
-61.34033203125
-60.4248046875
-66.83349609375
-55.84716796875
-58.59375
-55.84716796875
-59.50927734375
-55.84716796875
-59.50927734375
-57.67822265625
-54.01611328125
-54.931640625
-57.67822265625
-59.50927734375
-54.931640625
-43.02978515625
-51.26953125
-44.86083984375
-48.52294921875
-57.67822265625
-56.7626953125
-56.7626953125
-53.1005859375
-54.931640625
-46.69189453125
-42.1142578125
-41.19873046875
-46.69189453125
-50.35400390625
-46.69189453125
-56.7626953125
-62.255859375
-58.59375
-45.7763671875
-46.69189453125
-49.4384765625
-54.01611328125
-47.607421875
-49.4384765625
-53.1005859375
-53.1005859375
-52.18505859375
-54.931640625
-50.35400390625
-54.01611328125
-49.4384765625
-49.4384765625
-53.1005859375
-57.67822265625
-55.84716796875
-64.0869140625
-62.255859375
-59.50927734375
-55.84716796875
-54.01611328125
-50.35400390625
-50.35400390625
-50.35400390625
-43.02978515625
-43.9453125
-58.59375
-61.34033203125
-55.84716796875
-53.1005859375
-51.26953125
-61.34033203125
-48.52294921875
-46.69189453125
-54.01611328125
-50.35400390625
-46.69189453125
-46.69189453125
-51.26953125
-55.84716796875
-48.52294921875
-49.4384765625
-49.4384765625
-59.50927734375
-50.35400390625
-37.53662109375
-52.18505859375
-63.17138671875
-56.7626953125
-51.26953125
-54.931640625
-47.607421875
-44.86083984375
-51.26953125
-55.84716796875
-49.4384765625
-47.607421875
-48.52294921875
-47.607421875
-33.87451171875
-33.87451171875
-29.296875
-33.87451171875
-20.1416015625
-22.88818359375
-27.4658203125
-22.88818359375
-21.97265625
-25.634765625
-22.88818359375
-26.55029296875
-25.634765625
-22.88818359375
-21.05712890625
-8.23974609375
-0.91552734375
-17.39501953125
-23.8037109375
-18.310546875
-19.22607421875
-14.6484375
-7.32421875
-11.90185546875
-3.662109375
-4.57763671875
-16.4794921875
-17.39501953125
-35.70556640625
-43.9453125
-47.607421875
-41.19873046875
-16.4794921875
-14.6484375
-11.90185546875
-18.310546875
-17.39501953125
-18.310546875
-27.4658203125
-31.1279296875
-43.02978515625
-47.607421875
-62.255859375
-65.00244140625
-60.4248046875
-71.4111328125
-68.66455078125
-75.0732421875
-61.34033203125
-69.580078125
-71.4111328125
-60.4248046875
-59.50927734375
-57.67822265625
-55.84716796875
-55.84716796875
-59.50927734375
-67.7490234375
-72.32666015625
-69.580078125
-68.66455078125
-63.17138671875
-50.35400390625
-46.69189453125
-58.59375
-57.67822265625
-65.91796875
-54.931640625
-56.7626953125
-67.7490234375
-65.00244140625
-46.69189453125
-31.1279296875
-17.39501953125
-16.4794921875
-32.04345703125
-21.05712890625
31.1279296875
108.94775390625
186.767578125
308.53271484375
444.03076171875
564.88037109375
639.95361328125
652.77099609375
609.7412109375
551.1474609375
472.412109375
365.29541015625
284.72900390625
223.388671875
122.6806640625
8.23974609375
-76.904296875
-106.201171875
-119.93408203125
-142.822265625
-127.25830078125
-100.7080078125
-77.81982421875
-62.255859375
-46.69189453125
-28.38134765625
-31.1279296875
-34.7900390625
-24.71923828125
-26.55029296875
-31.1279296875
-37.53662109375
-35.70556640625
-30.21240234375
-29.296875
-33.87451171875
-26.55029296875
-26.55029296875
-26.55029296875
-30.21240234375
-28.38134765625
-28.38134765625
-32.958984375
-27.4658203125
-25.634765625
-23.8037109375
-21.97265625
-21.97265625
-22.88818359375
-26.55029296875
-27.4658203125
-22.88818359375
-23.8037109375
-20.1416015625
-21.97265625
-21.97265625
-18.310546875
-11.90185546875
-21.05712890625
-22.88818359375
-27.4658203125
-10.07080078125
-18.310546875
-20.1416015625
-10.986328125
-6.40869140625
-6.40869140625
-8.23974609375
-9.1552734375
-7.32421875
-7.32421875
-10.07080078125
-8.23974609375
-11.90185546875
-10.07080078125
-2.74658203125
8.23974609375
0.91552734375
-4.57763671875
-4.57763671875
4.57763671875
8.23974609375
4.57763671875
8.23974609375
14.6484375
10.07080078125
9.1552734375
0
10.986328125
12.8173828125
16.4794921875
11.90185546875
10.986328125
19.22607421875
19.22607421875
17.39501953125
16.4794921875
29.296875
26.55029296875
22.88818359375
30.21240234375
30.21240234375
20.1416015625
33.87451171875
39.36767578125
52.18505859375
43.02978515625
47.607421875
51.26953125
56.7626953125
58.59375
65.00244140625
67.7490234375
66.83349609375
73.2421875
83.31298828125
86.97509765625
88.80615234375
90.63720703125
94.29931640625
97.96142578125
106.201171875
122.6806640625
120.849609375
137.3291015625
134.58251953125
141.90673828125
149.23095703125
154.72412109375
152.89306640625
154.72412109375
162.04833984375
162.9638671875
161.1328125
170.2880859375
181.2744140625
182.18994140625
177.6123046875
182.18994140625
172.119140625
175.78125
175.78125
173.9501953125
177.6123046875
178.52783203125
171.20361328125
162.9638671875
157.470703125
144.6533203125
142.822265625
129.08935546875
121.76513671875
102.5390625
97.0458984375
99.79248046875
92.46826171875
77.81982421875
65.91796875
65.91796875
60.4248046875
43.9453125
29.296875
13.73291015625
6.40869140625
1.8310546875
0
3.662109375
-7.32421875
-7.32421875
-10.07080078125
-6.40869140625
-12.8173828125
-24.71923828125
-19.22607421875
-29.296875
-27.4658203125
-21.97265625
-29.296875
-36.62109375
-39.36767578125
-40.283203125
-43.9453125
-44.86083984375
-36.62109375
-37.53662109375
-30.21240234375
-31.1279296875
-30.21240234375
-46.69189453125
-37.53662109375
-38.4521484375
-44.86083984375
-47.607421875
-44.86083984375
-41.19873046875
-46.69189453125
-37.53662109375
-32.958984375
-40.283203125
-43.9453125
-41.19873046875
-47.607421875
-43.02978515625
-39.36767578125
-41.19873046875
-48.52294921875
-46.69189453125
-46.69189453125
-50.35400390625
-60.4248046875
-53.1005859375
-55.84716796875
-63.17138671875
-54.931640625
-40.283203125
-43.9453125
-53.1005859375
-54.01611328125
-46.69189453125
-48.52294921875
-53.1005859375
-44.86083984375
-48.52294921875
-47.607421875
-51.26953125
-42.1142578125
-33.87451171875
-45.7763671875
-38.4521484375
-47.607421875
-54.931640625
-50.35400390625
-47.607421875
-56.7626953125
-57.67822265625
-52.18505859375
-56.7626953125
-42.1142578125
-33.87451171875
-46.69189453125
-50.35400390625
-47.607421875
-44.86083984375
-46.69189453125
-42.1142578125
-40.283203125
-43.9453125
-46.69189453125
-49.4384765625
-46.69189453125
-54.01611328125
-46.69189453125
-45.7763671875
-57.67822265625
-51.26953125
-43.9453125
-45.7763671875
-58.59375
-49.4384765625
-57.67822265625
-50.35400390625
-43.9453125
-50.35400390625
-47.607421875
-37.53662109375
-41.19873046875
-56.7626953125
-50.35400390625
-49.4384765625
-55.84716796875
-53.1005859375
-56.7626953125
-63.17138671875
-66.83349609375
-60.4248046875
-53.1005859375
-47.607421875
-47.607421875
-54.01611328125
-54.931640625
-52.18505859375
-58.59375
-60.4248046875
-49.4384765625
-49.4384765625
-57.67822265625
-57.67822265625
-57.67822265625
-46.69189453125
-56.7626953125
-61.34033203125
-58.59375
-60.4248046875
-66.83349609375
-61.34033203125
-54.01611328125
-54.01611328125
-46.69189453125
-49.4384765625
-52.18505859375
-49.4384765625
-54.01611328125
-61.34033203125
-57.67822265625
-53.1005859375
-54.01611328125
-48.52294921875
-53.1005859375
-44.86083984375
-42.1142578125
-50.35400390625
-57.67822265625
-59.50927734375
-57.67822265625
-55.84716796875
-49.4384765625
-45.7763671875
-53.1005859375
-49.4384765625
-41.19873046875
-54.01611328125
-62.255859375
-56.7626953125
-57.67822265625
-54.931640625
-55.84716796875
-46.69189453125
-41.19873046875
-48.52294921875
-50.35400390625
-55.84716796875
-48.52294921875
-54.931640625
-52.18505859375
-55.84716796875
-55.84716796875
-57.67822265625
-42.1142578125
-44.86083984375
-41.19873046875
-40.283203125
-53.1005859375
-58.59375
-61.34033203125
-54.931640625
-65.91796875
-54.931640625
-47.607421875
-55.84716796875
-57.67822265625
-52.18505859375
-61.34033203125
-55.84716796875
-56.7626953125
-55.84716796875
-54.01611328125
-56.7626953125
-53.1005859375
-59.50927734375
-57.67822265625
-54.931640625
-46.69189453125
-56.7626953125
-52.18505859375
-52.18505859375
-54.01611328125
-60.4248046875
-49.4384765625
-54.01611328125
-58.59375
-55.84716796875
-50.35400390625
-54.931640625
-58.59375
-58.59375
-57.67822265625
-54.931640625
-54.01611328125
-55.84716796875
-52.18505859375
-55.84716796875
-57.67822265625
-52.18505859375
-57.67822265625
-61.34033203125
-52.18505859375
-48.52294921875
-49.4384765625
-43.9453125
-37.53662109375
-42.1142578125
-40.283203125
-34.7900390625
-35.70556640625
-29.296875
-14.6484375
-4.57763671875
-21.97265625
-20.1416015625
-22.88818359375
-37.53662109375
-37.53662109375
-19.22607421875
-7.32421875
-21.97265625
-17.39501953125
-10.986328125
-6.40869140625
-0.91552734375
-6.40869140625
-11.90185546875
-7.32421875
-1.8310546875
-4.57763671875
-9.1552734375
-26.55029296875
-21.05712890625
-34.7900390625
-32.04345703125
-22.88818359375
-26.55029296875
-32.958984375
-28.38134765625
-28.38134765625
-28.38134765625
-33.87451171875
-35.70556640625
-39.36767578125
-53.1005859375
-66.83349609375
-75.0732421875
-73.2421875
-79.65087890625
-82.3974609375
-74.15771484375
-68.66455078125
-69.580078125
-71.4111328125
-72.32666015625
-73.2421875
-67.7490234375
-67.7490234375
-73.2421875
-73.2421875
-69.580078125
-63.17138671875
-66.83349609375
-64.0869140625
-60.4248046875
-68.66455078125
-65.91796875
-71.4111328125
-74.15771484375
-63.17138671875
-53.1005859375
-69.580078125
-81.48193359375
-75.0732421875
-63.17138671875
-54.931640625
-46.69189453125
-53.1005859375
-46.69189453125
-22.88818359375
57.67822265625
115.3564453125
227.05078125
361.63330078125
492.5537109375
610.65673828125
694.88525390625
715.02685546875
658.26416015625
564.88037109375
475.15869140625
375.3662109375
268.24951171875
186.767578125
83.31298828125
-21.05712890625
-113.525390625
-158.38623046875
-184.02099609375
-202.33154296875
-167.54150390625
-126.3427734375
-97.96142578125
-85.14404296875
-75.0732421875
-57.67822265625
-49.4384765625
-44.86083984375
-43.9453125
-42.1142578125
-32.958984375
-35.70556640625
-36.62109375
-41.19873046875
-38.4521484375
-28.38134765625
-34.7900390625
-45.7763671875
-49.4384765625
-43.9453125
-38.4521484375
-33.87451171875
-27.4658203125
-41.19873046875
-30.21240234375
-37.53662109375
-43.02978515625
-41.19873046875
-39.36767578125
-37.53662109375
-39.36767578125
-32.04345703125
-23.8037109375
-25.634765625
-29.296875
-29.296875
-27.4658203125
-30.21240234375
-26.55029296875
-20.1416015625
-30.21240234375
-21.97265625
-17.39501953125
-11.90185546875
-11.90185546875
-31.1279296875
-26.55029296875
-17.39501953125
-14.6484375
-21.97265625
-10.07080078125
-10.07080078125
-28.38134765625
-16.4794921875
-14.6484375
-10.07080078125
-9.1552734375
-5.4931640625
-1.8310546875
-8.23974609375
-7.32421875
2.74658203125
0
0
5.4931640625
-1.8310546875
3.662109375
8.23974609375
9.1552734375
3.662109375
13.73291015625
25.634765625
9.1552734375
8.23974609375
13.73291015625
12.8173828125
16.4794921875
19.22607421875
19.22607421875
22.88818359375
29.296875
24.71923828125
35.70556640625
42.1142578125
40.283203125
41.19873046875
48.52294921875
40.283203125
51.26953125
55.84716796875
55.84716796875
68.66455078125
67.7490234375
77.81982421875
79.65087890625
75.98876953125
83.31298828125
97.0458984375
110.77880859375
107.11669921875
118.10302734375
105.28564453125
117.1875
130.92041015625
138.24462890625
146.484375
139.16015625
135.498046875
140.07568359375
150.146484375
158.38623046875
166.6259765625
173.03466796875
170.2880859375
177.6123046875
180.35888671875
177.6123046875
177.6123046875
179.443359375
174.86572265625
171.20361328125
187.68310546875
178.52783203125
177.6123046875
178.52783203125
171.20361328125
149.23095703125
151.9775390625
141.90673828125
140.9912109375
137.3291015625
124.51171875
119.93408203125
105.28564453125
83.31298828125
75.0732421875
66.83349609375
60.4248046875
46.69189453125
39.36767578125
32.958984375
29.296875
21.05712890625
10.986328125
4.57763671875
-2.74658203125
-11.90185546875
-18.310546875
-19.22607421875
-26.55029296875
-23.8037109375
-28.38134765625
-28.38134765625
-35.70556640625
-37.53662109375
-43.02978515625
-43.9453125
-47.607421875
-43.9453125
-51.26953125
-45.7763671875
-44.86083984375
-43.02978515625
-59.50927734375
-47.607421875
-54.01611328125
-56.7626953125
-49.4384765625
-59.50927734375
-65.00244140625
-60.4248046875
-59.50927734375
-50.35400390625
-44.86083984375
-54.01611328125
-55.84716796875
-56.7626953125
-57.67822265625
-56.7626953125
-54.931640625
-54.01611328125
-54.931640625
-54.931640625
-53.1005859375
-57.67822265625
-58.59375
-52.18505859375
-64.0869140625
-60.4248046875
-55.84716796875
-54.931640625
-61.34033203125
-57.67822265625
-60.4248046875
-55.84716796875
-65.91796875
-64.0869140625
-45.7763671875
-52.18505859375
-53.1005859375
-52.18505859375
-48.52294921875
-53.1005859375
-52.18505859375
-51.26953125
-48.52294921875
-53.1005859375
-47.607421875
-35.70556640625
-42.1142578125
-52.18505859375
-58.59375
-56.7626953125
-43.9453125
-52.18505859375
-52.18505859375
-45.7763671875
-48.52294921875
-45.7763671875
-42.1142578125
-43.02978515625
-48.52294921875
-50.35400390625
-48.52294921875
-54.931640625
-54.01611328125
-59.50927734375
-56.7626953125
-62.255859375
-68.66455078125
-55.84716796875
-53.1005859375
-52.18505859375
-52.18505859375
-44.86083984375
-54.931640625
-66.83349609375
-58.59375
-61.34033203125
-64.0869140625
-54.931640625
-53.1005859375
-51.26953125
-60.4248046875
-54.931640625
-63.17138671875
-64.0869140625
-57.67822265625
-58.59375
-57.67822265625
-55.84716796875
-55.84716796875
-54.931640625
-56.7626953125
-57.67822265625
-59.50927734375
-57.67822265625
-62.255859375
-54.01611328125
-59.50927734375
-59.50927734375
-56.7626953125
-58.59375
-59.50927734375
-59.50927734375
-69.580078125
-65.91796875
-65.00244140625
-56.7626953125
-63.17138671875
-59.50927734375
-59.50927734375
-54.931640625
-61.34033203125
-65.00244140625
-54.931640625
-65.00244140625
-61.34033203125
-60.4248046875
-61.34033203125
-57.67822265625
-58.59375
-55.84716796875
-59.50927734375
-70.49560546875
-65.00244140625
-66.83349609375
-63.17138671875
-63.17138671875
-53.1005859375
-56.7626953125
-59.50927734375
-61.34033203125
-65.00244140625
-56.7626953125
-63.17138671875
-65.00244140625
-54.931640625
-58.59375
-68.66455078125
-62.255859375
-65.91796875
-72.32666015625
-65.00244140625
-59.50927734375
-51.26953125
-62.255859375
-58.59375
-59.50927734375
-60.4248046875
-65.00244140625
-64.0869140625
-64.0869140625
-59.50927734375
-67.7490234375
-70.49560546875
-54.01611328125
-54.01611328125
-62.255859375
-69.580078125
-69.580078125
-70.49560546875
-67.7490234375
-67.7490234375
-69.580078125
-62.255859375
-53.1005859375
-54.931640625
-66.83349609375
-76.904296875
-77.81982421875
-75.0732421875
-61.34033203125
-64.0869140625
-58.59375
-57.67822265625
-63.17138671875
-63.17138671875
-60.4248046875
-68.66455078125
-65.00244140625
-58.59375
-61.34033203125
-61.34033203125
-57.67822265625
-54.931640625
-64.0869140625
-57.67822265625
-56.7626953125
-58.59375
-62.255859375
-59.50927734375
-48.52294921875
-52.18505859375
-47.607421875
-48.52294921875
-52.18505859375
-44.86083984375
-43.02978515625
-42.1142578125
-29.296875
-29.296875
-25.634765625
-24.71923828125
-22.88818359375
-29.296875
-25.634765625
-26.55029296875
-27.4658203125
-27.4658203125
-20.1416015625
-12.8173828125
-9.1552734375
-10.07080078125
-10.07080078125
-11.90185546875
-6.40869140625
-0.91552734375
-8.23974609375
-7.32421875
-16.4794921875
-19.22607421875
-24.71923828125
-33.87451171875
-32.958984375
-33.87451171875
-27.4658203125
-21.05712890625
-23.8037109375
-34.7900390625
-36.62109375
-21.97265625
-22.88818359375
-37.53662109375
-41.19873046875
-47.607421875
-58.59375
-70.49560546875
-71.4111328125
-80.56640625
-83.31298828125
-79.65087890625
-79.65087890625
-82.3974609375
-75.98876953125
-75.98876953125
-78.7353515625
-75.0732421875
-83.31298828125
-81.48193359375
-80.56640625
-75.98876953125
-72.32666015625
-80.56640625
-72.32666015625
-78.7353515625
-85.14404296875
-74.15771484375
-71.4111328125
-76.904296875
-68.66455078125
-66.83349609375
-69.580078125
-74.15771484375
-79.65087890625
-78.7353515625
-67.7490234375
-60.4248046875
-40.283203125
-43.02978515625
-36.62109375
-4.57763671875
62.255859375
142.822265625
248.10791015625
369.873046875
499.8779296875
623.47412109375
687.56103515625
688.4765625
617.0654296875
546.56982421875
465.087890625
354.30908203125
256.34765625
176.69677734375
67.7490234375
-49.4384765625
-129.08935546875
-154.72412109375
-173.03466796875
-193.17626953125
-162.04833984375
-137.3291015625
-101.62353515625
-86.0595703125
-76.904296875
-56.7626953125
-52.18505859375
-50.35400390625
-47.607421875
-41.19873046875
-38.4521484375
-46.69189453125
-46.69189453125
-41.19873046875
-42.1142578125
-54.01611328125
-51.26953125
-52.18505859375
-43.9453125
-50.35400390625
-42.1142578125
-37.53662109375
-43.9453125
-38.4521484375
-38.4521484375
-39.36767578125
-25.634765625
-28.38134765625
-43.9453125
-46.69189453125
-36.62109375
-32.958984375
-37.53662109375
-34.7900390625
-34.7900390625
-34.7900390625
-32.04345703125
-34.7900390625
-29.296875
-25.634765625
-20.1416015625
-19.22607421875
-25.634765625
-20.1416015625
-21.97265625
-18.310546875
-19.22607421875
-21.97265625
-21.05712890625
-21.97265625
-10.986328125
-9.1552734375
-21.05712890625
-21.05712890625
-22.88818359375
-16.4794921875
-16.4794921875
-21.97265625
-13.73291015625
-8.23974609375
-4.57763671875
2.74658203125
-6.40869140625
-13.73291015625
-5.4931640625
-3.662109375
0
-1.8310546875
4.57763671875
-3.662109375
0
5.4931640625
4.57763671875
11.90185546875
2.74658203125
0.91552734375
11.90185546875
6.40869140625
4.57763671875
17.39501953125
16.4794921875
20.1416015625
30.21240234375
22.88818359375
29.296875
36.62109375
35.70556640625
40.283203125
39.36767578125
52.18505859375
61.34033203125
67.7490234375
65.00244140625
69.580078125
77.81982421875
84.228515625
80.56640625
88.80615234375
94.29931640625
95.21484375
106.201171875
108.94775390625
124.51171875
127.25830078125
128.173828125
133.6669921875
140.07568359375
143.73779296875
141.90673828125
147.39990234375
159.3017578125
173.03466796875
165.71044921875
159.3017578125
166.6259765625
170.2880859375
163.87939453125
165.71044921875
175.78125
175.78125
179.443359375
185.85205078125
176.69677734375
176.69677734375
173.03466796875
163.87939453125
156.55517578125
150.146484375
135.498046875
131.8359375
125.42724609375
116.27197265625
105.28564453125
97.96142578125
84.228515625
72.32666015625
72.32666015625
62.255859375
48.52294921875
40.283203125
27.4658203125
33.87451171875
20.1416015625
11.90185546875
13.73291015625
2.74658203125
-14.6484375
-20.1416015625
-14.6484375
-21.97265625
-21.05712890625
-22.88818359375
-21.05712890625
-30.21240234375
-41.19873046875
-36.62109375
-42.1142578125
-51.26953125
-46.69189453125
-35.70556640625
-36.62109375
-40.283203125
-46.69189453125
-47.607421875
-43.02978515625
-54.01611328125
-55.84716796875
-54.01611328125
-51.26953125
-52.18505859375
-55.84716796875
-53.1005859375
-49.4384765625
-49.4384765625
-52.18505859375
-59.50927734375
-66.83349609375
-63.17138671875
-61.34033203125
-60.4248046875
-51.26953125
-45.7763671875
-51.26953125
-54.931640625
-48.52294921875
-47.607421875
-57.67822265625
-65.91796875
-56.7626953125
-52.18505859375
-41.19873046875
-55.84716796875
-55.84716796875
-49.4384765625
-41.19873046875
-50.35400390625
-57.67822265625
-55.84716796875
-54.01611328125
-57.67822265625
-55.84716796875
-47.607421875
-38.4521484375
-45.7763671875
-48.52294921875
-56.7626953125
-42.1142578125
-47.607421875
-54.931640625
-54.01611328125
-43.02978515625
-43.9453125
-46.69189453125
-45.7763671875
-45.7763671875
-41.19873046875
-43.9453125
-43.9453125
-46.69189453125
-47.607421875
-42.1142578125
-39.36767578125
-38.4521484375
-37.53662109375
-31.1279296875
-43.9453125
-51.26953125
-48.52294921875
-43.02978515625
-45.7763671875
-44.86083984375
-41.19873046875
-45.7763671875
-44.86083984375
-43.02978515625
-45.7763671875
-47.607421875
-50.35400390625
-45.7763671875
-43.02978515625
-51.26953125
-48.52294921875
-43.9453125
-42.1142578125
-43.9453125
-44.86083984375
-41.19873046875
-45.7763671875
-50.35400390625
-63.17138671875
-43.9453125
-41.19873046875
-51.26953125
-47.607421875
-53.1005859375
-54.01611328125
-51.26953125
-64.0869140625
-63.17138671875
-45.7763671875
-51.26953125
-42.1142578125
-44.86083984375
-46.69189453125
-53.1005859375
-55.84716796875
-50.35400390625
-47.607421875
-48.52294921875
-44.86083984375
-47.607421875
-50.35400390625
-44.86083984375
-47.607421875
-52.18505859375
-51.26953125
-53.1005859375
-51.26953125
-55.84716796875
-59.50927734375
-54.931640625
-54.931640625
-58.59375
-55.84716796875
-51.26953125
-54.01611328125
-64.0869140625
-62.255859375
-58.59375
-57.67822265625
-51.26953125
-46.69189453125
-55.84716796875
-54.931640625
-54.931640625
-54.01611328125
-53.1005859375
-54.01611328125
-58.59375
-55.84716796875
-52.18505859375
-58.59375
-52.18505859375
-49.4384765625
-51.26953125
-59.50927734375
-54.01611328125
-47.607421875
-50.35400390625
-59.50927734375
-49.4384765625
-46.69189453125
-41.19873046875
-46.69189453125
-59.50927734375
-55.84716796875
-57.67822265625
-57.67822265625
-52.18505859375
-55.84716796875
-66.83349609375
-54.931640625
-53.1005859375
-54.931640625
-55.84716796875
-52.18505859375
-55.84716796875
-56.7626953125
-57.67822265625
-55.84716796875
-45.7763671875
-46.69189453125
-53.1005859375
-53.1005859375
-41.19873046875
-49.4384765625
-69.580078125
-51.26953125
-43.02978515625
-49.4384765625
-49.4384765625
-52.18505859375
-59.50927734375
-56.7626953125
-48.52294921875
-44.86083984375
-43.02978515625
-49.4384765625
-56.7626953125
-54.01611328125
-52.18505859375
-47.607421875
-48.52294921875
-45.7763671875
-51.26953125
-48.52294921875
-54.01611328125
-54.01611328125
-53.1005859375
-51.26953125
-51.26953125
-53.1005859375
-49.4384765625
-52.18505859375
-52.18505859375
-54.931640625
-52.18505859375
-52.18505859375
-51.26953125
-54.01611328125
-54.01611328125
-54.931640625
-54.01611328125
-45.7763671875
-53.1005859375
-55.84716796875
-51.26953125
-48.52294921875
-47.607421875
-54.931640625
-54.931640625
-45.7763671875
-53.1005859375
-52.18505859375
-52.18505859375
-55.84716796875
-53.1005859375
-54.01611328125
-54.931640625
-54.01611328125
-54.01611328125
-49.4384765625
-46.69189453125
-49.4384765625
-42.1142578125
-39.36767578125
-26.55029296875
-22.88818359375
-32.04345703125
-16.4794921875
-7.32421875
-6.40869140625
-8.23974609375
-5.4931640625
-7.32421875
-10.07080078125
-18.310546875
-14.6484375
-8.23974609375
0.91552734375
1.8310546875
-11.90185546875
1.8310546875
6.40869140625
3.662109375
2.74658203125
2.74658203125
-2.74658203125
-11.90185546875
-9.1552734375
-23.8037109375
-28.38134765625
-31.1279296875
-29.296875
-27.4658203125
-23.8037109375
-18.310546875
-26.55029296875
-26.55029296875
-16.4794921875
-15.56396484375
-36.62109375
-52.18505859375
-53.1005859375
-52.18505859375
-60.4248046875
-61.34033203125
-65.00244140625
-68.66455078125
-68.66455078125
-65.91796875
-69.580078125
-74.15771484375
-73.2421875
-70.49560546875
-75.0732421875
-69.580078125
-73.2421875
-65.00244140625
-65.91796875
-71.4111328125
-66.83349609375
-64.0869140625
-63.17138671875
-60.4248046875
-58.59375
-65.91796875
-59.50927734375
-54.931640625
-64.0869140625
-56.7626953125
-61.34033203125
-56.7626953125
-43.02978515625
-32.04345703125
-6.40869140625
-7.32421875
-28.38134765625
-22.88818359375
25.634765625
86.0595703125
178.52783203125
281.982421875
418.39599609375
532.8369140625
615.234375
658.26416015625
648.193359375
567.626953125
509.94873046875
422.05810546875
325.927734375
253.60107421875
181.2744140625
55.84716796875
-65.00244140625
-121.76513671875
-125.42724609375
-141.90673828125
-146.484375
-122.6806640625
-93.3837890625
-66.83349609375
-56.7626953125
-41.19873046875
-23.8037109375
-34.7900390625
-36.62109375
-32.04345703125
-36.62109375
-36.62109375
-34.7900390625
-28.38134765625
-26.55029296875
-44.86083984375
-31.1279296875
-26.55029296875
-28.38134765625
-32.958984375
-29.296875
-27.4658203125
-23.8037109375
-20.1416015625
-17.39501953125
-33.87451171875
-26.55029296875
-25.634765625
-28.38134765625
-34.7900390625
-25.634765625
-25.634765625
-32.04345703125
-25.634765625
-30.21240234375
-27.4658203125
-28.38134765625
-25.634765625
-28.38134765625
-32.958984375
-28.38134765625
-30.21240234375
-24.71923828125
-22.88818359375
-26.55029296875
-23.8037109375
-23.8037109375
-18.310546875
-16.4794921875
-29.296875
-33.87451171875
-18.310546875
-16.4794921875
-15.56396484375
-21.05712890625
-22.88818359375
-10.07080078125
-18.310546875
-16.4794921875
-9.1552734375
-14.6484375
-10.07080078125
-9.1552734375
-8.23974609375
-8.23974609375
0
-8.23974609375
-10.07080078125
-4.57763671875
2.74658203125
4.57763671875
3.662109375
13.73291015625
2.74658203125
10.07080078125
10.986328125
10.07080078125
12.8173828125
17.39501953125
12.8173828125
13.73291015625
19.22607421875
23.8037109375
30.21240234375
27.4658203125
27.4658203125
32.958984375
40.283203125
39.36767578125
41.19873046875
39.36767578125
44.86083984375
56.7626953125
54.01611328125
68.66455078125
81.48193359375
79.65087890625
77.81982421875
80.56640625
93.3837890625
102.5390625
108.94775390625
111.6943359375
111.6943359375
119.93408203125
126.3427734375
131.8359375
140.07568359375
142.822265625
138.24462890625
148.3154296875
160.21728515625
150.146484375
157.470703125
166.6259765625
173.03466796875
162.04833984375
168.45703125
179.443359375
175.78125
180.35888671875
170.2880859375
173.9501953125
181.2744140625
181.2744140625
179.443359375
169.37255859375
158.38623046875
147.39990234375
143.73779296875
145.56884765625
137.3291015625
137.3291015625
131.8359375
122.6806640625
107.11669921875
95.21484375
75.98876953125
71.4111328125
68.66455078125
63.17138671875
48.52294921875
35.70556640625
33.87451171875
20.1416015625
20.1416015625
8.23974609375
1.8310546875
6.40869140625
6.40869140625
-1.8310546875
-5.4931640625
-10.07080078125
-9.1552734375
-10.07080078125
-12.8173828125
-32.04345703125
-29.296875
-23.8037109375
-27.4658203125
-30.21240234375
-29.296875
-28.38134765625
-21.05712890625
-31.1279296875
-27.4658203125
-21.05712890625
-25.634765625
-27.4658203125
-30.21240234375
-31.1279296875
-36.62109375
-29.296875
-26.55029296875
-36.62109375
-38.4521484375
-36.62109375
-34.7900390625
-32.958984375
-36.62109375
-27.4658203125
-37.53662109375
-37.53662109375
-43.9453125
-35.70556640625
-32.04345703125
-31.1279296875
-40.283203125
-45.7763671875
-47.607421875
-43.9453125
-40.283203125
-42.1142578125
-34.7900390625
-36.62109375
-40.283203125
-36.62109375
-42.1142578125
-43.02978515625
-39.36767578125
-38.4521484375
-32.04345703125
-39.36767578125
-32.958984375
-32.958984375
-29.296875
-31.1279296875
-41.19873046875
-46.69189453125
-33.87451171875
-21.97265625
-21.97265625
-23.8037109375
-35.70556640625
-35.70556640625
-32.958984375
-37.53662109375
-38.4521484375
-44.86083984375
-39.36767578125
-27.4658203125
-32.04345703125
-21.05712890625
-29.296875
-35.70556640625
-37.53662109375
-38.4521484375
-35.70556640625
-33.87451171875
-42.1142578125
-42.1142578125
-35.70556640625
-35.70556640625
-41.19873046875
-39.36767578125
-35.70556640625
-23.8037109375
-41.19873046875
-50.35400390625
-44.86083984375
-39.36767578125
-43.02978515625
-32.04345703125
-31.1279296875
-37.53662109375
-31.1279296875
-41.19873046875
-41.19873046875
-38.4521484375
-43.02978515625
-43.9453125
-40.283203125
-38.4521484375
-38.4521484375
-38.4521484375
-35.70556640625
-43.02978515625
-54.931640625
-46.69189453125
-43.9453125
-45.7763671875
-42.1142578125
-43.9453125
-34.7900390625
-36.62109375
-37.53662109375
-37.53662109375
-43.9453125
-59.50927734375
-53.1005859375
-53.1005859375
-41.19873046875
-46.69189453125
-40.283203125
-47.607421875
-42.1142578125
-43.02978515625
-44.86083984375
-44.86083984375
-45.7763671875
-40.283203125
-41.19873046875
-51.26953125
-39.36767578125
-43.9453125
-46.69189453125
-48.52294921875
-45.7763671875
-46.69189453125
-47.607421875
-47.607421875
-47.607421875
-45.7763671875
-35.70556640625
-37.53662109375
-45.7763671875
-45.7763671875
-42.1142578125
-39.36767578125
-52.18505859375
-48.52294921875
-41.19873046875
-36.62109375
-42.1142578125
-43.02978515625
-37.53662109375
-40.283203125
-40.283203125
-45.7763671875
-45.7763671875
-47.607421875
-43.02978515625
-44.86083984375
-42.1142578125
-42.1142578125
-43.02978515625
-41.19873046875
-40.283203125
-43.02978515625
-53.1005859375
-45.7763671875
-44.86083984375
-46.69189453125
-42.1142578125
-45.7763671875
-50.35400390625
-43.9453125
-50.35400390625
-39.36767578125
-39.36767578125
-51.26953125
-36.62109375
-40.283203125
-44.86083984375
-43.9453125
-43.02978515625
-34.7900390625
-38.4521484375
-59.50927734375
-58.59375
-38.4521484375
-35.70556640625
-42.1142578125
-31.1279296875
-32.04345703125
-43.02978515625
-40.283203125
-43.02978515625
-47.607421875
-49.4384765625
-53.1005859375
-39.36767578125
-32.958984375
-44.86083984375
-36.62109375
-35.70556640625
-38.4521484375
-39.36767578125
-37.53662109375
-38.4521484375
-36.62109375
-43.9453125
-34.7900390625
-50.35400390625
-41.19873046875
-42.1142578125
-42.1142578125
-41.19873046875
-46.69189453125
-43.9453125
-43.02978515625
-41.19873046875
-38.4521484375
-29.296875
-34.7900390625
-40.283203125
-38.4521484375
-34.7900390625
-41.19873046875
-42.1142578125
-38.4521484375
-43.02978515625
-35.70556640625
-30.21240234375
-24.71923828125
-34.7900390625
-41.19873046875
-41.19873046875
-43.02978515625
-44.86083984375
-45.7763671875
-38.4521484375
-38.4521484375
-39.36767578125
-38.4521484375
-41.19873046875
-42.1142578125
-41.19873046875
-42.1142578125
-43.02978515625
-37.53662109375
-35.70556640625
-33.87451171875
-32.958984375
-31.1279296875
-27.4658203125
-28.38134765625
-21.05712890625
-19.22607421875
-22.88818359375
-18.310546875
-0.91552734375
4.57763671875
-0.91552734375
7.32421875
5.4931640625
9.1552734375
3.662109375
-16.4794921875
-17.39501953125
0.91552734375
21.97265625
18.310546875
11.90185546875
14.6484375
16.4794921875
13.73291015625
21.05712890625
24.71923828125
22.88818359375
10.07080078125
-2.74658203125
-16.4794921875
-14.6484375
-14.6484375
-17.39501953125
-21.05712890625
-18.310546875
-2.74658203125
-9.1552734375
-14.6484375
-12.8173828125
-2.74658203125
-15.56396484375
-24.71923828125
-26.55029296875
-34.7900390625
-45.7763671875
-48.52294921875
-54.01611328125
-61.34033203125
-65.00244140625
-65.91796875
-56.7626953125
-69.580078125
-58.59375
-63.17138671875
-64.0869140625
-55.84716796875
-63.17138671875
-67.7490234375
-66.83349609375
-64.0869140625
-59.50927734375
-54.01611328125
-65.91796875
-62.255859375
-46.69189453125
-61.34033203125
-69.580078125
-64.0869140625
-60.4248046875
-56.7626953125
-67.7490234375
-67.7490234375
-43.9453125
-37.53662109375
-32.958984375
-21.05712890625
-35.70556640625
-30.21240234375
8.23974609375
75.0732421875
142.822265625
243.5302734375
387.26806640625
510.8642578125
595.0927734375
631.7138671875
620.7275390625
560.302734375
497.13134765625
412.90283203125
311.279296875
249.0234375
192.2607421875
91.552734375
-22.88818359375
-88.80615234375
-120.849609375
-130.0048828125
-138.24462890625
-112.60986328125
-79.65087890625
-67.7490234375
-43.9453125
-40.283203125
-37.53662109375
-26.55029296875
-22.88818359375
-23.8037109375
-22.88818359375
-28.38134765625
-29.296875
-28.38134765625
-31.1279296875
-32.958984375
-33.87451171875
-32.04345703125
-34.7900390625
-33.87451171875
-36.62109375
-31.1279296875
-20.1416015625
-21.05712890625
-28.38134765625
-21.05712890625
-11.90185546875
-27.4658203125
-28.38134765625
-18.310546875
-13.73291015625
-15.56396484375
-17.39501953125
-10.07080078125
-27.4658203125
-11.90185546875
-10.07080078125
-13.73291015625
-12.8173828125
-12.8173828125
-4.57763671875
-5.4931640625
0.91552734375
-5.4931640625
-2.74658203125
-1.8310546875
3.662109375
1.8310546875
-6.40869140625
-2.74658203125
0
3.662109375
13.73291015625
13.73291015625
14.6484375
1.8310546875
10.986328125
7.32421875
7.32421875
2.74658203125
13.73291015625
22.88818359375
16.4794921875
19.22607421875
12.8173828125
14.6484375
20.1416015625
21.97265625
18.310546875
24.71923828125
23.8037109375
27.4658203125
27.4658203125
34.7900390625
37.53662109375
40.283203125
35.70556640625
30.21240234375
28.38134765625
44.86083984375
39.36767578125
47.607421875
44.86083984375
51.26953125
54.01611328125
56.7626953125
65.91796875
61.34033203125
67.7490234375
71.4111328125
75.0732421875
69.580078125
76.904296875
94.29931640625
95.21484375
94.29931640625
99.79248046875
108.94775390625
108.94775390625
114.44091796875
122.6806640625
127.25830078125
138.24462890625
141.90673828125
144.6533203125
134.58251953125
143.73779296875
155.6396484375
148.3154296875
145.56884765625
158.38623046875
165.71044921875
166.6259765625
172.119140625
169.37255859375
181.2744140625
183.10546875
187.68310546875
186.767578125
189.51416015625
189.51416015625
191.34521484375
191.34521484375
190.4296875
195.9228515625
191.34521484375
178.52783203125
170.2880859375
175.78125
175.78125
169.37255859375
157.470703125
148.3154296875
145.56884765625
134.58251953125
129.08935546875
115.3564453125
109.86328125
99.79248046875
76.904296875
74.15771484375
70.49560546875
73.2421875
68.66455078125
43.02978515625
40.283203125
43.9453125
31.1279296875
24.71923828125
23.8037109375
18.310546875
10.07080078125
19.22607421875
11.90185546875
10.986328125
3.662109375
5.4931640625
-3.662109375
-6.40869140625
-12.8173828125
-12.8173828125
-14.6484375
-10.986328125
-10.07080078125
-17.39501953125
-19.22607421875
-20.1416015625
-16.4794921875
-21.97265625
-25.634765625
-24.71923828125
-17.39501953125
-5.4931640625
-2.74658203125
-9.1552734375
-19.22607421875
-30.21240234375
-15.56396484375
-19.22607421875
-15.56396484375
-19.22607421875
-21.97265625
-17.39501953125
-16.4794921875
-18.310546875
-5.4931640625
-24.71923828125
-26.55029296875
-15.56396484375
-8.23974609375
-13.73291015625
-18.310546875
-9.1552734375
-14.6484375
-13.73291015625
-7.32421875
-11.90185546875
-10.986328125
-17.39501953125
-12.8173828125
-8.23974609375
-13.73291015625
-10.986328125
-12.8173828125
-8.23974609375
-10.986328125
-12.8173828125
-9.1552734375
-7.32421875
-10.07080078125
-19.22607421875
-13.73291015625
-7.32421875
-1.8310546875
-10.986328125
-19.22607421875
-17.39501953125
-13.73291015625
-13.73291015625
-4.57763671875
-7.32421875
-19.22607421875
-6.40869140625
-5.4931640625
-6.40869140625
-10.07080078125
-9.1552734375
-11.90185546875
-10.986328125
-20.1416015625
-10.986328125
-14.6484375
-11.90185546875
-18.310546875
-17.39501953125
-8.23974609375
-15.56396484375
-16.4794921875
-15.56396484375
-14.6484375
-24.71923828125
-17.39501953125
-12.8173828125
-19.22607421875
-10.986328125
-14.6484375
-10.986328125
-16.4794921875
-24.71923828125
-21.05712890625
-24.71923828125
-11.90185546875
-16.4794921875
-17.39501953125
-15.56396484375
-19.22607421875
-19.22607421875
-11.90185546875
-14.6484375
-10.07080078125
-14.6484375
-16.4794921875
-20.1416015625
-19.22607421875
-16.4794921875
-15.56396484375
-21.97265625
-20.1416015625
-28.38134765625
-26.55029296875
-21.97265625
-25.634765625
-30.21240234375
-19.22607421875
-19.22607421875
-11.90185546875
-18.310546875
-28.38134765625
-35.70556640625
-24.71923828125
-22.88818359375
-30.21240234375
-25.634765625
-14.6484375
-19.22607421875
-24.71923828125
-30.21240234375
-22.88818359375
-25.634765625
-31.1279296875
-30.21240234375
-27.4658203125
-24.71923828125
-21.05712890625
-17.39501953125
-20.1416015625
-29.296875
-26.55029296875
-30.21240234375
-27.4658203125
-20.1416015625
-24.71923828125
-28.38134765625
-22.88818359375
-21.05712890625
-16.4794921875
-19.22607421875
-29.296875
-41.19873046875
-28.38134765625
-14.6484375
-25.634765625
-12.8173828125
-21.05712890625
-19.22607421875
-23.8037109375
-25.634765625
-20.1416015625
-31.1279296875
-32.958984375
-27.4658203125
-24.71923828125
-19.22607421875
-24.71923828125
-28.38134765625
-24.71923828125
-26.55029296875
-33.87451171875
-26.55029296875
-30.21240234375
-31.1279296875
-28.38134765625
-24.71923828125
-27.4658203125
-23.8037109375
-21.97265625
-31.1279296875
-30.21240234375
-33.87451171875
-32.04345703125
-31.1279296875
-24.71923828125
-40.283203125
-31.1279296875
-15.56396484375
-12.8173828125
-32.04345703125
-35.70556640625
-34.7900390625
-28.38134765625
-27.4658203125
-27.4658203125
-28.38134765625
-27.4658203125
-29.296875
-32.958984375
-28.38134765625
-26.55029296875
-25.634765625
-25.634765625
-27.4658203125
-32.04345703125
-26.55029296875
-20.1416015625
-20.1416015625
-16.4794921875
-21.97265625
-26.55029296875
-35.70556640625
-24.71923828125
-20.1416015625
-28.38134765625
-19.22607421875
-19.22607421875
-24.71923828125
-28.38134765625
-25.634765625
-28.38134765625
-23.8037109375
-20.1416015625
-13.73291015625
-15.56396484375
-19.22607421875
-4.57763671875
-9.1552734375
-4.57763671875
-6.40869140625
7.32421875
5.4931640625
5.4931640625
20.1416015625
18.310546875
10.07080078125
3.662109375
4.57763671875
16.4794921875
22.88818359375
23.8037109375
19.22607421875
21.05712890625
26.55029296875
39.36767578125
35.70556640625
30.21240234375
22.88818359375
21.05712890625
14.6484375
0
-6.40869140625
-8.23974609375
-7.32421875
-3.662109375
5.4931640625
21.05712890625
16.4794921875
10.07080078125
8.23974609375
8.23974609375
1.8310546875
-5.4931640625
-11.90185546875
-17.39501953125
-25.634765625
-38.4521484375
-43.02978515625
-51.26953125
-52.18505859375
-47.607421875
-54.01611328125
-42.1142578125
-41.19873046875
-39.36767578125
-33.87451171875
-42.1142578125
-43.02978515625
-32.04345703125
-32.04345703125
-38.4521484375
-38.4521484375
-43.9453125
-43.02978515625
-40.283203125
-36.62109375
-32.04345703125
-37.53662109375
-38.4521484375
-41.19873046875
-45.7763671875
-53.1005859375
-55.84716796875
-42.1142578125
-28.38134765625
-24.71923828125
-15.56396484375
-12.8173828125
-10.07080078125
28.38134765625
101.62353515625
195.9228515625
317.68798828125
466.00341796875
586.85302734375
697.6318359375
735.16845703125
712.2802734375
630.79833984375
558.4716796875
452.2705078125
333.251953125
250.8544921875
155.6396484375
45.7763671875
-47.607421875
-101.62353515625
-140.9912109375
-162.9638671875
-157.470703125
-126.3427734375
-104.3701171875
-77.81982421875
-53.1005859375
-33.87451171875
-21.05712890625
-20.1416015625
-10.986328125
-13.73291015625
-16.4794921875
-16.4794921875
-19.22607421875
-21.05712890625
-21.97265625
-21.97265625
-26.55029296875
-29.296875
-21.97265625
-16.4794921875
-29.296875
-21.97265625
-22.88818359375
-16.4794921875
-20.1416015625
-21.05712890625
-15.56396484375
-12.8173828125
-6.40869140625
-11.90185546875
-5.4931640625
-11.90185546875
-8.23974609375
-8.23974609375
5.4931640625
5.4931640625
-8.23974609375
-8.23974609375
-5.4931640625
-2.74658203125
-2.74658203125
0.91552734375
-6.40869140625
-8.23974609375
-12.8173828125
-2.74658203125
5.4931640625
4.57763671875
9.1552734375
12.8173828125
16.4794921875
13.73291015625
10.07080078125
6.40869140625
10.07080078125
12.8173828125
14.6484375
19.22607421875
19.22607421875
21.05712890625
21.05712890625
22.88818359375
12.8173828125
16.4794921875
21.97265625
25.634765625
28.38134765625
27.4658203125
29.296875
32.04345703125
33.87451171875
32.04345703125
30.21240234375
28.38134765625
32.958984375
38.4521484375
43.02978515625
38.4521484375
48.52294921875
48.52294921875
52.18505859375
52.18505859375
56.7626953125
65.91796875
65.00244140625
69.580078125
78.7353515625
82.3974609375
76.904296875
75.98876953125
76.904296875
88.80615234375
83.31298828125
92.46826171875
101.62353515625
97.96142578125
99.79248046875
111.6943359375
117.1875
122.6806640625
129.08935546875
134.58251953125
143.73779296875
148.3154296875
160.21728515625
161.1328125
159.3017578125
168.45703125
170.2880859375
173.03466796875
184.9365234375
181.2744140625
180.35888671875
181.2744140625
189.51416015625
191.34521484375
195.00732421875
197.75390625
202.33154296875
209.65576171875
199.5849609375
200.50048828125
205.99365234375
199.5849609375
195.00732421875
190.4296875
191.34521484375
185.85205078125
182.18994140625
177.6123046875
168.45703125
151.06201171875
146.484375
136.41357421875
133.6669921875
128.173828125
120.849609375
108.0322265625
89.7216796875
81.48193359375
73.2421875
70.49560546875
59.50927734375
43.02978515625
42.1142578125
40.283203125
32.04345703125
24.71923828125
26.55029296875
19.22607421875
8.23974609375
10.07080078125
7.32421875
2.74658203125
2.74658203125
0
-4.57763671875
6.40869140625
10.07080078125
-6.40869140625
-12.8173828125
-1.8310546875
-15.56396484375
-25.634765625
-12.8173828125
-20.1416015625
-12.8173828125
-11.90185546875
-13.73291015625
-27.4658203125
-21.97265625
-18.310546875
-22.88818359375
-20.1416015625
-21.05712890625
-21.05712890625
-20.1416015625
-16.4794921875
-22.88818359375
-23.8037109375
-20.1416015625
-18.310546875
-26.55029296875
-22.88818359375
-16.4794921875
-14.6484375
-15.56396484375
-15.56396484375
-20.1416015625
-16.4794921875
-20.1416015625
-16.4794921875
-19.22607421875
-22.88818359375
-18.310546875
-16.4794921875
-6.40869140625
-18.310546875
-16.4794921875
-16.4794921875
-19.22607421875
-19.22607421875
-27.4658203125
-28.38134765625
-25.634765625
-21.97265625
-16.4794921875
-9.1552734375
-14.6484375
-16.4794921875
-18.310546875
-12.8173828125
-17.39501953125
-21.97265625
-21.97265625
-21.05712890625
-19.22607421875
-18.310546875
-15.56396484375
-20.1416015625
-15.56396484375
-20.1416015625
-21.97265625
-24.71923828125
-21.97265625
-14.6484375
-17.39501953125
-15.56396484375
-22.88818359375
-28.38134765625
-25.634765625
-13.73291015625
-18.310546875
-28.38134765625
-21.97265625
-28.38134765625
-20.1416015625
-21.05712890625
-20.1416015625
-22.88818359375
-27.4658203125
-21.05712890625
-32.04345703125
-34.7900390625
-28.38134765625
-25.634765625
-22.88818359375
-21.05712890625
-31.1279296875
-29.296875
-25.634765625
-30.21240234375
-35.70556640625
-34.7900390625
-26.55029296875
-30.21240234375
-20.1416015625
-20.1416015625
-32.958984375
-29.296875
-30.21240234375
-29.296875
-34.7900390625
-41.19873046875
-31.1279296875
-32.04345703125
-28.38134765625
-29.296875
-26.55029296875
-27.4658203125
-31.1279296875
-37.53662109375
-40.283203125
-37.53662109375
-35.70556640625
-24.71923828125
-31.1279296875
-30.21240234375
-27.4658203125
-32.04345703125
-38.4521484375
-38.4521484375
-37.53662109375
-39.36767578125
-39.36767578125
-30.21240234375
-32.04345703125
-37.53662109375
-33.87451171875
-35.70556640625
-28.38134765625
-32.04345703125
-41.19873046875
-38.4521484375
-40.283203125
-35.70556640625
-34.7900390625
-42.1142578125
-35.70556640625
-35.70556640625
-33.87451171875
-33.87451171875
-35.70556640625
-34.7900390625
-34.7900390625
-38.4521484375
-43.9453125
-40.283203125
-33.87451171875
-25.634765625
-33.87451171875
-35.70556640625
-33.87451171875
-41.19873046875
-41.19873046875
-35.70556640625
-34.7900390625
-40.283203125
-42.1142578125
-34.7900390625
-37.53662109375
-31.1279296875
-34.7900390625
-44.86083984375
-34.7900390625
-37.53662109375
-36.62109375
-32.958984375
-33.87451171875
-41.19873046875
-34.7900390625
-32.04345703125
-31.1279296875
-39.36767578125
-43.02978515625
-44.86083984375
-42.1142578125
-32.04345703125
-38.4521484375
-38.4521484375
-39.36767578125
-40.283203125
-46.69189453125
-45.7763671875
-43.02978515625
-50.35400390625
-43.9453125
-41.19873046875
-43.02978515625
-50.35400390625
-40.283203125
-39.36767578125
-36.62109375
-37.53662109375
-44.86083984375
-33.87451171875
-32.958984375
-30.21240234375
-32.04345703125
-15.56396484375
-21.05712890625
-18.310546875
-18.310546875
-16.4794921875
-10.986328125
0
-3.662109375
0.91552734375
-1.8310546875
-1.8310546875
-6.40869140625
-5.4931640625
-5.4931640625
6.40869140625
2.74658203125
1.8310546875
7.32421875
1.8310546875
13.73291015625
12.8173828125
12.8173828125
7.32421875
3.662109375
5.4931640625
-13.73291015625
-18.310546875
-15.56396484375
-9.1552734375
-1.8310546875
-2.74658203125
0
-17.39501953125
-12.8173828125
-11.90185546875
-18.310546875
-31.1279296875
-34.7900390625
-39.36767578125
-43.02978515625
-54.01611328125
-60.4248046875
-54.931640625
-68.66455078125
-75.0732421875
-60.4248046875
-59.50927734375
-65.91796875
-65.00244140625
-63.17138671875
-56.7626953125
-65.00244140625
-63.17138671875
-59.50927734375
-64.0869140625
-71.4111328125
-66.83349609375
-62.255859375
-52.18505859375
-58.59375
-61.34033203125
-58.59375
-61.34033203125
-63.17138671875
-63.17138671875
-65.91796875
-78.7353515625
-67.7490234375
-53.1005859375
-51.26953125
-36.62109375
-33.87451171875
-35.70556640625
-28.38134765625
21.97265625
91.552734375
171.20361328125
293.88427734375
434.87548828125
545.654296875
657.3486328125
689.39208984375
684.814453125
611.572265625
536.4990234375
449.52392578125
335.99853515625
252.685546875
167.54150390625
53.1005859375
-57.67822265625
-117.1875
-144.6533203125
-172.119140625
-169.37255859375
-132.75146484375
-114.44091796875
-78.7353515625
-71.4111328125
-51.26953125
-34.7900390625
-31.1279296875
-35.70556640625
-33.87451171875
-25.634765625
-21.05712890625
-43.9453125
-38.4521484375
-34.7900390625
-44.86083984375
-49.4384765625
-41.19873046875
-43.9453125
-51.26953125
-54.01611328125
-45.7763671875
-36.62109375
-34.7900390625
-32.958984375
-29.296875
-36.62109375
-37.53662109375
-36.62109375
-42.1142578125
-40.283203125
-26.55029296875
-14.6484375
-19.22607421875
-13.73291015625
-11.90185546875
-15.56396484375
-24.71923828125
-28.38134765625
-24.71923828125
-30.21240234375
-29.296875
-21.05712890625
-29.296875
-25.634765625
-14.6484375
-16.4794921875
-24.71923828125
-24.71923828125
-22.88818359375
-26.55029296875
-32.958984375
-25.634765625
-10.07080078125
-0.91552734375
-1.8310546875
1.8310546875
-9.1552734375
-18.310546875
-21.97265625
-17.39501953125
-15.56396484375
-9.1552734375
-14.6484375
-6.40869140625
1.8310546875
0.91552734375
-3.662109375
6.40869140625
11.90185546875
10.986328125
15.56396484375
2.74658203125
8.23974609375
21.97265625
30.21240234375
33.87451171875
47.607421875
35.70556640625
43.02978515625
25.634765625
19.22607421875
24.71923828125
37.53662109375
46.69189453125
40.283203125
38.4521484375
39.36767578125
47.607421875
48.52294921875
44.86083984375
58.59375
70.49560546875
61.34033203125
77.81982421875
77.81982421875
77.81982421875
82.3974609375
93.3837890625
100.7080078125
103.45458984375
94.29931640625
112.60986328125
116.27197265625
130.0048828125
130.92041015625
136.41357421875
134.58251953125
141.90673828125
143.73779296875
144.6533203125
151.9775390625
169.37255859375
167.54150390625
175.78125
162.04833984375
160.21728515625
170.2880859375
161.1328125
164.794921875
177.6123046875
160.21728515625
164.794921875
162.9638671875
156.55517578125
160.21728515625
154.72412109375
146.484375
142.822265625
139.16015625
125.42724609375
120.849609375
109.86328125
101.62353515625
94.29931640625
89.7216796875
75.0732421875
67.7490234375
55.84716796875
53.1005859375
33.87451171875
26.55029296875
13.73291015625
5.4931640625
6.40869140625
3.662109375
-4.57763671875
-4.57763671875
-12.8173828125
-22.88818359375
-24.71923828125
-22.88818359375
-29.296875
-29.296875
-23.8037109375
-28.38134765625
-31.1279296875
-32.958984375
-45.7763671875
-43.02978515625
-43.9453125
-54.931640625
-56.7626953125
-46.69189453125
-45.7763671875
-46.69189453125
-47.607421875
-40.283203125
-44.86083984375
-56.7626953125
-61.34033203125
-57.67822265625
-62.255859375
-51.26953125
-54.01611328125
-54.01611328125
-61.34033203125
-51.26953125
-48.52294921875
-54.01611328125
-47.607421875
-52.18505859375
-52.18505859375
-53.1005859375
-60.4248046875
-45.7763671875
-46.69189453125
-49.4384765625
-45.7763671875
-53.1005859375
-51.26953125
-50.35400390625
-52.18505859375
-52.18505859375
-49.4384765625
-45.7763671875
-45.7763671875
-48.52294921875
-52.18505859375
-60.4248046875
-51.26953125
-51.26953125
-44.86083984375
-44.86083984375
-43.9453125
-46.69189453125
-48.52294921875
-42.1142578125
-42.1142578125
-44.86083984375
-45.7763671875
-37.53662109375
-40.283203125
-40.283203125
-40.283203125
-38.4521484375
-43.02978515625
-43.9453125
-38.4521484375
-44.86083984375
-46.69189453125
-47.607421875
-48.52294921875
-45.7763671875
-41.19873046875
-38.4521484375
-46.69189453125
-47.607421875
-45.7763671875
-43.02978515625
-46.69189453125
-52.18505859375
-49.4384765625
-48.52294921875
-41.19873046875
-46.69189453125
-39.36767578125
-37.53662109375
-50.35400390625
-51.26953125
-50.35400390625
-52.18505859375
-54.931640625
-53.1005859375
-54.01611328125
-55.84716796875
-49.4384765625
-54.931640625
-58.59375
-65.00244140625
-47.607421875
-49.4384765625
-49.4384765625
-50.35400390625
-53.1005859375
-61.34033203125
-50.35400390625
-62.255859375
-60.4248046875
-59.50927734375
-59.50927734375
-67.7490234375
-62.255859375
-53.1005859375
-49.4384765625
-51.26953125
-54.931640625
-53.1005859375
-58.59375
-58.59375
-54.931640625
-59.50927734375
-48.52294921875
-54.931640625
-57.67822265625
-54.931640625
-54.931640625
-62.255859375
-65.00244140625
-67.7490234375
-65.91796875
-64.0869140625
-60.4248046875
-63.17138671875
-61.34033203125
-61.34033203125
-54.01611328125
-57.67822265625
-60.4248046875
-69.580078125
-67.7490234375
-64.0869140625
-64.0869140625
-54.01611328125
-56.7626953125
-60.4248046875
-58.59375
-54.01611328125
-53.1005859375
-53.1005859375
-55.84716796875
-62.255859375
-57.67822265625
-54.01611328125
-52.18505859375
-56.7626953125
-65.00244140625
-58.59375
-60.4248046875
-62.255859375
-64.0869140625
-61.34033203125
-59.50927734375
-65.00244140625
-52.18505859375
-53.1005859375
-57.67822265625
-57.67822265625
-58.59375
-54.931640625
-54.931640625
-62.255859375
-51.26953125
-47.607421875
-52.18505859375
-52.18505859375
-48.52294921875
-52.18505859375
-54.01611328125
-55.84716796875
-49.4384765625
-58.59375
-57.67822265625
-49.4384765625
-54.931640625
-53.1005859375
-58.59375
-57.67822265625
-67.7490234375
-56.7626953125
-61.34033203125
-65.00244140625
-55.84716796875
-57.67822265625
-48.52294921875
-52.18505859375
-48.52294921875
-47.607421875
-55.84716796875
-47.607421875
-53.1005859375
-55.84716796875
-60.4248046875
-63.17138671875
-57.67822265625
-49.4384765625
-54.931640625
-49.4384765625
-59.50927734375
-61.34033203125
-56.7626953125
-65.00244140625
-67.7490234375
-56.7626953125
-45.7763671875
-47.607421875
-57.67822265625
-51.26953125
-44.86083984375
-53.1005859375
-58.59375
-50.35400390625
-49.4384765625
-43.02978515625
-38.4521484375
-33.87451171875
-34.7900390625
-35.70556640625
-24.71923828125
-21.97265625
-18.310546875
-24.71923828125
-13.73291015625
-11.90185546875
-18.310546875
-16.4794921875
-27.4658203125
-19.22607421875
-3.662109375
-11.90185546875
-9.1552734375
-10.986328125
-2.74658203125
-2.74658203125
4.57763671875
3.662109375
-5.4931640625
-13.73291015625
-16.4794921875
-15.56396484375
-24.71923828125
-30.21240234375
-29.296875
-30.21240234375
-21.97265625
-13.73291015625
-23.8037109375
-32.04345703125
-18.310546875
-21.05712890625
-34.7900390625
-44.86083984375
-50.35400390625
-45.7763671875
-52.18505859375
-60.4248046875
-64.0869140625
-65.91796875
-69.580078125
-70.49560546875
-65.91796875
-74.15771484375
-75.98876953125
-76.904296875
-66.83349609375
-63.17138671875
-71.4111328125
-72.32666015625
-68.66455078125
-69.580078125
-65.91796875
-69.580078125
-68.66455078125
-63.17138671875
-58.59375
-57.67822265625
-60.4248046875
-57.67822265625
-64.0869140625
-70.49560546875
-69.580078125
-72.32666015625
-70.49560546875
-48.52294921875
-43.9453125
-20.1416015625
-29.296875
-33.87451171875
-3.662109375
60.4248046875
130.0048828125
241.69921875
371.7041015625
507.2021484375
618.896484375
683.89892578125
686.6455078125
618.896484375
541.9921875
467.83447265625
362.548828125
272.8271484375
199.5849609375
100.7080078125
-12.8173828125
-105.28564453125
-131.8359375
-155.6396484375
-166.6259765625
-143.73779296875
-115.3564453125
-97.0458984375
-69.580078125
-54.931640625
-52.18505859375
-32.958984375
-26.55029296875
-32.04345703125
-34.7900390625
-37.53662109375
-40.283203125
-46.69189453125
-45.7763671875
-43.02978515625
-46.69189453125
-35.70556640625
-35.70556640625
-50.35400390625
-47.607421875
-45.7763671875
-43.9453125
-42.1142578125
-37.53662109375
-43.02978515625
-34.7900390625
-32.958984375
-37.53662109375
-36.62109375
-36.62109375
-34.7900390625
-34.7900390625
-32.958984375
-35.70556640625
-29.296875
-29.296875
-32.958984375
-30.21240234375
-28.38134765625
-22.88818359375
-21.97265625
-27.4658203125
-32.958984375
-24.71923828125
-23.8037109375
-15.56396484375
-14.6484375
-18.310546875
-25.634765625
-21.97265625
-21.97265625
-19.22607421875
-10.986328125
-21.05712890625
-22.88818359375
-4.57763671875
-9.1552734375
-10.986328125
-14.6484375
-11.90185546875
-7.32421875
-5.4931640625
-11.90185546875
-0.91552734375
-1.8310546875
0.91552734375
7.32421875
-5.4931640625
0
16.4794921875
12.8173828125
3.662109375
7.32421875
10.07080078125
10.07080078125
18.310546875
19.22607421875
21.05712890625
20.1416015625
19.22607421875
27.4658203125
27.4658203125
32.958984375
39.36767578125
29.296875
35.70556640625
42.1142578125
46.69189453125
54.01611328125
54.931640625
48.52294921875
58.59375
63.17138671875
74.15771484375
69.580078125
80.56640625
91.552734375
88.80615234375
86.97509765625
96.13037109375
104.3701171875
110.77880859375
120.849609375
115.3564453125
118.10302734375
120.849609375
133.6669921875
140.9912109375
145.56884765625
138.24462890625
141.90673828125
151.9775390625
150.146484375
160.21728515625
161.1328125
161.1328125
166.6259765625
170.2880859375
170.2880859375
173.9501953125
174.86572265625
176.69677734375
161.1328125
161.1328125
165.71044921875
161.1328125
161.1328125
156.55517578125
151.9775390625
139.16015625
126.3427734375
119.93408203125
114.44091796875
97.96142578125
96.13037109375
86.97509765625
80.56640625
67.7490234375
54.01611328125
47.607421875
50.35400390625
35.70556640625
21.97265625
14.6484375
10.986328125
9.1552734375
1.8310546875
-13.73291015625
-9.1552734375
-8.23974609375
-21.97265625
-22.88818359375
-24.71923828125
-32.04345703125
-21.97265625
-32.04345703125
-28.38134765625
-31.1279296875
-23.8037109375
-32.958984375
-40.283203125
-38.4521484375
-46.69189453125
-39.36767578125
-41.19873046875
-45.7763671875
-35.70556640625
-32.04345703125
-45.7763671875
-45.7763671875
-53.1005859375
-54.931640625
-45.7763671875
-49.4384765625
-43.02978515625
-40.283203125
-47.607421875
-50.35400390625
-50.35400390625
-45.7763671875
-52.18505859375
-48.52294921875
-58.59375
-55.84716796875
-53.1005859375
-43.02978515625
-40.283203125
-51.26953125
-52.18505859375
-58.59375
-54.01611328125
-46.69189453125
-45.7763671875
-48.52294921875
-41.19873046875
-50.35400390625
-55.84716796875
-53.1005859375
-45.7763671875
-41.19873046875
-43.9453125
-51.26953125
-48.52294921875
-53.1005859375
-53.1005859375
-53.1005859375
-51.26953125
-40.283203125
-47.607421875
-52.18505859375
-48.52294921875
-49.4384765625
-51.26953125
-42.1142578125
-38.4521484375
-51.26953125
-42.1142578125
-42.1142578125
-37.53662109375
-42.1142578125
-44.86083984375
-42.1142578125
-44.86083984375
-41.19873046875
-43.02978515625
-40.283203125
-37.53662109375
-39.36767578125
-37.53662109375
-46.69189453125
-44.86083984375
-42.1142578125
-49.4384765625
-50.35400390625
-44.86083984375
-48.52294921875
-56.7626953125
-51.26953125
-44.86083984375
-50.35400390625
-40.283203125
-44.86083984375
-48.52294921875
-51.26953125
-53.1005859375
-54.931640625
-43.9453125
-49.4384765625
-46.69189453125
-49.4384765625
-54.01611328125
-48.52294921875
-49.4384765625
-53.1005859375
-52.18505859375
-51.26953125
-50.35400390625
-55.84716796875
-52.18505859375
-55.84716796875
-55.84716796875
-52.18505859375
-43.02978515625
-60.4248046875
-45.7763671875
-48.52294921875
-52.18505859375
-49.4384765625
-43.9453125
-49.4384765625
-51.26953125
-56.7626953125
-61.34033203125
-52.18505859375
-51.26953125
-54.01611328125
-46.69189453125
-49.4384765625
-53.1005859375
-48.52294921875
-52.18505859375
-56.7626953125
-51.26953125
-54.01611328125
-57.67822265625
-56.7626953125
-54.931640625
-49.4384765625
-53.1005859375
-51.26953125
-44.86083984375
-54.01611328125
-54.01611328125
-56.7626953125
-46.69189453125
-46.69189453125
-49.4384765625
-45.7763671875
-52.18505859375
-54.931640625
-50.35400390625
-51.26953125
-50.35400390625
-49.4384765625
-55.84716796875
-48.52294921875
-54.01611328125
-51.26953125
-50.35400390625
-43.02978515625
-52.18505859375
-59.50927734375
-52.18505859375
-54.01611328125
-47.607421875
-43.02978515625
-44.86083984375
-43.02978515625
-40.283203125
-55.84716796875
-60.4248046875
-57.67822265625
-46.69189453125
-40.283203125
-45.7763671875
-43.9453125
-49.4384765625
-47.607421875
-40.283203125
-55.84716796875
-48.52294921875
-47.607421875
-50.35400390625
-47.607421875
-45.7763671875
-46.69189453125
-54.01611328125
-52.18505859375
-50.35400390625
-50.35400390625
-45.7763671875
-43.9453125
-51.26953125
-56.7626953125
-51.26953125
-43.02978515625
-40.283203125
-42.1142578125
-47.607421875
-52.18505859375
-54.01611328125
-53.1005859375
-50.35400390625
-43.9453125
-46.69189453125
-45.7763671875
-37.53662109375
-44.86083984375
-43.02978515625
-47.607421875
-44.86083984375
-52.18505859375
-58.59375
-48.52294921875
-48.52294921875
-52.18505859375
-41.19873046875
-43.02978515625
-52.18505859375
-52.18505859375
-50.35400390625
-51.26953125
-47.607421875
-49.4384765625
-43.9453125
-42.1142578125
-51.26953125
-53.1005859375
-45.7763671875
-43.02978515625
-43.9453125
-44.86083984375
-47.607421875
-52.18505859375
-51.26953125
-51.26953125
-38.4521484375
-46.69189453125
-51.26953125
-42.1142578125
-39.36767578125
-46.69189453125
-50.35400390625
-47.607421875
-46.69189453125
-38.4521484375
-31.1279296875
-25.634765625
-26.55029296875
-17.39501953125
-10.986328125
-17.39501953125
-21.05712890625
-7.32421875
-7.32421875
-1.8310546875
-6.40869140625
-10.07080078125
-18.310546875
-18.310546875
-2.74658203125
5.4931640625
-7.32421875
-5.4931640625
2.74658203125
-1.8310546875
2.74658203125
6.40869140625
12.8173828125
10.986328125
-2.74658203125
-13.73291015625
-19.22607421875
-26.55029296875
-24.71923828125
-27.4658203125
-37.53662109375
-21.05712890625
-13.73291015625
-10.986328125
-24.71923828125
-16.4794921875
-16.4794921875
-19.22607421875
-25.634765625
-40.283203125
-45.7763671875
-43.02978515625
-52.18505859375
-48.52294921875
-61.34033203125
-65.00244140625
-67.7490234375
-67.7490234375
-59.50927734375
-65.91796875
-58.59375
-56.7626953125
-60.4248046875
-66.83349609375
-59.50927734375
-59.50927734375
-64.0869140625
-60.4248046875
-63.17138671875
-61.34033203125
-50.35400390625
-62.255859375
-50.35400390625
-54.01611328125
-58.59375
-57.67822265625
-64.0869140625
-65.00244140625
-65.00244140625
-54.931640625
-42.1142578125
-32.958984375
-23.8037109375
-25.634765625
-20.1416015625
0
52.18505859375
110.77880859375
212.40234375
335.99853515625
470.5810546875
573.1201171875
632.62939453125
643.61572265625
585.02197265625
524.59716796875
454.1015625
356.14013671875
271.91162109375
218.81103515625
121.76513671875
12.8173828125
-73.2421875
-108.94775390625
-132.75146484375
-143.73779296875
-127.25830078125
-92.46826171875
-74.15771484375
-59.50927734375
-43.9453125
-26.55029296875
-21.05712890625
-23.8037109375
-24.71923828125
-25.634765625
-36.62109375
-28.38134765625
-34.7900390625
-33.87451171875
-30.21240234375
-38.4521484375
-31.1279296875
-36.62109375
-34.7900390625
-23.8037109375
-29.296875
-36.62109375
-31.1279296875
-23.8037109375
-23.8037109375
-25.634765625
-25.634765625
-32.04345703125
-30.21240234375
-23.8037109375
-23.8037109375
-25.634765625
-25.634765625
-21.97265625
-21.05712890625
-9.1552734375
-17.39501953125
-13.73291015625
-12.8173828125
-22.88818359375
-16.4794921875
-17.39501953125
-12.8173828125
-14.6484375
-21.05712890625
-12.8173828125
-12.8173828125
-14.6484375
-13.73291015625
-7.32421875
-14.6484375
-7.32421875
-10.07080078125
-7.32421875
-4.57763671875
0
-4.57763671875
7.32421875
1.8310546875
-4.57763671875
3.662109375
0.91552734375
0.91552734375
-2.74658203125
-0.91552734375
4.57763671875
7.32421875
8.23974609375
10.07080078125
8.23974609375
7.32421875
9.1552734375
8.23974609375
15.56396484375
18.310546875
13.73291015625
23.8037109375
27.4658203125
27.4658203125
27.4658203125
30.21240234375
35.70556640625
29.296875
39.36767578125
45.7763671875
47.607421875
54.01611328125
58.59375
52.18505859375
54.931640625
62.255859375
61.34033203125
65.91796875
78.7353515625
83.31298828125
86.0595703125
90.63720703125
97.0458984375
98.876953125
100.7080078125
113.525390625
114.44091796875
118.10302734375
123.59619140625
126.3427734375
140.9912109375
151.06201171875
132.75146484375
145.56884765625
151.9775390625
145.56884765625
156.55517578125
162.9638671875
163.87939453125
173.03466796875
171.20361328125
176.69677734375
173.9501953125
180.35888671875
182.18994140625
179.443359375
184.02099609375
178.52783203125
169.37255859375
183.10546875
174.86572265625
172.119140625
169.37255859375
165.71044921875
161.1328125
152.89306640625
140.07568359375
128.173828125
124.51171875
114.44091796875
107.11669921875
91.552734375
80.56640625
75.98876953125
68.66455078125
59.50927734375
53.1005859375
42.1142578125
38.4521484375
37.53662109375
31.1279296875
21.05712890625
17.39501953125
8.23974609375
11.90185546875
10.07080078125
-5.4931640625
-3.662109375
-10.07080078125
-6.40869140625
-2.74658203125
-16.4794921875
-16.4794921875
-10.07080078125
-18.310546875
-21.05712890625
-23.8037109375
-19.22607421875
-21.05712890625
-27.4658203125
-23.8037109375
-23.8037109375
-24.71923828125
-26.55029296875
-25.634765625
-28.38134765625
-27.4658203125
-32.958984375
-22.88818359375
-22.88818359375
-28.38134765625
-37.53662109375
-27.4658203125
-27.4658203125
-38.4521484375
-32.04345703125
-34.7900390625
-32.958984375
-25.634765625
-26.55029296875
-33.87451171875
-37.53662109375
-27.4658203125
-24.71923828125
-32.04345703125
-29.296875
-30.21240234375
-35.70556640625
-33.87451171875
-27.4658203125
-26.55029296875
-31.1279296875
-26.55029296875
-25.634765625
-32.958984375
-37.53662109375
-32.04345703125
-25.634765625
-30.21240234375
-32.958984375
-27.4658203125
-25.634765625
-34.7900390625
-32.958984375
-26.55029296875
-23.8037109375
-35.70556640625
-32.958984375
-32.958984375
-32.958984375
-24.71923828125
-32.04345703125
-31.1279296875
-37.53662109375
-32.04345703125
-28.38134765625
-35.70556640625
-37.53662109375
-32.958984375
-27.4658203125
-31.1279296875
-36.62109375
-32.04345703125
-32.958984375
-30.21240234375
-32.04345703125
-36.62109375
-32.04345703125
-33.87451171875
-37.53662109375
-30.21240234375
-26.55029296875
-27.4658203125
-41.19873046875
-33.87451171875
-32.04345703125
-37.53662109375
-39.36767578125
-38.4521484375
-32.04345703125
-24.71923828125
-30.21240234375
-31.1279296875
-30.21240234375
-38.4521484375
-39.36767578125
-37.53662109375
-39.36767578125
-39.36767578125
-32.958984375
-28.38134765625
-30.21240234375
-35.70556640625
-49.4384765625
-43.02978515625
-37.53662109375
-39.36767578125
-43.02978515625
-42.1142578125
-33.87451171875
-28.38134765625
-31.1279296875
-36.62109375
-31.1279296875
-33.87451171875
-37.53662109375
-32.958984375
-35.70556640625
-30.21240234375
-29.296875
-34.7900390625
-34.7900390625
-36.62109375
-30.21240234375
-38.4521484375
-42.1142578125
-42.1142578125
-37.53662109375
-32.04345703125
-32.04345703125
-32.958984375
-40.283203125
-39.36767578125
-32.04345703125
-28.38134765625
-28.38134765625
-38.4521484375
-42.1142578125
-36.62109375
-34.7900390625
-31.1279296875
-37.53662109375
-34.7900390625
-34.7900390625
-39.36767578125
-45.7763671875
-42.1142578125
-37.53662109375
-41.19873046875
-28.38134765625
-34.7900390625
-38.4521484375
-38.4521484375
-38.4521484375
-37.53662109375
-32.958984375
-36.62109375
-41.19873046875
-35.70556640625
-34.7900390625
-36.62109375
-45.7763671875
-37.53662109375
-36.62109375
-30.21240234375
-40.283203125
-43.02978515625
-43.02978515625
-39.36767578125
-38.4521484375
-31.1279296875
-29.296875
-32.958984375
-31.1279296875
-37.53662109375
-27.4658203125
-37.53662109375
-42.1142578125
-42.1142578125
-38.4521484375
-33.87451171875
-39.36767578125
-37.53662109375
-31.1279296875
-32.04345703125
-35.70556640625
-39.36767578125
-31.1279296875
-32.04345703125
-42.1142578125
-43.02978515625
-43.02978515625
-39.36767578125
-34.7900390625
-32.04345703125
-48.52294921875
-43.9453125
-42.1142578125
-38.4521484375
-30.21240234375
-25.634765625
-35.70556640625
-35.70556640625
-41.19873046875
-32.04345703125
-37.53662109375
-39.36767578125
-42.1142578125
-30.21240234375
-27.4658203125
-35.70556640625
-39.36767578125
-28.38134765625
-29.296875
-43.9453125
-39.36767578125
-41.19873046875
-31.1279296875
-32.958984375
-33.87451171875
-38.4521484375
-32.958984375
-51.26953125
-41.19873046875
-32.958984375
-34.7900390625
-32.04345703125
-35.70556640625
-35.70556640625
-38.4521484375
-38.4521484375
-38.4521484375
-37.53662109375
-40.283203125
-34.7900390625
-31.1279296875
-41.19873046875
-31.1279296875
-31.1279296875
-35.70556640625
-32.958984375
-26.55029296875
-31.1279296875
-35.70556640625
-40.283203125
-23.8037109375
-27.4658203125
-35.70556640625
-22.88818359375
-17.39501953125
-15.56396484375
-8.23974609375
-9.1552734375
-6.40869140625
-10.986328125
-6.40869140625
-4.57763671875
5.4931640625
13.73291015625
10.07080078125
10.07080078125
0.91552734375
0.91552734375
10.986328125
22.88818359375
21.05712890625
9.1552734375
9.1552734375
17.39501953125
26.55029296875
24.71923828125
25.634765625
21.97265625
9.1552734375
1.8310546875
-6.40869140625
-13.73291015625
-13.73291015625
-18.310546875
-19.22607421875
-4.57763671875
1.8310546875
-1.8310546875
-6.40869140625
-3.662109375
-0.91552734375
-11.90185546875
-19.22607421875
-26.55029296875
-25.634765625
-40.283203125
-49.4384765625
-45.7763671875
-59.50927734375
-53.1005859375
-50.35400390625
-45.7763671875
-49.4384765625
-49.4384765625
-43.02978515625
-41.19873046875
-48.52294921875
-45.7763671875
-42.1142578125
-42.1142578125
-43.9453125
-44.86083984375
-46.69189453125
-43.02978515625
-44.86083984375
-43.02978515625
-36.62109375
-38.4521484375
-38.4521484375
-27.4658203125
-39.36767578125
-52.18505859375
-54.01611328125
-50.35400390625
-30.21240234375
-15.56396484375
-12.8173828125
-16.4794921875
-10.986328125
21.97265625
77.81982421875
152.89306640625
261.8408203125
399.169921875
526.42822265625
631.7138671875
681.15234375
674.74365234375
595.0927734375
535.58349609375
444.03076171875
345.15380859375
276.4892578125
203.2470703125
98.876953125
-13.73291015625
-78.7353515625
-113.525390625
-139.16015625
-136.41357421875
-118.10302734375
-89.7216796875
-60.4248046875
-39.36767578125
-35.70556640625
-16.4794921875
3.662109375
-4.57763671875
-11.90185546875
-14.6484375
-6.40869140625
-15.56396484375
-26.55029296875
-25.634765625
-23.8037109375
-14.6484375
-14.6484375
-11.90185546875
-12.8173828125
-16.4794921875
-15.56396484375
-22.88818359375
-11.90185546875
-5.4931640625
-12.8173828125
-6.40869140625
-13.73291015625
-18.310546875
-19.22607421875
-13.73291015625
-10.07080078125
-11.90185546875
-6.40869140625
-4.57763671875
0
-8.23974609375
-4.57763671875
-3.662109375
-3.662109375
-7.32421875
2.74658203125
1.8310546875
-9.1552734375
-2.74658203125
10.07080078125
6.40869140625
9.1552734375
7.32421875
2.74658203125
0.91552734375
6.40869140625
8.23974609375
11.90185546875
16.4794921875
12.8173828125
16.4794921875
20.1416015625
20.1416015625
20.1416015625
15.56396484375
10.986328125
17.39501953125
17.39501953125
14.6484375
13.73291015625
23.8037109375
33.87451171875
36.62109375
31.1279296875
25.634765625
30.21240234375
28.38134765625
31.1279296875
27.4658203125
40.283203125
42.1142578125
33.87451171875
36.62109375
35.70556640625
43.02978515625
49.4384765625
44.86083984375
53.1005859375
56.7626953125
63.17138671875
67.7490234375
68.66455078125
72.32666015625
82.3974609375
86.97509765625
85.14404296875
76.904296875
76.904296875
90.63720703125
97.96142578125
102.5390625
110.77880859375
111.6943359375
116.27197265625
126.3427734375
130.0048828125
127.25830078125
131.8359375
144.6533203125
157.470703125
159.3017578125
160.21728515625
167.54150390625
175.78125
170.2880859375
176.69677734375
170.2880859375
173.9501953125
183.10546875
188.5986328125
189.51416015625
202.33154296875
200.50048828125
199.5849609375
198.66943359375
197.75390625
196.83837890625
195.00732421875
198.66943359375
204.16259765625
192.2607421875
179.443359375
171.20361328125
166.6259765625
168.45703125
162.04833984375
151.9775390625
145.56884765625
130.92041015625
133.6669921875
115.3564453125
107.11669921875
93.3837890625
79.65087890625
75.98876953125
68.66455078125
57.67822265625
54.01611328125
47.607421875
40.283203125
43.9453125
36.62109375
30.21240234375
17.39501953125
5.4931640625
5.4931640625
13.73291015625
7.32421875
13.73291015625
0
1.8310546875
3.662109375
-0.91552734375
-3.662109375
-1.8310546875
-4.57763671875
-15.56396484375
-20.1416015625
-16.4794921875
-11.90185546875
-12.8173828125
-18.310546875
-17.39501953125
-17.39501953125
-12.8173828125
-15.56396484375
-13.73291015625
-12.8173828125
-17.39501953125
-18.310546875
-19.22607421875
-5.4931640625
-10.986328125
-10.986328125
-10.07080078125
-21.97265625
-26.55029296875
-21.05712890625
-21.05712890625
-19.22607421875
-11.90185546875
-17.39501953125
-18.310546875
-7.32421875
-21.97265625
-21.97265625
-18.310546875
-19.22607421875
-13.73291015625
-17.39501953125
-19.22607421875
-14.6484375
-19.22607421875
-7.32421875
-11.90185546875
-21.05712890625
-21.05712890625
-18.310546875
-17.39501953125
-22.88818359375
-20.1416015625
-17.39501953125
-12.8173828125
-14.6484375
-16.4794921875
-13.73291015625
-21.05712890625
-17.39501953125
-12.8173828125
-13.73291015625
-23.8037109375
-15.56396484375
-18.310546875
-17.39501953125
-15.56396484375
-21.05712890625
-16.4794921875
-19.22607421875
-21.97265625
-19.22607421875
-20.1416015625
-21.97265625
-18.310546875
-23.8037109375
-9.1552734375
-21.05712890625
-25.634765625
-14.6484375
-24.71923828125
-23.8037109375
-13.73291015625
-25.634765625
-25.634765625
-27.4658203125
-23.8037109375
-28.38134765625
-21.05712890625
-27.4658203125
-30.21240234375
-17.39501953125
-24.71923828125
-25.634765625
-32.958984375
-32.958984375
-30.21240234375
-21.05712890625
-23.8037109375
-30.21240234375
-26.55029296875
-28.38134765625
-27.4658203125
-21.05712890625
-32.04345703125
-26.55029296875
-28.38134765625
-22.88818359375
-28.38134765625
-26.55029296875
-27.4658203125
-25.634765625
-26.55029296875
-20.1416015625
-26.55029296875
-33.87451171875
-26.55029296875
-32.958984375
-35.70556640625
-19.22607421875
-22.88818359375
-19.22607421875
-21.05712890625
-24.71923828125
-28.38134765625
-21.05712890625
-21.05712890625
-16.4794921875
-32.958984375
-30.21240234375
-25.634765625
-24.71923828125
-22.88818359375
-23.8037109375
-32.04345703125
-27.4658203125
-25.634765625
-29.296875
-43.02978515625
-32.958984375
-36.62109375
-32.958984375
-28.38134765625
-30.21240234375
-29.296875
-22.88818359375
-26.55029296875
-20.1416015625
-21.97265625
-26.55029296875
-21.97265625
-19.22607421875
-16.4794921875
-13.73291015625
-22.88818359375
-24.71923828125
-26.55029296875
-19.22607421875
-23.8037109375
-25.634765625
-24.71923828125
-24.71923828125
-27.4658203125
-20.1416015625
-20.1416015625
-17.39501953125
-20.1416015625
-20.1416015625
-21.05712890625
-21.97265625
-25.634765625
-19.22607421875
-27.4658203125
-26.55029296875
-22.88818359375
-24.71923828125
-27.4658203125
-24.71923828125
-13.73291015625
-32.04345703125
-31.1279296875
-18.310546875
-23.8037109375
-22.88818359375
-24.71923828125
-24.71923828125
-24.71923828125
-26.55029296875
-26.55029296875
-32.04345703125
-31.1279296875
-20.1416015625
-21.97265625
-28.38134765625
-23.8037109375
-22.88818359375
-23.8037109375
-27.4658203125
-21.05712890625
-21.97265625
-21.05712890625
-14.6484375
-21.05712890625
-18.310546875
-20.1416015625
-21.97265625
-16.4794921875
-21.05712890625
-27.4658203125
-21.97265625
-18.310546875
-15.56396484375
-13.73291015625
-16.4794921875
-18.310546875
-21.97265625
-18.310546875
-22.88818359375
-21.97265625
-19.22607421875
-17.39501953125
-19.22607421875
-7.32421875
-12.8173828125
-4.57763671875
6.40869140625
11.90185546875
8.23974609375
16.4794921875
14.6484375
17.39501953125
10.07080078125
10.07080078125
5.4931640625
16.4794921875
24.71923828125
18.310546875
18.310546875
20.1416015625
22.88818359375
26.55029296875
44.86083984375
42.1142578125
37.53662109375
37.53662109375
33.87451171875
21.05712890625
5.4931640625
-3.662109375
-3.662109375
0
8.23974609375
14.6484375
12.8173828125
9.1552734375
7.32421875
11.90185546875
11.90185546875
4.57763671875
-1.8310546875
-10.07080078125
-21.05712890625
-21.97265625
-20.1416015625
-29.296875
-31.1279296875
-38.4521484375
-43.02978515625
-48.52294921875
-49.4384765625
-39.36767578125
-38.4521484375
-32.04345703125
-32.958984375
-32.958984375
-40.283203125
-37.53662109375
-42.1142578125
-46.69189453125
-35.70556640625
-32.958984375
-40.283203125
-38.4521484375
-32.04345703125
-36.62109375
-36.62109375
-27.4658203125
-32.958984375
-38.4521484375
-42.1142578125
-40.283203125
-28.38134765625
-5.4931640625
-6.40869140625
-0.91552734375
19.22607421875
80.56640625
144.6533203125
238.037109375
378.11279296875
500.79345703125
623.47412109375
724.18212890625
751.64794921875
713.19580078125
628.96728515625
543.8232421875
442.19970703125
333.251953125
245.361328125
148.3154296875
36.62109375
-61.34033203125
-107.11669921875
-137.3291015625
-158.38623046875
-143.73779296875
-114.44091796875
-86.97509765625
-65.91796875
-53.1005859375
-37.53662109375
-24.71923828125
-10.07080078125
-7.32421875
-2.74658203125
-5.4931640625
-4.57763671875
-10.07080078125
-20.1416015625
-12.8173828125
-14.6484375
-8.23974609375
-10.07080078125
-10.986328125
-13.73291015625
-18.310546875
-12.8173828125
-9.1552734375
-11.90185546875
-6.40869140625
-7.32421875
-5.4931640625
0
-2.74658203125
5.4931640625
10.986328125
2.74658203125
4.57763671875
2.74658203125
1.8310546875
3.662109375
11.90185546875
0
2.74658203125
2.74658203125
2.74658203125
11.90185546875
14.6484375
15.56396484375
10.986328125
10.07080078125
17.39501953125
13.73291015625
16.4794921875
22.88818359375
13.73291015625
16.4794921875
10.07080078125
13.73291015625
24.71923828125
20.1416015625
31.1279296875
32.958984375
28.38134765625
31.1279296875
27.4658203125
32.958984375
34.7900390625
21.05712890625
30.21240234375
25.634765625
32.958984375
35.70556640625
34.7900390625
32.04345703125
32.04345703125
41.19873046875
41.19873046875
46.69189453125
42.1142578125
50.35400390625
54.01611328125
55.84716796875
57.67822265625
50.35400390625
53.1005859375
60.4248046875
68.66455078125
65.00244140625
63.17138671875
70.49560546875
78.7353515625
84.228515625
87.890625
85.14404296875
91.552734375
87.890625
93.3837890625
102.5390625
114.44091796875
114.44091796875
119.0185546875
113.525390625
128.173828125
137.3291015625
132.75146484375
149.23095703125
155.6396484375
150.146484375
162.04833984375
170.2880859375
172.119140625
163.87939453125
168.45703125
183.10546875
186.767578125
189.51416015625
191.34521484375
196.83837890625
199.5849609375
205.078125
219.7265625
213.31787109375
210.5712890625
218.81103515625
216.97998046875
206.9091796875
211.48681640625
204.16259765625
205.078125
211.48681640625
199.5849609375
189.51416015625
181.2744140625
176.69677734375
173.03466796875
158.38623046875
151.06201171875
140.07568359375
126.3427734375
117.1875
109.86328125
98.876953125
86.97509765625
78.7353515625
77.81982421875
68.66455078125
54.931640625
38.4521484375
35.70556640625
37.53662109375
31.1279296875
15.56396484375
17.39501953125
21.97265625
13.73291015625
6.40869140625
-4.57763671875
10.07080078125
-1.8310546875
-10.986328125
0.91552734375
-6.40869140625
-2.74658203125
-4.57763671875
-1.8310546875
-2.74658203125
-7.32421875
-10.986328125
-19.22607421875
-17.39501953125
-10.07080078125
-8.23974609375
-18.310546875
-11.90185546875
-11.90185546875
-17.39501953125
-19.22607421875
-20.1416015625
-18.310546875
-15.56396484375
-13.73291015625
-14.6484375
-17.39501953125
-17.39501953125
-17.39501953125
-13.73291015625
-18.310546875
-17.39501953125
-20.1416015625
-25.634765625
-18.310546875
-15.56396484375
-19.22607421875
-21.05712890625
-22.88818359375
-13.73291015625
-20.1416015625
-25.634765625
-22.88818359375
-22.88818359375
-23.8037109375
-20.1416015625
-21.05712890625
-9.1552734375
-12.8173828125
-18.310546875
-22.88818359375
-14.6484375
-13.73291015625
-20.1416015625
-16.4794921875
-15.56396484375
-12.8173828125
-19.22607421875
-17.39501953125
-10.986328125
-13.73291015625
-19.22607421875
-17.39501953125
-18.310546875
-21.05712890625
-18.310546875
-15.56396484375
-22.88818359375
-25.634765625
-21.05712890625
-14.6484375
-16.4794921875
-19.22607421875
-16.4794921875
-9.1552734375
-10.986328125
-9.1552734375
-7.32421875
-20.1416015625
-18.310546875
-10.07080078125
-19.22607421875
-21.97265625
-17.39501953125
-13.73291015625
-10.986328125
-12.8173828125
-15.56396484375
-27.4658203125
-13.73291015625
-19.22607421875
-24.71923828125
-24.71923828125
-21.05712890625
-26.55029296875
-25.634765625
-18.310546875
-6.40869140625
-11.90185546875
-29.296875
-28.38134765625
-25.634765625
-23.8037109375
-29.296875
-14.6484375
-14.6484375
-17.39501953125
-21.97265625
-24.71923828125
-25.634765625
-37.53662109375
-30.21240234375
-31.1279296875
-29.296875
-26.55029296875
-20.1416015625
-21.05712890625
-24.71923828125
-23.8037109375
-23.8037109375
-32.958984375
-32.958984375
-31.1279296875
-22.88818359375
-22.88818359375
-29.296875
-35.70556640625
-28.38134765625
-32.958984375
-25.634765625
-31.1279296875
-21.97265625
-26.55029296875
-28.38134765625
-27.4658203125
-29.296875
-26.55029296875
-27.4658203125
-22.88818359375
-24.71923828125
-31.1279296875
-30.21240234375
-25.634765625
-25.634765625
-35.70556640625
-34.7900390625
-28.38134765625
-30.21240234375
-32.04345703125
-32.04345703125
-31.1279296875
-30.21240234375
-28.38134765625
-27.4658203125
-19.22607421875
-18.310546875
-27.4658203125
-27.4658203125
-29.296875
-29.296875
-32.04345703125
-34.7900390625
-31.1279296875
-31.1279296875
-30.21240234375
-22.88818359375
-24.71923828125
-21.05712890625
-29.296875
-23.8037109375
-26.55029296875
-30.21240234375
-30.21240234375
-30.21240234375
-20.1416015625
-22.88818359375
-17.39501953125
-23.8037109375
-20.1416015625
-21.05712890625
-18.310546875
-27.4658203125
-26.55029296875
-30.21240234375
-30.21240234375
-25.634765625
-20.1416015625
-27.4658203125
-33.87451171875
-27.4658203125
-29.296875
-32.04345703125
-33.87451171875
-33.87451171875
-27.4658203125
-29.296875
-30.21240234375
-28.38134765625
-31.1279296875
-26.55029296875
-25.634765625
-36.62109375
-32.04345703125
-25.634765625
-20.1416015625
-19.22607421875
-20.1416015625
-20.1416015625
-24.71923828125
-18.310546875
-22.88818359375
-25.634765625
-23.8037109375
-14.6484375
-12.8173828125
-9.1552734375
-10.986328125
-0.91552734375
0.91552734375
5.4931640625
10.986328125
3.662109375
9.1552734375
9.1552734375
0.91552734375
-0.91552734375
0.91552734375
11.90185546875
9.1552734375
14.6484375
14.6484375
5.4931640625
3.662109375
12.8173828125
21.05712890625
21.97265625
20.1416015625
23.8037109375
20.1416015625
3.662109375
-4.57763671875
-13.73291015625
-10.07080078125
-7.32421875
5.4931640625
5.4931640625
-4.57763671875
-9.1552734375
-7.32421875
-4.57763671875
-10.986328125
-16.4794921875
-27.4658203125
-36.62109375
-33.87451171875
-40.283203125
-41.19873046875
-49.4384765625
-57.67822265625
-57.67822265625
-51.26953125
-46.69189453125
-42.1142578125
-55.84716796875
-54.01611328125
-49.4384765625
-54.931640625
-54.01611328125
-44.86083984375
-46.69189453125
-53.1005859375
-52.18505859375
-43.9453125
-50.35400390625
-44.86083984375
-38.4521484375
-40.283203125
-31.1279296875
-40.283203125
-54.01611328125
-56.7626953125
-53.1005859375
-51.26953125
-37.53662109375
-21.97265625
-11.90185546875
-21.05712890625
-22.88818359375
6.40869140625
68.66455078125
134.58251953125
231.62841796875
367.12646484375
499.8779296875
621.64306640625
707.70263671875
734.2529296875
692.138671875
617.98095703125
526.42822265625
428.466796875
321.35009765625
237.12158203125
137.3291015625
20.1416015625
-71.4111328125
-119.93408203125
-150.146484375
-154.72412109375
-146.484375
-125.42724609375
-92.46826171875
-69.580078125
-53.1005859375
-43.9453125
-24.71923828125
-17.39501953125
-12.8173828125
-8.23974609375
-15.56396484375
-21.05712890625
-13.73291015625
-20.1416015625
-24.71923828125
-16.4794921875
-19.22607421875
-16.4794921875
-14.6484375
-25.634765625
-14.6484375
-19.22607421875
-22.88818359375
-16.4794921875
-16.4794921875
-12.8173828125
-13.73291015625
-2.74658203125
-2.74658203125
-10.986328125
-7.32421875
-4.57763671875
-9.1552734375
-23.8037109375
-18.310546875
-17.39501953125
-6.40869140625
1.8310546875
0.91552734375
-2.74658203125
-7.32421875
-0.91552734375
-12.8173828125
-10.07080078125
-6.40869140625
-7.32421875
0
3.662109375
-2.74658203125
2.74658203125
-1.8310546875
-5.4931640625
4.57763671875
10.07080078125
0.91552734375
5.4931640625
11.90185546875
13.73291015625
4.57763671875
10.07080078125
12.8173828125
8.23974609375
6.40869140625
8.23974609375
16.4794921875
25.634765625
15.56396484375
14.6484375
21.97265625
33.87451171875
34.7900390625
30.21240234375
27.4658203125
18.310546875
27.4658203125
33.87451171875
32.04345703125
32.04345703125
40.283203125
35.70556640625
42.1142578125
42.1142578125
45.7763671875
58.59375
56.7626953125
54.01611328125
62.255859375
70.49560546875
70.49560546875
71.4111328125
80.56640625
83.31298828125
86.0595703125
85.14404296875
87.890625
99.79248046875
108.94775390625
111.6943359375
119.0185546875
108.0322265625
120.849609375
123.59619140625
136.41357421875
140.07568359375
144.6533203125
151.06201171875
162.04833984375
160.21728515625
156.55517578125
167.54150390625
175.78125
181.2744140625
174.86572265625
181.2744140625
184.9365234375
190.4296875
192.2607421875
200.50048828125
205.99365234375
205.078125
200.50048828125
205.078125
197.75390625
191.34521484375
189.51416015625
192.2607421875
185.85205078125
188.5986328125
178.52783203125
161.1328125
151.06201171875
132.75146484375
133.6669921875
121.76513671875
117.1875
108.0322265625
97.96142578125
99.79248046875
86.0595703125
73.2421875
60.4248046875
50.35400390625
48.52294921875
41.19873046875
26.55029296875
26.55029296875
17.39501953125
12.8173828125
20.1416015625
8.23974609375
4.57763671875
0.91552734375
-3.662109375
-13.73291015625
-12.8173828125
-13.73291015625
-13.73291015625
-17.39501953125
-22.88818359375
-22.88818359375
-24.71923828125
-25.634765625
-30.21240234375
-35.70556640625
-32.04345703125
-26.55029296875
-26.55029296875
-24.71923828125
-25.634765625
-36.62109375
-29.296875
-26.55029296875
-40.283203125
-34.7900390625
-27.4658203125
-21.97265625
-32.04345703125
-32.958984375
-21.97265625
-31.1279296875
-30.21240234375
-35.70556640625
-31.1279296875
-44.86083984375
-47.607421875
-35.70556640625
-38.4521484375
-24.71923828125
-24.71923828125
-24.71923828125
-37.53662109375
-43.9453125
-34.7900390625
-25.634765625
-33.87451171875
-30.21240234375
-30.21240234375
-33.87451171875
-32.04345703125
-38.4521484375
-34.7900390625
-34.7900390625
-32.958984375
-33.87451171875
-35.70556640625
-32.04345703125
-35.70556640625
-35.70556640625
-26.55029296875
-32.958984375
-37.53662109375
-28.38134765625
-34.7900390625
-37.53662109375
-32.04345703125
-27.4658203125
-25.634765625
-27.4658203125
-32.04345703125
-35.70556640625
-29.296875
-23.8037109375
-35.70556640625
-31.1279296875
-28.38134765625
-28.38134765625
-14.6484375
-21.97265625
-23.8037109375
-24.71923828125
-27.4658203125
-27.4658203125
-34.7900390625
-31.1279296875
-27.4658203125
-39.36767578125
-27.4658203125
-25.634765625
-28.38134765625
-28.38134765625
-31.1279296875
-32.04345703125
-28.38134765625
-29.296875
-26.55029296875
-28.38134765625
-35.70556640625
-32.04345703125
-31.1279296875
-35.70556640625
-37.53662109375
-32.958984375
-40.283203125
-41.19873046875
-34.7900390625
-36.62109375
-36.62109375
-31.1279296875
-48.52294921875
-40.283203125
-25.634765625
-32.958984375
-30.21240234375
-35.70556640625
-33.87451171875
-36.62109375
-31.1279296875
-35.70556640625
-41.19873046875
-32.04345703125
-29.296875
-43.9453125
-35.70556640625
-36.62109375
-46.69189453125
-44.86083984375
-29.296875
-35.70556640625
-31.1279296875
-36.62109375
-40.283203125
-43.9453125
-37.53662109375
-35.70556640625
-40.283203125
-28.38134765625
-35.70556640625
-38.4521484375
-38.4521484375
-43.9453125
-36.62109375
-43.02978515625
-40.283203125
-40.283203125
-40.283203125
-41.19873046875
-33.87451171875
-37.53662109375
-41.19873046875
-37.53662109375
-36.62109375
-36.62109375
-41.19873046875
-39.36767578125
-44.86083984375
-47.607421875
-41.19873046875
-38.4521484375
-37.53662109375
-36.62109375
-33.87451171875
-39.36767578125
-43.02978515625
-48.52294921875
-37.53662109375
-31.1279296875
-33.87451171875
-34.7900390625
-40.283203125
-34.7900390625
-40.283203125
-44.86083984375
-46.69189453125
-39.36767578125
-43.02978515625
-39.36767578125
-31.1279296875
-32.04345703125
-38.4521484375
-35.70556640625
-26.55029296875
-44.86083984375
-41.19873046875
-43.02978515625
-46.69189453125
-30.21240234375
-32.958984375
-43.02978515625
-38.4521484375
-31.1279296875
-32.958984375
-36.62109375
-38.4521484375
-40.283203125
-40.283203125
-33.87451171875
-35.70556640625
-35.70556640625
-28.38134765625
-31.1279296875
-32.04345703125
-40.283203125
-43.02978515625
-41.19873046875
-42.1142578125
-40.283203125
-28.38134765625
-22.88818359375
-29.296875
-33.87451171875
-36.62109375
-34.7900390625
-37.53662109375
-33.87451171875
-34.7900390625
-33.87451171875
-28.38134765625
-26.55029296875
-37.53662109375
-40.283203125
-38.4521484375
-45.7763671875
-42.1142578125
-35.70556640625
-37.53662109375
-35.70556640625
-30.21240234375
-31.1279296875
-34.7900390625
-33.87451171875
-41.19873046875
-30.21240234375
-26.55029296875
-24.71923828125
-43.9453125
-35.70556640625
-27.4658203125
-33.87451171875
-35.70556640625
-32.04345703125
-27.4658203125
-19.22607421875
-19.22607421875
-21.97265625
-14.6484375
-10.986328125
8.23974609375
18.310546875
8.23974609375
5.4931640625
2.74658203125
1.8310546875
0
-6.40869140625
-8.23974609375
17.39501953125
21.97265625
20.1416015625
11.90185546875
24.71923828125
20.1416015625
19.22607421875
22.88818359375
11.90185546875
12.8173828125
21.05712890625
10.986328125
-9.1552734375
-13.73291015625
-11.90185546875
-19.22607421875
-16.4794921875
0
-1.8310546875
-1.8310546875
-0.91552734375
3.662109375
3.662109375
-4.57763671875
-11.90185546875
-24.71923828125
-34.7900390625
-52.18505859375
-46.69189453125
-44.86083984375
-49.4384765625
-51.26953125
-56.7626953125
-50.35400390625
-47.607421875
-53.1005859375
-44.86083984375
-46.69189453125
-51.26953125
-49.4384765625
-41.19873046875
-43.02978515625
-48.52294921875
-39.36767578125
-44.86083984375
-44.86083984375
-43.02978515625
-46.69189453125
-47.607421875
-43.9453125
-45.7763671875
-40.283203125
-42.1142578125
-41.19873046875
-32.04345703125
-21.05712890625
-11.90185546875
-7.32421875
-0.91552734375
-3.662109375
27.4658203125
77.81982421875
148.3154296875
253.60107421875
384.521484375
519.10400390625
619.81201171875
681.15234375
693.05419921875
624.3896484375
563.04931640625
487.97607421875
390.93017578125
312.19482421875
232.5439453125
122.6806640625
0
-75.98876953125
-118.10302734375
-116.27197265625
-130.92041015625
-115.3564453125
-83.31298828125
-59.50927734375
-38.4521484375
-28.38134765625
-17.39501953125
-12.8173828125
-1.8310546875
3.662109375
-6.40869140625
-8.23974609375
-4.57763671875
-4.57763671875
-10.986328125
-10.986328125
-16.4794921875
-22.88818359375
-12.8173828125
-12.8173828125
-13.73291015625
-6.40869140625
-6.40869140625
-2.74658203125
-10.07080078125
-2.74658203125
-3.662109375
-9.1552734375
-17.39501953125
-17.39501953125
-2.74658203125
1.8310546875
0.91552734375
-5.4931640625
1.8310546875
2.74658203125
-7.32421875
-8.23974609375
-4.57763671875
-6.40869140625
-9.1552734375
6.40869140625
6.40869140625
7.32421875
-3.662109375
-2.74658203125
0.91552734375
0.91552734375
0
4.57763671875
2.74658203125
7.32421875
5.4931640625
10.07080078125
11.90185546875
6.40869140625
6.40869140625
3.662109375
3.662109375
10.07080078125
4.57763671875
18.310546875
20.1416015625
15.56396484375
12.8173828125
21.05712890625
11.90185546875
11.90185546875
19.22607421875
26.55029296875
25.634765625
25.634765625
30.21240234375
28.38134765625
34.7900390625
32.04345703125
39.36767578125
26.55029296875
32.958984375
32.958984375
33.87451171875
52.18505859375
53.1005859375
50.35400390625
54.01611328125
58.59375
55.84716796875
41.19873046875
53.1005859375
65.00244140625
65.91796875
80.56640625
73.2421875
72.32666015625
87.890625
83.31298828125
92.46826171875
101.62353515625
96.13037109375
102.5390625
115.3564453125
131.8359375
130.92041015625
133.6669921875
140.9912109375
138.24462890625
137.3291015625
146.484375
149.23095703125
160.21728515625
166.6259765625
167.54150390625
173.9501953125
179.443359375
173.9501953125
176.69677734375
181.2744140625
184.02099609375
193.17626953125
185.85205078125
198.66943359375
199.5849609375
195.00732421875
195.9228515625
185.85205078125
191.34521484375
182.18994140625
182.18994140625
181.2744140625
173.03466796875
162.9638671875
158.38623046875
154.72412109375
142.822265625
129.08935546875
118.10302734375
119.0185546875
106.201171875
99.79248046875
80.56640625
68.66455078125
69.580078125
60.4248046875
54.01611328125
51.26953125
43.02978515625
31.1279296875
23.8037109375
19.22607421875
19.22607421875
8.23974609375
0
3.662109375
7.32421875
-0.91552734375
5.4931640625
1.8310546875
-11.90185546875
-15.56396484375
0.91552734375
-7.32421875
-9.1552734375
-13.73291015625
-14.6484375
-10.07080078125
-14.6484375
-15.56396484375
-23.8037109375
-24.71923828125
-18.310546875
-21.05712890625
-21.97265625
-10.07080078125
-10.07080078125
-21.97265625
-28.38134765625
-26.55029296875
-35.70556640625
-24.71923828125
-27.4658203125
-26.55029296875
-23.8037109375
-28.38134765625
-23.8037109375
-30.21240234375
-26.55029296875
-30.21240234375
-28.38134765625
-26.55029296875
-22.88818359375
-29.296875
-26.55029296875
-21.05712890625
-23.8037109375
-21.05712890625
-29.296875
-34.7900390625
-23.8037109375
-35.70556640625
-32.958984375
-21.05712890625
-14.6484375
-21.97265625
-28.38134765625
-21.05712890625
-26.55029296875
-26.55029296875
-25.634765625
-28.38134765625
-24.71923828125
-16.4794921875
-16.4794921875
-21.97265625
-25.634765625
-24.71923828125
-21.97265625
-26.55029296875
-25.634765625
-25.634765625
-19.22607421875
-19.22607421875
-22.88818359375
-21.05712890625
-13.73291015625
-16.4794921875
-27.4658203125
-26.55029296875
-22.88818359375
-25.634765625
-22.88818359375
-23.8037109375
-19.22607421875
-16.4794921875
-21.05712890625
-20.1416015625
-23.8037109375
-22.88818359375
-21.97265625
-23.8037109375
-26.55029296875
-25.634765625
-29.296875
-21.97265625
-17.39501953125
-27.4658203125
-30.21240234375
-22.88818359375
-30.21240234375
-38.4521484375
-32.958984375
-35.70556640625
-29.296875
-20.1416015625
-21.05712890625
-21.97265625
-20.1416015625
-18.310546875
-21.05712890625
-28.38134765625
-29.296875
-28.38134765625
-27.4658203125
-33.87451171875
-30.21240234375
-32.958984375
-38.4521484375
-34.7900390625
-35.70556640625
-32.958984375
-40.283203125
-31.1279296875
-23.8037109375
-27.4658203125
-24.71923828125
-25.634765625
-32.958984375
-32.04345703125
-34.7900390625
-28.38134765625
-34.7900390625
-32.04345703125
-28.38134765625
-19.22607421875
-31.1279296875
-30.21240234375
-31.1279296875
-33.87451171875
-41.19873046875
-35.70556640625
-36.62109375
-26.55029296875
-25.634765625
-31.1279296875
-39.36767578125
-32.958984375
-32.04345703125
-32.04345703125
-35.70556640625
-35.70556640625
-31.1279296875
-43.9453125
-37.53662109375
-36.62109375
-39.36767578125
-31.1279296875
-34.7900390625
-31.1279296875
-37.53662109375
-33.87451171875
-29.296875
-28.38134765625
-23.8037109375
-26.55029296875
-26.55029296875
-36.62109375
-32.04345703125
-29.296875
-34.7900390625
-30.21240234375
-36.62109375
-32.958984375
-32.958984375
-32.04345703125
-23.8037109375
-39.36767578125
-37.53662109375
-31.1279296875
-35.70556640625
-36.62109375
-32.958984375
-25.634765625
-27.4658203125
-30.21240234375
-26.55029296875
-21.05712890625
-27.4658203125
-35.70556640625
-35.70556640625
-35.70556640625
-35.70556640625
-28.38134765625
-27.4658203125
-32.04345703125
-30.21240234375
-25.634765625
-26.55029296875
-32.958984375
-35.70556640625
-32.958984375
-30.21240234375
-33.87451171875
-32.958984375
-32.958984375
-31.1279296875
-33.87451171875
-34.7900390625
-32.04345703125
-22.88818359375
-27.4658203125
-33.87451171875
-30.21240234375
-22.88818359375
-25.634765625
-35.70556640625
-22.88818359375
-34.7900390625
-32.958984375
-31.1279296875
-35.70556640625
-39.36767578125
-32.958984375
-24.71923828125
-25.634765625
-29.296875
-33.87451171875
-25.634765625
-31.1279296875
-24.71923828125
-25.634765625
-32.04345703125
-34.7900390625
-29.296875
-33.87451171875
-31.1279296875
-21.97265625
-28.38134765625
-34.7900390625
-27.4658203125
-24.71923828125
-34.7900390625
-23.8037109375
-24.71923828125
-30.21240234375
-32.04345703125
-34.7900390625
-41.19873046875
-40.283203125
-30.21240234375
-29.296875
-32.958984375
-28.38134765625
-26.55029296875
-32.04345703125
-33.87451171875
-23.8037109375
-29.296875
-31.1279296875
-28.38134765625
-37.53662109375
-34.7900390625
-29.296875
-25.634765625
-7.32421875
-14.6484375
-4.57763671875
-8.23974609375
-5.4931640625
-7.32421875
1.8310546875
4.57763671875
10.986328125
21.05712890625
24.71923828125
16.4794921875
8.23974609375
4.57763671875
9.1552734375
