ECG
42.1142578125
38.4521484375
47.607421875
33.87451171875
23.8037109375
23.8037109375
23.8037109375
29.296875
43.02978515625
49.4384765625
44.86083984375
43.02978515625
43.02978515625
24.71923828125
28.38134765625
33.87451171875
44.86083984375
56.7626953125
66.83349609375
67.7490234375
80.56640625
55.84716796875
43.02978515625
43.02978515625
37.53662109375
43.02978515625
54.931640625
35.70556640625
54.931640625
67.7490234375
52.18505859375
58.59375
77.81982421875
69.580078125
48.52294921875
39.36767578125
52.18505859375
60.4248046875
54.01611328125
49.4384765625
55.84716796875
65.91796875
47.607421875
32.958984375
32.04345703125
45.7763671875
56.7626953125
63.17138671875
57.67822265625
58.59375
52.18505859375
43.9453125
29.296875
20.1416015625
23.8037109375
24.71923828125
24.71923828125
43.02978515625
59.50927734375
83.31298828125
65.91796875
38.4521484375
28.38134765625
19.22607421875
12.8173828125
24.71923828125
16.4794921875
20.1416015625
24.71923828125
27.4658203125
44.86083984375
30.21240234375
9.1552734375
10.07080078125
0
25.634765625
37.53662109375
47.607421875
51.26953125
58.59375
45.7763671875
45.7763671875
39.36767578125
49.4384765625
53.1005859375
53.1005859375
63.17138671875
69.580078125
68.66455078125
75.0732421875
80.56640625
87.890625
90.63720703125
61.34033203125
54.01611328125
65.91796875
84.228515625
106.201171875
117.1875
119.0185546875
117.1875
111.6943359375
104.3701171875
108.94775390625
113.525390625
108.94775390625
120.849609375
104.3701171875
96.13037109375
77.81982421875
70.49560546875
68.66455078125
59.50927734375
62.255859375
60.4248046875
43.9453125
43.9453125
33.87451171875
27.4658203125
20.1416015625
18.310546875
0
-13.73291015625
-27.4658203125
-24.71923828125
-23.8037109375
-30.21240234375
-11.90185546875
36.62109375
37.53662109375
18.310546875
-9.1552734375
-23.8037109375
-28.38134765625
-42.1142578125
-42.1142578125
-37.53662109375
-22.88818359375
-22.88818359375
-20.1416015625
-12.8173828125
-24.71923828125
-28.38134765625
-27.4658203125
-31.1279296875
-28.38134765625
-9.1552734375
-10.986328125
-10.986328125
-20.1416015625
-31.1279296875
-36.62109375
-0.91552734375
-13.73291015625
-36.62109375
-39.36767578125
-14.6484375
10.986328125
25.634765625
66.83349609375
90.63720703125
78.7353515625
85.14404296875
91.552734375
91.552734375
71.4111328125
72.32666015625
86.0595703125
118.10302734375
140.07568359375
143.73779296875
157.470703125
146.484375
108.94775390625
5.4931640625
-192.2607421875
-368.0419921875
-531.92138671875
-746.15478515625
-834.9609375
-900.87890625
-971.37451171875
-975.9521484375
-939.3310546875
-877.99072265625
-821.22802734375
-756.2255859375
-673.828125
-576.7822265625
-531.92138671875
-501.708984375
-471.49658203125
-416.56494140625
-372.61962890625
-342.4072265625
-304.87060546875
-283.8134765625
-249.0234375
-218.81103515625
-205.99365234375
-206.9091796875
-187.68310546875
-166.6259765625
-167.54150390625
-183.10546875
-191.34521484375
-175.78125
-171.20361328125
-163.87939453125
-168.45703125
-168.45703125
-140.07568359375
-121.76513671875
-123.59619140625
-121.76513671875
-116.27197265625
-117.1875
-83.31298828125
-81.48193359375
-57.67822265625
-59.50927734375
-64.0869140625
-70.49560546875
-55.84716796875
-34.7900390625
-18.310546875
-14.6484375
9.1552734375
46.69189453125
48.52294921875
45.7763671875
44.86083984375
52.18505859375
55.84716796875
75.0732421875
88.80615234375
95.21484375
95.21484375
100.7080078125
96.13037109375
86.97509765625
96.13037109375
98.876953125
93.3837890625
83.31298828125
85.14404296875
75.98876953125
84.228515625
96.13037109375
113.525390625
108.0322265625
119.93408203125
104.3701171875
117.1875
98.876953125
102.5390625
110.77880859375
112.60986328125
112.60986328125
136.41357421875
135.498046875
141.90673828125
143.73779296875
135.498046875
134.58251953125
139.16015625
140.9912109375
151.06201171875
164.794921875
159.3017578125
179.443359375
172.119140625
154.72412109375
163.87939453125
161.1328125
156.55517578125
166.6259765625
163.87939453125
175.78125
197.75390625
195.00732421875
205.078125
211.48681640625
205.078125
205.99365234375
205.99365234375
207.82470703125
222.47314453125
242.61474609375
243.5302734375
246.27685546875
257.26318359375
247.1923828125
226.13525390625
235.29052734375
235.29052734375
238.037109375
239.8681640625
263.671875
266.41845703125
255.43212890625
243.5302734375
259.09423828125
249.0234375
232.5439453125
228.8818359375
228.8818359375
264.58740234375
266.41845703125
249.93896484375
233.45947265625
227.05078125
212.40234375
201.416015625
197.75390625
186.767578125
184.9365234375
172.119140625
175.78125
183.10546875
175.78125
162.9638671875
150.146484375
130.92041015625
116.27197265625
119.0185546875
100.7080078125
104.3701171875
100.7080078125
96.13037109375
91.552734375
94.29931640625
78.7353515625
51.26953125
41.19873046875
43.02978515625
57.67822265625
53.1005859375
64.0869140625
50.35400390625
62.255859375
55.84716796875
23.8037109375
27.4658203125
16.4794921875
13.73291015625
11.90185546875
9.1552734375
22.88818359375
23.8037109375
24.71923828125
21.05712890625
10.07080078125
12.8173828125
9.1552734375
12.8173828125
18.310546875
27.4658203125
35.70556640625
30.21240234375
18.310546875
21.97265625
18.310546875
7.32421875
20.1416015625
9.1552734375
17.39501953125
20.1416015625
55.84716796875
52.18505859375
50.35400390625
36.62109375
22.88818359375
18.310546875
32.958984375
30.21240234375
33.87451171875
30.21240234375
45.7763671875
52.18505859375
52.18505859375
52.18505859375
45.7763671875
31.1279296875
35.70556640625
20.1416015625
27.4658203125
21.97265625
43.02978515625
49.4384765625
47.607421875
51.26953125
35.70556640625
36.62109375
21.05712890625
20.1416015625
24.71923828125
28.38134765625
28.38134765625
35.70556640625
27.4658203125
20.1416015625
10.986328125
13.73291015625
15.56396484375
11.90185546875
9.1552734375
10.986328125
26.55029296875
37.53662109375
36.62109375
37.53662109375
38.4521484375
21.97265625
9.1552734375
3.662109375
-4.57763671875
-9.1552734375
14.6484375
19.22607421875
17.39501953125
8.23974609375
7.32421875
0.91552734375
-4.57763671875
-6.40869140625
-5.4931640625
6.40869140625
14.6484375
5.4931640625
-0.91552734375
0.91552734375
-10.986328125
-25.634765625
-17.39501953125
-12.8173828125
2.74658203125
13.73291015625
22.88818359375
35.70556640625
34.7900390625
53.1005859375
64.0869140625
66.83349609375
57.67822265625
70.49560546875
50.35400390625
34.7900390625
45.7763671875
53.1005859375
56.7626953125
45.7763671875
50.35400390625
94.29931640625
103.45458984375
90.63720703125
95.21484375
82.3974609375
85.14404296875
83.31298828125
98.876953125
102.5390625
87.890625
80.56640625
85.14404296875
74.15771484375
65.91796875
57.67822265625
43.02978515625
52.18505859375
46.69189453125
23.8037109375
26.55029296875
32.04345703125
19.22607421875
-7.32421875
-5.4931640625
-19.22607421875
-7.32421875
3.662109375
-27.4658203125
-39.36767578125
-25.634765625
-42.1142578125
-53.1005859375
-50.35400390625
-51.26953125
-44.86083984375
-8.23974609375
-9.1552734375
-14.6484375
-38.4521484375
-48.52294921875
-43.02978515625
-33.87451171875
-64.0869140625
-57.67822265625
-39.36767578125
-32.04345703125
-25.634765625
-25.634765625
-30.21240234375
-32.04345703125
-29.296875
-46.69189453125
-48.52294921875
-54.01611328125
-36.62109375
-38.4521484375
-38.4521484375
-25.634765625
-31.1279296875
-25.634765625
-23.8037109375
-6.40869140625
14.6484375
29.296875
46.69189453125
65.91796875
69.580078125
71.4111328125
81.48193359375
76.904296875
82.3974609375
92.46826171875
104.3701171875
131.8359375
162.04833984375
195.00732421875
195.00732421875
173.9501953125
132.75146484375
-17.39501953125
-205.99365234375
-387.26806640625
-596.923828125
-769.04296875
-866.0888671875
-944.82421875
-1002.50244140625
-970.458984375
-921.93603515625
-881.65283203125
-832.21435546875
-756.2255859375
-677.490234375
-612.48779296875
-556.640625
-498.046875
-436.70654296875
-389.09912109375
-349.7314453125
-331.4208984375
-299.37744140625
-270.99609375
-260.92529296875
-241.69921875
-221.5576171875
-215.14892578125
-199.5849609375
-187.68310546875
-204.16259765625
-220.64208984375
-219.7265625
-203.2470703125
-201.416015625
-187.68310546875
-180.35888671875
-163.87939453125
-148.3154296875
-126.3427734375
-128.173828125
-137.3291015625
-130.0048828125
-121.76513671875
-115.3564453125
-102.5390625
-88.80615234375
-78.7353515625
-66.83349609375
-65.91796875
-53.1005859375
-44.86083984375
-52.18505859375
-21.05712890625
-12.8173828125
9.1552734375
30.21240234375
37.53662109375
41.19873046875
45.7763671875
54.931640625
60.4248046875
52.18505859375
60.4248046875
56.7626953125
54.01611328125
52.18505859375
58.59375
73.2421875
63.17138671875
65.91796875
74.15771484375
75.0732421875
63.17138671875
59.50927734375
68.66455078125
63.17138671875
67.7490234375
84.228515625
91.552734375
92.46826171875
86.0595703125
96.13037109375
100.7080078125
99.79248046875
97.96142578125
105.28564453125
115.3564453125
119.93408203125
137.3291015625
136.41357421875
129.08935546875
123.59619140625
130.92041015625
123.59619140625
117.1875
133.6669921875
140.07568359375
161.1328125
162.9638671875
155.6396484375
169.37255859375
165.71044921875
158.38623046875
156.55517578125
156.55517578125
162.9638671875
186.767578125
187.68310546875
176.69677734375
202.33154296875
207.82470703125
188.5986328125
193.17626953125
189.51416015625
195.00732421875
198.66943359375
228.8818359375
243.5302734375
233.45947265625
232.5439453125
230.712890625
215.14892578125
209.65576171875
208.740234375
227.05078125
226.13525390625
223.388671875
233.45947265625
237.12158203125
232.5439453125
238.95263671875
237.12158203125
227.05078125
216.064453125
213.31787109375
215.14892578125
205.99365234375
199.5849609375
211.48681640625
200.50048828125
194.091796875
162.9638671875
180.35888671875
187.68310546875
166.6259765625
167.54150390625
166.6259765625
163.87939453125
143.73779296875
133.6669921875
125.42724609375
114.44091796875
108.94775390625
101.62353515625
82.3974609375
70.49560546875
80.56640625
80.56640625
75.0732421875
68.66455078125
69.580078125
54.931640625
38.4521484375
36.62109375
32.04345703125
37.53662109375
38.4521484375
33.87451171875
14.6484375
1.8310546875
-2.74658203125
11.90185546875
9.1552734375
4.57763671875
22.88818359375
27.4658203125
12.8173828125
8.23974609375
1.8310546875
6.40869140625
20.1416015625
3.662109375
-25.634765625
-21.05712890625
12.8173828125
8.23974609375
15.56396484375
15.56396484375
10.07080078125
5.4931640625
4.57763671875
1.8310546875
6.40869140625
2.74658203125
2.74658203125
10.986328125
12.8173828125
20.1416015625
37.53662109375
19.22607421875
15.56396484375
8.23974609375
-7.32421875
1.8310546875
7.32421875
10.986328125
27.4658203125
12.8173828125
21.97265625
36.62109375
37.53662109375
29.296875
23.8037109375
21.05712890625
16.4794921875
31.1279296875
33.87451171875
39.36767578125
40.283203125
32.04345703125
14.6484375
1.8310546875
3.662109375
-0.91552734375
18.310546875
33.87451171875
32.04345703125
17.39501953125
6.40869140625
0
-1.8310546875
-10.07080078125
4.57763671875
-12.8173828125
0
-6.40869140625
0.91552734375
12.8173828125
16.4794921875
3.662109375
14.6484375
-3.662109375
-13.73291015625
-15.56396484375
-6.40869140625
-7.32421875
-11.90185546875
5.4931640625
-2.74658203125
-2.74658203125
-20.1416015625
-18.310546875
-20.1416015625
-32.958984375
-29.296875
-4.57763671875
2.74658203125
0.91552734375
-5.4931640625
-19.22607421875
-19.22607421875
-15.56396484375
-21.05712890625
-23.8037109375
-14.6484375
-18.310546875
-2.74658203125
4.57763671875
-7.32421875
-18.310546875
-27.4658203125
-30.21240234375
-32.958984375
-30.21240234375
-22.88818359375
-20.1416015625
-32.958984375
-12.8173828125
-11.90185546875
-8.23974609375
-21.05712890625
-27.4658203125
-35.70556640625
-49.4384765625
-32.04345703125
-25.634765625
-0.91552734375
-0.91552734375
36.62109375
51.26953125
45.7763671875
43.02978515625
35.70556640625
22.88818359375
4.57763671875
11.90185546875
38.4521484375
28.38134765625
34.7900390625
36.62109375
49.4384765625
43.9453125
45.7763671875
60.4248046875
77.81982421875
79.65087890625
81.48193359375
57.67822265625
55.84716796875
43.9453125
49.4384765625
50.35400390625
39.36767578125
36.62109375
31.1279296875
38.4521484375
35.70556640625
33.87451171875
23.8037109375
-1.8310546875
13.73291015625
21.05712890625
-5.4931640625
-25.634765625
-47.607421875
-46.69189453125
-33.87451171875
-18.310546875
-28.38134765625
-36.62109375
-40.283203125
-30.21240234375
-43.9453125
-73.2421875
-84.228515625
-65.91796875
-28.38134765625
-19.22607421875
-47.607421875
-56.7626953125
-58.59375
-52.18505859375
-64.0869140625
-78.7353515625
-72.32666015625
-54.01611328125
-54.931640625
-34.7900390625
-46.69189453125
-43.9453125
-38.4521484375
-49.4384765625
-65.91796875
-76.904296875
-62.255859375
-64.0869140625
-54.01611328125
-55.84716796875
-58.59375
-67.7490234375
-60.4248046875
-51.26953125
-33.87451171875
-2.74658203125
2.74658203125
15.56396484375
52.18505859375
43.9453125
19.22607421875
54.01611328125
56.7626953125
62.255859375
88.80615234375
101.62353515625
124.51171875
155.6396484375
200.50048828125
198.66943359375
177.6123046875
154.72412109375
41.19873046875
-164.794921875
-348.81591796875
-557.55615234375
-749.81689453125
-856.01806640625
-957.6416015625
-1018.98193359375
-1018.98193359375
-980.52978515625
-939.3310546875
-879.82177734375
-806.57958984375
-734.2529296875
-634.46044921875
-562.1337890625
-509.94873046875
-450.439453125
-411.9873046875
-376.28173828125
-346.98486328125
-309.4482421875
-302.1240234375
-298.4619140625
-267.333984375
-235.29052734375
-205.99365234375
-205.078125
-216.064453125
-230.712890625
-215.14892578125
-194.091796875
-204.16259765625
-219.7265625
-224.30419921875
-207.82470703125
-180.35888671875
-158.38623046875
-163.87939453125
-156.55517578125
-139.16015625
-164.794921875
-160.21728515625
-148.3154296875
-140.9912109375
-101.62353515625
-111.6943359375
-100.7080078125
-92.46826171875
-79.65087890625
-75.0732421875
-54.01611328125
-32.04345703125
-31.1279296875
-9.1552734375
4.57763671875
14.6484375
26.55029296875
33.87451171875
32.958984375
29.296875
33.87451171875
43.9453125
33.87451171875
27.4658203125
43.02978515625
51.26953125
61.34033203125
53.1005859375
59.50927734375
57.67822265625
43.9453125
53.1005859375
63.17138671875
72.32666015625
62.255859375
39.36767578125
54.931640625
54.01611328125
86.97509765625
98.876953125
83.31298828125
89.7216796875
84.228515625
71.4111328125
73.2421875
86.0595703125
102.5390625
106.201171875
105.28564453125
88.80615234375
86.97509765625
96.13037109375
89.7216796875
98.876953125
107.11669921875
108.0322265625
117.1875
133.6669921875
136.41357421875
150.146484375
144.6533203125
155.6396484375
157.470703125
144.6533203125
144.6533203125
145.56884765625
149.23095703125
156.55517578125
164.794921875
183.10546875
177.6123046875
153.80859375
173.03466796875
186.767578125
176.69677734375
204.16259765625
220.64208984375
225.2197265625
209.65576171875
205.99365234375
202.33154296875
202.33154296875
214.2333984375
207.82470703125
259.09423828125
249.93896484375
228.8818359375
241.69921875
224.30419921875
215.14892578125
209.65576171875
213.31787109375
219.7265625
232.5439453125
210.5712890625
200.50048828125
208.740234375
212.40234375
207.82470703125
193.17626953125
205.99365234375
173.9501953125
159.3017578125
162.9638671875
159.3017578125
161.1328125
164.794921875
159.3017578125
135.498046875
122.6806640625
102.5390625
99.79248046875
104.3701171875
81.48193359375
78.7353515625
66.83349609375
82.3974609375
98.876953125
94.29931640625
75.98876953125
64.0869140625
60.4248046875
35.70556640625
32.04345703125
28.38134765625
19.22607421875
28.38134765625
45.7763671875
44.86083984375
34.7900390625
9.1552734375
-9.1552734375
-12.8173828125
-2.74658203125
-0.91552734375
13.73291015625
21.97265625
21.05712890625
3.662109375
10.07080078125
6.40869140625
0
-15.56396484375
-15.56396484375
-1.8310546875
3.662109375
13.73291015625
17.39501953125
4.57763671875
10.986328125
26.55029296875
9.1552734375
-1.8310546875
0.91552734375
-1.8310546875
-6.40869140625
3.662109375
15.56396484375
7.32421875
4.57763671875
3.662109375
10.986328125
4.57763671875
0.91552734375
2.74658203125
21.05712890625
43.9453125
29.296875
11.90185546875
-2.74658203125
8.23974609375
23.8037109375
1.8310546875
-2.74658203125
15.56396484375
13.73291015625
13.73291015625
9.1552734375
17.39501953125
17.39501953125
17.39501953125
10.986328125
-0.91552734375
0.91552734375
-2.74658203125
10.986328125
16.4794921875
12.8173828125
10.986328125
12.8173828125
11.90185546875
7.32421875
-6.40869140625
-19.22607421875
-4.57763671875
1.8310546875
3.662109375
-12.8173828125
-13.73291015625
-11.90185546875
-20.1416015625
-26.55029296875
-35.70556640625
-25.634765625
-17.39501953125
-1.8310546875
13.73291015625
6.40869140625
-17.39501953125
-8.23974609375
-12.8173828125
-21.97265625
-39.36767578125
-43.9453125
-54.931640625
-56.7626953125
-52.18505859375
-36.62109375
-26.55029296875
-4.57763671875
-4.57763671875
-5.4931640625
-10.07080078125
-17.39501953125
-18.310546875
0.91552734375
7.32421875
-8.23974609375
-14.6484375
-10.986328125
-14.6484375
-24.71923828125
-32.04345703125
-26.55029296875
-31.1279296875
-13.73291015625
-2.74658203125
2.74658203125
-11.90185546875
-23.8037109375
-27.4658203125
-29.296875
-36.62109375
-27.4658203125
-32.958984375
-18.310546875
2.74658203125
3.662109375
-14.6484375
-25.634765625
-18.310546875
-13.73291015625
2.74658203125
-17.39501953125
-20.1416015625
-10.986328125
-10.07080078125
-28.38134765625
-16.4794921875
-27.4658203125
-24.71923828125
-23.8037109375
-30.21240234375
-22.88818359375
-19.22607421875
2.74658203125
22.88818359375
38.4521484375
45.7763671875
52.18505859375
61.34033203125
51.26953125
29.296875
21.05712890625
21.97265625
25.634765625
25.634765625
26.55029296875
53.1005859375
71.4111328125
78.7353515625
75.98876953125
50.35400390625
46.69189453125
53.1005859375
51.26953125
72.32666015625
70.49560546875
66.83349609375
63.17138671875
41.19873046875
24.71923828125
19.22607421875
22.88818359375
18.310546875
15.56396484375
25.634765625
20.1416015625
13.73291015625
9.1552734375
-0.91552734375
-6.40869140625
-25.634765625
-43.9453125
-35.70556640625
-28.38134765625
-18.310546875
-22.88818359375
-31.1279296875
-42.1142578125
-46.69189453125
-40.283203125
-45.7763671875
-53.1005859375
-41.19873046875
-35.70556640625
-41.19873046875
-54.931640625
-48.52294921875
-62.255859375
-74.15771484375
-65.00244140625
-54.01611328125
-54.01611328125
-54.931640625
-42.1142578125
-37.53662109375
-29.296875
-41.19873046875
-35.70556640625
-59.50927734375
-66.83349609375
-61.34033203125
-53.1005859375
-36.62109375
-43.02978515625
-48.52294921875
-29.296875
1.8310546875
25.634765625
25.634765625
39.36767578125
39.36767578125
46.69189453125
51.26953125
64.0869140625
65.91796875
62.255859375
64.0869140625
85.14404296875
110.77880859375
119.93408203125
141.90673828125
162.04833984375
146.484375
139.16015625
80.56640625
-90.63720703125
-288.39111328125
-467.83447265625
-707.70263671875
-857.84912109375
-936.58447265625
-1023.5595703125
-1033.63037109375
-975.03662109375
-923.76708984375
-867.00439453125
-790.10009765625
-684.814453125
-612.48779296875
-554.8095703125
-514.5263671875
-484.31396484375
-431.21337890625
-370.78857421875
-333.251953125
-315.85693359375
-289.306640625
-262.75634765625
-259.09423828125
-232.5439453125
-217.8955078125
-219.7265625
-204.16259765625
-209.65576171875
-207.82470703125
-192.2607421875
-194.091796875
-208.740234375
-208.740234375
-203.2470703125
-195.00732421875
-196.83837890625
-172.119140625
-163.87939453125
-157.470703125
-139.16015625
-138.24462890625
-132.75146484375
-134.58251953125
-112.60986328125
-97.96142578125
-99.79248046875
-93.3837890625
-72.32666015625
-61.34033203125
-41.19873046875
-22.88818359375
-20.1416015625
-11.90185546875
-5.4931640625
9.1552734375
11.90185546875
16.4794921875
25.634765625
44.86083984375
59.50927734375
62.255859375
54.01611328125
56.7626953125
63.17138671875
52.18505859375
32.958984375
50.35400390625
57.67822265625
61.34033203125
65.91796875
65.91796875
77.81982421875
86.0595703125
58.59375
59.50927734375
60.4248046875
71.4111328125
85.14404296875
99.79248046875
99.79248046875
86.97509765625
85.14404296875
78.7353515625
73.2421875
68.66455078125
86.97509765625
104.3701171875
104.3701171875
122.6806640625
122.6806640625
120.849609375
120.849609375
119.0185546875
104.3701171875
107.11669921875
104.3701171875
125.42724609375
141.90673828125
137.3291015625
148.3154296875
150.146484375
145.56884765625
160.21728515625
154.72412109375
136.41357421875
147.39990234375
143.73779296875
152.89306640625
170.2880859375
177.6123046875
177.6123046875
181.2744140625
180.35888671875
178.52783203125
177.6123046875
183.10546875
189.51416015625
210.5712890625
217.8955078125
204.16259765625
202.33154296875
205.078125
199.5849609375
211.48681640625
202.33154296875
193.17626953125
195.9228515625
209.65576171875
252.685546875
235.29052734375
219.7265625
235.29052734375
206.9091796875
205.99365234375
210.5712890625
211.48681640625
211.48681640625
214.2333984375
209.65576171875
213.31787109375
214.2333984375
192.2607421875
192.2607421875
167.54150390625
137.3291015625
133.6669921875
148.3154296875
128.173828125
132.75146484375
134.58251953125
117.1875
103.45458984375
95.21484375
85.14404296875
69.580078125
52.18505859375
51.26953125
64.0869140625
73.2421875
82.3974609375
69.580078125
46.69189453125
28.38134765625
20.1416015625
11.90185546875
21.97265625
16.4794921875
11.90185546875
23.8037109375
31.1279296875
25.634765625
13.73291015625
8.23974609375
22.88818359375
10.986328125
1.8310546875
28.38134765625
24.71923828125
32.04345703125
20.1416015625
17.39501953125
6.40869140625
10.07080078125
40.283203125
25.634765625
-9.1552734375
-30.21240234375
-23.8037109375
-12.8173828125
3.662109375
-3.662109375
-18.310546875
5.4931640625
21.05712890625
10.986328125
12.8173828125
10.986328125
20.1416015625
32.958984375
9.1552734375
9.1552734375
3.662109375
-12.8173828125
-13.73291015625
-28.38134765625
-29.296875
-16.4794921875
5.4931640625
32.04345703125
26.55029296875
22.88818359375
18.310546875
12.8173828125
11.90185546875
-10.986328125
-12.8173828125
-1.8310546875
9.1552734375
3.662109375
2.74658203125
-2.74658203125
0
-19.22607421875
-19.22607421875
-9.1552734375
1.8310546875
0.91552734375
0.91552734375
3.662109375
2.74658203125
-14.6484375
-14.6484375
-10.986328125
-8.23974609375
-8.23974609375
-19.22607421875
-19.22607421875
-6.40869140625
-3.662109375
-6.40869140625
-15.56396484375
-16.4794921875
-27.4658203125
-25.634765625
-21.05712890625
-32.958984375
-33.87451171875
-19.22607421875
-12.8173828125
-21.05712890625
-18.310546875
-12.8173828125
-9.1552734375
-17.39501953125
-20.1416015625
-21.05712890625
-22.88818359375
-21.97265625
-14.6484375
-11.90185546875
-21.05712890625
-30.21240234375
-32.04345703125
-36.62109375
-42.1142578125
-37.53662109375
-35.70556640625
-24.71923828125
-19.22607421875
-12.8173828125
-17.39501953125
-23.8037109375
-20.1416015625
-17.39501953125
-19.22607421875
-29.296875
-33.87451171875
-23.8037109375
-23.8037109375
-20.1416015625
-20.1416015625
-24.71923828125
-30.21240234375
-29.296875
-40.283203125
-39.36767578125
-25.634765625
-21.97265625
-25.634765625
-23.8037109375
-30.21240234375
-36.62109375
-43.9453125
-21.97265625
-32.04345703125
-38.4521484375
-33.87451171875
-22.88818359375
-19.22607421875
-17.39501953125
-28.38134765625
-18.310546875
-34.7900390625
-39.36767578125
-24.71923828125
-25.634765625
-10.07080078125
-3.662109375
12.8173828125
13.73291015625
20.1416015625
20.1416015625
18.310546875
20.1416015625
12.8173828125
20.1416015625
24.71923828125
26.55029296875
30.21240234375
28.38134765625
23.8037109375
23.8037109375
27.4658203125
49.4384765625
59.50927734375
63.17138671875
41.19873046875
39.36767578125
52.18505859375
58.59375
50.35400390625
43.02978515625
42.1142578125
26.55029296875
25.634765625
13.73291015625
10.986328125
19.22607421875
24.71923828125
37.53662109375
32.958984375
18.310546875
12.8173828125
15.56396484375
6.40869140625
-19.22607421875
-36.62109375
-32.04345703125
-24.71923828125
-27.4658203125
-36.62109375
-43.9453125
-52.18505859375
-48.52294921875
-56.7626953125
-73.2421875
-47.607421875
-47.607421875
-55.84716796875
-46.69189453125
-45.7763671875
-54.931640625
-46.69189453125
-70.49560546875
-71.4111328125
-74.15771484375
-74.15771484375
-54.931640625
-45.7763671875
-35.70556640625
-51.26953125
-60.4248046875
-49.4384765625
-46.69189453125
-54.01611328125
-66.83349609375
-62.255859375
-48.52294921875
-44.86083984375
-23.8037109375
-31.1279296875
-27.4658203125
-12.8173828125
5.4931640625
24.71923828125
38.4521484375
43.9453125
33.87451171875
33.87451171875
58.59375
65.00244140625
46.69189453125
30.21240234375
63.17138671875
86.0595703125
92.46826171875
131.8359375
142.822265625
154.72412109375
134.58251953125
15.56396484375
-178.52783203125
-373.53515625
-587.7685546875
-785.5224609375
-895.3857421875
-973.20556640625
-1024.47509765625
-993.34716796875
-949.40185546875
-907.28759765625
-849.609375
-778.1982421875
-703.125
-600.5859375
-541.07666015625
-497.13134765625
-458.67919921875
-404.6630859375
-351.5625
-323.18115234375
-296.630859375
-286.56005859375
-266.41845703125
-257.26318359375
-238.037109375
-219.7265625
-221.5576171875
-221.5576171875
-211.48681640625
-203.2470703125
-202.33154296875
-215.14892578125
-217.8955078125
-202.33154296875
-183.10546875
-176.69677734375
-156.55517578125
-146.484375
-140.9912109375
-138.24462890625
-129.08935546875
-130.0048828125
-118.10302734375
-109.86328125
-127.25830078125
-99.79248046875
-85.14404296875
-77.81982421875
-83.31298828125
-60.4248046875
-42.1142578125
-22.88818359375
-5.4931640625
-15.56396484375
-25.634765625
-9.1552734375
13.73291015625
34.7900390625
52.18505859375
45.7763671875
37.53662109375
44.86083984375
43.9453125
49.4384765625
57.67822265625
44.86083984375
67.7490234375
68.66455078125
55.84716796875
57.67822265625
60.4248046875
59.50927734375
46.69189453125
65.91796875
59.50927734375
69.580078125
75.98876953125
80.56640625
73.2421875
67.7490234375
70.49560546875
82.3974609375
85.14404296875
91.552734375
104.3701171875
103.45458984375
108.94775390625
107.11669921875
113.525390625
108.94775390625
100.7080078125
106.201171875
112.60986328125
114.44091796875
116.27197265625
147.39990234375
139.16015625
130.0048828125
134.58251953125
140.9912109375
164.794921875
164.794921875
147.39990234375
130.92041015625
131.8359375
137.3291015625
159.3017578125
174.86572265625
195.00732421875
195.9228515625
174.86572265625
174.86572265625
159.3017578125
171.20361328125
179.443359375
175.78125
188.5986328125
195.00732421875
189.51416015625
191.34521484375
198.66943359375
200.50048828125
203.2470703125
194.091796875
194.091796875
205.078125
195.9228515625
212.40234375
225.2197265625
196.83837890625
191.34521484375
198.66943359375
211.48681640625
220.64208984375
225.2197265625
197.75390625
199.5849609375
207.82470703125
202.33154296875
197.75390625
185.85205078125
189.51416015625
179.443359375
145.56884765625
140.9912109375
162.9638671875
148.3154296875
136.41357421875
140.07568359375
142.822265625
121.76513671875
101.62353515625
91.552734375
82.3974609375
67.7490234375
67.7490234375
62.255859375
69.580078125
77.81982421875
69.580078125
56.7626953125
54.01611328125
29.296875
12.8173828125
19.22607421875
24.71923828125
18.310546875
41.19873046875
38.4521484375
32.04345703125
21.05712890625
19.22607421875
10.986328125
1.8310546875
0
-1.8310546875
0.91552734375
-2.74658203125
4.57763671875
-7.32421875
-10.07080078125
0
-1.8310546875
-9.1552734375
-20.1416015625
-17.39501953125
-18.310546875
-4.57763671875
12.8173828125
18.310546875
13.73291015625
16.4794921875
-9.1552734375
-8.23974609375
-9.1552734375
6.40869140625
22.88818359375
32.04345703125
14.6484375
19.22607421875
30.21240234375
4.57763671875
-2.74658203125
8.23974609375
-7.32421875
3.662109375
13.73291015625
19.22607421875
25.634765625
10.07080078125
5.4931640625
13.73291015625
9.1552734375
4.57763671875
-0.91552734375
-0.91552734375
9.1552734375
3.662109375
10.07080078125
1.8310546875
1.8310546875
15.56396484375
17.39501953125
10.986328125
8.23974609375
10.986328125
-5.4931640625
6.40869140625
21.97265625
21.05712890625
6.40869140625
7.32421875
-4.57763671875
-1.8310546875
-17.39501953125
-23.8037109375
-9.1552734375
6.40869140625
15.56396484375
24.71923828125
10.986328125
0
-11.90185546875
-3.662109375
-11.90185546875
-14.6484375
-8.23974609375
-2.74658203125
0
0.91552734375
-9.1552734375
-10.07080078125
-23.8037109375
-30.21240234375
-28.38134765625
-16.4794921875
-4.57763671875
11.90185546875
21.97265625
-1.8310546875
-7.32421875
0.91552734375
4.57763671875
-3.662109375
-19.22607421875
2.74658203125
-2.74658203125
-10.07080078125
-3.662109375
-2.74658203125
4.57763671875
7.32421875
21.97265625
34.7900390625
32.04345703125
44.86083984375
42.1142578125
52.18505859375
68.66455078125
54.931640625
56.7626953125
41.19873046875
18.310546875
15.56396484375
20.1416015625
45.7763671875
60.4248046875
79.65087890625
85.14404296875
79.65087890625
84.228515625
72.32666015625
57.67822265625
56.7626953125
69.580078125
70.49560546875
74.15771484375
78.7353515625
81.48193359375
57.67822265625
56.7626953125
53.1005859375
38.4521484375
29.296875
4.57763671875
8.23974609375
1.8310546875
0.91552734375
-7.32421875
-12.8173828125
-14.6484375
-9.1552734375
-11.90185546875
-27.4658203125
-32.958984375
-38.4521484375
-30.21240234375
-27.4658203125
-25.634765625
-11.90185546875
-12.8173828125
-24.71923828125
-50.35400390625
-55.84716796875
-58.59375
-32.04345703125
-34.7900390625
-39.36767578125
-16.4794921875
-16.4794921875
-27.4658203125
-32.958984375
-35.70556640625
-34.7900390625
-36.62109375
-39.36767578125
-33.87451171875
-27.4658203125
-18.310546875
-29.296875
-38.4521484375
-29.296875
-41.19873046875
-51.26953125
-44.86083984375
-25.634765625
-1.8310546875
20.1416015625
56.7626953125
60.4248046875
66.83349609375
62.255859375
65.91796875
54.931640625
40.283203125
56.7626953125
65.91796875
89.7216796875
80.56640625
101.62353515625
126.3427734375
115.3564453125
99.79248046875
33.87451171875
-120.849609375
-298.4619140625
-466.00341796875
-665.58837890625
-811.1572265625
-890.80810546875
-961.3037109375
-989.68505859375
-958.55712890625
-903.62548828125
-835.87646484375
-776.3671875
-706.787109375
-609.7412109375
-545.654296875
-496.2158203125
-434.87548828125
-395.5078125
-360.7177734375
-337.82958984375
-313.1103515625
-285.64453125
-258.1787109375
-231.62841796875
-216.064453125
-191.34521484375
-184.9365234375
-184.02099609375
-185.85205078125
-189.51416015625
-189.51416015625
-178.52783203125
-167.54150390625
-162.04833984375
-151.06201171875
-130.0048828125
-133.6669921875
-136.41357421875
-127.25830078125
-119.93408203125
-127.25830078125
-108.0322265625
-98.876953125
-89.7216796875
-72.32666015625
-59.50927734375
-56.7626953125
-63.17138671875
-63.17138671875
-61.34033203125
-53.1005859375
-17.39501953125
0
21.97265625
33.87451171875
48.52294921875
45.7763671875
30.21240234375
43.02978515625
37.53662109375
36.62109375
64.0869140625
75.0732421875
84.228515625
97.0458984375
89.7216796875
80.56640625
71.4111328125
72.32666015625
65.00244140625
69.580078125
77.81982421875
89.7216796875
102.5390625
106.201171875
113.525390625
109.86328125
98.876953125
89.7216796875
95.21484375
99.79248046875
106.201171875
99.79248046875
108.0322265625
112.60986328125
126.3427734375
117.1875
108.94775390625
91.552734375
97.0458984375
112.60986328125
119.0185546875
126.3427734375
140.07568359375
143.73779296875
149.23095703125
143.73779296875
135.498046875
136.41357421875
119.93408203125
131.8359375
146.484375
162.04833984375
173.9501953125
172.119140625
173.03466796875
168.45703125
159.3017578125
171.20361328125
176.69677734375
179.443359375
185.85205078125
195.9228515625
191.34521484375
198.66943359375
202.33154296875
195.9228515625
198.66943359375
200.50048828125
194.091796875
193.17626953125
210.5712890625
221.5576171875
223.388671875
227.05078125
221.5576171875
230.712890625
227.96630859375
216.064453125
216.97998046875
218.81103515625
215.14892578125
217.8955078125
217.8955078125
221.5576171875
222.47314453125
218.81103515625
208.740234375
206.9091796875
206.9091796875
190.4296875
180.35888671875
182.18994140625
180.35888671875
173.9501953125
149.23095703125
147.39990234375
140.9912109375
127.25830078125
114.44091796875
96.13037109375
105.28564453125
110.77880859375
129.08935546875
125.42724609375
100.7080078125
82.3974609375
69.580078125
63.17138671875
49.4384765625
55.84716796875
66.83349609375
64.0869140625
69.580078125
67.7490234375
61.34033203125
47.607421875
48.52294921875
43.02978515625
33.87451171875
39.36767578125
41.19873046875
43.02978515625
43.9453125
47.607421875
48.52294921875
33.87451171875
32.958984375
21.97265625
15.56396484375
13.73291015625
24.71923828125
32.958984375
32.04345703125
40.283203125
33.87451171875
30.21240234375
17.39501953125
25.634765625
21.05712890625
17.39501953125
10.986328125
25.634765625
35.70556640625
45.7763671875
37.53662109375
39.36767578125
36.62109375
33.87451171875
15.56396484375
18.310546875
26.55029296875
42.1142578125
59.50927734375
59.50927734375
43.9453125
40.283203125
29.296875
26.55029296875
32.04345703125
32.04345703125
25.634765625
28.38134765625
31.1279296875
39.36767578125
37.53662109375
24.71923828125
27.4658203125
25.634765625
21.05712890625
15.56396484375
11.90185546875
9.1552734375
20.1416015625
18.310546875
24.71923828125
31.1279296875
30.21240234375
21.97265625
12.8173828125
-0.91552734375
-5.4931640625
-3.662109375
7.32421875
16.4794921875
10.07080078125
25.634765625
19.22607421875
14.6484375
4.57763671875
-0.91552734375
4.57763671875
15.56396484375
9.1552734375
18.310546875
10.986328125
7.32421875
2.74658203125
6.40869140625
-7.32421875
-16.4794921875
-19.22607421875
-15.56396484375
-2.74658203125
3.662109375
-0.91552734375
-1.8310546875
-10.986328125
0
19.22607421875
19.22607421875
25.634765625
36.62109375
58.59375
63.17138671875
43.02978515625
40.283203125
44.86083984375
42.1142578125
54.931640625
46.69189453125
50.35400390625
42.1142578125
47.607421875
63.17138671875
68.66455078125
81.48193359375
86.97509765625
75.0732421875
72.32666015625
72.32666015625
71.4111328125
67.7490234375
89.7216796875
103.45458984375
92.46826171875
91.552734375
75.98876953125
45.7763671875
42.1142578125
37.53662109375
38.4521484375
40.283203125
44.86083984375
35.70556640625
16.4794921875
5.4931640625
11.90185546875
0.91552734375
-10.07080078125
-26.55029296875
-32.04345703125
-33.87451171875
-19.22607421875
-8.23974609375
-22.88818359375
-21.97265625
-34.7900390625
-34.7900390625
-39.36767578125
-41.19873046875
-36.62109375
-39.36767578125
-32.958984375
-21.97265625
-18.310546875
-19.22607421875
-31.1279296875
-47.607421875
-46.69189453125
-56.7626953125
-43.9453125
-34.7900390625
-19.22607421875
-25.634765625
-27.4658203125
-35.70556640625
-41.19873046875
-34.7900390625
-45.7763671875
-55.84716796875
-42.1142578125
-27.4658203125
-19.22607421875
0.91552734375
12.8173828125
34.7900390625
22.88818359375
38.4521484375
64.0869140625
49.4384765625
47.607421875
56.7626953125
60.4248046875
72.32666015625
93.3837890625
81.48193359375
95.21484375
119.93408203125
126.3427734375
104.3701171875
97.0458984375
48.52294921875
-97.96142578125
-269.1650390625
-426.6357421875
-630.79833984375
-793.76220703125
-882.568359375
-968.6279296875
-1001.5869140625
-951.23291015625
-892.63916015625
-828.55224609375
-772.705078125
-700.37841796875
-606.99462890625
-563.96484375
-520.93505859375
-470.5810546875
-429.38232421875
-377.197265625
-339.66064453125
-303.03955078125
-272.8271484375
-259.09423828125
-249.0234375
-233.45947265625
-217.8955078125
-204.16259765625
-205.99365234375
-206.9091796875
-195.00732421875
-178.52783203125
-177.6123046875
-185.85205078125
-178.52783203125
-158.38623046875
-178.52783203125
-162.04833984375
-142.822265625
-143.73779296875
-130.92041015625
-104.3701171875
-94.29931640625
-95.21484375
-97.0458984375
-99.79248046875
-86.0595703125
-81.48193359375
-72.32666015625
-65.00244140625
-61.34033203125
-30.21240234375
-2.74658203125
-1.8310546875
18.310546875
39.36767578125
29.296875
22.88818359375
25.634765625
29.296875
41.19873046875
56.7626953125
70.49560546875
67.7490234375
70.49560546875
62.255859375
49.4384765625
56.7626953125
56.7626953125
59.50927734375
73.2421875
90.63720703125
92.46826171875
84.228515625
76.904296875
78.7353515625
78.7353515625
88.80615234375
80.56640625
77.81982421875
78.7353515625
87.890625
93.3837890625
109.86328125
119.93408203125
119.93408203125
109.86328125
98.876953125
101.62353515625
108.0322265625
115.3564453125
121.76513671875
119.93408203125
116.27197265625
127.25830078125
126.3427734375
129.08935546875
129.08935546875
122.6806640625
131.8359375
141.90673828125
148.3154296875
157.470703125
167.54150390625
179.443359375
181.2744140625
179.443359375
169.37255859375
157.470703125
162.9638671875
185.85205078125
195.9228515625
201.416015625
196.83837890625
190.4296875
189.51416015625
182.18994140625
190.4296875
191.34521484375
190.4296875
215.14892578125
217.8955078125
227.05078125
225.2197265625
217.8955078125
222.47314453125
215.14892578125
213.31787109375
205.99365234375
200.50048828125
209.65576171875
226.13525390625
239.8681640625
227.05078125
219.7265625
218.81103515625
217.8955078125
205.078125
202.33154296875
198.66943359375
204.16259765625
201.416015625
199.5849609375
190.4296875
172.119140625
155.6396484375
144.6533203125
142.822265625
127.25830078125
132.75146484375
145.56884765625
136.41357421875
122.6806640625
117.1875
108.94775390625
102.5390625
83.31298828125
69.580078125
56.7626953125
56.7626953125
61.34033203125
64.0869140625
62.255859375
56.7626953125
51.26953125
44.86083984375
38.4521484375
32.958984375
29.296875
28.38134765625
36.62109375
45.7763671875
43.02978515625
41.19873046875
31.1279296875
24.71923828125
15.56396484375
12.8173828125
5.4931640625
10.986328125
25.634765625
37.53662109375
36.62109375
29.296875
22.88818359375
21.05712890625
17.39501953125
12.8173828125
9.1552734375
12.8173828125
16.4794921875
35.70556640625
39.36767578125
32.04345703125
32.958984375
29.296875
15.56396484375
10.986328125
15.56396484375
21.97265625
30.21240234375
38.4521484375
41.19873046875
39.36767578125
37.53662109375
32.958984375
25.634765625
26.55029296875
23.8037109375
30.21240234375
32.04345703125
32.04345703125
41.19873046875
37.53662109375
37.53662109375
32.958984375
27.4658203125
25.634765625
14.6484375
24.71923828125
22.88818359375
32.04345703125
32.958984375
38.4521484375
17.39501953125
8.23974609375
1.8310546875
9.1552734375
-5.4931640625
-7.32421875
-3.662109375
6.40869140625
22.88818359375
24.71923828125
11.90185546875
9.1552734375
-6.40869140625
-0.91552734375
0
-2.74658203125
16.4794921875
12.8173828125
12.8173828125
15.56396484375
11.90185546875
13.73291015625
0
-2.74658203125
-10.986328125
-7.32421875
-7.32421875
4.57763671875
4.57763671875
-2.74658203125
3.662109375
0.91552734375
-0.91552734375
-2.74658203125
-3.662109375
6.40869140625
25.634765625
47.607421875
54.01611328125
50.35400390625
48.52294921875
50.35400390625
45.7763671875
47.607421875
53.1005859375
39.36767578125
47.607421875
48.52294921875
68.66455078125
75.0732421875
84.228515625
91.552734375
86.0595703125
77.81982421875
72.32666015625
70.49560546875
68.66455078125
80.56640625
96.13037109375
89.7216796875
80.56640625
66.83349609375
52.18505859375
44.86083984375
36.62109375
30.21240234375
42.1142578125
44.86083984375
37.53662109375
25.634765625
18.310546875
0
-18.310546875
-25.634765625
-39.36767578125
-21.05712890625
-12.8173828125
-10.986328125
-13.73291015625
-21.05712890625
-28.38134765625
-38.4521484375
-42.1142578125
-41.19873046875
-43.02978515625
-38.4521484375
-32.04345703125
-22.88818359375
-23.8037109375
-47.607421875
-45.7763671875
-49.4384765625
-49.4384765625
-45.7763671875
-41.19873046875
-39.36767578125
-44.86083984375
-40.283203125
-24.71923828125
-30.21240234375
-36.62109375
-33.87451171875
-37.53662109375
-40.283203125
-38.4521484375
-41.19873046875
-38.4521484375
-32.958984375
-22.88818359375
-23.8037109375
-9.1552734375
11.90185546875
12.8173828125
33.87451171875
44.86083984375
54.931640625
55.84716796875
65.00244140625
81.48193359375
77.81982421875
86.0595703125
94.29931640625
107.11669921875
130.0048828125
159.3017578125
160.21728515625
159.3017578125
116.27197265625
-27.4658203125
-216.064453125
-392.76123046875
-611.572265625
-782.77587890625
-869.7509765625
-955.810546875
-1004.33349609375
-963.134765625
-912.78076171875
-852.35595703125
-789.1845703125
-715.02685546875
-632.62939453125
-578.61328125
-526.42822265625
-481.5673828125
-423.88916015625
-381.77490234375
-343.32275390625
-314.02587890625
-281.982421875
-259.09423828125
-248.10791015625
-231.62841796875
-211.48681640625
-197.75390625
-207.82470703125
-199.5849609375
-182.18994140625
-171.20361328125
-171.20361328125
-184.02099609375
-191.34521484375
-179.443359375
-169.37255859375
-169.37255859375
-165.71044921875
-144.6533203125
-121.76513671875
-116.27197265625
-113.525390625
-106.201171875
-94.29931640625
-93.3837890625
-101.62353515625
-84.228515625
-82.3974609375
-71.4111328125
-53.1005859375
-32.958984375
-16.4794921875
2.74658203125
8.23974609375
6.40869140625
11.90185546875
15.56396484375
17.39501953125
22.88818359375
38.4521484375
54.931640625
56.7626953125
64.0869140625
54.931640625
39.36767578125
62.255859375
55.84716796875
59.50927734375
75.98876953125
83.31298828125
82.3974609375
82.3974609375
87.890625
80.56640625
72.32666015625
80.56640625
79.65087890625
70.49560546875
71.4111328125
87.890625
99.79248046875
88.80615234375
90.63720703125
99.79248046875
100.7080078125
96.13037109375
98.876953125
99.79248046875
107.11669921875
120.849609375
131.8359375
131.8359375
127.25830078125
125.42724609375
121.76513671875
124.51171875
118.10302734375
124.51171875
134.58251953125
144.6533203125
143.73779296875
160.21728515625
155.6396484375
151.06201171875
151.06201171875
157.470703125
168.45703125
164.794921875
156.55517578125
169.37255859375
183.10546875
182.18994140625
181.2744140625
192.2607421875
186.767578125
183.10546875
180.35888671875
184.9365234375
193.17626953125
209.65576171875
221.5576171875
203.2470703125
189.51416015625
186.767578125
195.00732421875
208.740234375
207.82470703125
216.064453125
217.8955078125
227.96630859375
228.8818359375
231.62841796875
227.05078125
222.47314453125
208.740234375
205.078125
199.5849609375
191.34521484375
191.34521484375
195.00732421875
195.9228515625
179.443359375
165.71044921875
161.1328125
154.72412109375
147.39990234375
135.498046875
126.3427734375
124.51171875
116.27197265625
106.201171875
106.201171875
93.3837890625
78.7353515625
85.14404296875
89.7216796875
64.0869140625
46.69189453125
54.01611328125
46.69189453125
48.52294921875
51.26953125
43.02978515625
28.38134765625
29.296875
29.296875
21.97265625
23.8037109375
15.56396484375
28.38134765625
33.87451171875
28.38134765625
13.73291015625
16.4794921875
16.4794921875
5.4931640625
-9.1552734375
-17.39501953125
12.8173828125
15.56396484375
25.634765625
21.97265625
18.310546875
18.310546875
10.986328125
-2.74658203125
-10.07080078125
0.91552734375
10.07080078125
15.56396484375
21.97265625
22.88818359375
21.97265625
13.73291015625
10.986328125
9.1552734375
10.07080078125
8.23974609375
12.8173828125
27.4658203125
42.1142578125
41.19873046875
31.1279296875
35.70556640625
29.296875
15.56396484375
10.986328125
15.56396484375
22.88818359375
28.38134765625
37.53662109375
30.21240234375
32.04345703125
25.634765625
17.39501953125
13.73291015625
2.74658203125
11.90185546875
21.05712890625
15.56396484375
26.55029296875
22.88818359375
12.8173828125
19.22607421875
12.8173828125
5.4931640625
4.57763671875
2.74658203125
4.57763671875
14.6484375
19.22607421875
23.8037109375
22.88818359375
6.40869140625
-4.57763671875
-3.662109375
-9.1552734375
-4.57763671875
3.662109375
15.56396484375
17.39501953125
7.32421875
-0.91552734375
-3.662109375
1.8310546875
-5.4931640625
-19.22607421875
-16.4794921875
-8.23974609375
-2.74658203125
7.32421875
5.4931640625
-12.8173828125
-13.73291015625
-14.6484375
-9.1552734375
-21.05712890625
-15.56396484375
-8.23974609375
-4.57763671875
5.4931640625
10.986328125
10.986328125
0
-5.4931640625
1.8310546875
13.73291015625
18.310546875
22.88818359375
32.04345703125
43.02978515625
51.26953125
47.607421875
41.19873046875
53.1005859375
52.18505859375
34.7900390625
32.958984375
41.19873046875
54.931640625
75.0732421875
86.0595703125
87.890625
75.98876953125
67.7490234375
65.00244140625
51.26953125
40.283203125
54.01611328125
74.15771484375
86.97509765625
84.228515625
62.255859375
52.18505859375
39.36767578125
27.4658203125
14.6484375
20.1416015625
26.55029296875
27.4658203125
21.97265625
16.4794921875
10.986328125
-4.57763671875
-19.22607421875
-30.21240234375
-33.87451171875
-26.55029296875
-27.4658203125
-21.05712890625
-32.958984375
-20.1416015625
-31.1279296875
-35.70556640625
-42.1142578125
-52.18505859375
-47.607421875
-50.35400390625
-60.4248046875
-41.19873046875
-30.21240234375
-25.634765625
-24.71923828125
-27.4658203125
-30.21240234375
-40.283203125
-37.53662109375
-42.1142578125
-39.36767578125
-32.04345703125
-14.6484375
-21.97265625
-30.21240234375
-31.1279296875
-29.296875
-34.7900390625
-34.7900390625
-32.958984375
-25.634765625
-9.1552734375
10.986328125
17.39501953125
32.04345703125
52.18505859375
67.7490234375
60.4248046875
53.1005859375
74.15771484375
83.31298828125
97.96142578125
117.1875
140.07568359375
154.72412109375
166.6259765625
190.4296875
187.68310546875
161.1328125
152.89306640625
37.53662109375
-152.89306640625
-325.01220703125
-526.42822265625
-732.421875
-833.1298828125
-936.58447265625
-1011.65771484375
-995.17822265625
-946.6552734375
-888.0615234375
-823.05908203125
-736.99951171875
-643.61572265625
-563.96484375
-520.01953125
-492.5537109375
-448.6083984375
-397.3388671875
-350.64697265625
-313.1103515625
-283.8134765625
-252.685546875
-230.712890625
-219.7265625
-205.078125
-197.75390625
-189.51416015625
-197.75390625
-194.091796875
-178.52783203125
-162.04833984375
-161.1328125
-154.72412109375
-167.54150390625
-170.2880859375
-164.794921875
-151.9775390625
-148.3154296875
-154.72412109375
-139.16015625
-103.45458984375
-88.80615234375
-72.32666015625
-64.0869140625
-65.00244140625
-54.01611328125
-60.4248046875
-64.0869140625
-65.91796875
-50.35400390625
-20.1416015625
5.4931640625
19.22607421875
28.38134765625
43.9453125
48.52294921875
38.4521484375
38.4521484375
43.9453125
53.1005859375
71.4111328125
82.3974609375
71.4111328125
70.49560546875
70.49560546875
64.0869140625
69.580078125
70.49560546875
64.0869140625
81.48193359375
87.890625
88.80615234375
86.97509765625
86.0595703125
78.7353515625
83.31298828125
81.48193359375
80.56640625
72.32666015625
76.904296875
98.876953125
103.45458984375
106.201171875
106.201171875
108.0322265625
108.94775390625
103.45458984375
97.96142578125
93.3837890625
108.0322265625
118.10302734375
129.08935546875
131.8359375
131.8359375
134.58251953125
142.822265625
122.6806640625
128.173828125
141.90673828125
146.484375
156.55517578125
172.119140625
176.69677734375
178.52783203125
166.6259765625
156.55517578125
162.9638671875
163.87939453125
161.1328125
171.20361328125
185.85205078125
191.34521484375
202.33154296875
200.50048828125
208.740234375
214.2333984375
202.33154296875
203.2470703125
207.82470703125
211.48681640625
218.81103515625
230.712890625
238.037109375
249.0234375
229.79736328125
218.81103515625
217.8955078125
210.5712890625
207.82470703125
220.64208984375
228.8818359375
232.5439453125
234.375
233.45947265625
224.30419921875
216.064453125
208.740234375
185.85205078125
194.091796875
206.9091796875
197.75390625
191.34521484375
190.4296875
180.35888671875
167.54150390625
161.1328125
151.06201171875
134.58251953125
131.8359375
129.08935546875
116.27197265625
111.6943359375
103.45458984375
96.13037109375
79.65087890625
65.91796875
55.84716796875
59.50927734375
64.0869140625
61.34033203125
52.18505859375
60.4248046875
51.26953125
38.4521484375
35.70556640625
23.8037109375
22.88818359375
24.71923828125
30.21240234375
24.71923828125
21.97265625
22.88818359375
23.8037109375
21.97265625
13.73291015625
8.23974609375
5.4931640625
3.662109375
7.32421875
13.73291015625
20.1416015625
24.71923828125
28.38134765625
17.39501953125
14.6484375
2.74658203125
2.74658203125
7.32421875
2.74658203125
7.32421875
17.39501953125
10.07080078125
24.71923828125
26.55029296875
17.39501953125
14.6484375
6.40869140625
1.8310546875
0.91552734375
1.8310546875
18.310546875
34.7900390625
40.283203125
37.53662109375
27.4658203125
16.4794921875
13.73291015625
3.662109375
-6.40869140625
0.91552734375
8.23974609375
31.1279296875
33.87451171875
30.21240234375
29.296875
22.88818359375
10.07080078125
5.4931640625
1.8310546875
4.57763671875
10.07080078125
16.4794921875
18.310546875
15.56396484375
8.23974609375
10.986328125
7.32421875
-1.8310546875
-11.90185546875
-11.90185546875
1.8310546875
10.986328125
0.91552734375
6.40869140625
10.986328125
-4.57763671875
-10.07080078125
-14.6484375
-15.56396484375
-10.986328125
-3.662109375
3.662109375
1.8310546875
-6.40869140625
-15.56396484375
-15.56396484375
-17.39501953125
-27.4658203125
-32.958984375
-25.634765625
-18.310546875
-5.4931640625
-9.1552734375
-27.4658203125
-21.05712890625
-14.6484375
-10.986328125
-16.4794921875
-32.958984375
-22.88818359375
-8.23974609375
-3.662109375
-4.57763671875
-2.74658203125
-3.662109375
4.57763671875
14.6484375
20.1416015625
12.8173828125
21.05712890625
29.296875
34.7900390625
32.958984375
40.283203125
43.02978515625
36.62109375
24.71923828125
25.634765625
16.4794921875
22.88818359375
43.9453125
65.00244140625
63.17138671875
48.52294921875
43.9453125
31.1279296875
29.296875
20.1416015625
32.958984375
48.52294921875
50.35400390625
53.1005859375
43.9453125
33.87451171875
23.8037109375
12.8173828125
16.4794921875
3.662109375
-10.986328125
-15.56396484375
-13.73291015625
-3.662109375
-14.6484375
-18.310546875
-31.1279296875
-41.19873046875
-47.607421875
-55.84716796875
-54.931640625
-61.34033203125
-54.931640625
-44.86083984375
-46.69189453125
-43.9453125
-46.69189453125
-58.59375
-66.83349609375
-74.15771484375
-69.580078125
-53.1005859375
-44.86083984375
-45.7763671875
-43.02978515625
-50.35400390625
-52.18505859375
-48.52294921875
-55.84716796875
-57.67822265625
-69.580078125
-62.255859375
-52.18505859375
-53.1005859375
-44.86083984375
-43.02978515625
-43.02978515625
-54.931640625
-50.35400390625
-39.36767578125
-25.634765625
-16.4794921875
16.4794921875
47.607421875
64.0869140625
56.7626953125
56.7626953125
55.84716796875
47.607421875
40.283203125
52.18505859375
67.7490234375
89.7216796875
120.849609375
145.56884765625
166.6259765625
156.55517578125
140.07568359375
80.56640625
-67.7490234375
-265.5029296875
-438.53759765625
-643.61572265625
-816.650390625
-888.0615234375
-960.38818359375
-1025.390625
-1001.5869140625
-947.57080078125
-888.0615234375
-830.38330078125
-749.81689453125
-642.7001953125
-561.21826171875
-510.8642578125
-460.51025390625
-410.15625
-377.197265625
-353.3935546875
-314.94140625
-289.306640625
-271.91162109375
-240.78369140625
-211.48681640625
-201.416015625
-195.9228515625
-191.34521484375
-202.33154296875
-195.00732421875
-188.5986328125
-200.50048828125
-203.2470703125
-184.9365234375
-175.78125
-173.9501953125
-169.37255859375
-171.20361328125
-155.6396484375
-156.55517578125
-158.38623046875
-140.07568359375
-122.6806640625
-110.77880859375
-97.96142578125
-84.228515625
-75.0732421875
-74.15771484375
-79.65087890625
-72.32666015625
-54.01611328125
-32.958984375
-12.8173828125
8.23974609375
17.39501953125
22.88818359375
21.97265625
27.4658203125
35.70556640625
40.283203125
46.69189453125
45.7763671875
52.18505859375
65.91796875
73.2421875
71.4111328125
63.17138671875
66.83349609375
65.00244140625
59.50927734375
59.50927734375
53.1005859375
67.7490234375
75.0732421875
86.0595703125
89.7216796875
85.14404296875
83.31298828125
80.56640625
77.81982421875
75.0732421875
85.14404296875
90.63720703125
92.46826171875
99.79248046875
99.79248046875
97.96142578125
100.7080078125
97.96142578125
104.3701171875
98.876953125
100.7080078125
101.62353515625
110.77880859375
128.173828125
136.41357421875
137.3291015625
130.0048828125
128.173828125
134.58251953125
140.9912109375
140.9912109375
154.72412109375
167.54150390625
166.6259765625
168.45703125
178.52783203125
173.9501953125
167.54150390625
161.1328125
155.6396484375
169.37255859375
182.18994140625
187.68310546875
202.33154296875
205.99365234375
209.65576171875
205.078125
208.740234375
206.9091796875
205.99365234375
201.416015625
213.31787109375
216.064453125
228.8818359375
230.712890625
222.47314453125
226.13525390625
220.64208984375
226.13525390625
216.064453125
211.48681640625
216.064453125
225.2197265625
230.712890625
230.712890625
220.64208984375
205.99365234375
192.2607421875
191.34521484375
181.2744140625
179.443359375
179.443359375
172.119140625
171.20361328125
169.37255859375
155.6396484375
142.822265625
127.25830078125
124.51171875
111.6943359375
95.21484375
88.80615234375
89.7216796875
89.7216796875
90.63720703125
78.7353515625
65.00244140625
44.86083984375
35.70556640625
30.21240234375
28.38134765625
37.53662109375
42.1142578125
43.02978515625
42.1142578125
32.958984375
26.55029296875
25.634765625
12.8173828125
6.40869140625
1.8310546875
-4.57763671875
17.39501953125
21.97265625
17.39501953125
14.6484375
2.74658203125
-3.662109375
-6.40869140625
-7.32421875
-13.73291015625
-13.73291015625
3.662109375
14.6484375
16.4794921875
18.310546875
19.22607421875
2.74658203125
-0.91552734375
-9.1552734375
-14.6484375
1.8310546875
13.73291015625
14.6484375
14.6484375
10.986328125
7.32421875
7.32421875
4.57763671875
6.40869140625
-1.8310546875
8.23974609375
12.8173828125
23.8037109375
28.38134765625
30.21240234375
18.310546875
14.6484375
8.23974609375
2.74658203125
0.91552734375
7.32421875
9.1552734375
21.05712890625
12.8173828125
-1.8310546875
-7.32421875
-7.32421875
-10.986328125
-6.40869140625
-1.8310546875
-4.57763671875
-0.91552734375
-10.07080078125
-5.4931640625
4.57763671875
3.662109375
-7.32421875
-16.4794921875
-22.88818359375
-16.4794921875
-18.310546875
-4.57763671875
2.74658203125
-1.8310546875
-11.90185546875
-16.4794921875
-18.310546875
-22.88818359375
-24.71923828125
-18.310546875
-9.1552734375
-16.4794921875
-6.40869140625
-7.32421875
-13.73291015625
-19.22607421875
-25.634765625
-32.04345703125
-37.53662109375
-31.1279296875
-26.55029296875
-22.88818359375
-10.986328125
-3.662109375
-12.8173828125
-27.4658203125
-30.21240234375
-37.53662109375
-49.4384765625
-48.52294921875
-30.21240234375
-15.56396484375
-14.6484375
-16.4794921875
-21.97265625
-27.4658203125
-32.04345703125
-33.87451171875
-37.53662109375
-28.38134765625
-17.39501953125
-17.39501953125
-29.296875
-9.1552734375
-18.310546875
-22.88818359375
-25.634765625
-17.39501953125
-21.97265625
-35.70556640625
-29.296875
-14.6484375
4.57763671875
15.56396484375
23.8037109375
10.986328125
17.39501953125
19.22607421875
12.8173828125
6.40869140625
18.310546875
38.4521484375
46.69189453125
39.36767578125
35.70556640625
26.55029296875
15.56396484375
19.22607421875
25.634765625
29.296875
28.38134765625
37.53662109375
50.35400390625
54.01611328125
42.1142578125
35.70556640625
48.52294921875
39.36767578125
26.55029296875
14.6484375
14.6484375
11.90185546875
16.4794921875
12.8173828125
5.4931640625
0
-12.8173828125
-24.71923828125
-32.958984375
-33.87451171875
-19.22607421875
-22.88818359375
-15.56396484375
-22.88818359375
-36.62109375
-44.86083984375
-45.7763671875
-51.26953125
-51.26953125
-58.59375
-61.34033203125
-59.50927734375
-47.607421875
-43.9453125
-44.86083984375
-48.52294921875
-54.931640625
-52.18505859375
-54.01611328125
-67.7490234375
-61.34033203125
-47.607421875
-36.62109375
-37.53662109375
-41.19873046875
-44.86083984375
-38.4521484375
-48.52294921875
-69.580078125
-78.7353515625
-46.69189453125
-43.02978515625
-28.38134765625
-25.634765625
-23.8037109375
-6.40869140625
10.07080078125
22.88818359375
40.283203125
54.01611328125
53.1005859375
57.67822265625
67.7490234375
64.0869140625
65.00244140625
70.49560546875
86.0595703125
96.13037109375
98.876953125
133.6669921875
138.24462890625
123.59619140625
97.96142578125
-30.21240234375
-229.79736328125
-413.818359375
-608.82568359375
-798.33984375
-884.3994140625
-969.54345703125
-1018.06640625
-989.68505859375
-936.58447265625
-875.244140625
-810.24169921875
-730.5908203125
-648.193359375
-566.71142578125
-520.01953125
-474.2431640625
-413.818359375
-357.0556640625
-320.4345703125
-299.37744140625
-286.56005859375
-262.75634765625
-249.93896484375
-238.95263671875
-224.30419921875
-215.14892578125
-206.9091796875
-193.17626953125
-184.02099609375
-173.9501953125
-175.78125
-184.9365234375
-189.51416015625
-185.85205078125
-191.34521484375
-191.34521484375
-181.2744140625
-149.23095703125
-125.42724609375
-120.849609375
-127.25830078125
-115.3564453125
-106.201171875
-109.86328125
-105.28564453125
-94.29931640625
-79.65087890625
-77.81982421875
-56.7626953125
-32.04345703125
-13.73291015625
-5.4931640625
-4.57763671875
-0.91552734375
17.39501953125
24.71923828125
21.05712890625
41.19873046875
50.35400390625
53.1005859375
51.26953125
52.18505859375
57.67822265625
53.1005859375
47.607421875
55.84716796875
54.931640625
66.83349609375
76.904296875
80.56640625
75.98876953125
81.48193359375
79.65087890625
73.2421875
63.17138671875
55.84716796875
75.0732421875
81.48193359375
90.63720703125
91.552734375
94.29931640625
93.3837890625
95.21484375
89.7216796875
80.56640625
84.228515625
97.0458984375
105.28564453125
119.93408203125
132.75146484375
127.25830078125
120.849609375
118.10302734375
124.51171875
119.93408203125
114.44091796875
118.10302734375
125.42724609375
135.498046875
143.73779296875
147.39990234375
142.822265625
152.89306640625
143.73779296875
141.90673828125
146.484375
159.3017578125
177.6123046875
180.35888671875
183.10546875
184.9365234375
179.443359375
189.51416015625
191.34521484375
197.75390625
195.9228515625
195.9228515625
208.740234375
217.8955078125
221.5576171875
222.47314453125
222.47314453125
215.14892578125
216.97998046875
219.7265625
222.47314453125
219.7265625
217.8955078125
235.29052734375
244.44580078125
234.375
232.5439453125
244.44580078125
230.712890625
219.7265625
207.82470703125
206.9091796875
212.40234375
211.48681640625
212.40234375
200.50048828125
191.34521484375
181.2744140625
167.54150390625
154.72412109375
151.06201171875
151.9775390625
149.23095703125
151.06201171875
152.89306640625
134.58251953125
123.59619140625
118.10302734375
101.62353515625
95.21484375
85.14404296875
76.904296875
80.56640625
81.48193359375
82.3974609375
77.81982421875
69.580078125
54.931640625
43.02978515625
42.1142578125
28.38134765625
32.04345703125
41.19873046875
54.01611328125
51.26953125
38.4521484375
37.53662109375
28.38134765625
17.39501953125
7.32421875
5.4931640625
14.6484375
18.310546875
32.04345703125
22.88818359375
19.22607421875
22.88818359375
17.39501953125
18.310546875
18.310546875
7.32421875
16.4794921875
22.88818359375
29.296875
32.04345703125
25.634765625
22.88818359375
20.1416015625
11.90185546875
11.90185546875
7.32421875
18.310546875
21.97265625
24.71923828125
40.283203125
26.55029296875
25.634765625
21.97265625
15.56396484375
17.39501953125
16.4794921875
18.310546875
23.8037109375
32.04345703125
31.1279296875
18.310546875
20.1416015625
17.39501953125
3.662109375
5.4931640625
3.662109375
7.32421875
15.56396484375
15.56396484375
21.97265625
21.05712890625
14.6484375
10.986328125
-6.40869140625
-17.39501953125
-7.32421875
-0.91552734375
2.74658203125
11.90185546875
12.8173828125
14.6484375
3.662109375
-3.662109375
-8.23974609375
-18.310546875
-19.22607421875
-18.310546875
-8.23974609375
5.4931640625
1.8310546875
2.74658203125
0.91552734375
-2.74658203125
-3.662109375
-17.39501953125
-24.71923828125
-19.22607421875
-17.39501953125
-8.23974609375
-10.986328125
-7.32421875
-6.40869140625
-8.23974609375
-10.07080078125
-11.90185546875
-17.39501953125
-18.310546875
-20.1416015625
-15.56396484375
-6.40869140625
-6.40869140625
-10.07080078125
-17.39501953125
-26.55029296875
-28.38134765625
-31.1279296875
-19.22607421875
-19.22607421875
-11.90185546875
-11.90185546875
-16.4794921875
-10.07080078125
-15.56396484375
-30.21240234375
-36.62109375
-32.958984375
-34.7900390625
-38.4521484375
-23.8037109375
-11.90185546875
-10.07080078125
-10.07080078125
-14.6484375
-21.97265625
-30.21240234375
-34.7900390625
-23.8037109375
-21.97265625
-19.22607421875
-18.310546875
-9.1552734375
-17.39501953125
-27.4658203125
-29.296875
-30.21240234375
-40.283203125
-29.296875
-21.97265625
-3.662109375
10.07080078125
13.73291015625
17.39501953125
21.97265625
22.88818359375
20.1416015625
21.05712890625
32.04345703125
36.62109375
45.7763671875
44.86083984375
33.87451171875
26.55029296875
21.05712890625
19.22607421875
13.73291015625
26.55029296875
49.4384765625
51.26953125
53.1005859375
52.18505859375
33.87451171875
44.86083984375
32.04345703125
29.296875
32.958984375
35.70556640625
35.70556640625
35.70556640625
37.53662109375
30.21240234375
22.88818359375
16.4794921875
18.310546875
0.91552734375
-18.310546875
-28.38134765625
-16.4794921875
-8.23974609375
-4.57763671875
-7.32421875
-21.97265625
-25.634765625
-26.55029296875
-33.87451171875
-43.9453125
-55.84716796875
-60.4248046875
-56.7626953125
-33.87451171875
-25.634765625
-32.04345703125
-47.607421875
-52.18505859375
-55.84716796875
-59.50927734375
-67.7490234375
-58.59375
-49.4384765625
-45.7763671875
-41.19873046875
-32.958984375
-32.04345703125
-43.9453125
-42.1142578125
-40.283203125
-49.4384765625
-45.7763671875
-47.607421875
-29.296875
-24.71923828125
-34.7900390625
-36.62109375
-35.70556640625
-43.9453125
-22.88818359375
1.8310546875
18.310546875
42.1142578125
57.67822265625
63.17138671875
65.91796875
66.83349609375
58.59375
60.4248046875
65.00244140625
72.32666015625
93.3837890625
108.94775390625
136.41357421875
140.07568359375
130.92041015625
100.7080078125
-32.958984375
-226.13525390625
-415.6494140625
-614.31884765625
-802.001953125
-872.49755859375
-952.1484375
-994.2626953125
-966.796875
-932.0068359375
-891.7236328125
-823.05908203125
-735.16845703125
-639.0380859375
-540.1611328125
-481.5673828125
-433.04443359375
-394.59228515625
-361.63330078125
-326.84326171875
-303.955078125
-284.72900390625
-265.5029296875
-242.61474609375
-218.81103515625
-204.16259765625
-186.767578125
-180.35888671875
-180.35888671875
-183.10546875
-184.02099609375
-189.51416015625
-194.091796875
-195.9228515625
-188.5986328125
-175.78125
-163.87939453125
-150.146484375
-138.24462890625
-131.8359375
-134.58251953125
-134.58251953125
-119.0185546875
-114.44091796875
-105.28564453125
-102.5390625
-75.0732421875
-65.00244140625
-62.255859375
-59.50927734375
-48.52294921875
-32.958984375
-19.22607421875
-14.6484375
0
12.8173828125
21.97265625
30.21240234375
27.4658203125
43.02978515625
47.607421875
46.69189453125
48.52294921875
43.02978515625
46.69189453125
53.1005859375
65.00244140625
73.2421875
73.2421875
70.49560546875
62.255859375
59.50927734375
52.18505859375
48.52294921875
62.255859375
72.32666015625
82.3974609375
96.13037109375
92.46826171875
89.7216796875
79.65087890625
79.65087890625
78.7353515625
68.66455078125
77.81982421875
86.0595703125
92.46826171875
105.28564453125
108.0322265625
116.27197265625
104.3701171875
100.7080078125
95.21484375
101.62353515625
108.94775390625
119.93408203125
130.92041015625
137.3291015625
131.8359375
132.75146484375
139.16015625
131.8359375
124.51171875
123.59619140625
136.41357421875
143.73779296875
153.80859375
162.04833984375
161.1328125
159.3017578125
164.794921875
162.9638671875
168.45703125
153.80859375
153.80859375
166.6259765625
187.68310546875
186.767578125
206.9091796875
205.078125
199.5849609375
201.416015625
201.416015625
197.75390625
201.416015625
202.33154296875
210.5712890625
219.7265625
226.13525390625
231.62841796875
230.712890625
221.5576171875
209.65576171875
205.99365234375
210.5712890625
216.064453125
223.388671875
232.5439453125
222.47314453125
216.064453125
205.078125
183.10546875
174.86572265625
165.71044921875
171.20361328125
169.37255859375
168.45703125
167.54150390625
161.1328125
142.822265625
132.75146484375
121.76513671875
115.3564453125
103.45458984375
94.29931640625
77.81982421875
98.876953125
99.79248046875
91.552734375
83.31298828125
72.32666015625
71.4111328125
63.17138671875
54.01611328125
58.59375
68.66455078125
65.91796875
60.4248046875
52.18505859375
40.283203125
39.36767578125
30.21240234375
28.38134765625
25.634765625
21.97265625
29.296875
33.87451171875
34.7900390625
26.55029296875
19.22607421875
18.310546875
17.39501953125
8.23974609375
-2.74658203125
3.662109375
16.4794921875
24.71923828125
26.55029296875
24.71923828125
27.4658203125
26.55029296875
17.39501953125
15.56396484375
15.56396484375
12.8173828125
15.56396484375
20.1416015625
23.8037109375
28.38134765625
29.296875
21.05712890625
17.39501953125
20.1416015625
12.8173828125
10.986328125
22.88818359375
32.04345703125
33.87451171875
32.958984375
32.04345703125
21.97265625
16.4794921875
16.4794921875
10.07080078125
11.90185546875
19.22607421875
21.97265625
24.71923828125
26.55029296875
22.88818359375
14.6484375
2.74658203125
0
-4.57763671875
-9.1552734375
2.74658203125
13.73291015625
20.1416015625
8.23974609375
7.32421875
2.74658203125
-4.57763671875
2.74658203125
-15.56396484375
-13.73291015625
-6.40869140625
1.8310546875
6.40869140625
2.74658203125
0.91552734375
-10.986328125
-21.97265625
-23.8037109375
-21.05712890625
-15.56396484375
-7.32421875
7.32421875
7.32421875
-1.8310546875
0
-13.73291015625
-18.310546875
-21.05712890625
-20.1416015625
-17.39501953125
-10.986328125
-7.32421875
-0.91552734375
0.91552734375
-4.57763671875
-18.310546875
-25.634765625
-31.1279296875
-34.7900390625
-31.1279296875
-24.71923828125
-16.4794921875
-6.40869140625
-6.40869140625
-16.4794921875
-10.986328125
-8.23974609375
-27.4658203125
-34.7900390625
-34.7900390625
-25.634765625
-21.97265625
-9.1552734375
-10.986328125
-11.90185546875
-11.90185546875
-23.8037109375
-35.70556640625
-35.70556640625
-32.958984375
-32.04345703125
-21.97265625
-8.23974609375
-19.22607421875
-30.21240234375
-36.62109375
-35.70556640625
-33.87451171875
-25.634765625
-15.56396484375
-11.90185546875
-5.4931640625
-1.8310546875
-6.40869140625
-10.07080078125
-10.07080078125
-23.8037109375
-20.1416015625
-21.97265625
-21.97265625
-7.32421875
13.73291015625
34.7900390625
36.62109375
43.02978515625
40.283203125
37.53662109375
33.87451171875
32.958984375
31.1279296875
32.958984375
36.62109375
41.19873046875
31.1279296875
21.97265625
24.71923828125
32.958984375
29.296875
26.55029296875
37.53662109375
34.7900390625
44.86083984375
54.01611328125
45.7763671875
52.18505859375
54.01611328125
35.70556640625
22.88818359375
13.73291015625
16.4794921875
21.97265625
30.21240234375
31.1279296875
13.73291015625
13.73291015625
0
-11.90185546875
-18.310546875
-22.88818359375
-26.55029296875
-21.97265625
-14.6484375
-12.8173828125
-21.97265625
-34.7900390625
-41.19873046875
-44.86083984375
-54.931640625
-71.4111328125
-69.580078125
-60.4248046875
-51.26953125
-38.4521484375
-41.19873046875
-43.9453125
-43.9453125
-44.86083984375
-39.36767578125
-47.607421875
-52.18505859375
-42.1142578125
-35.70556640625
-18.310546875
-14.6484375
-19.22607421875
-32.958984375
-35.70556640625
-38.4521484375
-54.01611328125
-50.35400390625
-45.7763671875
-43.02978515625
-26.55029296875
-27.4658203125
-21.97265625
1.8310546875
14.6484375
32.04345703125
44.86083984375
45.7763671875
50.35400390625
63.17138671875
71.4111328125
66.83349609375
73.2421875
83.31298828125
94.29931640625
100.7080078125
113.525390625
126.3427734375
119.0185546875
117.1875
50.35400390625
-119.0185546875
-324.0966796875
-516.357421875
-738.83056640625
-858.7646484375
-931.09130859375
-1009.82666015625
-1015.31982421875
-962.21923828125
-897.216796875
-843.20068359375
-758.056640625
-650.93994140625
-573.1201171875
-517.27294921875
-473.32763671875
-442.19970703125
-390.93017578125
-321.35009765625
-293.88427734375
-277.40478515625
-257.26318359375
-238.95263671875
-233.45947265625
-226.13525390625
-208.740234375
-205.99365234375
-192.2607421875
-182.18994140625
-170.2880859375
-172.119140625
-184.02099609375
-190.4296875
-181.2744140625
-177.6123046875
-184.02099609375
-173.03466796875
-162.04833984375
-143.73779296875
-125.42724609375
-124.51171875
-115.3564453125
-101.62353515625
-89.7216796875
-97.0458984375
-95.21484375
-87.890625
-81.48193359375
-72.32666015625
-47.607421875
-28.38134765625
-13.73291015625
-5.4931640625
1.8310546875
-4.57763671875
1.8310546875
13.73291015625
22.88818359375
31.1279296875
43.9453125
44.86083984375
49.4384765625
54.931640625
46.69189453125
46.69189453125
45.7763671875
54.01611328125
65.00244140625
64.0869140625
75.98876953125
82.3974609375
72.32666015625
72.32666015625
72.32666015625
65.00244140625
67.7490234375
65.00244140625
74.15771484375
84.228515625
90.63720703125
91.552734375
99.79248046875
96.13037109375
80.56640625
81.48193359375
78.7353515625
85.14404296875
97.96142578125
107.11669921875
116.27197265625
120.849609375
116.27197265625
117.1875
108.0322265625
109.86328125
117.1875
124.51171875
127.25830078125
130.0048828125
145.56884765625
147.39990234375
140.07568359375
132.75146484375
136.41357421875
142.822265625
142.822265625
146.484375
141.90673828125
158.38623046875
168.45703125
168.45703125
170.2880859375
169.37255859375
165.71044921875
168.45703125
174.86572265625
181.2744140625
191.34521484375
205.99365234375
214.2333984375
200.50048828125
203.2470703125
213.31787109375
200.50048828125
204.16259765625
205.078125
205.99365234375
214.2333984375
227.05078125
229.79736328125
230.712890625
230.712890625
228.8818359375
218.81103515625
206.9091796875
198.66943359375
198.66943359375
213.31787109375
205.99365234375
205.99365234375
211.48681640625
203.2470703125
187.68310546875
175.78125
161.1328125
157.470703125
161.1328125
147.39990234375
136.41357421875
143.73779296875
141.90673828125
125.42724609375
109.86328125
95.21484375
93.3837890625
92.46826171875
81.48193359375
86.97509765625
95.21484375
91.552734375
80.56640625
77.81982421875
57.67822265625
43.02978515625
44.86083984375
41.19873046875
35.70556640625
29.296875
38.4521484375
45.7763671875
48.52294921875
42.1142578125
40.283203125
40.283203125
32.04345703125
23.8037109375
16.4794921875
24.71923828125
34.7900390625
31.1279296875
26.55029296875
23.8037109375
20.1416015625
20.1416015625
21.97265625
10.07080078125
12.8173828125
25.634765625
24.71923828125
32.958984375
38.4521484375
31.1279296875
44.86083984375
37.53662109375
22.88818359375
14.6484375
14.6484375
17.39501953125
23.8037109375
32.958984375
23.8037109375
28.38134765625
36.62109375
30.21240234375
35.70556640625
20.1416015625
12.8173828125
30.21240234375
29.296875
23.8037109375
23.8037109375
28.38134765625
25.634765625
17.39501953125
5.4931640625
-9.1552734375
2.74658203125
15.56396484375
10.986328125
17.39501953125
12.8173828125
4.57763671875
20.1416015625
22.88818359375
4.57763671875
-1.8310546875
5.4931640625
13.73291015625
13.73291015625
19.22607421875
11.90185546875
19.22607421875
15.56396484375
0.91552734375
-6.40869140625
-6.40869140625
-6.40869140625
6.40869140625
8.23974609375
13.73291015625
12.8173828125
10.986328125
-2.74658203125
-5.4931640625
-6.40869140625
-11.90185546875
-8.23974609375
9.1552734375
10.07080078125
12.8173828125
10.986328125
4.57763671875
-3.662109375
-8.23974609375
-16.4794921875
-21.97265625
-12.8173828125
-7.32421875
-2.74658203125
5.4931640625
1.8310546875
-15.56396484375
-18.310546875
-16.4794921875
-18.310546875
-21.05712890625
-23.8037109375
-12.8173828125
0
-7.32421875
-11.90185546875
-11.90185546875
-24.71923828125
-19.22607421875
-28.38134765625
-32.958984375
-25.634765625
-10.07080078125
-9.1552734375
-0.91552734375
-1.8310546875
-1.8310546875
-6.40869140625
-18.310546875
-24.71923828125
-29.296875
-34.7900390625
-21.05712890625
-10.986328125
2.74658203125
4.57763671875
0
-13.73291015625
-28.38134765625
-21.97265625
-17.39501953125
-12.8173828125
2.74658203125
7.32421875
27.4658203125
37.53662109375
37.53662109375
32.04345703125
29.296875
32.04345703125
29.296875
32.958984375
44.86083984375
56.7626953125
54.01611328125
47.607421875
39.36767578125
11.90185546875
21.05712890625
31.1279296875
37.53662109375
38.4521484375
37.53662109375
34.7900390625
41.19873046875
38.4521484375
48.52294921875
58.59375
35.70556640625
28.38134765625
26.55029296875
25.634765625
25.634765625
41.19873046875
42.1142578125
34.7900390625
19.22607421875
10.986328125
0.91552734375
-17.39501953125
-28.38134765625
-23.8037109375
-17.39501953125
-17.39501953125
-21.97265625
-17.39501953125
-24.71923828125
-32.04345703125
-37.53662109375
-41.19873046875
-54.931640625
-38.4521484375
-30.21240234375
-38.4521484375
-28.38134765625
-25.634765625
-35.70556640625
-33.87451171875
-38.4521484375
-44.86083984375
-55.84716796875
-50.35400390625
-43.02978515625
-32.04345703125
-10.986328125
-17.39501953125
-25.634765625
-32.04345703125
-32.958984375
-32.958984375
-35.70556640625
-39.36767578125
-37.53662109375
-25.634765625
-15.56396484375
-16.4794921875
-10.986328125
14.6484375
26.55029296875
37.53662109375
49.4384765625
44.86083984375
54.931640625
79.65087890625
78.7353515625
75.0732421875
65.00244140625
71.4111328125
81.48193359375
93.3837890625
121.76513671875
122.6806640625
112.60986328125
106.201171875
21.05712890625
-168.45703125
-369.873046875
-563.04931640625
-774.5361328125
-866.0888671875
-951.23291015625
-1008.9111328125
-982.36083984375
-928.3447265625
-865.17333984375
-803.8330078125
-716.85791015625
-617.0654296875
-546.56982421875
-503.5400390625
-459.5947265625
-419.3115234375
-369.873046875
-329.58984375
-284.72900390625
-266.41845703125
-247.1923828125
-233.45947265625
-223.388671875
-212.40234375
-204.16259765625
-195.00732421875
-188.5986328125
-184.02099609375
-167.54150390625
-173.03466796875
-167.54150390625
-170.2880859375
-163.87939453125
-157.470703125
-158.38623046875
-155.6396484375
-133.6669921875
-119.0185546875
-112.60986328125
-112.60986328125
-108.94775390625
-94.29931640625
-92.46826171875
-97.96142578125
-90.63720703125
-75.98876953125
-65.91796875
-53.1005859375
-30.21240234375
-9.1552734375
10.986328125
17.39501953125
20.1416015625
16.4794921875
12.8173828125
26.55029296875
39.36767578125
54.931640625
77.81982421875
82.3974609375
65.00244140625
67.7490234375
67.7490234375
60.4248046875
54.931640625
59.50927734375
63.17138671875
75.0732421875
83.31298828125
81.48193359375
87.890625
92.46826171875
86.0595703125
82.3974609375
78.7353515625
81.48193359375
84.228515625
97.0458984375
96.13037109375
97.0458984375
104.3701171875
108.0322265625
106.201171875
110.77880859375
105.28564453125
98.876953125
100.7080078125
119.0185546875
129.08935546875
128.173828125
129.08935546875
125.42724609375
123.59619140625
119.0185546875
114.44091796875
122.6806640625
128.173828125
136.41357421875
140.9912109375
142.822265625
155.6396484375
151.06201171875
146.484375
147.39990234375
152.89306640625
148.3154296875
165.71044921875
168.45703125
189.51416015625
185.85205078125
186.767578125
182.18994140625
175.78125
184.02099609375
173.03466796875
165.71044921875
185.85205078125
198.66943359375
212.40234375
219.7265625
231.62841796875
227.05078125
222.47314453125
216.064453125
208.740234375
211.48681640625
215.14892578125
219.7265625
224.30419921875
222.47314453125
225.2197265625
236.2060546875
226.13525390625
205.078125
216.97998046875
205.078125
202.33154296875
216.064453125
216.97998046875
207.82470703125
198.66943359375
189.51416015625
179.443359375
167.54150390625
156.55517578125
153.80859375
144.6533203125
142.822265625
145.56884765625
138.24462890625
126.3427734375
119.0185546875
117.1875
103.45458984375
96.13037109375
84.228515625
78.7353515625
81.48193359375
85.14404296875
86.0595703125
72.32666015625
63.17138671875
51.26953125
53.1005859375
45.7763671875
36.62109375
42.1142578125
40.283203125
52.18505859375
57.67822265625
35.70556640625
32.958984375
25.634765625
25.634765625
22.88818359375
24.71923828125
23.8037109375
28.38134765625
50.35400390625
49.4384765625
44.86083984375
40.283203125
23.8037109375
18.310546875
29.296875
16.4794921875
16.4794921875
21.97265625
33.87451171875
34.7900390625
32.958984375
32.04345703125
21.97265625
18.310546875
12.8173828125
20.1416015625
25.634765625
24.71923828125
32.958984375
30.21240234375
28.38134765625
27.4658203125
27.4658203125
24.71923828125
22.88818359375
35.70556640625
30.21240234375
37.53662109375
39.36767578125
34.7900390625
35.70556640625
23.8037109375
13.73291015625
18.310546875
18.310546875
6.40869140625
9.1552734375
23.8037109375
39.36767578125
41.19873046875
28.38134765625
21.97265625
18.310546875
14.6484375
18.310546875
18.310546875
17.39501953125
19.22607421875
19.22607421875
18.310546875
9.1552734375
8.23974609375
5.4931640625
14.6484375
6.40869140625
-6.40869140625
-2.74658203125
12.8173828125
11.90185546875
11.90185546875
5.4931640625
7.32421875
3.662109375
-3.662109375
-8.23974609375
-9.1552734375
-7.32421875
2.74658203125
7.32421875
-1.8310546875
6.40869140625
-6.40869140625
-5.4931640625
-9.1552734375
-10.07080078125
-6.40869140625
-3.662109375
1.8310546875
9.1552734375
7.32421875
6.40869140625
1.8310546875
-9.1552734375
-10.986328125
-9.1552734375
-11.90185546875
-12.8173828125
-6.40869140625
4.57763671875
1.8310546875
-1.8310546875
-3.662109375
-9.1552734375
-3.662109375
-3.662109375
-2.74658203125
16.4794921875
30.21240234375
41.19873046875
55.84716796875
56.7626953125
49.4384765625
45.7763671875
37.53662109375
41.19873046875
38.4521484375
33.87451171875
50.35400390625
51.26953125
53.1005859375
49.4384765625
47.607421875
51.26953125
46.69189453125
31.1279296875
38.4521484375
55.84716796875
66.83349609375
64.0869140625
66.83349609375
63.17138671875
53.1005859375
38.4521484375
33.87451171875
18.310546875
20.1416015625
21.05712890625
25.634765625
28.38134765625
22.88818359375
13.73291015625
4.57763671875
1.8310546875
-10.07080078125
-28.38134765625
-29.296875
-22.88818359375
-15.56396484375
-14.6484375
-21.05712890625
-23.8037109375
-18.310546875
-25.634765625
-35.70556640625
-44.86083984375
-48.52294921875
-35.70556640625
-23.8037109375
-16.4794921875
-2.74658203125
-17.39501953125
-25.634765625
-23.8037109375
-32.04345703125
-39.36767578125
-44.86083984375
-35.70556640625
-27.4658203125
-21.05712890625
-20.1416015625
-13.73291015625
-15.56396484375
-23.8037109375
-32.04345703125
-42.1142578125
-43.02978515625
-30.21240234375
-5.4931640625
15.56396484375
41.19873046875
55.84716796875
69.580078125
80.56640625
78.7353515625
74.15771484375
80.56640625
71.4111328125
78.7353515625
87.890625
98.876953125
103.45458984375
108.94775390625
122.6806640625
103.45458984375
87.890625
44.86083984375
-98.876953125
-292.96875
-464.17236328125
-665.58837890625
-825.8056640625
-902.7099609375
-975.9521484375
-1000.67138671875
-957.6416015625
-896.30126953125
-834.9609375
-761.71875
-663.75732421875
-583.19091796875
-518.1884765625
-462.34130859375
-433.04443359375
-390.0146484375
-348.81591796875
-329.58984375
-296.630859375
-254.5166015625
-226.13525390625
-215.14892578125
-208.740234375
-203.2470703125
-191.34521484375
-180.35888671875
-194.091796875
-188.5986328125
-175.78125
-171.20361328125
-162.04833984375
-160.21728515625
-161.1328125
-153.80859375
-154.72412109375
-150.146484375
-140.9912109375
-140.07568359375
-140.07568359375
-126.3427734375
-88.80615234375
-63.17138671875
-57.67822265625
-58.59375
-56.7626953125
-55.84716796875
-66.83349609375
-67.7490234375
-44.86083984375
-12.8173828125
12.8173828125
32.958984375
36.62109375
39.36767578125
43.9453125
30.21240234375
17.39501953125
36.62109375
54.931640625
73.2421875
92.46826171875
88.80615234375
75.98876953125
66.83349609375
74.15771484375
78.7353515625
64.0869140625
61.34033203125
75.98876953125
86.97509765625
97.0458984375
102.5390625
99.79248046875
98.876953125
92.46826171875
89.7216796875
73.2421875
68.66455078125
86.97509765625
102.5390625
115.3564453125
112.60986328125
109.86328125
103.45458984375
99.79248046875
97.96142578125
104.3701171875
103.45458984375
112.60986328125
122.6806640625
130.0048828125
129.08935546875
130.92041015625
128.173828125
121.76513671875
130.0048828125
121.76513671875
121.76513671875
137.3291015625
155.6396484375
170.2880859375
179.443359375
173.9501953125
167.54150390625
157.470703125
155.6396484375
151.06201171875
150.146484375
159.3017578125
162.9638671875
187.68310546875
204.16259765625
191.34521484375
199.5849609375
198.66943359375
194.091796875
194.091796875
189.51416015625
195.9228515625
216.064453125
227.05078125
225.2197265625
221.5576171875
218.81103515625
216.97998046875
210.5712890625
204.16259765625
213.31787109375
213.31787109375
221.5576171875
228.8818359375
232.5439453125
216.064453125
214.2333984375
211.48681640625
189.51416015625
177.6123046875
172.119140625
174.86572265625
175.78125
184.9365234375
181.2744140625
172.119140625
161.1328125
151.06201171875
140.9912109375
117.1875
97.0458984375
102.5390625
108.0322265625
108.94775390625
118.10302734375
106.201171875
93.3837890625
81.48193359375
72.32666015625
51.26953125
40.283203125
54.01611328125
61.34033203125
69.580078125
67.7490234375
55.84716796875
44.86083984375
44.86083984375
31.1279296875
24.71923828125
22.88818359375
34.7900390625
36.62109375
46.69189453125
46.69189453125
36.62109375
31.1279296875
23.8037109375
26.55029296875
8.23974609375
-2.74658203125
3.662109375
21.97265625
33.87451171875
40.283203125
29.296875
18.310546875
12.8173828125
7.32421875
12.8173828125
5.4931640625
8.23974609375
24.71923828125
32.958984375
33.87451171875
29.296875
26.55029296875
21.97265625
19.22607421875
11.90185546875
-5.4931640625
-0.91552734375
21.97265625
37.53662109375
43.9453125
34.7900390625
13.73291015625
18.310546875
0.91552734375
3.662109375
9.1552734375
7.32421875
13.73291015625
26.55029296875
35.70556640625
37.53662109375
39.36767578125
23.8037109375
18.310546875
10.07080078125
-3.662109375
13.73291015625
29.296875
32.958984375
26.55029296875
26.55029296875
26.55029296875
11.90185546875
-0.91552734375
-6.40869140625
-7.32421875
2.74658203125
16.4794921875
17.39501953125
10.986328125
7.32421875
11.90185546875
1.8310546875
-7.32421875
-19.22607421875
-22.88818359375
-10.07080078125
4.57763671875
20.1416015625
17.39501953125
2.74658203125
4.57763671875
-1.8310546875
-8.23974609375
-10.986328125
-16.4794921875
0
7.32421875
8.23974609375
9.1552734375
-3.662109375
-3.662109375
-12.8173828125
-21.05712890625
-19.22607421875
-21.05712890625
-19.22607421875
-2.74658203125
7.32421875
11.90185546875
10.07080078125
0
-20.1416015625
-24.71923828125
-27.4658203125
-37.53662109375
-32.958984375
-14.6484375
1.8310546875
0.91552734375
1.8310546875
2.74658203125
-14.6484375
-15.56396484375
-17.39501953125
-26.55029296875
-19.22607421875
-6.40869140625
8.23974609375
19.22607421875
17.39501953125
16.4794921875
13.73291015625
21.05712890625
16.4794921875
20.1416015625
28.38134765625
38.4521484375
67.7490234375
70.49560546875
60.4248046875
58.59375
49.4384765625
38.4521484375
21.05712890625
8.23974609375
21.05712890625
35.70556640625
51.26953125
67.7490234375
61.34033203125
41.19873046875
37.53662109375
46.69189453125
32.958984375
34.7900390625
46.69189453125
51.26953125
58.59375
61.34033203125
46.69189453125
39.36767578125
30.21240234375
15.56396484375
16.4794921875
9.1552734375
1.8310546875
0.91552734375
10.986328125
12.8173828125
-1.8310546875
-13.73291015625
-27.4658203125
-40.283203125
-47.607421875
-50.35400390625
-29.296875
-22.88818359375
-16.4794921875
-13.73291015625
-26.55029296875
-24.71923828125
-34.7900390625
-45.7763671875
-48.52294921875
-51.26953125
-40.283203125
-27.4658203125
-21.05712890625
-12.8173828125
-14.6484375
-20.1416015625
-31.1279296875
-33.87451171875
-47.607421875
-53.1005859375
-41.19873046875
-23.8037109375
-18.310546875
-20.1416015625
-14.6484375
-23.8037109375
-29.296875
-29.296875
-23.8037109375
-2.74658203125
21.05712890625
52.18505859375
78.7353515625
78.7353515625
78.7353515625
81.48193359375
85.14404296875
75.98876953125
62.255859375
68.66455078125
88.80615234375
115.3564453125
147.39990234375
165.71044921875
153.80859375
140.07568359375
60.4248046875
-107.11669921875
-309.4482421875
-486.14501953125
-706.787109375
-818.4814453125
-891.7236328125
-970.458984375
-986.02294921875
-942.9931640625
-900.87890625
-852.35595703125
-791.015625
-705.87158203125
-609.7412109375
-541.07666015625
-468.75
-423.88916015625
-379.0283203125
-339.66064453125
-321.35009765625
-297.54638671875
-278.3203125
-260.009765625
-233.45947265625
-205.078125
-183.10546875
-173.03466796875
-168.45703125
-175.78125
-179.443359375
-188.5986328125
-200.50048828125
-200.50048828125
-187.68310546875
-170.2880859375
-151.9775390625
-145.56884765625
-130.92041015625
-111.6943359375
-116.27197265625
-120.849609375
-120.849609375
-117.1875
-95.21484375
-75.98876953125
-60.4248046875
-47.607421875
-45.7763671875
-50.35400390625
-43.02978515625
-41.19873046875
-35.70556640625
-21.05712890625
1.8310546875
22.88818359375
48.52294921875
62.255859375
54.931640625
57.67822265625
52.18505859375
53.1005859375
52.18505859375
47.607421875
52.18505859375
65.91796875
75.98876953125
79.65087890625
88.80615234375
83.31298828125
78.7353515625
70.49560546875
66.83349609375
65.91796875
75.98876953125
76.904296875
90.63720703125
97.96142578125
92.46826171875
90.63720703125
94.29931640625
97.96142578125
97.96142578125
90.63720703125
92.46826171875
99.79248046875
112.60986328125
120.849609375
121.76513671875
115.3564453125
118.10302734375
116.27197265625
121.76513671875
119.0185546875
125.42724609375
129.08935546875
146.484375
148.3154296875
148.3154296875
147.39990234375
144.6533203125
151.9775390625
159.3017578125
151.9775390625
154.72412109375
159.3017578125
168.45703125
177.6123046875
177.6123046875
179.443359375
174.86572265625
173.9501953125
176.69677734375
177.6123046875
193.17626953125
202.33154296875
222.47314453125
226.13525390625
205.99365234375
200.50048828125
210.5712890625
214.2333984375
207.82470703125
202.33154296875
195.9228515625
229.79736328125
239.8681640625
250.8544921875
245.361328125
243.5302734375
240.78369140625
231.62841796875
227.05078125
215.14892578125
216.064453125
220.64208984375
222.47314453125
222.47314453125
220.64208984375
211.48681640625
205.078125
197.75390625
182.18994140625
165.71044921875
169.37255859375
180.35888671875
174.86572265625
165.71044921875
157.470703125
143.73779296875
130.0048828125
119.0185546875
111.6943359375
108.0322265625
99.79248046875
99.79248046875
94.29931640625
102.5390625
86.97509765625
72.32666015625
65.00244140625
53.1005859375
42.1142578125
33.87451171875
43.9453125
46.69189453125
55.84716796875
61.34033203125
54.01611328125
42.1142578125
30.21240234375
22.88818359375
20.1416015625
7.32421875
15.56396484375
21.05712890625
32.04345703125
42.1142578125
29.296875
13.73291015625
13.73291015625
3.662109375
8.23974609375
9.1552734375
17.39501953125
22.88818359375
32.04345703125
32.958984375
27.4658203125
40.283203125
32.04345703125
15.56396484375
6.40869140625
1.8310546875
10.986328125
22.88818359375
34.7900390625
44.86083984375
50.35400390625
47.607421875
33.87451171875
27.4658203125
11.90185546875
8.23974609375
31.1279296875
40.283203125
45.7763671875
54.931640625
46.69189453125
32.958984375
20.1416015625
17.39501953125
16.4794921875
21.05712890625
31.1279296875
35.70556640625
42.1142578125
54.01611328125
44.86083984375
36.62109375
28.38134765625
17.39501953125
14.6484375
9.1552734375
3.662109375
18.310546875
23.8037109375
41.19873046875
37.53662109375
42.1142578125
26.55029296875
15.56396484375
3.662109375
7.32421875
22.88818359375
22.88818359375
20.1416015625
31.1279296875
23.8037109375
19.22607421875
13.73291015625
7.32421875
0.91552734375
-9.1552734375
-3.662109375
5.4931640625
16.4794921875
21.97265625
19.22607421875
10.07080078125
-2.74658203125
-1.8310546875
-0.91552734375
-3.662109375
-3.662109375
15.56396484375
23.8037109375
18.310546875
13.73291015625
9.1552734375
-12.8173828125
-21.05712890625
-14.6484375
-20.1416015625
0
12.8173828125
11.90185546875
20.1416015625
16.4794921875
10.986328125
1.8310546875
-2.74658203125
-9.1552734375
-7.32421875
-6.40869140625
-1.8310546875
1.8310546875
5.4931640625
6.40869140625
-1.8310546875
-6.40869140625
-9.1552734375
-17.39501953125
-24.71923828125
-11.90185546875
-3.662109375
9.1552734375
19.22607421875
20.1416015625
19.22607421875
17.39501953125
13.73291015625
17.39501953125
22.88818359375
36.62109375
35.70556640625
48.52294921875
71.4111328125
51.26953125
53.1005859375
55.84716796875
65.00244140625
58.59375
37.53662109375
32.958984375
33.87451171875
51.26953125
70.49560546875
65.00244140625
58.59375
59.50927734375
50.35400390625
44.86083984375
26.55029296875
32.04345703125
60.4248046875
80.56640625
80.56640625
67.7490234375
56.7626953125
43.02978515625
27.4658203125
22.88818359375
17.39501953125
28.38134765625
21.05712890625
22.88818359375
23.8037109375
21.97265625
14.6484375
15.56396484375
-5.4931640625
-16.4794921875
-21.05712890625
-13.73291015625
-15.56396484375
-3.662109375
7.32421875
9.1552734375
-7.32421875
-21.05712890625
-32.04345703125
-32.04345703125
-37.53662109375
-26.55029296875
-25.634765625
-10.07080078125
0
0
-11.90185546875
-23.8037109375
-27.4658203125
-26.55029296875
-30.21240234375
-31.1279296875
-24.71923828125
-0.91552734375
3.662109375
-2.74658203125
-4.57763671875
-15.56396484375
-21.05712890625
-21.05712890625
-32.958984375
-10.986328125
-0.91552734375
32.958984375
63.17138671875
78.7353515625
85.14404296875
88.80615234375
81.48193359375
82.3974609375
80.56640625
85.14404296875
110.77880859375
145.56884765625
172.119140625
168.45703125
168.45703125
193.17626953125
182.18994140625
168.45703125
110.77880859375
-40.283203125
-218.81103515625
-378.11279296875
-578.61328125
-753.47900390625
-849.609375
-944.82421875
-996.09375
-961.3037109375
-919.189453125
-866.0888671875
-792.8466796875
-704.04052734375
-597.83935546875
-517.27294921875
-465.087890625
-424.8046875
-391.845703125
-346.98486328125
-338.7451171875
-309.4482421875
-270.08056640625
-227.96630859375
-194.091796875
-176.69677734375
-165.71044921875
-169.37255859375
-184.9365234375
-192.2607421875
-182.18994140625
-168.45703125
-164.794921875
-159.3017578125
-140.07568359375
-143.73779296875
-150.146484375
-143.73779296875
-139.16015625
-137.3291015625
-130.92041015625
-108.94775390625
-88.80615234375
-65.00244140625
-47.607421875
-56.7626953125
-52.18505859375
-42.1142578125
-45.7763671875
-49.4384765625
-56.7626953125
-43.9453125
-10.986328125
10.986328125
36.62109375
43.9453125
53.1005859375
50.35400390625
53.1005859375
51.26953125
57.67822265625
66.83349609375
79.65087890625
95.21484375
108.94775390625
107.11669921875
97.96142578125
94.29931640625
91.552734375
85.14404296875
75.98876953125
77.81982421875
97.96142578125
118.10302734375
124.51171875
120.849609375
122.6806640625
116.27197265625
96.13037109375
91.552734375
93.3837890625
98.876953125
114.44091796875
129.08935546875
146.484375
145.56884765625
123.59619140625
118.10302734375
123.59619140625
122.6806640625
114.44091796875
122.6806640625
142.822265625
161.1328125
165.71044921875
166.6259765625
164.794921875
150.146484375
145.56884765625
151.06201171875
146.484375
151.06201171875
179.443359375
179.443359375
195.9228515625
202.33154296875
194.091796875
187.68310546875
184.02099609375
180.35888671875
185.85205078125
196.83837890625
199.5849609375
212.40234375
229.79736328125
229.79736328125
229.79736328125
237.12158203125
235.29052734375
234.375
223.388671875
238.037109375
242.61474609375
257.26318359375
264.58740234375
266.41845703125
267.333984375
256.34765625
246.27685546875
243.5302734375
238.95263671875
242.61474609375
248.10791015625
259.09423828125
264.58740234375
250.8544921875
228.8818359375
223.388671875
216.97998046875
199.5849609375
187.68310546875
208.740234375
218.81103515625
218.81103515625
219.7265625
216.97998046875
209.65576171875
198.66943359375
175.78125
170.2880859375
145.56884765625
128.173828125
134.58251953125
139.16015625
141.90673828125
132.75146484375
117.1875
101.62353515625
84.228515625
77.81982421875
65.00244140625
60.4248046875
59.50927734375
68.66455078125
82.3974609375
80.56640625
65.91796875
62.255859375
54.931640625
44.86083984375
23.8037109375
35.70556640625
29.296875
47.607421875
64.0869140625
53.1005859375
39.36767578125
35.70556640625
32.04345703125
20.1416015625
15.56396484375
20.1416015625
21.05712890625
27.4658203125
43.02978515625
48.52294921875
34.7900390625
17.39501953125
11.90185546875
17.39501953125
8.23974609375
10.07080078125
25.634765625
36.62109375
45.7763671875
41.19873046875
43.9453125
40.283203125
28.38134765625
19.22607421875
5.4931640625
3.662109375
29.296875
49.4384765625
59.50927734375
58.59375
60.4248046875
50.35400390625
30.21240234375
25.634765625
9.1552734375
38.4521484375
49.4384765625
52.18505859375
64.0869140625
54.931640625
48.52294921875
36.62109375
35.70556640625
27.4658203125
16.4794921875
28.38134765625
33.87451171875
48.52294921875
55.84716796875
57.67822265625
58.59375
40.283203125
24.71923828125
13.73291015625
18.310546875
20.1416015625
27.4658203125
36.62109375
47.607421875
43.02978515625
42.1142578125
28.38134765625
32.04345703125
29.296875
9.1552734375
14.6484375
21.97265625
29.296875
32.04345703125
26.55029296875
15.56396484375
10.07080078125
5.4931640625
10.07080078125
8.23974609375
14.6484375
21.97265625
34.7900390625
52.18505859375
54.01611328125
43.9453125
27.4658203125
12.8173828125
-1.8310546875
-2.74658203125
0.91552734375
13.73291015625
21.97265625
26.55029296875
30.21240234375
32.04345703125
19.22607421875
14.6484375
9.1552734375
0
1.8310546875
3.662109375
26.55029296875
37.53662109375
23.8037109375
25.634765625
11.90185546875
0.91552734375
5.4931640625
-5.4931640625
-0.91552734375
9.1552734375
21.05712890625
30.21240234375
28.38134765625
19.22607421875
9.1552734375
2.74658203125
-10.07080078125
-9.1552734375
1.8310546875
12.8173828125
25.634765625
36.62109375
32.958984375
22.88818359375
10.986328125
5.4931640625
-11.90185546875
-13.73291015625
5.4931640625
11.90185546875
19.22607421875
25.634765625
30.21240234375
21.05712890625
9.1552734375
1.8310546875
-1.8310546875
-5.4931640625
-1.8310546875
14.6484375
30.21240234375
34.7900390625
36.62109375
45.7763671875
45.7763671875
42.1142578125
45.7763671875
42.1142578125
47.607421875
59.50927734375
77.81982421875
82.3974609375
83.31298828125
95.21484375
79.65087890625
75.0732421875
59.50927734375
31.1279296875
34.7900390625
43.02978515625
60.4248046875
78.7353515625
81.48193359375
80.56640625
68.66455078125
66.83349609375
66.83349609375
55.84716796875
65.00244140625
73.2421875
84.228515625
85.14404296875
70.49560546875
72.32666015625
62.255859375
43.9453125
35.70556640625
32.04345703125
27.4658203125
27.4658203125
29.296875
42.1142578125
43.9453125
23.8037109375
5.4931640625
-10.986328125
-11.90185546875
-10.986328125
-20.1416015625
11.90185546875
7.32421875
13.73291015625
2.74658203125
-1.8310546875
6.40869140625
-9.1552734375
-14.6484375
-21.97265625
-13.73291015625
-10.986328125
-5.4931640625
6.40869140625
1.8310546875
0.91552734375
-1.8310546875
-7.32421875
-10.986328125
-21.05712890625
-29.296875
-21.05712890625
-3.662109375
9.1552734375
11.90185546875
10.07080078125
-1.8310546875
-12.8173828125
-15.56396484375
-19.22607421875
-6.40869140625
14.6484375
42.1142578125
77.81982421875
92.46826171875
98.876953125
77.81982421875
56.7626953125
85.14404296875
76.904296875
80.56640625
111.6943359375
134.58251953125
158.38623046875
179.443359375
196.83837890625
204.16259765625
183.10546875
145.56884765625
41.19873046875
-138.24462890625
-324.0966796875
-506.28662109375
-708.6181640625
-809.326171875
-904.541015625
-988.76953125
-985.107421875
-950.3173828125
-902.7099609375
-839.53857421875
-758.97216796875
-655.517578125
-538.330078125
-465.087890625
-418.39599609375
-384.521484375
-351.5625
-324.0966796875
-308.53271484375
-285.64453125
-248.10791015625
-211.48681640625
-184.02099609375
-168.45703125
-174.86572265625
-159.3017578125
-165.71044921875
-168.45703125
-177.6123046875
-174.86572265625
-160.21728515625
-149.23095703125
-136.41357421875
-137.3291015625
-136.41357421875
-129.08935546875
-127.25830078125
-124.51171875
-130.92041015625
-122.6806640625
-98.876953125
-83.31298828125
-59.50927734375
-51.26953125
-45.7763671875
-50.35400390625
-53.1005859375
-55.84716796875
-46.69189453125
-17.39501953125
9.1552734375
24.71923828125
33.87451171875
40.283203125
56.7626953125
68.66455078125
56.7626953125
51.26953125
43.02978515625
54.01611328125
67.7490234375
91.552734375
106.201171875
104.3701171875
98.876953125
81.48193359375
70.49560546875
73.2421875
71.4111328125
75.0732421875
94.29931640625
110.77880859375
122.6806640625
112.60986328125
104.3701171875
95.21484375
94.29931640625
97.96142578125
90.63720703125
97.96142578125
108.0322265625
121.76513671875
134.58251953125
132.75146484375
143.73779296875
130.0048828125
118.10302734375
121.76513671875
122.6806640625
123.59619140625
132.75146484375
154.72412109375
166.6259765625
168.45703125
165.71044921875
156.55517578125
151.9775390625
151.9775390625
146.484375
148.3154296875
157.470703125
177.6123046875
196.83837890625
193.17626953125
193.17626953125
180.35888671875
181.2744140625
184.02099609375
183.10546875
183.10546875
207.82470703125
222.47314453125
231.62841796875
238.037109375
237.12158203125
224.30419921875
208.740234375
203.2470703125
199.5849609375
215.14892578125
238.95263671875
257.26318359375
275.57373046875
259.09423828125
253.60107421875
248.10791015625
253.60107421875
246.27685546875
236.2060546875
233.45947265625
245.361328125
256.34765625
268.24951171875
268.24951171875
256.34765625
247.1923828125
238.037109375
218.81103515625
205.078125
211.48681640625
220.64208984375
224.30419921875
216.97998046875
209.65576171875
208.740234375
190.4296875
175.78125
166.6259765625
146.484375
132.75146484375
141.90673828125
149.23095703125
151.06201171875
138.24462890625
124.51171875
107.11669921875
96.13037109375
81.48193359375
62.255859375
58.59375
70.49560546875
86.97509765625
93.3837890625
80.56640625
67.7490234375
52.18505859375
50.35400390625
32.958984375
31.1279296875
32.04345703125
26.55029296875
37.53662109375
44.86083984375
48.52294921875
42.1142578125
34.7900390625
21.05712890625
25.634765625
21.05712890625
19.22607421875
12.8173828125
41.19873046875
54.931640625
40.283203125
38.4521484375
40.283203125
32.958984375
22.88818359375
10.986328125
10.07080078125
23.8037109375
35.70556640625
39.36767578125
42.1142578125
32.958984375
26.55029296875
21.97265625
28.38134765625
19.22607421875
27.4658203125
39.36767578125
53.1005859375
67.7490234375
64.0869140625
58.59375
55.84716796875
43.9453125
29.296875
20.1416015625
20.1416015625
32.04345703125
43.9453125
59.50927734375
60.4248046875
43.02978515625
32.04345703125
31.1279296875
30.21240234375
22.88818359375
18.310546875
32.04345703125
54.01611328125
54.931640625
49.4384765625
43.9453125
39.36767578125
29.296875
19.22607421875
10.986328125
19.22607421875
29.296875
34.7900390625
40.283203125
38.4521484375
36.62109375
34.7900390625
27.4658203125
18.310546875
10.986328125
13.73291015625
18.310546875
28.38134765625
35.70556640625
29.296875
17.39501953125
10.986328125
-2.74658203125
-9.1552734375
-10.986328125
-7.32421875
8.23974609375
28.38134765625
37.53662109375
33.87451171875
28.38134765625
22.88818359375
10.986328125
6.40869140625
-1.8310546875
-7.32421875
1.8310546875
20.1416015625
28.38134765625
21.97265625
17.39501953125
8.23974609375
4.57763671875
-3.662109375
-9.1552734375
-6.40869140625
-4.57763671875
0.91552734375
15.56396484375
21.05712890625
8.23974609375
3.662109375
-6.40869140625
-14.6484375
-13.73291015625
-7.32421875
0.91552734375
12.8173828125
25.634765625
15.56396484375
9.1552734375
10.986328125
5.4931640625
-14.6484375
-27.4658203125
-24.71923828125
-14.6484375
4.57763671875
22.88818359375
24.71923828125
21.97265625
38.4521484375
41.19873046875
36.62109375
32.958984375
34.7900390625
49.4384765625
57.67822265625
69.580078125
79.65087890625
72.32666015625
60.4248046875
48.52294921875
28.38134765625
26.55029296875
37.53662109375
38.4521484375
54.931640625
78.7353515625
65.00244140625
68.66455078125
63.17138671875
53.1005859375
45.7763671875
50.35400390625
56.7626953125
63.17138671875
72.32666015625
70.49560546875
62.255859375
54.01611328125
44.86083984375
36.62109375
37.53662109375
17.39501953125
3.662109375
1.8310546875
10.986328125
18.310546875
13.73291015625
0.91552734375
-4.57763671875
-9.1552734375
-30.21240234375
-35.70556640625
-35.70556640625
-22.88818359375
-10.07080078125
-9.1552734375
-17.39501953125
-18.310546875
-21.05712890625
-34.7900390625
-46.69189453125
-56.7626953125
-58.59375
-44.86083984375
-30.21240234375
-19.22607421875
-21.05712890625
-16.4794921875
-15.56396484375
-19.22607421875
-21.97265625
-21.05712890625
-32.958984375
-20.1416015625
-9.1552734375
-3.662109375
1.8310546875
-4.57763671875
-13.73291015625
-17.39501953125
-21.97265625
-22.88818359375
-10.07080078125
16.4794921875
51.26953125
80.56640625
84.228515625
75.0732421875
67.7490234375
72.32666015625
70.49560546875
65.00244140625
65.91796875
80.56640625
111.6943359375
136.41357421875
158.38623046875
170.2880859375
150.146484375
130.92041015625
37.53662109375
-146.484375
-339.66064453125
-513.61083984375
-723.2666015625
-823.974609375
-903.62548828125
-984.19189453125
-985.107421875
-947.57080078125
-904.541015625
-860.595703125
-780.029296875
-677.490234375
-573.1201171875
-486.14501953125
-433.04443359375
-401.0009765625
-361.63330078125
-329.58984375
-296.630859375
-284.72900390625
-271.91162109375
-241.69921875
-205.078125
-172.119140625
-169.37255859375
-176.69677734375
-175.78125
-173.03466796875
-173.03466796875
-179.443359375
-174.86572265625
-158.38623046875
-142.822265625
-129.08935546875
-121.76513671875
-117.1875
-116.27197265625
-114.44091796875
-124.51171875
-131.8359375
-105.28564453125
-76.904296875
-56.7626953125
-46.69189453125
-41.19873046875
-40.283203125
-41.19873046875
-51.26953125
-36.62109375
-26.55029296875
-17.39501953125
10.986328125
30.21240234375
49.4384765625
63.17138671875
64.0869140625
56.7626953125
53.1005859375
52.18505859375
47.607421875
57.67822265625
65.91796875
75.0732421875
103.45458984375
108.0322265625
95.21484375
79.65087890625
71.4111328125
75.0732421875
58.59375
65.91796875
80.56640625
97.0458984375
110.77880859375
113.525390625
108.0322265625
100.7080078125
101.62353515625
95.21484375
78.7353515625
81.48193359375
92.46826171875
112.60986328125
139.16015625
142.822265625
132.75146484375
123.59619140625
120.849609375
122.6806640625
119.0185546875
118.10302734375
128.173828125
135.498046875
157.470703125
161.1328125
151.9775390625
157.470703125
159.3017578125
157.470703125
151.06201171875
152.89306640625
165.71044921875
180.35888671875
198.66943359375
200.50048828125
194.091796875
195.00732421875
188.5986328125
192.2607421875
186.767578125
186.767578125
206.9091796875
218.81103515625
240.78369140625
246.27685546875
236.2060546875
229.79736328125
232.5439453125
217.8955078125
220.64208984375
217.8955078125
228.8818359375
238.037109375
257.26318359375
256.34765625
249.93896484375
251.77001953125
251.77001953125
247.1923828125
236.2060546875
227.96630859375
230.712890625
238.95263671875
263.671875
261.8408203125
248.10791015625
227.96630859375
205.99365234375
202.33154296875
205.99365234375
190.4296875
205.078125
205.078125
201.416015625
196.83837890625
183.10546875
164.794921875
151.9775390625
145.56884765625
131.8359375
120.849609375
121.76513671875
119.93408203125
123.59619140625
120.849609375
102.5390625
99.79248046875
79.65087890625
70.49560546875
69.580078125
62.255859375
65.91796875
73.2421875
74.15771484375
65.91796875
50.35400390625
43.02978515625
35.70556640625
22.88818359375
28.38134765625
15.56396484375
28.38134765625
40.283203125
45.7763671875
43.02978515625
42.1142578125
43.9453125
30.21240234375
12.8173828125
6.40869140625
1.8310546875
21.97265625
29.296875
47.607421875
51.26953125
24.71923828125
21.05712890625
27.4658203125
19.22607421875
2.74658203125
8.23974609375
30.21240234375
38.4521484375
48.52294921875
43.02978515625
39.36767578125
34.7900390625
30.21240234375
22.88818359375
21.05712890625
20.1416015625
30.21240234375
36.62109375
55.84716796875
60.4248046875
49.4384765625
43.02978515625
36.62109375
32.958984375
19.22607421875
21.97265625
32.04345703125
42.1142578125
51.26953125
51.26953125
48.52294921875
40.283203125
31.1279296875
25.634765625
14.6484375
11.90185546875
27.4658203125
40.283203125
43.02978515625
42.1142578125
35.70556640625
27.4658203125
29.296875
23.8037109375
-2.74658203125
-13.73291015625
-0.91552734375
25.634765625
38.4521484375
43.9453125
38.4521484375
26.55029296875
18.310546875
21.05712890625
26.55029296875
20.1416015625
24.71923828125
39.36767578125
38.4521484375
34.7900390625
32.04345703125
16.4794921875
-7.32421875
10.07080078125
11.90185546875
10.986328125
14.6484375
22.88818359375
32.04345703125
41.19873046875
25.634765625
17.39501953125
3.662109375
-1.8310546875
-8.23974609375
0.91552734375
12.8173828125
8.23974609375
15.56396484375
11.90185546875
10.07080078125
11.90185546875
-1.8310546875
-9.1552734375
-12.8173828125
-3.662109375
3.662109375
14.6484375
23.8037109375
28.38134765625
17.39501953125
8.23974609375
-4.57763671875
-0.91552734375
-2.74658203125
-0.91552734375
14.6484375
23.8037109375
40.283203125
47.607421875
51.26953125
48.52294921875
44.86083984375
38.4521484375
37.53662109375
42.1142578125
46.69189453125
64.0869140625
75.98876953125
73.2421875
75.0732421875
65.00244140625
41.19873046875
30.21240234375
33.87451171875
32.04345703125
61.34033203125
75.0732421875
76.904296875
83.31298828125
70.49560546875
63.17138671875
64.0869140625
65.91796875
63.17138671875
50.35400390625
54.931640625
62.255859375
65.91796875
62.255859375
48.52294921875
48.52294921875
30.21240234375
9.1552734375
-0.91552734375
-1.8310546875
7.32421875
11.90185546875
0
-10.986328125
10.07080078125
6.40869140625
-11.90185546875
-14.6484375
-23.8037109375
-37.53662109375
-22.88818359375
0
-3.662109375
-1.8310546875
-5.4931640625
-10.07080078125
-30.21240234375
-41.19873046875
-43.02978515625
-40.283203125
-18.310546875
-9.1552734375
-3.662109375
-0.91552734375
-2.74658203125
-7.32421875
-19.22607421875
-20.1416015625
-32.04345703125
-43.9453125
-36.62109375
-27.4658203125
-4.57763671875
8.23974609375
10.986328125
0.91552734375
-6.40869140625
-5.4931640625
9.1552734375
32.04345703125
62.255859375
81.48193359375
91.552734375
98.876953125
88.80615234375
86.97509765625
82.3974609375
72.32666015625
71.4111328125
68.66455078125
96.13037109375
129.08935546875
150.146484375
132.75146484375
108.94775390625
35.70556640625
-129.08935546875
-326.84326171875
-499.8779296875
-732.421875
-864.2578125
-926.513671875
-972.2900390625
-976.86767578125
-932.92236328125
-885.31494140625
-822.1435546875
-760.80322265625
-687.56103515625
-614.31884765625
-531.92138671875
-467.83447265625
-411.9873046875
-368.0419921875
-331.4208984375
-305.7861328125
-286.56005859375
-270.08056640625
-251.77001953125
-228.8818359375
-204.16259765625
-181.2744140625
-162.9638671875
-149.23095703125
-159.3017578125
-170.2880859375
-178.52783203125
-180.35888671875
-188.5986328125
-188.5986328125
-159.3017578125
-131.8359375
-126.3427734375
-115.3564453125
-110.77880859375
-103.45458984375
-108.0322265625
-110.77880859375
-106.201171875
-93.3837890625
-87.890625
-64.0869140625
-48.52294921875
-34.7900390625
-36.62109375
-33.87451171875
-30.21240234375
-5.4931640625
-2.74658203125
4.57763671875
27.4658203125
51.26953125
67.7490234375
73.2421875
60.4248046875
66.83349609375
70.49560546875
63.17138671875
58.59375
53.1005859375
65.91796875
80.56640625
95.21484375
95.21484375
86.97509765625
88.80615234375
91.552734375
88.80615234375
82.3974609375
84.228515625
87.890625
107.11669921875
120.849609375
123.59619140625
108.0322265625
108.0322265625
104.3701171875
98.876953125
96.13037109375
92.46826171875
101.62353515625
122.6806640625
130.92041015625
134.58251953125
130.0048828125
126.3427734375
124.51171875
127.25830078125
126.3427734375
130.92041015625
143.73779296875
148.3154296875
159.3017578125
169.37255859375
171.20361328125
166.6259765625
159.3017578125
162.04833984375
144.6533203125
144.6533203125
158.38623046875
176.69677734375
195.00732421875
201.416015625
202.33154296875
196.83837890625
190.4296875
202.33154296875
193.17626953125
190.4296875
210.5712890625
229.79736328125
238.037109375
240.78369140625
235.29052734375
233.45947265625
218.81103515625
224.30419921875
217.8955078125
211.48681640625
227.96630859375
257.26318359375
262.75634765625
257.26318359375
243.5302734375
241.69921875
238.037109375
236.2060546875
219.7265625
211.48681640625
208.740234375
221.5576171875
225.2197265625
234.375
224.30419921875
216.064453125
195.9228515625
188.5986328125
173.03466796875
151.9775390625
152.89306640625
164.794921875
173.9501953125
167.54150390625
159.3017578125
140.9912109375
127.25830078125
114.44091796875
108.0322265625
93.3837890625
86.97509765625
97.96142578125
99.79248046875
81.48193359375
84.228515625
75.0732421875
65.00244140625
49.4384765625
42.1142578125
33.87451171875
46.69189453125
53.1005859375
52.18505859375
56.7626953125
45.7763671875
26.55029296875
21.05712890625
20.1416015625
16.4794921875
5.4931640625
7.32421875
20.1416015625
40.283203125
32.04345703125
18.310546875
16.4794921875
-3.662109375
-16.4794921875
-22.88818359375
-9.1552734375
0.91552734375
21.97265625
31.1279296875
35.70556640625
32.04345703125
24.71923828125
14.6484375
10.07080078125
0
-10.986328125
11.90185546875
24.71923828125
39.36767578125
54.01611328125
43.02978515625
37.53662109375
32.958984375
21.97265625
16.4794921875
23.8037109375
31.1279296875
34.7900390625
42.1142578125
44.86083984375
44.86083984375
43.02978515625
33.87451171875
29.296875
30.21240234375
27.4658203125
35.70556640625
40.283203125
36.62109375
39.36767578125
40.283203125
34.7900390625
38.4521484375
37.53662109375
17.39501953125
12.8173828125
23.8037109375
38.4521484375
45.7763671875
39.36767578125
31.1279296875
29.296875
22.88818359375
19.22607421875
11.90185546875
8.23974609375
10.07080078125
21.05712890625
24.71923828125
15.56396484375
13.73291015625
9.1552734375
19.22607421875
20.1416015625
13.73291015625
4.57763671875
17.39501953125
15.56396484375
18.310546875
21.97265625
13.73291015625
13.73291015625
7.32421875
4.57763671875
-3.662109375
-9.1552734375
-4.57763671875
-9.1552734375
-3.662109375
0
-0.91552734375
2.74658203125
-2.74658203125
6.40869140625
2.74658203125
0
4.57763671875
20.1416015625
20.1416015625
17.39501953125
9.1552734375
4.57763671875
0.91552734375
-6.40869140625
-11.90185546875
-13.73291015625
14.6484375
7.32421875
17.39501953125
22.88818359375
24.71923828125
23.8037109375
19.22607421875
26.55029296875
21.05712890625
17.39501953125
36.62109375
51.26953125
56.7626953125
57.67822265625
63.17138671875
58.59375
63.17138671875
46.69189453125
39.36767578125
35.70556640625
34.7900390625
38.4521484375
54.01611328125
64.0869140625
57.67822265625
62.255859375
62.255859375
46.69189453125
45.7763671875
39.36767578125
43.9453125
55.84716796875
50.35400390625
53.1005859375
39.36767578125
40.283203125
39.36767578125
43.9453125
22.88818359375
15.56396484375
21.97265625
25.634765625
29.296875
20.1416015625
14.6484375
3.662109375
-6.40869140625
-12.8173828125
-10.986328125
-17.39501953125
-13.73291015625
-14.6484375
-16.4794921875
-19.22607421875
-22.88818359375
-17.39501953125
-25.634765625
-38.4521484375
-42.1142578125
-46.69189453125
-35.70556640625
-32.04345703125
-20.1416015625
-17.39501953125
-23.8037109375
-26.55029296875
-22.88818359375
-22.88818359375
-27.4658203125
-39.36767578125
-35.70556640625
-32.958984375
-22.88818359375
-21.97265625
-18.310546875
-21.05712890625
-38.4521484375
-32.958984375
-35.70556640625
-46.69189453125
-44.86083984375
-21.97265625
4.57763671875
27.4658203125
56.7626953125
65.91796875
70.49560546875
71.4111328125
63.17138671875
66.83349609375
69.580078125
71.4111328125
86.97509765625
100.7080078125
108.0322265625
106.201171875
122.6806640625
117.1875
107.11669921875
54.931640625
-88.80615234375
-262.75634765625
-424.8046875
-625.30517578125
-802.001953125
-877.99072265625
-964.05029296875
-1006.16455078125
-967.71240234375
-922.8515625
-873.4130859375
-792.8466796875
-713.19580078125
-613.4033203125
-550.23193359375
-500.79345703125
-463.2568359375
-417.48046875
-382.6904296875
-357.97119140625
-320.4345703125
-284.72900390625
-252.685546875
-228.8818359375
-213.31787109375
-206.9091796875
-191.34521484375
-198.66943359375
-203.2470703125
-192.2607421875
-176.69677734375
-188.5986328125
-184.02099609375
-174.86572265625
-171.20361328125
-177.6123046875
-173.9501953125
-157.470703125
-131.8359375
-125.42724609375
-119.93408203125
-116.27197265625
-95.21484375
-87.890625
-85.14404296875
-73.2421875
-67.7490234375
-63.17138671875
-69.580078125
-65.00244140625
-43.9453125
-20.1416015625
1.8310546875
24.71923828125
5.4931640625
19.22607421875
21.05712890625
17.39501953125
23.8037109375
28.38134765625
46.69189453125
67.7490234375
79.65087890625
79.65087890625
81.48193359375
74.15771484375
71.4111328125
65.91796875
54.01611328125
62.255859375
65.00244140625
72.32666015625
81.48193359375
90.63720703125
84.228515625
92.46826171875
95.21484375
86.0595703125
91.552734375
89.7216796875
95.21484375
97.0458984375
102.5390625
117.1875
118.10302734375
112.60986328125
106.201171875
102.5390625
108.94775390625
107.11669921875
112.60986328125
117.1875
124.51171875
134.58251953125
140.9912109375
136.41357421875
134.58251953125
138.24462890625
135.498046875
137.3291015625
153.80859375
160.21728515625
170.2880859375
176.69677734375
175.78125
169.37255859375
171.20361328125
175.78125
173.03466796875
171.20361328125
181.2744140625
185.85205078125
186.767578125
201.416015625
203.2470703125
205.99365234375
209.65576171875
208.740234375
209.65576171875
216.064453125
215.14892578125
220.64208984375
229.79736328125
227.05078125
228.8818359375
226.13525390625
214.2333984375
212.40234375
214.2333984375
216.97998046875
224.30419921875
229.79736328125
230.712890625
225.2197265625
216.064453125
206.9091796875
209.65576171875
208.740234375
199.5849609375
190.4296875
178.52783203125
176.69677734375
184.9365234375
181.2744140625
170.2880859375
154.72412109375
144.6533203125
137.3291015625
127.25830078125
110.77880859375
107.11669921875
106.201171875
105.28564453125
103.45458984375
88.80615234375
84.228515625
71.4111328125
58.59375
45.7763671875
35.70556640625
42.1142578125
43.02978515625
43.02978515625
48.52294921875
48.52294921875
36.62109375
28.38134765625
19.22607421875
8.23974609375
6.40869140625
4.57763671875
3.662109375
6.40869140625
9.1552734375
4.57763671875
-3.662109375
-7.32421875
-8.23974609375
-8.23974609375
-15.56396484375
-0.91552734375
6.40869140625
10.07080078125
12.8173828125
13.73291015625
6.40869140625
-6.40869140625
-4.57763671875
-16.4794921875
-13.73291015625
0
5.4931640625
11.90185546875
13.73291015625
12.8173828125
17.39501953125
16.4794921875
15.56396484375
9.1552734375
1.8310546875
8.23974609375
19.22607421875
21.05712890625
31.1279296875
25.634765625
32.04345703125
28.38134765625
27.4658203125
16.4794921875
1.8310546875
11.90185546875
20.1416015625
24.71923828125
33.87451171875
24.71923828125
14.6484375
6.40869140625
2.74658203125
13.73291015625
22.88818359375
16.4794921875
18.310546875
25.634765625
23.8037109375
21.05712890625
18.310546875
11.90185546875
9.1552734375
13.73291015625
5.4931640625
-4.57763671875
-3.662109375
12.8173828125
21.05712890625
15.56396484375
10.07080078125
3.662109375
2.74658203125
-9.1552734375
-11.90185546875
-1.8310546875
6.40869140625
6.40869140625
3.662109375
7.32421875
6.40869140625
-22.88818359375
-30.21240234375
-23.8037109375
-10.07080078125
-3.662109375
-12.8173828125
2.74658203125
4.57763671875
6.40869140625
-6.40869140625
-9.1552734375
-8.23974609375
-18.310546875
-18.310546875
-15.56396484375
-16.4794921875
-11.90185546875
-15.56396484375
-13.73291015625
-12.8173828125
-14.6484375
-27.4658203125
-26.55029296875
-26.55029296875
-28.38134765625
-24.71923828125
-23.8037109375
-5.4931640625
5.4931640625
-11.90185546875
-15.56396484375
-15.56396484375
-26.55029296875
-38.4521484375
-27.4658203125
-22.88818359375
-18.310546875
-23.8037109375
-16.4794921875
-17.39501953125
-13.73291015625
-14.6484375
-27.4658203125
-39.36767578125
-24.71923828125
-15.56396484375
-14.6484375
-14.6484375
-10.986328125
-11.90185546875
-18.310546875
-18.310546875
-21.97265625
-16.4794921875
-7.32421875
11.90185546875
27.4658203125
29.296875
22.88818359375
26.55029296875
21.05712890625
19.22607421875
22.88818359375
23.8037109375
32.958984375
33.87451171875
21.97265625
14.6484375
21.05712890625
33.87451171875
25.634765625
23.8037109375
16.4794921875
2.74658203125
0.91552734375
12.8173828125
21.05712890625
32.04345703125
46.69189453125
43.9453125
34.7900390625
30.21240234375
14.6484375
3.662109375
9.1552734375
17.39501953125
28.38134765625
26.55029296875
10.07080078125
-4.57763671875
-10.986328125
-19.22607421875
-27.4658203125
-38.4521484375
-40.283203125
-25.634765625
-24.71923828125
-38.4521484375
-45.7763671875
-47.607421875
-47.607421875
-45.7763671875
-61.34033203125
-78.7353515625
-63.17138671875
-60.4248046875
-54.01611328125
-44.86083984375
-43.9453125
-49.4384765625
-53.1005859375
-64.0869140625
-65.91796875
-60.4248046875
-58.59375
-51.26953125
-45.7763671875
-31.1279296875
-34.7900390625
-49.4384765625
-68.66455078125
-66.83349609375
-65.00244140625
-60.4248046875
-56.7626953125
-63.17138671875
-51.26953125
-41.19873046875
-45.7763671875
-24.71923828125
-6.40869140625
6.40869140625
22.88818359375
25.634765625
21.05712890625
39.36767578125
56.7626953125
60.4248046875
59.50927734375
75.98876953125
96.13037109375
117.1875
143.73779296875
162.9638671875
158.38623046875
148.3154296875
117.1875
0.91552734375
-177.6123046875
-355.224609375
-562.1337890625
-757.14111328125
-859.68017578125
-968.6279296875
-1038.2080078125
-1009.82666015625
-952.1484375
-894.47021484375
-835.87646484375
-775.45166015625
-693.9697265625
-609.7412109375
-562.1337890625
-522.76611328125
-472.412109375
-420.22705078125
-373.53515625
-335.99853515625
-306.70166015625
-285.64453125
-268.24951171875
-260.92529296875
-240.78369140625
-235.29052734375
-221.5576171875
-216.97998046875
-215.14892578125
-202.33154296875
-215.14892578125
-216.97998046875
-214.2333984375
-209.65576171875
-203.2470703125
-195.00732421875
-170.2880859375
-143.73779296875
-130.0048828125
-130.0048828125
-127.25830078125
-117.1875
-124.51171875
-123.59619140625
-107.11669921875
-102.5390625
-101.62353515625
-82.3974609375
-75.98876953125
-55.84716796875
-42.1142578125
-30.21240234375
-17.39501953125
-14.6484375
-7.32421875
1.8310546875
6.40869140625
13.73291015625
27.4658203125
44.86083984375
43.02978515625
35.70556640625
33.87451171875
31.1279296875
19.22607421875
29.296875
36.62109375
46.69189453125
53.1005859375
54.931640625
55.84716796875
58.59375
54.931640625
51.26953125
54.931640625
56.7626953125
56.7626953125
63.17138671875
71.4111328125
78.7353515625
76.904296875
65.00244140625
76.904296875
77.81982421875
73.2421875
76.904296875
76.904296875
83.31298828125
89.7216796875
101.62353515625
104.3701171875
101.62353515625
99.79248046875
101.62353515625
111.6943359375
100.7080078125
109.86328125
121.76513671875
135.498046875
138.24462890625
139.16015625
147.39990234375
148.3154296875
143.73779296875
134.58251953125
135.498046875
146.484375
151.06201171875
166.6259765625
183.10546875
183.10546875
186.767578125
185.85205078125
190.4296875
184.02099609375
184.9365234375
190.4296875
190.4296875
211.48681640625
214.2333984375
207.82470703125
208.740234375
210.5712890625
216.064453125
219.7265625
204.16259765625
200.50048828125
205.99365234375
218.81103515625
222.47314453125
217.8955078125
211.48681640625
204.16259765625
195.9228515625
196.83837890625
197.75390625
196.83837890625
195.9228515625
