ECG
10.07080078125
25.634765625
24.71923828125
28.38134765625
25.634765625
28.38134765625
21.97265625
25.634765625
35.70556640625
36.62109375
34.7900390625
39.36767578125
39.36767578125
50.35400390625
52.18505859375
55.84716796875
58.59375
60.4248046875
64.0869140625
61.34033203125
67.7490234375
69.580078125
76.904296875
81.48193359375
80.56640625
90.63720703125
99.79248046875
100.7080078125
90.63720703125
84.228515625
79.65087890625
86.0595703125
89.7216796875
105.28564453125
115.3564453125
109.86328125
115.3564453125
119.93408203125
119.0185546875
125.42724609375
119.93408203125
119.93408203125
119.93408203125
129.08935546875
126.3427734375
124.51171875
130.92041015625
124.51171875
122.6806640625
128.173828125
117.1875
111.6943359375
104.3701171875
97.0458984375
106.201171875
102.5390625
100.7080078125
88.80615234375
79.65087890625
78.7353515625
63.17138671875
50.35400390625
52.18505859375
40.283203125
34.7900390625
30.21240234375
32.958984375
20.1416015625
1.8310546875
13.73291015625
10.07080078125
4.57763671875
-25.634765625
-38.4521484375
-36.62109375
-35.70556640625
-38.4521484375
-48.52294921875
-49.4384765625
-53.1005859375
-55.84716796875
-49.4384765625
-54.931640625
-55.84716796875
-61.34033203125
-65.91796875
-70.49560546875
-67.7490234375
-63.17138671875
-66.83349609375
-73.2421875
-65.91796875
-58.59375
-54.01611328125
-54.931640625
-50.35400390625
-63.17138671875
-66.83349609375
-71.4111328125
-70.49560546875
-65.00244140625
-72.32666015625
-64.0869140625
-60.4248046875
-57.67822265625
-52.18505859375
-51.26953125
-62.255859375
-65.00244140625
-63.17138671875
-66.83349609375
-62.255859375
-58.59375
-50.35400390625
-57.67822265625
-59.50927734375
-57.67822265625
-59.50927734375
-63.17138671875
-59.50927734375
-62.255859375
-60.4248046875
-56.7626953125
-63.17138671875
-60.4248046875
-58.59375
-64.0869140625
-73.2421875
-71.4111328125
-66.83349609375
-67.7490234375
-59.50927734375
-62.255859375
-63.17138671875
-61.34033203125
-64.0869140625
-69.580078125
-75.0732421875
-82.3974609375
-84.228515625
-90.63720703125
-74.15771484375
-78.7353515625
-86.0595703125
-78.7353515625
-75.98876953125
-79.65087890625
-86.97509765625
-93.3837890625
-95.21484375
-89.7216796875
-85.14404296875
-79.65087890625
-82.3974609375
-72.32666015625
-77.81982421875
-87.890625
-97.0458984375
-97.0458984375
-99.79248046875
-98.876953125
-87.890625
-77.81982421875
-82.3974609375
-85.14404296875
-81.48193359375
-74.15771484375
-72.32666015625
-75.98876953125
-76.904296875
-75.0732421875
-58.59375
-43.9453125
-33.87451171875
-30.21240234375
-43.9453125
-45.7763671875
-61.34033203125
-65.00244140625
-76.904296875
-81.48193359375
-55.84716796875
-34.7900390625
-0.91552734375
27.4658203125
28.38134765625
18.310546875
17.39501953125
10.986328125
0.91552734375
5.4931640625
18.310546875
21.97265625
14.6484375
-3.662109375
-19.22607421875
-39.36767578125
-49.4384765625
-47.607421875
-51.26953125
-49.4384765625
-47.607421875
-56.7626953125
-57.67822265625
-64.0869140625
-82.3974609375
-87.890625
-99.79248046875
-109.86328125
-110.77880859375
-112.60986328125
-119.93408203125
-122.6806640625
-120.849609375
-127.25830078125
-123.59619140625
-123.59619140625
-141.90673828125
-140.9912109375
-144.6533203125
-139.16015625
-134.58251953125
-134.58251953125
-131.8359375
-132.75146484375
-139.16015625
-136.41357421875
-130.0048828125
-122.6806640625
-126.3427734375
-130.92041015625
-127.25830078125
-128.173828125
-130.0048828125
-128.173828125
-122.6806640625
-124.51171875
-122.6806640625
-136.41357421875
-145.56884765625
-141.90673828125
-141.90673828125
-129.08935546875
-116.27197265625
-97.0458984375
-74.15771484375
-64.0869140625
-45.7763671875
-34.7900390625
-33.87451171875
-26.55029296875
-14.6484375
-14.6484375
-16.4794921875
-7.32421875
-0.91552734375
0.91552734375
16.4794921875
40.283203125
22.88818359375
9.1552734375
-65.00244140625
-244.44580078125
-427.55126953125
-596.923828125
-818.4814453125
-950.3173828125
-1038.2080078125
-1114.19677734375
-1138.00048828125
-1088.56201171875
-1026.30615234375
-969.54345703125
-903.62548828125
-818.4814453125
-736.99951171875
-678.40576171875
-632.62939453125
-589.599609375
-531.92138671875
-488.8916015625
-453.18603515625
-422.9736328125
-396.42333984375
-372.61962890625
-347.900390625
-328.67431640625
-313.1103515625
-303.03955078125
-309.4482421875
-302.1240234375
-297.54638671875
-281.982421875
-276.4892578125
-277.40478515625
-273.74267578125
-260.92529296875
-255.43212890625
-251.77001953125
-242.61474609375
-232.5439453125
-220.64208984375
-212.40234375
-212.40234375
-202.33154296875
-195.9228515625
-185.85205078125
-172.119140625
-165.71044921875
-154.72412109375
-152.89306640625
-152.89306640625
-117.1875
-92.46826171875
-79.65087890625
-69.580078125
-67.7490234375
-64.0869140625
-58.59375
-55.84716796875
-47.607421875
-40.283203125
-32.04345703125
-14.6484375
-13.73291015625
-15.56396484375
-6.40869140625
-0.91552734375
-11.90185546875
-15.56396484375
-16.4794921875
-16.4794921875
-9.1552734375
-8.23974609375
-3.662109375
-2.74658203125
-1.8310546875
-6.40869140625
-10.07080078125
-10.986328125
-2.74658203125
4.57763671875
8.23974609375
10.07080078125
21.05712890625
21.97265625
31.1279296875
28.38134765625
24.71923828125
21.05712890625
21.05712890625
38.4521484375
39.36767578125
43.9453125
43.02978515625
44.86083984375
48.52294921875
56.7626953125
58.59375
56.7626953125
60.4248046875
59.50927734375
65.00244140625
67.7490234375
74.15771484375
81.48193359375
82.3974609375
69.580078125
70.49560546875
83.31298828125
81.48193359375
94.29931640625
97.0458984375
108.0322265625
107.11669921875
106.201171875
110.77880859375
119.0185546875
114.44091796875
114.44091796875
118.10302734375
119.93408203125
120.849609375
133.6669921875
135.498046875
137.3291015625
143.73779296875
141.90673828125
127.25830078125
131.8359375
135.498046875
131.8359375
133.6669921875
130.0048828125
123.59619140625
130.0048828125
123.59619140625
112.60986328125
115.3564453125
113.525390625
108.94775390625
99.79248046875
97.0458984375
88.80615234375
84.228515625
66.83349609375
63.17138671875
62.255859375
56.7626953125
50.35400390625
35.70556640625
25.634765625
10.986328125
13.73291015625
16.4794921875
0.91552734375
-5.4931640625
-14.6484375
-25.634765625
-25.634765625
-21.97265625
-31.1279296875
-35.70556640625
-43.02978515625
-53.1005859375
-50.35400390625
-60.4248046875
-63.17138671875
-60.4248046875
-55.84716796875
-59.50927734375
-63.17138671875
-57.67822265625
-56.7626953125
-54.931640625
-62.255859375
-62.255859375
-66.83349609375
-68.66455078125
-69.580078125
-65.00244140625
-69.580078125
-72.32666015625
-76.904296875
-72.32666015625
-69.580078125
-73.2421875
-73.2421875
-68.66455078125
-72.32666015625
-66.83349609375
-58.59375
-58.59375
-59.50927734375
-54.931640625
-58.59375
-58.59375
-60.4248046875
-62.255859375
-61.34033203125
-65.00244140625
-60.4248046875
-59.50927734375
-63.17138671875
-58.59375
-62.255859375
-56.7626953125
-63.17138671875
-67.7490234375
-72.32666015625
-63.17138671875
-59.50927734375
-55.84716796875
-54.01611328125
-52.18505859375
-59.50927734375
-61.34033203125
-65.91796875
-60.4248046875
-65.00244140625
-69.580078125
-71.4111328125
-80.56640625
-78.7353515625
-65.91796875
-74.15771484375
-74.15771484375
-75.0732421875
-71.4111328125
-76.904296875
-80.56640625
-81.48193359375
-87.890625
-87.890625
-74.15771484375
-86.97509765625
-92.46826171875
-89.7216796875
-88.80615234375
-90.63720703125
-92.46826171875
-90.63720703125
-86.97509765625
-74.15771484375
-81.48193359375
-83.31298828125
-89.7216796875
-97.96142578125
-93.3837890625
-96.13037109375
-102.5390625
-96.13037109375
-90.63720703125
-93.3837890625
-99.79248046875
-93.3837890625
-97.0458984375
-101.62353515625
-97.0458984375
-104.3701171875
-101.62353515625
-107.11669921875
-104.3701171875
-99.79248046875
-92.46826171875
-93.3837890625
-96.13037109375
-95.21484375
-93.3837890625
-99.79248046875
-104.3701171875
-100.7080078125
-99.79248046875
-104.3701171875
-92.46826171875
-81.48193359375
-81.48193359375
-82.3974609375
-85.14404296875
-65.00244140625
-57.67822265625
-52.18505859375
-47.607421875
-42.1142578125
-42.1142578125
-54.931640625
-53.1005859375
-50.35400390625
-54.01611328125
-46.69189453125
-48.52294921875
-45.7763671875
-22.88818359375
-9.1552734375
11.90185546875
4.57763671875
-3.662109375
-17.39501953125
-20.1416015625
-22.88818359375
-6.40869140625
-1.8310546875
-4.57763671875
-4.57763671875
-9.1552734375
-35.70556640625
-42.1142578125
-54.931640625
-53.1005859375
-60.4248046875
-70.49560546875
-75.0732421875
-83.31298828125
-82.3974609375
-76.904296875
-97.96142578125
-108.94775390625
-105.28564453125
-98.876953125
-108.0322265625
-113.525390625
-117.1875
-117.1875
-118.10302734375
-126.3427734375
-130.0048828125
-132.75146484375
-131.8359375
-130.0048828125
-129.08935546875
-129.08935546875
-136.41357421875
-141.90673828125
-130.0048828125
-130.0048828125
-131.8359375
-134.58251953125
-130.0048828125
-130.92041015625
-119.93408203125
-124.51171875
-129.08935546875
-125.42724609375
-130.0048828125
-126.3427734375
-133.6669921875
-129.08935546875
-130.0048828125
-126.3427734375
-130.92041015625
-137.3291015625
-134.58251953125
-123.59619140625
-100.7080078125
-75.0732421875
-63.17138671875
-52.18505859375
-38.4521484375
-32.04345703125
-32.958984375
-29.296875
-24.71923828125
-11.90185546875
3.662109375
21.97265625
45.7763671875
69.580078125
84.228515625
79.65087890625
72.32666015625
11.90185546875
-140.9912109375
-335.99853515625
-498.046875
-693.05419921875
-867.00439453125
-964.05029296875
-1055.60302734375
-1121.52099609375
-1087.646484375
-1050.10986328125
-998.84033203125
-934.75341796875
-856.01806640625
-768.12744140625
-682.9833984375
-632.62939453125
-595.0927734375
-555.72509765625
-513.61083984375
-487.060546875
-443.115234375
-398.25439453125
-367.12646484375
-333.251953125
-315.85693359375
-305.7861328125
-302.1240234375
-305.7861328125
-301.20849609375
-299.37744140625
-294.7998046875
-290.22216796875
-286.56005859375
-282.89794921875
-275.57373046875
-262.75634765625
-253.60107421875
-245.361328125
-237.12158203125
-231.62841796875
-224.30419921875
-220.64208984375
-210.5712890625
-199.5849609375
-193.17626953125
-182.18994140625
-172.119140625
-164.794921875
-161.1328125
-162.9638671875
-152.89306640625
-121.76513671875
-97.0458984375
-85.14404296875
-75.98876953125
-78.7353515625
-69.580078125
-73.2421875
-62.255859375
-47.607421875
-34.7900390625
-24.71923828125
-25.634765625
-24.71923828125
-30.21240234375
-25.634765625
-27.4658203125
-23.8037109375
-27.4658203125
-27.4658203125
-24.71923828125
-21.05712890625
-21.05712890625
-17.39501953125
-14.6484375
-10.07080078125
-2.74658203125
-16.4794921875
-19.22607421875
-20.1416015625
-9.1552734375
-9.1552734375
-2.74658203125
14.6484375
10.986328125
4.57763671875
10.07080078125
7.32421875
12.8173828125
17.39501953125
30.21240234375
20.1416015625
25.634765625
32.958984375
37.53662109375
35.70556640625
36.62109375
38.4521484375
37.53662109375
46.69189453125
44.86083984375
45.7763671875
51.26953125
51.26953125
54.01611328125
57.67822265625
52.18505859375
59.50927734375
56.7626953125
75.98876953125
77.81982421875
87.890625
86.97509765625
97.96142578125
95.21484375
90.63720703125
97.96142578125
103.45458984375
103.45458984375
101.62353515625
105.28564453125
106.201171875
115.3564453125
113.525390625
110.77880859375
110.77880859375
110.77880859375
110.77880859375
108.0322265625
111.6943359375
108.0322265625
113.525390625
123.59619140625
111.6943359375
112.60986328125
104.3701171875
102.5390625
98.876953125
92.46826171875
93.3837890625
83.31298828125
75.0732421875
84.228515625
78.7353515625
64.0869140625
54.01611328125
38.4521484375
24.71923828125
21.97265625
21.97265625
17.39501953125
10.07080078125
5.4931640625
-7.32421875
-15.56396484375
-33.87451171875
-34.7900390625
-38.4521484375
-32.958984375
-38.4521484375
-51.26953125
-54.01611328125
-56.7626953125
-61.34033203125
-69.580078125
-65.91796875
-73.2421875
-73.2421875
-75.0732421875
-76.904296875
-76.904296875
-77.81982421875
-75.98876953125
-82.3974609375
-83.31298828125
-78.7353515625
-90.63720703125
-89.7216796875
-88.80615234375
-98.876953125
-94.29931640625
-87.890625
-87.890625
-90.63720703125
-88.80615234375
-87.890625
-93.3837890625
-87.890625
-96.13037109375
-103.45458984375
-94.29931640625
-93.3837890625
-79.65087890625
-75.98876953125
-75.98876953125
-74.15771484375
-77.81982421875
-83.31298828125
-71.4111328125
-75.98876953125
-76.904296875
-78.7353515625
-78.7353515625
-77.81982421875
-84.228515625
-75.98876953125
-68.66455078125
-74.15771484375
-78.7353515625
-81.48193359375
-83.31298828125
-88.80615234375
-76.904296875
-73.2421875
-73.2421875
-79.65087890625
-80.56640625
-82.3974609375
-89.7216796875
-85.14404296875
-81.48193359375
-83.31298828125
-86.0595703125
-85.14404296875
-90.63720703125
-90.63720703125
-93.3837890625
-87.890625
-94.29931640625
-88.80615234375
-88.80615234375
-97.0458984375
-100.7080078125
-96.13037109375
-95.21484375
-97.96142578125
-102.5390625
-89.7216796875
-98.876953125
-102.5390625
-101.62353515625
-101.62353515625
-102.5390625
-94.29931640625
-99.79248046875
-99.79248046875
-99.79248046875
-106.201171875
-108.94775390625
-112.60986328125
-108.0322265625
-110.77880859375
-111.6943359375
-107.11669921875
-111.6943359375
-111.6943359375
-119.0185546875
-127.25830078125
-128.173828125
-141.90673828125
-139.16015625
-115.3564453125
-104.3701171875
-100.7080078125
-104.3701171875
-106.201171875
-117.1875
-118.10302734375
-119.0185546875
-128.173828125
-124.51171875
-115.3564453125
-113.525390625
-106.201171875
-107.11669921875
-107.11669921875
-113.525390625
-121.76513671875
-113.525390625
-123.59619140625
-126.3427734375
-119.0185546875
-113.525390625
-111.6943359375
-120.849609375
-122.6806640625
-125.42724609375
-128.173828125
-124.51171875
-119.93408203125
-114.44091796875
-120.849609375
-129.08935546875
-127.25830078125
-122.6806640625
-120.849609375
-119.93408203125
-118.10302734375
-120.849609375
-123.59619140625
-117.1875
-117.1875
-118.10302734375
-120.849609375
-126.3427734375
-124.51171875
-125.42724609375
-127.25830078125
-130.0048828125
-117.1875
-122.6806640625
-126.3427734375
-123.59619140625
-126.3427734375
-120.849609375
-131.8359375
-130.0048828125
-130.92041015625
-124.51171875
-127.25830078125
-119.93408203125
-106.201171875
-91.552734375
-79.65087890625
-72.32666015625
-69.580078125
-75.0732421875
-70.49560546875
-66.83349609375
-87.890625
-84.228515625
-65.00244140625
-62.255859375
-64.0869140625
-49.4384765625
-43.9453125
-52.18505859375
-49.4384765625
-32.04345703125
-25.634765625
-37.53662109375
-44.86083984375
-46.69189453125
-45.7763671875
-37.53662109375
-31.1279296875
-33.87451171875
-42.1142578125
-39.36767578125
-43.02978515625
-51.26953125
-56.7626953125
-67.7490234375
-67.7490234375
-69.580078125
-70.49560546875
-82.3974609375
-93.3837890625
-96.13037109375
-96.13037109375
-98.876953125
-104.3701171875
-115.3564453125
-119.0185546875
-128.173828125
-138.24462890625
-138.24462890625
-140.9912109375
-140.9912109375
-142.822265625
-153.80859375
-149.23095703125
-148.3154296875
-147.39990234375
-147.39990234375
-146.484375
-152.89306640625
-151.9775390625
-155.6396484375
-154.72412109375
-158.38623046875
-149.23095703125
-139.16015625
-140.07568359375
-147.39990234375
-147.39990234375
-141.90673828125
-148.3154296875
-151.06201171875
-145.56884765625
-148.3154296875
-151.06201171875
-144.6533203125
-138.24462890625
-141.90673828125
-141.90673828125
-139.16015625
-129.08935546875
-107.11669921875
-92.46826171875
-73.2421875
-52.18505859375
-45.7763671875
-45.7763671875
-43.02978515625
-37.53662109375
-34.7900390625
-21.05712890625
-10.07080078125
12.8173828125
42.1142578125
63.17138671875
97.0458984375
98.876953125
79.65087890625
16.4794921875
-136.41357421875
-330.50537109375
-517.27294921875
-750.732421875
-908.203125
-999.755859375
-1092.22412109375
-1138.00048828125
-1094.05517578125
-1048.27880859375
-1004.33349609375
-945.73974609375
-869.7509765625
-780.029296875
-700.37841796875
-651.85546875
-602.4169921875
-555.72509765625
-507.2021484375
-467.83447265625
-443.115234375
-416.56494140625
-391.845703125
-374.45068359375
-356.14013671875
-335.0830078125
-321.35009765625
-309.4482421875
-317.68798828125
-318.603515625
-302.1240234375
-295.71533203125
-293.88427734375
-295.71533203125
-279.23583984375
-268.24951171875
-260.92529296875
-255.43212890625
-247.1923828125
-253.60107421875
-260.009765625
-267.333984375
-256.34765625
-221.5576171875
-199.5849609375
-176.69677734375
-171.20361328125
-173.03466796875
-165.71044921875
-160.21728515625
-139.16015625
-120.849609375
-114.44091796875
-104.3701171875
-104.3701171875
-92.46826171875
-75.98876953125
-70.49560546875
-64.0869140625
-61.34033203125
-61.34033203125
-61.34033203125
-56.7626953125
-58.59375
-55.84716796875
-44.86083984375
-54.01611328125
-52.18505859375
-44.86083984375
-40.283203125
-40.283203125
-42.1142578125
-34.7900390625
-38.4521484375
-43.02978515625
-34.7900390625
-29.296875
-31.1279296875
-29.296875
-28.38134765625
-28.38134765625
-25.634765625
-17.39501953125
-20.1416015625
-19.22607421875
-14.6484375
-5.4931640625
0
-2.74658203125
7.32421875
4.57763671875
1.8310546875
1.8310546875
2.74658203125
10.07080078125
11.90185546875
13.73291015625
23.8037109375
20.1416015625
22.88818359375
25.634765625
24.71923828125
25.634765625
31.1279296875
36.62109375
32.958984375
37.53662109375
36.62109375
43.02978515625
56.7626953125
71.4111328125
78.7353515625
76.904296875
79.65087890625
81.48193359375
87.890625
94.29931640625
91.552734375
92.46826171875
95.21484375
92.46826171875
87.890625
91.552734375
97.96142578125
96.13037109375
102.5390625
113.525390625
110.77880859375
109.86328125
105.28564453125
101.62353515625
99.79248046875
98.876953125
105.28564453125
104.3701171875
111.6943359375
103.45458984375
102.5390625
104.3701171875
94.29931640625
86.97509765625
80.56640625
64.0869140625
68.66455078125
65.91796875
54.931640625
51.26953125
49.4384765625
38.4521484375
29.296875
21.97265625
16.4794921875
14.6484375
-0.91552734375
0
-10.07080078125
-13.73291015625
-18.310546875
-21.97265625
-32.958984375
-40.283203125
-44.86083984375
-52.18505859375
-60.4248046875
-66.83349609375
-73.2421875
-66.83349609375
-65.00244140625
-66.83349609375
-68.66455078125
-66.83349609375
-71.4111328125
-78.7353515625
-81.48193359375
-72.32666015625
-75.98876953125
-80.56640625
-80.56640625
-80.56640625
-86.0595703125
-92.46826171875
-101.62353515625
-99.79248046875
-103.45458984375
-94.29931640625
-96.13037109375
-91.552734375
-83.31298828125
-79.65087890625
-80.56640625
-79.65087890625
-81.48193359375
-85.14404296875
-88.80615234375
-88.80615234375
-77.81982421875
-68.66455078125
-68.66455078125
-68.66455078125
-65.00244140625
-70.49560546875
-77.81982421875
-75.0732421875
-68.66455078125
-65.91796875
-68.66455078125
-64.0869140625
-67.7490234375
-75.98876953125
-75.0732421875
-74.15771484375
-75.98876953125
-73.2421875
-73.2421875
-70.49560546875
-74.15771484375
-67.7490234375
-62.255859375
-73.2421875
-71.4111328125
-72.32666015625
-74.15771484375
-76.904296875
-75.0732421875
-77.81982421875
-82.3974609375
-85.14404296875
-79.65087890625
-87.890625
-84.228515625
-86.97509765625
-88.80615234375
-100.7080078125
-91.552734375
-93.3837890625
-89.7216796875
-86.0595703125
-91.552734375
-88.80615234375
-87.890625
-94.29931640625
-97.0458984375
-93.3837890625
-94.29931640625
-99.79248046875
-100.7080078125
-99.79248046875
-102.5390625
-97.96142578125
-98.876953125
-101.62353515625
-102.5390625
-107.11669921875
-104.3701171875
-106.201171875
-102.5390625
-102.5390625
-104.3701171875
-99.79248046875
-105.28564453125
-112.60986328125
-113.525390625
-111.6943359375
-114.44091796875
-119.93408203125
-116.27197265625
-110.77880859375
-95.21484375
-101.62353515625
-110.77880859375
-114.44091796875
-121.76513671875
-123.59619140625
-125.42724609375
-120.849609375
-106.201171875
-110.77880859375
-106.201171875
-104.3701171875
-103.45458984375
-102.5390625
-106.201171875
-111.6943359375
-118.10302734375
-119.93408203125
-122.6806640625
-118.10302734375
-107.11669921875
-98.876953125
-101.62353515625
-110.77880859375
-114.44091796875
-118.10302734375
-123.59619140625
-130.0048828125
-126.3427734375
-114.44091796875
-106.201171875
-107.11669921875
-111.6943359375
-108.94775390625
-108.0322265625
-118.10302734375
-115.3564453125
-110.77880859375
-109.86328125
-109.86328125
-103.45458984375
-105.28564453125
-112.60986328125
-117.1875
-117.1875
-125.42724609375
-124.51171875
-123.59619140625
-118.10302734375
-114.44091796875
-113.525390625
-110.77880859375
-112.60986328125
-116.27197265625
-115.3564453125
-118.10302734375
-117.1875
-118.10302734375
-114.44091796875
-112.60986328125
-109.86328125
-114.44091796875
-119.0185546875
-119.93408203125
-115.3564453125
-117.1875
-117.1875
-123.59619140625
-116.27197265625
-106.201171875
-97.96142578125
-84.228515625
-75.0732421875
-67.7490234375
-64.0869140625
-63.17138671875
-57.67822265625
-59.50927734375
-55.84716796875
-52.18505859375
-52.18505859375
-55.84716796875
-59.50927734375
-61.34033203125
-59.50927734375
-49.4384765625
-39.36767578125
-26.55029296875
-17.39501953125
-23.8037109375
-30.21240234375
-24.71923828125
-29.296875
-28.38134765625
-20.1416015625
-29.296875
-39.36767578125
-41.19873046875
-52.18505859375
-59.50927734375
-57.67822265625
-68.66455078125
-76.904296875
-65.91796875
-71.4111328125
-79.65087890625
-80.56640625
-80.56640625
-84.228515625
-92.46826171875
-104.3701171875
-112.60986328125
-118.10302734375
-121.76513671875
-120.849609375
-128.173828125
-131.8359375
-132.75146484375
-127.25830078125
-125.42724609375
-130.92041015625
-134.58251953125
-137.3291015625
-139.16015625
-139.16015625
-139.16015625
-137.3291015625
-133.6669921875
-136.41357421875
-128.173828125
-130.92041015625
-130.92041015625
-133.6669921875
-136.41357421875
-138.24462890625
-131.8359375
-138.24462890625
-147.39990234375
-140.9912109375
-136.41357421875
-128.173828125
-125.42724609375
-128.173828125
-129.08935546875
-125.42724609375
-115.3564453125
-96.13037109375
-82.3974609375
-67.7490234375
-46.69189453125
-32.958984375
-33.87451171875
-44.86083984375
-44.86083984375
-37.53662109375
-16.4794921875
-6.40869140625
0
34.7900390625
51.26953125
84.228515625
86.97509765625
81.48193359375
55.84716796875
-63.17138671875
-249.93896484375
-440.36865234375
-640.869140625
-835.87646484375
-931.09130859375
-1030.8837890625
-1108.70361328125
-1092.22412109375
-1046.44775390625
-1005.2490234375
-948.486328125
-877.0751953125
-791.015625
-693.9697265625
-639.0380859375
-599.67041015625
-552.978515625
-504.45556640625
-469.66552734375
-443.115234375
-413.818359375
-379.94384765625
-357.0556640625
-331.4208984375
-310.36376953125
-298.4619140625
-292.05322265625
-298.4619140625
-299.37744140625
-294.7998046875
-288.39111328125
-292.96875
-291.1376953125
-284.72900390625
-280.1513671875
-280.1513671875
-271.91162109375
-256.34765625
-247.1923828125
-246.27685546875
-229.79736328125
-221.5576171875
-219.7265625
-212.40234375
-195.00732421875
-180.35888671875
-171.20361328125
-166.6259765625
-159.3017578125
-156.55517578125
-140.07568359375
-125.42724609375
-113.525390625
-103.45458984375
-89.7216796875
-84.228515625
-82.3974609375
-72.32666015625
-54.01611328125
-54.01611328125
-52.18505859375
-40.283203125
-36.62109375
-35.70556640625
-38.4521484375
-43.9453125
-39.36767578125
-36.62109375
-39.36767578125
-44.86083984375
-34.7900390625
-30.21240234375
-33.87451171875
-34.7900390625
-34.7900390625
-21.05712890625
-20.1416015625
-16.4794921875
-17.39501953125
-23.8037109375
-15.56396484375
-13.73291015625
-13.73291015625
-10.986328125
-3.662109375
-3.662109375
0
-3.662109375
3.662109375
3.662109375
-3.662109375
3.662109375
8.23974609375
10.07080078125
4.57763671875
13.73291015625
13.73291015625
10.986328125
10.986328125
10.986328125
20.1416015625
31.1279296875
31.1279296875
36.62109375
37.53662109375
52.18505859375
53.1005859375
58.59375
56.7626953125
52.18505859375
45.7763671875
57.67822265625
58.59375
61.34033203125
74.15771484375
85.14404296875
80.56640625
80.56640625
76.904296875
70.49560546875
81.48193359375
84.228515625
96.13037109375
97.0458984375
108.94775390625
123.59619140625
119.0185546875
108.94775390625
110.77880859375
109.86328125
110.77880859375
101.62353515625
104.3701171875
105.28564453125
101.62353515625
102.5390625
104.3701171875
103.45458984375
97.96142578125
96.13037109375
92.46826171875
87.890625
79.65087890625
75.98876953125
76.904296875
76.904296875
57.67822265625
45.7763671875
43.02978515625
30.21240234375
24.71923828125
17.39501953125
22.88818359375
19.22607421875
4.57763671875
-0.91552734375
-5.4931640625
-8.23974609375
-16.4794921875
-23.8037109375
-32.04345703125
-40.283203125
-40.283203125
-43.9453125
-46.69189453125
-53.1005859375
-56.7626953125
-63.17138671875
-71.4111328125
-68.66455078125
-68.66455078125
-71.4111328125
-68.66455078125
-69.580078125
-70.49560546875
-75.98876953125
-77.81982421875
-80.56640625
-76.904296875
-75.98876953125
-81.48193359375
-84.228515625
-89.7216796875
-90.63720703125
-79.65087890625
-75.98876953125
-79.65087890625
-76.904296875
-71.4111328125
-77.81982421875
-80.56640625
-81.48193359375
-79.65087890625
-79.65087890625
-83.31298828125
-80.56640625
-76.904296875
-71.4111328125
-71.4111328125
-74.15771484375
-72.32666015625
-72.32666015625
-75.0732421875
-69.580078125
-61.34033203125
-66.83349609375
-66.83349609375
-65.00244140625
-65.91796875
-73.2421875
-74.15771484375
-65.91796875
-64.0869140625
-62.255859375
-66.83349609375
-67.7490234375
-72.32666015625
-70.49560546875
-74.15771484375
-73.2421875
-75.0732421875
-80.56640625
-76.904296875
-71.4111328125
-67.7490234375
-69.580078125
-66.83349609375
-76.904296875
-86.97509765625
-86.0595703125
-96.13037109375
-91.552734375
-80.56640625
-80.56640625
-81.48193359375
-85.14404296875
-97.96142578125
-96.13037109375
-92.46826171875
-94.29931640625
-95.21484375
-97.96142578125
-97.96142578125
-103.45458984375
-97.96142578125
-89.7216796875
-84.228515625
-85.14404296875
-92.46826171875
-96.13037109375
-91.552734375
-91.552734375
-90.63720703125
-88.80615234375
-92.46826171875
-95.21484375
-97.0458984375
-99.79248046875
-97.96142578125
-99.79248046875
-96.13037109375
-94.29931640625
-106.201171875
-102.5390625
-100.7080078125
-95.21484375
-92.46826171875
-100.7080078125
-101.62353515625
-103.45458984375
-106.201171875
-109.86328125
-108.94775390625
-114.44091796875
-104.3701171875
-96.13037109375
-97.0458984375
-96.13037109375
-101.62353515625
-104.3701171875
-118.10302734375
-140.07568359375
-126.3427734375
-95.21484375
-105.28564453125
-104.3701171875
-106.201171875
-106.201171875
-109.86328125
-113.525390625
-103.45458984375
-105.28564453125
-112.60986328125
-106.201171875
-102.5390625
-109.86328125
-102.5390625
-98.876953125
-99.79248046875
-97.0458984375
-116.27197265625
-125.42724609375
-129.08935546875
-109.86328125
-100.7080078125
-94.29931640625
-95.21484375
-95.21484375
-97.0458984375
-105.28564453125
-105.28564453125
-107.11669921875
-103.45458984375
-108.0322265625
-104.3701171875
-106.201171875
-105.28564453125
-99.79248046875
-99.79248046875
-105.28564453125
-103.45458984375
-94.29931640625
-95.21484375
-102.5390625
-97.0458984375
-91.552734375
-92.46826171875
-94.29931640625
-98.876953125
-95.21484375
-79.65087890625
-73.2421875
-67.7490234375
-54.931640625
-46.69189453125
-43.02978515625
-39.36767578125
-39.36767578125
-43.02978515625
-45.7763671875
-54.931640625
-53.1005859375
-54.931640625
-54.01611328125
-44.86083984375
-43.9453125
-24.71923828125
-14.6484375
-7.32421875
-10.07080078125
-17.39501953125
-25.634765625
-22.88818359375
-10.986328125
-7.32421875
-1.8310546875
-11.90185546875
-28.38134765625
-38.4521484375
-47.607421875
-58.59375
-52.18505859375
-47.607421875
-44.86083984375
-50.35400390625
-58.59375
-61.34033203125
-69.580078125
-87.890625
-95.21484375
-101.62353515625
-110.77880859375
-123.59619140625
-115.3564453125
-116.27197265625
-119.93408203125
-109.86328125
-113.525390625
-117.1875
-117.1875
-127.25830078125
-130.0048828125
-119.93408203125
-120.849609375
-119.0185546875
-119.0185546875
-109.86328125
-112.60986328125
-116.27197265625
-121.76513671875
-124.51171875
-129.08935546875
-125.42724609375
-121.76513671875
-127.25830078125
-120.849609375
-113.525390625
-114.44091796875
-116.27197265625
-117.1875
-115.3564453125
-119.0185546875
-117.1875
-117.1875
-109.86328125
-99.79248046875
-82.3974609375
-64.0869140625
-52.18505859375
-33.87451171875
-28.38134765625
-34.7900390625
-35.70556640625
-23.8037109375
-21.05712890625
-21.05712890625
11.90185546875
36.62109375
41.19873046875
50.35400390625
79.65087890625
82.3974609375
68.66455078125
17.39501953125
-119.93408203125
-316.7724609375
-497.13134765625
-713.19580078125
-880.7373046875
-968.6279296875
-1062.01171875
-1105.95703125
-1058.349609375
-1011.65771484375
-965.88134765625
-907.28759765625
-835.87646484375
-725.09765625
-639.95361328125
-601.50146484375
-556.640625
-509.94873046875
-459.5947265625
-417.48046875
-396.42333984375
-374.45068359375
-356.14013671875
-325.927734375
-306.70166015625
-288.39111328125
-285.64453125
-285.64453125
-291.1376953125
-286.56005859375
-270.08056640625
-270.08056640625
-266.41845703125
-264.58740234375
-265.5029296875
-258.1787109375
-260.92529296875
-248.10791015625
-238.037109375
-232.5439453125
-225.2197265625
-207.82470703125
-196.83837890625
-195.00732421875
-186.767578125
-166.6259765625
-161.1328125
-145.56884765625
-145.56884765625
-141.90673828125
-127.25830078125
-101.62353515625
-93.3837890625
-77.81982421875
-72.32666015625
-65.91796875
-62.255859375
-70.49560546875
-59.50927734375
-34.7900390625
-31.1279296875
-31.1279296875
-23.8037109375
-23.8037109375
-27.4658203125
-25.634765625
-20.1416015625
-22.88818359375
-23.8037109375
-32.04345703125
-21.97265625
-10.986328125
-13.73291015625
-11.90185546875
-9.1552734375
-6.40869140625
-13.73291015625
-8.23974609375
-10.986328125
-1.8310546875
7.32421875
8.23974609375
10.07080078125
12.8173828125
12.8173828125
6.40869140625
8.23974609375
13.73291015625
16.4794921875
21.05712890625
27.4658203125
32.958984375
35.70556640625
45.7763671875
41.19873046875
45.7763671875
46.69189453125
47.607421875
47.607421875
45.7763671875
47.607421875
61.34033203125
60.4248046875
58.59375
61.34033203125
57.67822265625
60.4248046875
63.17138671875
62.255859375
67.7490234375
68.66455078125
82.3974609375
103.45458984375
106.201171875
106.201171875
106.201171875
105.28564453125
107.11669921875
107.11669921875
111.6943359375
116.27197265625
119.0185546875
117.1875
121.76513671875
127.25830078125
120.849609375
117.1875
127.25830078125
130.0048828125
135.498046875
136.41357421875
148.3154296875
143.73779296875
139.16015625
132.75146484375
124.51171875
129.08935546875
135.498046875
119.93408203125
117.1875
128.173828125
118.10302734375
105.28564453125
96.13037109375
94.29931640625
81.48193359375
66.83349609375
75.0732421875
71.4111328125
63.17138671875
60.4248046875
54.01611328125
44.86083984375
38.4521484375
33.87451171875
23.8037109375
25.634765625
17.39501953125
7.32421875
-4.57763671875
-3.662109375
-10.07080078125
-13.73291015625
-17.39501953125
-28.38134765625
-31.1279296875
-47.607421875
-50.35400390625
-46.69189453125
-32.958984375
-39.36767578125
-44.86083984375
-41.19873046875
-43.02978515625
-53.1005859375
-49.4384765625
-54.01611328125
-59.50927734375
-61.34033203125
-62.255859375
-64.0869140625
-68.66455078125
-62.255859375
-52.18505859375
-54.931640625
-56.7626953125
-56.7626953125
-60.4248046875
-62.255859375
-63.17138671875
-58.59375
-60.4248046875
-63.17138671875
-65.91796875
-70.49560546875
-67.7490234375
-57.67822265625
-66.83349609375
-62.255859375
-52.18505859375
-48.52294921875
-52.18505859375
-49.4384765625
-47.607421875
-46.69189453125
-50.35400390625
-61.34033203125
-58.59375
-44.86083984375
-51.26953125
-53.1005859375
-47.607421875
-50.35400390625
-56.7626953125
-57.67822265625
-56.7626953125
-56.7626953125
-51.26953125
-50.35400390625
-62.255859375
-55.84716796875
-54.931640625
-56.7626953125
-47.607421875
-47.607421875
-60.4248046875
-56.7626953125
-56.7626953125
-59.50927734375
-62.255859375
-55.84716796875
-56.7626953125
-56.7626953125
-67.7490234375
-66.83349609375
-74.15771484375
-77.81982421875
-76.904296875
-73.2421875
-75.98876953125
-79.65087890625
-70.49560546875
-75.98876953125
-76.904296875
-73.2421875
-75.98876953125
-75.0732421875
-76.904296875
-75.98876953125
-76.904296875
-80.56640625
-75.98876953125
-73.2421875
-73.2421875
-78.7353515625
-80.56640625
-79.65087890625
-92.46826171875
-91.552734375
-92.46826171875
-86.97509765625
-78.7353515625
-85.14404296875
-81.48193359375
-75.0732421875
-75.0732421875
-79.65087890625
-80.56640625
-82.3974609375
-81.48193359375
-92.46826171875
-89.7216796875
-90.63720703125
-85.14404296875
-85.14404296875
-78.7353515625
-78.7353515625
-85.14404296875
-80.56640625
-81.48193359375
-85.14404296875
-86.0595703125
-89.7216796875
-79.65087890625
-79.65087890625
-81.48193359375
-80.56640625
-94.29931640625
-93.3837890625
-88.80615234375
-88.80615234375
-88.80615234375
-91.552734375
-91.552734375
-87.890625
-88.80615234375
-93.3837890625
-93.3837890625
-91.552734375
-96.13037109375
-95.21484375
-92.46826171875
-88.80615234375
-89.7216796875
-94.29931640625
-89.7216796875
-83.31298828125
-97.96142578125
-98.876953125
-96.13037109375
-86.97509765625
-81.48193359375
-84.228515625
-87.890625
-71.4111328125
-62.255859375
-54.01611328125
-35.70556640625
-31.1279296875
-28.38134765625
-22.88818359375
-20.1416015625
-29.296875
-37.53662109375
-39.36767578125
-43.9453125
-35.70556640625
-30.21240234375
-43.02978515625
-22.88818359375
1.8310546875
21.05712890625
9.1552734375
-6.40869140625
-7.32421875
-9.1552734375
-11.90185546875
-5.4931640625
-6.40869140625
-5.4931640625
-13.73291015625
-17.39501953125
-26.55029296875
-39.36767578125
-43.02978515625
-44.86083984375
-42.1142578125
-51.26953125
-56.7626953125
-62.255859375
-69.580078125
-75.98876953125
-74.15771484375
-82.3974609375
-107.11669921875
-114.44091796875
-110.77880859375
-107.11669921875
-104.3701171875
-105.28564453125
-110.77880859375
-118.10302734375
-122.6806640625
-123.59619140625
-122.6806640625
-128.173828125
-118.10302734375
-104.3701171875
-103.45458984375
-104.3701171875
-109.86328125
-103.45458984375
-100.7080078125
-105.28564453125
-100.7080078125
-101.62353515625
-111.6943359375
-109.86328125
-105.28564453125
-103.45458984375
-104.3701171875
-106.201171875
-107.11669921875
-99.79248046875
-101.62353515625
-109.86328125
-114.44091796875
-111.6943359375
-103.45458984375
-82.3974609375
-60.4248046875
-49.4384765625
-32.958984375
-18.310546875
-18.310546875
-25.634765625
-31.1279296875
-26.55029296875
-21.05712890625
-3.662109375
4.57763671875
16.4794921875
32.04345703125
58.59375
51.26953125
52.18505859375
38.4521484375
-77.81982421875
-267.333984375
-455.9326171875
-653.6865234375
-852.35595703125
-945.73974609375
-1031.79931640625
-1089.4775390625
-1074.8291015625
-1030.8837890625
-981.4453125
-916.44287109375
-837.70751953125
-738.83056640625
-653.6865234375
-596.00830078125
-544.73876953125
-501.708984375
-464.17236328125
-434.87548828125
-411.9873046875
-390.93017578125
-358.88671875
-322.265625
-299.37744140625
-286.56005859375
-273.74267578125
-271.91162109375
-278.3203125
-277.40478515625
-270.08056640625
-270.08056640625
-268.24951171875
-265.5029296875
-251.77001953125
-239.8681640625
-236.2060546875
-232.5439453125
-218.81103515625
-213.31787109375
-216.97998046875
-214.2333984375
-196.83837890625
-178.52783203125
-173.03466796875
-162.04833984375
-154.72412109375
-146.484375
-145.56884765625
-137.3291015625
-119.0185546875
-105.28564453125
-95.21484375
-82.3974609375
-70.49560546875
-68.66455078125
-60.4248046875
-55.84716796875
-47.607421875
-31.1279296875
-26.55029296875
-19.22607421875
-16.4794921875
-21.05712890625
-20.1416015625
-18.310546875
-12.8173828125
-15.56396484375
-20.1416015625
-13.73291015625
-9.1552734375
-6.40869140625
2.74658203125
8.23974609375
11.90185546875
7.32421875
7.32421875
4.57763671875
3.662109375
-3.662109375
5.4931640625
9.1552734375
14.6484375
24.71923828125
32.958984375
29.296875
21.97265625
18.310546875
26.55029296875
29.296875
26.55029296875
31.1279296875
39.36767578125
45.7763671875
54.01611328125
54.01611328125
51.26953125
56.7626953125
61.34033203125
59.50927734375
60.4248046875
60.4248046875
63.17138671875
70.49560546875
80.56640625
84.228515625
76.904296875
74.15771484375
75.0732421875
86.0595703125
83.31298828125
92.46826171875
103.45458984375
101.62353515625
115.3564453125
119.0185546875
127.25830078125
121.76513671875
124.51171875
121.76513671875
118.10302734375
127.25830078125
130.92041015625
135.498046875
133.6669921875
136.41357421875
139.16015625
145.56884765625
151.9775390625
151.06201171875
150.146484375
156.55517578125
148.3154296875
152.89306640625
151.9775390625
143.73779296875
145.56884765625
144.6533203125
136.41357421875
130.92041015625
119.93408203125
123.59619140625
115.3564453125
118.10302734375
112.60986328125
101.62353515625
95.21484375
87.890625
81.48193359375
77.81982421875
68.66455078125
58.59375
53.1005859375
47.607421875
39.36767578125
38.4521484375
30.21240234375
7.32421875
7.32421875
8.23974609375
6.40869140625
8.23974609375
5.4931640625
-5.4931640625
-7.32421875
-10.07080078125
-24.71923828125
-30.21240234375
-29.296875
-32.958984375
-39.36767578125
-46.69189453125
-41.19873046875
-40.283203125
-45.7763671875
-54.931640625
-43.9453125
-30.21240234375
-36.62109375
-34.7900390625
-49.4384765625
-66.83349609375
-68.66455078125
-42.1142578125
-30.21240234375
-31.1279296875
-24.71923828125
-25.634765625
-23.8037109375
-25.634765625
-33.87451171875
-32.958984375
-37.53662109375
-40.283203125
-32.04345703125
-36.62109375
-25.634765625
-34.7900390625
-43.9453125
-42.1142578125
-31.1279296875
-30.21240234375
-37.53662109375
-32.04345703125
-29.296875
-28.38134765625
-31.1279296875
-33.87451171875
-26.55029296875
-21.97265625
-28.38134765625
-32.958984375
-35.70556640625
-29.296875
-21.97265625
-19.22607421875
-17.39501953125
-24.71923828125
-30.21240234375
-32.04345703125
-29.296875
-36.62109375
-45.7763671875
-37.53662109375
-32.958984375
-35.70556640625
-34.7900390625
-38.4521484375
-43.02978515625
-43.9453125
-40.283203125
-49.4384765625
-44.86083984375
-40.283203125
-43.9453125
-43.02978515625
-47.607421875
-44.86083984375
-53.1005859375
-52.18505859375
-50.35400390625
-56.7626953125
-54.01611328125
-42.1142578125
-41.19873046875
-53.1005859375
-51.26953125
-52.18505859375
-50.35400390625
-41.19873046875
-49.4384765625
-51.26953125
-48.52294921875
-43.9453125
-40.283203125
-41.19873046875
-44.86083984375
-52.18505859375
-51.26953125
-55.84716796875
-63.17138671875
-68.66455078125
-56.7626953125
-57.67822265625
-60.4248046875
-51.26953125
-50.35400390625
-54.931640625
-54.931640625
-52.18505859375
-55.84716796875
-54.01611328125
-53.1005859375
-54.01611328125
-44.86083984375
-49.4384765625
-56.7626953125
-51.26953125
-52.18505859375
-62.255859375
-72.32666015625
-74.15771484375
-75.0732421875
-65.00244140625
-66.83349609375
-65.00244140625
-75.0732421875
-77.81982421875
-66.83349609375
-58.59375
-53.1005859375
-57.67822265625
-72.32666015625
-68.66455078125
-54.01611328125
-49.4384765625
-41.19873046875
-39.36767578125
-26.55029296875
-2.74658203125
4.57763671875
1.8310546875
10.07080078125
14.6484375
11.90185546875
5.4931640625
2.74658203125
-15.56396484375
-24.71923828125
-30.21240234375
-12.8173828125
-8.23974609375
0
21.05712890625
36.62109375
41.19873046875
28.38134765625
21.97265625
18.310546875
18.310546875
24.71923828125
32.958984375
30.21240234375
18.310546875
7.32421875
-14.6484375
-10.07080078125
-5.4931640625
-7.32421875
-10.986328125
-27.4658203125
-32.958984375
-33.87451171875
-30.21240234375
-29.296875
-52.18505859375
-58.59375
-63.17138671875
-65.91796875
-71.4111328125
-80.56640625
-86.0595703125
-86.0595703125
-85.14404296875
-84.228515625
-86.97509765625
-88.80615234375
-83.31298828125
-84.228515625
-97.96142578125
-96.13037109375
-92.46826171875
-83.31298828125
-79.65087890625
-77.81982421875
-70.49560546875
-81.48193359375
-85.14404296875
-84.228515625
-97.0458984375
-99.79248046875
-88.80615234375
-86.97509765625
-87.890625
-87.890625
-89.7216796875
-80.56640625
-77.81982421875
-81.48193359375
-86.97509765625
-80.56640625
-70.49560546875
-52.18505859375
-35.70556640625
-19.22607421875
-4.57763671875
1.8310546875
2.74658203125
0
1.8310546875
-5.4931640625
-7.32421875
-0.91552734375
8.23974609375
31.1279296875
50.35400390625
75.0732421875
71.4111328125
54.931640625
19.22607421875
-116.27197265625
-307.6171875
-486.14501953125
-694.88525390625
-869.7509765625
-957.6416015625
-1022.64404296875
-1061.09619140625
-1023.5595703125
-980.52978515625
-929.26025390625
-859.68017578125
-774.5361328125
-682.06787109375
-611.572265625
-564.88037109375
-522.76611328125
-479.736328125
-436.70654296875
-403.74755859375
-379.0283203125
-348.81591796875
-338.7451171875
-313.1103515625
-290.22216796875
-277.40478515625
-267.333984375
-256.34765625
-258.1787109375
-257.26318359375
-248.10791015625
-251.77001953125
-254.5166015625
-249.0234375
-246.27685546875
-238.95263671875
-233.45947265625
-216.064453125
-204.16259765625
-203.2470703125
-209.65576171875
-211.48681640625
-199.5849609375
-168.45703125
-155.6396484375
-148.3154296875
-133.6669921875
-130.92041015625
-135.498046875
-125.42724609375
-112.60986328125
-96.13037109375
-68.66455078125
-56.7626953125
-43.9453125
-34.7900390625
-28.38134765625
-30.21240234375
-21.05712890625
-16.4794921875
-12.8173828125
-10.07080078125
-4.57763671875
-2.74658203125
-5.4931640625
1.8310546875
9.1552734375
3.662109375
2.74658203125
10.07080078125
16.4794921875
15.56396484375
15.56396484375
5.4931640625
19.22607421875
30.21240234375
31.1279296875
32.958984375
34.7900390625
33.87451171875
29.296875
26.55029296875
26.55029296875
29.296875
32.958984375
33.87451171875
37.53662109375
37.53662109375
43.02978515625
34.7900390625
34.7900390625
35.70556640625
43.9453125
45.7763671875
57.67822265625
65.91796875
61.34033203125
65.00244140625
59.50927734375
61.34033203125
70.49560546875
86.0595703125
91.552734375
96.13037109375
100.7080078125
97.96142578125
96.13037109375
100.7080078125
92.46826171875
95.21484375
108.94775390625
112.60986328125
112.60986328125
114.44091796875
117.1875
124.51171875
130.92041015625
138.24462890625
135.498046875
130.92041015625
132.75146484375
126.3427734375
122.6806640625
140.9912109375
154.72412109375
155.6396484375
151.06201171875
145.56884765625
140.07568359375
145.56884765625
146.484375
147.39990234375
154.72412109375
159.3017578125
153.80859375
152.89306640625
143.73779296875
141.90673828125
140.9912109375
139.16015625
126.3427734375
123.59619140625
114.44091796875
116.27197265625
119.93408203125
113.525390625
105.28564453125
96.13037109375
90.63720703125
80.56640625
70.49560546875
69.580078125
57.67822265625
47.607421875
42.1142578125
42.1142578125
43.02978515625
32.04345703125
18.310546875
15.56396484375
14.6484375
10.07080078125
4.57763671875
-0.91552734375
-3.662109375
-8.23974609375
-9.1552734375
-13.73291015625
-20.1416015625
-24.71923828125
-24.71923828125
-27.4658203125
-28.38134765625
-27.4658203125
-29.296875
-28.38134765625
-30.21240234375
-26.55029296875
-36.62109375
-44.86083984375
-32.958984375
-30.21240234375
-33.87451171875
-33.87451171875
-23.8037109375
-30.21240234375
-28.38134765625
-30.21240234375
-30.21240234375
-29.296875
-37.53662109375
-31.1279296875
-26.55029296875
-20.1416015625
-25.634765625
-30.21240234375
-29.296875
-28.38134765625
-33.87451171875
-34.7900390625
-32.04345703125
-27.4658203125
-24.71923828125
-18.310546875
-17.39501953125
-25.634765625
-25.634765625
-20.1416015625
-18.310546875
-27.4658203125
-30.21240234375
-29.296875
-22.88818359375
-23.8037109375
-27.4658203125
-20.1416015625
-13.73291015625
-21.05712890625
-28.38134765625
-22.88818359375
-19.22607421875
-24.71923828125
-27.4658203125
-27.4658203125
-29.296875
-26.55029296875
-30.21240234375
-35.70556640625
-39.36767578125
-37.53662109375
-44.86083984375
-48.52294921875
-43.9453125
-36.62109375
-33.87451171875
-32.958984375
-40.283203125
-45.7763671875
-46.69189453125
-43.9453125
-42.1142578125
-43.9453125
-49.4384765625
-46.69189453125
-37.53662109375
-42.1142578125
-41.19873046875
-49.4384765625
-48.52294921875
-54.931640625
-61.34033203125
-62.255859375
-59.50927734375
-63.17138671875
-56.7626953125
-53.1005859375
-50.35400390625
-54.01611328125
-57.67822265625
-59.50927734375
-62.255859375
-68.66455078125
-66.83349609375
-61.34033203125
-55.84716796875
-55.84716796875
-65.00244140625
-59.50927734375
-60.4248046875
-56.7626953125
-61.34033203125
-59.50927734375
-59.50927734375
-54.931640625
-53.1005859375
-56.7626953125
-63.17138671875
-63.17138671875
-70.49560546875
-70.49560546875
-70.49560546875
-65.91796875
-65.91796875
-62.255859375
-62.255859375
-54.01611328125
-55.84716796875
-60.4248046875
-74.15771484375
-68.66455078125
-70.49560546875
-65.91796875
-58.59375
-61.34033203125
-63.17138671875
-60.4248046875
-56.7626953125
-60.4248046875
-66.83349609375
-69.580078125
-75.98876953125
-68.66455078125
-70.49560546875
-57.67822265625
-52.18505859375
-59.50927734375
-58.59375
-55.84716796875
-43.9453125
-29.296875
-21.97265625
-17.39501953125
-7.32421875
-2.74658203125
2.74658203125
2.74658203125
2.74658203125
7.32421875
10.986328125
3.662109375
-10.986328125
-17.39501953125
-12.8173828125
-4.57763671875
3.662109375
12.8173828125
16.4794921875
14.6484375
11.90185546875
10.07080078125
0.91552734375
0.91552734375
6.40869140625
12.8173828125
0.91552734375
0.91552734375
-7.32421875
-19.22607421875
-20.1416015625
-21.97265625
-17.39501953125
-27.4658203125
-35.70556640625
-37.53662109375
-41.19873046875
-57.67822265625
-63.17138671875
-65.91796875
-75.0732421875
-74.15771484375
-81.48193359375
-80.56640625
-86.0595703125
-83.31298828125
-82.3974609375
-87.890625
-91.552734375
-95.21484375
-97.96142578125
-112.60986328125
-102.5390625
-89.7216796875
-89.7216796875
-86.97509765625
-82.3974609375
-82.3974609375
-75.0732421875
-86.97509765625
-92.46826171875
-89.7216796875
-86.97509765625
-87.890625
-86.97509765625
-93.3837890625
-93.3837890625
-92.46826171875
-82.3974609375
-86.97509765625
-92.46826171875
-92.46826171875
-92.46826171875
-84.228515625
-69.580078125
-43.9453125
-29.296875
-14.6484375
3.662109375
6.40869140625
2.74658203125
-2.74658203125
0
1.8310546875
6.40869140625
23.8037109375
35.70556640625
56.7626953125
75.0732421875
102.5390625
102.5390625
95.21484375
58.59375
-83.31298828125
-270.08056640625
-447.69287109375
-651.85546875
-823.05908203125
-912.78076171875
-1014.404296875
-1064.75830078125
-1024.47509765625
-982.36083984375
-933.837890625
-869.7509765625
-791.93115234375
-699.462890625
-624.3896484375
-571.2890625
-537.41455078125
-487.060546875
-432.12890625
-391.845703125
-371.7041015625
-349.7314453125
-325.927734375
-299.37744140625
-280.1513671875
-271.91162109375
-264.58740234375
-257.26318359375
-255.43212890625
-257.26318359375
-260.009765625
-263.671875
-256.34765625
-241.69921875
-229.79736328125
-227.05078125
-223.388671875
-219.7265625
-207.82470703125
-203.2470703125
-195.9228515625
-191.34521484375
-175.78125
-162.9638671875
-148.3154296875
-140.07568359375
-134.58251953125
-135.498046875
-139.16015625
-132.75146484375
-116.27197265625
-86.0595703125
-64.0869140625
-47.607421875
-40.283203125
-33.87451171875
-27.4658203125
-23.8037109375
-19.22607421875
-12.8173828125
-5.4931640625
-10.07080078125
-4.57763671875
0
0.91552734375
-1.8310546875
-8.23974609375
-0.91552734375
7.32421875
2.74658203125
15.56396484375
21.05712890625
24.71923828125
27.4658203125
34.7900390625
30.21240234375
27.4658203125
27.4658203125
24.71923828125
27.4658203125
24.71923828125
24.71923828125
25.634765625
23.8037109375
32.04345703125
38.4521484375
41.19873046875
46.69189453125
46.69189453125
46.69189453125
49.4384765625
55.84716796875
54.931640625
56.7626953125
68.66455078125
65.00244140625
64.0869140625
70.49560546875
73.2421875
68.66455078125
65.91796875
73.2421875
78.7353515625
87.890625
86.97509765625
92.46826171875
95.21484375
103.45458984375
108.0322265625
99.79248046875
101.62353515625
105.28564453125
113.525390625
111.6943359375
118.10302734375
113.525390625
113.525390625
125.42724609375
130.0048828125
131.8359375
131.8359375
137.3291015625
140.07568359375
141.90673828125
151.9775390625
141.90673828125
139.16015625
143.73779296875
149.23095703125
145.56884765625
150.146484375
143.73779296875
151.9775390625
159.3017578125
157.470703125
152.89306640625
148.3154296875
145.56884765625
136.41357421875
134.58251953125
129.08935546875
125.42724609375
129.08935546875
126.3427734375
123.59619140625
115.3564453125
109.86328125
98.876953125
88.80615234375
79.65087890625
66.83349609375
59.50927734375
60.4248046875
54.01611328125
50.35400390625
41.19873046875
43.02978515625
35.70556640625
18.310546875
6.40869140625
-3.662109375
8.23974609375
7.32421875
0.91552734375
0.91552734375
-1.8310546875
-4.57763671875
-11.90185546875
-20.1416015625
-25.634765625
-25.634765625
-35.70556640625
-34.7900390625
-23.8037109375
-34.7900390625
-40.283203125
-29.296875
-30.21240234375
-32.04345703125
-43.02978515625
-44.86083984375
-43.02978515625
-41.19873046875
-34.7900390625
-26.55029296875
-24.71923828125
-36.62109375
-40.283203125
-50.35400390625
-45.7763671875
-34.7900390625
-31.1279296875
-27.4658203125
-26.55029296875
-26.55029296875
-24.71923828125
-27.4658203125
-23.8037109375
-30.21240234375
-29.296875
-25.634765625
-31.1279296875
-34.7900390625
-33.87451171875
-29.296875
-28.38134765625
-28.38134765625
-24.71923828125
-19.22607421875
-20.1416015625
-26.55029296875
-26.55029296875
-20.1416015625
-28.38134765625
-27.4658203125
-23.8037109375
-21.05712890625
-22.88818359375
-31.1279296875
-36.62109375
-38.4521484375
-35.70556640625
-32.958984375
-34.7900390625
-35.70556640625
-30.21240234375
-34.7900390625
-39.36767578125
-46.69189453125
-51.26953125
-41.19873046875
-39.36767578125
-27.4658203125
-32.958984375
-35.70556640625
-37.53662109375
-37.53662109375
-37.53662109375
-45.7763671875
-45.7763671875
-41.19873046875
-43.9453125
-46.69189453125
-47.607421875
-43.9453125
-37.53662109375
-53.1005859375
-58.59375
-57.67822265625
-54.01611328125
-59.50927734375
-68.66455078125
-62.255859375
-53.1005859375
-46.69189453125
-49.4384765625
-62.255859375
-62.255859375
-58.59375
-55.84716796875
-56.7626953125
-55.84716796875
-53.1005859375
-53.1005859375
-57.67822265625
-61.34033203125
-58.59375
-58.59375
-65.00244140625
-70.49560546875
-66.83349609375
-64.0869140625
-64.0869140625
-68.66455078125
-68.66455078125
-69.580078125
-62.255859375
-65.00244140625
-65.91796875
-63.17138671875
-63.17138671875
-63.17138671875
-60.4248046875
-56.7626953125
-56.7626953125
-60.4248046875
-59.50927734375
-65.91796875
-65.91796875
-69.580078125
-75.98876953125
-74.15771484375
-75.98876953125
-70.49560546875
-58.59375
-52.18505859375
-62.255859375
-64.0869140625
-57.67822265625
-62.255859375
-66.83349609375
-60.4248046875
-62.255859375
-65.91796875
-63.17138671875
-66.83349609375
-73.2421875
-70.49560546875
-72.32666015625
-66.83349609375
-58.59375
-56.7626953125
-63.17138671875
-65.00244140625
-61.34033203125
-57.67822265625
-60.4248046875
-64.0869140625
-66.83349609375
-61.34033203125
-54.01611328125
-47.607421875
-36.62109375
-24.71923828125
-15.56396484375
-2.74658203125
-3.662109375
-9.1552734375
-7.32421875
-6.40869140625
-10.07080078125
-7.32421875
0
0
-12.8173828125
-11.90185546875
-20.1416015625
-23.8037109375
-19.22607421875
-10.986328125
-4.57763671875
-8.23974609375
-10.07080078125
-7.32421875
-5.4931640625
-10.07080078125
-5.4931640625
7.32421875
-1.8310546875
-12.8173828125
-15.56396484375
-10.986328125
-13.73291015625
-17.39501953125
-18.310546875
-30.21240234375
-38.4521484375
-43.9453125
-51.26953125
-52.18505859375
-52.18505859375
-54.931640625
-66.83349609375
-65.00244140625
-56.7626953125
-61.34033203125
-65.91796875
-69.580078125
-78.7353515625
-84.228515625
-87.890625
-86.0595703125
-88.80615234375
-88.80615234375
-84.228515625
-86.0595703125
-86.97509765625
-86.97509765625
-89.7216796875
-92.46826171875
-93.3837890625
-86.0595703125
-77.81982421875
-75.98876953125
-75.0732421875
-81.48193359375
-77.81982421875
-82.3974609375
-82.3974609375
-86.97509765625
-85.14404296875
-86.97509765625
-84.228515625
-70.49560546875
-68.66455078125
-70.49560546875
-66.83349609375
-45.7763671875
-26.55029296875
-15.56396484375
-5.4931640625
7.32421875
20.1416015625
17.39501953125
22.88818359375
19.22607421875
25.634765625
40.283203125
59.50927734375
86.97509765625
102.5390625
131.8359375
140.9912109375
135.498046875
117.1875
14.6484375
-162.04833984375
-350.64697265625
-536.4990234375
-768.12744140625
-879.82177734375
-957.6416015625
-1041.8701171875
-1035.46142578125
-985.107421875
-937.5
-888.97705078125
-816.650390625
-727.84423828125
-642.7001953125
-583.19091796875
-530.09033203125
-488.8916015625
-443.115234375
-401.0009765625
-376.28173828125
-348.81591796875
-325.01220703125
-312.19482421875
-293.88427734375
-277.40478515625
-260.009765625
-254.5166015625
-258.1787109375
-238.95263671875
-240.78369140625
-228.8818359375
-229.79736328125
-231.62841796875
-221.5576171875
-219.7265625
-217.8955078125
-208.740234375
-196.83837890625
-186.767578125
-180.35888671875
-170.2880859375
-157.470703125
-160.21728515625
-151.9775390625
-137.3291015625
-128.173828125
-125.42724609375
-125.42724609375
-109.86328125
-95.21484375
-72.32666015625
-50.35400390625
-46.69189453125
-43.02978515625
-35.70556640625
-24.71923828125
-25.634765625
-21.05712890625
-7.32421875
1.8310546875
3.662109375
8.23974609375
9.1552734375
9.1552734375
10.07080078125
8.23974609375
11.90185546875
19.22607421875
15.56396484375
22.88818359375
17.39501953125
20.1416015625
23.8037109375
19.22607421875
18.310546875
17.39501953125
22.88818359375
35.70556640625
50.35400390625
47.607421875
37.53662109375
36.62109375
40.283203125
43.9453125
41.19873046875
52.18505859375
52.18505859375
56.7626953125
58.59375
63.17138671875
68.66455078125
61.34033203125
49.4384765625
66.83349609375
73.2421875
71.4111328125
72.32666015625
71.4111328125
69.580078125
79.65087890625
84.228515625
89.7216796875
97.0458984375
92.46826171875
102.5390625
104.3701171875
104.3701171875
116.27197265625
123.59619140625
114.44091796875
117.1875
117.1875
124.51171875
129.08935546875
130.92041015625
134.58251953125
139.16015625
140.9912109375
141.90673828125
139.16015625
149.23095703125
154.72412109375
152.89306640625
160.21728515625
152.89306640625
151.9775390625
151.9775390625
152.89306640625
162.04833984375
164.794921875
162.04833984375
162.9638671875
162.9638671875
164.794921875
162.04833984375
162.04833984375
162.04833984375
151.9775390625
149.23095703125
151.9775390625
151.9775390625
144.6533203125
130.92041015625
125.42724609375
120.849609375
110.77880859375
100.7080078125
99.79248046875
103.45458984375
96.13037109375
88.80615234375
78.7353515625
77.81982421875
68.66455078125
61.34033203125
52.18505859375
51.26953125
47.607421875
34.7900390625
29.296875
25.634765625
18.310546875
13.73291015625
-1.8310546875
-10.07080078125
-9.1552734375
-10.986328125
-12.8173828125
-9.1552734375
-10.07080078125
-10.07080078125
-22.88818359375
-29.296875
-33.87451171875
-32.04345703125
-22.88818359375
-17.39501953125
-26.55029296875
-27.4658203125
-26.55029296875
-24.71923828125
-28.38134765625
-35.70556640625
-39.36767578125
-34.7900390625
-34.7900390625
-38.4521484375
-31.1279296875
-30.21240234375
-32.04345703125
-32.958984375
-34.7900390625
-28.38134765625
-22.88818359375
-26.55029296875
-24.71923828125
-24.71923828125
-18.310546875
-15.56396484375
-19.22607421875
-25.634765625
-27.4658203125
-25.634765625
-20.1416015625
-12.8173828125
-14.6484375
-13.73291015625
-7.32421875
-7.32421875
-10.07080078125
-12.8173828125
-12.8173828125
-17.39501953125
-17.39501953125
-18.310546875
-21.05712890625
-16.4794921875
-18.310546875
-16.4794921875
-21.05712890625
-26.55029296875
-21.97265625
-19.22607421875
-19.22607421875
-28.38134765625
-31.1279296875
-30.21240234375
-30.21240234375
-25.634765625
-19.22607421875
-28.38134765625
-29.296875
-30.21240234375
-31.1279296875
-28.38134765625
-28.38134765625
-31.1279296875
-21.05712890625
-31.1279296875
-32.04345703125
-34.7900390625
-32.958984375
-29.296875
-29.296875
-31.1279296875
-40.283203125
-38.4521484375
-32.958984375
-33.87451171875
-37.53662109375
-42.1142578125
-40.283203125
-42.1142578125
-44.86083984375
-42.1142578125
-43.02978515625
-43.9453125
-43.9453125
-43.02978515625
-39.36767578125
-45.7763671875
-53.1005859375
-48.52294921875
-54.01611328125
-52.18505859375
-58.59375
-54.931640625
-54.01611328125
-54.01611328125
-52.18505859375
-54.01611328125
-45.7763671875
-43.02978515625
-56.7626953125
-56.7626953125
-55.84716796875
-49.4384765625
-45.7763671875
-46.69189453125
-42.1142578125
-42.1142578125
-51.26953125
-53.1005859375
-49.4384765625
-60.4248046875
-65.00244140625
-65.91796875
-49.4384765625
-38.4521484375
-47.607421875
-43.02978515625
-43.02978515625
-49.4384765625
-56.7626953125
-55.84716796875
-57.67822265625
-54.931640625
-49.4384765625
-42.1142578125
-48.52294921875
-50.35400390625
-48.52294921875
-51.26953125
-50.35400390625
-52.18505859375
-54.931640625
-57.67822265625
-58.59375
-46.69189453125
-51.26953125
-51.26953125
-50.35400390625
-49.4384765625
-55.84716796875
-54.01611328125
-54.931640625
-58.59375
-64.0869140625
-54.01611328125
-49.4384765625
-52.18505859375
-57.67822265625
-57.67822265625
-46.69189453125
-49.4384765625
-44.86083984375
-34.7900390625
-16.4794921875
-5.4931640625
-1.8310546875
-0.91552734375
-3.662109375
8.23974609375
5.4931640625
3.662109375
6.40869140625
10.07080078125
0.91552734375
-1.8310546875
-8.23974609375
-17.39501953125
-16.4794921875
-4.57763671875
-2.74658203125
-4.57763671875
-2.74658203125
-4.57763671875
-0.91552734375
9.1552734375
6.40869140625
1.8310546875
0.91552734375
-0.91552734375
-4.57763671875
0.91552734375
-1.8310546875
-1.8310546875
1.8310546875
-6.40869140625
-11.90185546875
-32.958984375
-47.607421875
-51.26953125
-51.26953125
-43.9453125
-52.18505859375
-59.50927734375
-55.84716796875
-51.26953125
-55.84716796875
-67.7490234375
-77.81982421875
-87.890625
-78.7353515625
-76.904296875
-80.56640625
-80.56640625
-86.97509765625
-83.31298828125
-75.98876953125
-75.0732421875
-78.7353515625
-89.7216796875
-83.31298828125
-75.0732421875
-72.32666015625
-68.66455078125
-71.4111328125
-75.0732421875
-74.15771484375
-75.0732421875
-75.98876953125
-72.32666015625
-75.0732421875
-75.98876953125
-69.580078125
-74.15771484375
-78.7353515625
-72.32666015625
-62.255859375
-54.931640625
-42.1142578125
-13.73291015625
-3.662109375
3.662109375
11.90185546875
17.39501953125
13.73291015625
28.38134765625
25.634765625
28.38134765625
46.69189453125
61.34033203125
88.80615234375
104.3701171875
132.75146484375
134.58251953125
126.3427734375
77.81982421875
-57.67822265625
-245.361328125
-439.453125
-649.10888671875
-829.4677734375
-908.203125
-997.00927734375
-1052.8564453125
-1009.82666015625
-964.9658203125
-924.6826171875
-861.51123046875
-779.11376953125
-684.814453125
-602.4169921875
-559.38720703125
-512.6953125
-469.66552734375
-419.3115234375
-383.60595703125
-356.14013671875
-330.50537109375
-303.955078125
-291.1376953125
-274.658203125
-261.8408203125
-251.77001953125
-245.361328125
-250.8544921875
-242.61474609375
-228.8818359375
-228.8818359375
-233.45947265625
-233.45947265625
-232.5439453125
-218.81103515625
-211.48681640625
-196.83837890625
-184.02099609375
-178.52783203125
-173.03466796875
-169.37255859375
-154.72412109375
-145.56884765625
-137.3291015625
-128.173828125
-117.1875
-114.44091796875
-108.0322265625
-95.21484375
-80.56640625
-56.7626953125
-52.18505859375
-35.70556640625
-27.4658203125
-17.39501953125
-17.39501953125
-10.07080078125
-5.4931640625
-2.74658203125
4.57763671875
-5.4931640625
-6.40869140625
10.986328125
13.73291015625
16.4794921875
22.88818359375
23.8037109375
22.88818359375
25.634765625
29.296875
37.53662109375
35.70556640625
32.958984375
29.296875
34.7900390625
34.7900390625
36.62109375
33.87451171875
34.7900390625
32.958984375
45.7763671875
54.01611328125
42.1142578125
42.1142578125
47.607421875
49.4384765625
58.59375
65.91796875
64.0869140625
61.34033203125
61.34033203125
60.4248046875
67.7490234375
67.7490234375
49.4384765625
60.4248046875
72.32666015625
74.15771484375
86.97509765625
93.3837890625
97.0458984375
95.21484375
93.3837890625
99.79248046875
101.62353515625
102.5390625
112.60986328125
109.86328125
120.849609375
126.3427734375
127.25830078125
122.6806640625
128.173828125
133.6669921875
138.24462890625
140.07568359375
147.39990234375
150.146484375
142.822265625
142.822265625
145.56884765625
148.3154296875
151.9775390625
144.6533203125
149.23095703125
165.71044921875
172.119140625
173.9501953125
174.86572265625
167.54150390625
156.55517578125
153.80859375
155.6396484375
155.6396484375
154.72412109375
164.794921875
165.71044921875
162.9638671875
158.38623046875
153.80859375
148.3154296875
136.41357421875
124.51171875
124.51171875
129.08935546875
117.1875
114.44091796875
115.3564453125
104.3701171875
90.63720703125
85.14404296875
78.7353515625
76.904296875
76.904296875
62.255859375
58.59375
55.84716796875
44.86083984375
28.38134765625
28.38134765625
34.7900390625
28.38134765625
22.88818359375
21.97265625
13.73291015625
11.90185546875
3.662109375
-0.91552734375
0
0
-6.40869140625
-11.90185546875
-17.39501953125
-27.4658203125
-27.4658203125
-25.634765625
-15.56396484375
-19.22607421875
-23.8037109375
-23.8037109375
-14.6484375
-21.97265625
-32.04345703125
-33.87451171875
-27.4658203125
-35.70556640625
-34.7900390625
-35.70556640625
-32.04345703125
-28.38134765625
-24.71923828125
-24.71923828125
-25.634765625
-19.22607421875
-18.310546875
-27.4658203125
-27.4658203125
-24.71923828125
-14.6484375
-16.4794921875
-16.4794921875
-24.71923828125
-27.4658203125
-25.634765625
-20.1416015625
-16.4794921875
-10.986328125
-10.986328125
-7.32421875
-6.40869140625
-11.90185546875
-14.6484375
-14.6484375
-11.90185546875
-16.4794921875
-17.39501953125
-11.90185546875
-3.662109375
0
-12.8173828125
-19.22607421875
-17.39501953125
-21.05712890625
-27.4658203125
-26.55029296875
-19.22607421875
-15.56396484375
-17.39501953125
-21.05712890625
-25.634765625
-24.71923828125
-21.05712890625
-20.1416015625
-27.4658203125
-32.04345703125
-30.21240234375
-36.62109375
-38.4521484375
-36.62109375
-33.87451171875
-43.9453125
-43.02978515625
-43.9453125
-46.69189453125
-38.4521484375
-37.53662109375
-32.958984375
-34.7900390625
-32.958984375
-36.62109375
-42.1142578125
-42.1142578125
-44.86083984375
-43.02978515625
-39.36767578125
-40.283203125
-42.1142578125
-33.87451171875
-32.958984375
-39.36767578125
-37.53662109375
-44.86083984375
-54.931640625
-54.01611328125
-51.26953125
-54.931640625
-49.4384765625
-44.86083984375
-38.4521484375
-36.62109375
-42.1142578125
-51.26953125
-63.17138671875
-58.59375
-48.52294921875
-53.1005859375
-60.4248046875
-45.7763671875
-37.53662109375
-41.19873046875
-52.18505859375
-50.35400390625
-58.59375
-56.7626953125
-52.18505859375
-50.35400390625
-51.26953125
-47.607421875
-48.52294921875
-47.607421875
-50.35400390625
-44.86083984375
-43.9453125
-52.18505859375
-43.02978515625
-51.26953125
-54.01611328125
-54.931640625
-50.35400390625
-49.4384765625
-54.931640625
-48.52294921875
-51.26953125
-54.931640625
-51.26953125
-52.18505859375
-58.59375
-60.4248046875
-54.01611328125
-50.35400390625
-54.01611328125
-50.35400390625
-54.931640625
-57.67822265625
-63.17138671875
-64.0869140625
-63.17138671875
-51.26953125
-53.1005859375
-52.18505859375
-46.69189453125
-44.86083984375
-55.84716796875
-56.7626953125
-57.67822265625
-59.50927734375
-55.84716796875
-50.35400390625
-50.35400390625
-47.607421875
-52.18505859375
-64.0869140625
-60.4248046875
-59.50927734375
-51.26953125
-44.86083984375
-45.7763671875
-41.19873046875
-43.9453125
-43.9453125
-43.9453125
-53.1005859375
-54.931640625
-53.1005859375
-57.67822265625
-46.69189453125
-38.4521484375
-30.21240234375
-12.8173828125
-2.74658203125
-1.8310546875
-4.57763671875
-1.8310546875
6.40869140625
8.23974609375
9.1552734375
15.56396484375
21.97265625
9.1552734375
-0.91552734375
-10.07080078125
-13.73291015625
-10.986328125
-7.32421875
10.07080078125
13.73291015625
8.23974609375
13.73291015625
13.73291015625
5.4931640625
-0.91552734375
8.23974609375
14.6484375
12.8173828125
10.986328125
3.662109375
1.8310546875
3.662109375
-5.4931640625
-10.986328125
-10.07080078125
-21.05712890625
-31.1279296875
-40.283203125
-45.7763671875
-49.4384765625
-58.59375
-63.17138671875
-65.00244140625
-59.50927734375
-61.34033203125
-65.00244140625
-63.17138671875
-69.580078125
-72.32666015625
-70.49560546875
-65.91796875
-74.15771484375
-79.65087890625
-75.98876953125
-77.81982421875
-81.48193359375
-78.7353515625
-77.81982421875
-80.56640625
-76.904296875
-76.904296875
-60.4248046875
-55.84716796875
-57.67822265625
-57.67822265625
-57.67822265625
-62.255859375
-66.83349609375
-73.2421875
-75.98876953125
-81.48193359375
-76.904296875
-78.7353515625
-71.4111328125
-60.4248046875
-64.0869140625
-38.4521484375
-14.6484375
3.662109375
12.8173828125
27.4658203125
28.38134765625
32.04345703125
36.62109375
35.70556640625
32.958984375
46.69189453125
64.0869140625
79.65087890625
89.7216796875
118.10302734375
130.0048828125
118.10302734375
103.45458984375
5.4931640625
-173.9501953125
-367.12646484375
-567.626953125
-785.5224609375
-890.80810546875
-981.4453125
-1044.61669921875
-1011.65771484375
-970.458984375
-922.8515625
-867.00439453125
-795.59326171875
-704.04052734375
-614.31884765625
-561.21826171875
-518.1884765625
-469.66552734375
-415.6494140625
-381.77490234375
-354.30908203125
-328.67431640625
-302.1240234375
-285.64453125
-273.74267578125
-254.5166015625
-240.78369140625
-240.78369140625
-239.8681640625
-240.78369140625
-235.29052734375
-229.79736328125
-235.29052734375
-230.712890625
-216.064453125
-215.14892578125
-211.48681640625
-192.2607421875
-178.52783203125
-172.119140625
-173.03466796875
-169.37255859375
-159.3017578125
-145.56884765625
-140.9912109375
-134.58251953125
-112.60986328125
-103.45458984375
-97.96142578125
-96.13037109375
-85.14404296875
-72.32666015625
-54.01611328125
-41.19873046875
-31.1279296875
-33.87451171875
-24.71923828125
-16.4794921875
-10.986328125
1.8310546875
11.90185546875
6.40869140625
14.6484375
21.05712890625
18.310546875
18.310546875
21.05712890625
28.38134765625
33.87451171875
31.1279296875
25.634765625
21.05712890625
27.4658203125
27.4658203125
28.38134765625
32.958984375
34.7900390625
40.283203125
41.19873046875
40.283203125
43.02978515625
46.69189453125
46.69189453125
48.52294921875
43.02978515625
43.9453125
55.84716796875
63.17138671875
64.0869140625
71.4111328125
72.32666015625
68.66455078125
62.255859375
64.0869140625
67.7490234375
64.0869140625
66.83349609375
74.15771484375
78.7353515625
84.228515625
80.56640625
83.31298828125
91.552734375
91.552734375
88.80615234375
96.13037109375
101.62353515625
103.45458984375
109.86328125
113.525390625
122.6806640625
130.92041015625
124.51171875
124.51171875
130.0048828125
135.498046875
136.41357421875
140.07568359375
143.73779296875
142.822265625
139.16015625
138.24462890625
142.822265625
142.822265625
151.06201171875
149.23095703125
156.55517578125
156.55517578125
158.38623046875
163.87939453125
165.71044921875
162.9638671875
166.6259765625
176.69677734375
173.03466796875
165.71044921875
170.2880859375
169.37255859375
168.45703125
169.37255859375
165.71044921875
158.38623046875
150.146484375
144.6533203125
140.9912109375
135.498046875
130.0048828125
120.849609375
114.44091796875
108.0322265625
97.0458984375
94.29931640625
92.46826171875
91.552734375
84.228515625
79.65087890625
75.0732421875
65.00244140625
56.7626953125
46.69189453125
39.36767578125
32.04345703125
21.97265625
21.05712890625
18.310546875
11.90185546875
16.4794921875
18.310546875
12.8173828125
8.23974609375
-1.8310546875
-3.662109375
-7.32421875
-9.1552734375
-0.91552734375
-6.40869140625
-8.23974609375
-13.73291015625
-10.986328125
-9.1552734375
-9.1552734375
-16.4794921875
-22.88818359375
-23.8037109375
-23.8037109375
-17.39501953125
-23.8037109375
-20.1416015625
-20.1416015625
-14.6484375
-8.23974609375
-12.8173828125
-17.39501953125
-14.6484375
-13.73291015625
-11.90185546875
-11.90185546875
-6.40869140625
-6.40869140625
-13.73291015625
-14.6484375
-11.90185546875
-10.986328125
-11.90185546875
-10.07080078125
-7.32421875
-0.91552734375
0.91552734375
-5.4931640625
-10.07080078125
-15.56396484375
-8.23974609375
0
-5.4931640625
-12.8173828125
-11.90185546875
-10.986328125
-3.662109375
-1.8310546875
0
1.8310546875
-0.91552734375
-8.23974609375
-11.90185546875
-11.90185546875
-9.1552734375
-7.32421875
-10.986328125
-10.07080078125
-15.56396484375
-11.90185546875
-14.6484375
-19.22607421875
-17.39501953125
-17.39501953125
-17.39501953125
-14.6484375
-10.07080078125
-11.90185546875
-11.90185546875
-16.4794921875
-24.71923828125
-29.296875
-26.55029296875
-26.55029296875
-32.04345703125
-27.4658203125
-23.8037109375
-17.39501953125
-20.1416015625
-21.97265625
-26.55029296875
-29.296875
-31.1279296875
-31.1279296875
-32.04345703125
-25.634765625
-32.04345703125
-29.296875
-34.7900390625
-30.21240234375
-23.8037109375
-28.38134765625
-33.87451171875
-37.53662109375
-36.62109375
-38.4521484375
-36.62109375
-38.4521484375
-35.70556640625
-32.958984375
-36.62109375
-42.1142578125
-43.02978515625
-45.7763671875
-50.35400390625
-45.7763671875
-43.02978515625
-38.4521484375
-27.4658203125
-23.8037109375
-31.1279296875
-35.70556640625
-42.1142578125
-37.53662109375
-39.36767578125
-32.04345703125
-34.7900390625
-27.4658203125
-33.87451171875
-41.19873046875
-43.9453125
-43.02978515625
-43.9453125
-49.4384765625
-46.69189453125
-44.86083984375
-45.7763671875
-47.607421875
-44.86083984375
-46.69189453125
-35.70556640625
-29.296875
-39.36767578125
-39.36767578125
-40.283203125
-37.53662109375
-36.62109375
-38.4521484375
-46.69189453125
-48.52294921875
-43.02978515625
-44.86083984375
-47.607421875
-42.1142578125
38.4521484375
6.40869140625
-30.21240234375
-35.70556640625
-35.70556640625
-32.958984375
-35.70556640625
-43.02978515625
-44.86083984375
-47.607421875
-49.4384765625
-50.35400390625
-51.26953125
-47.607421875
-42.1142578125
-37.53662109375
-35.70556640625
-38.4521484375
-36.62109375
-41.19873046875
-45.7763671875
-43.9453125
-42.1142578125
-43.9453125
-45.7763671875
-55.84716796875
-52.18505859375
-51.26953125
-54.01611328125
-47.607421875
-39.36767578125
-29.296875
-21.97265625
-5.4931640625
-0.91552734375
12.8173828125
14.6484375
5.4931640625
7.32421875
9.1552734375
7.32421875
16.4794921875
20.1416015625
21.05712890625
17.39501953125
18.310546875
13.73291015625
5.4931640625
16.4794921875
29.296875
31.1279296875
22.88818359375
21.97265625
25.634765625
32.04345703125
29.296875
36.62109375
36.62109375
27.4658203125
17.39501953125
19.22607421875
15.56396484375
14.6484375
10.986328125
3.662109375
3.662109375
-10.986328125
-23.8037109375
-22.88818359375
-22.88818359375
-26.55029296875
-32.958984375
-37.53662109375
-43.02978515625
-38.4521484375
-45.7763671875
-49.4384765625
-54.01611328125
-58.59375
-61.34033203125
-68.66455078125
-64.0869140625
-60.4248046875
-52.18505859375
-55.84716796875
-60.4248046875
-61.34033203125
-69.580078125
-76.904296875
-70.49560546875
-73.2421875
-69.580078125
-65.91796875
-64.0869140625
-66.83349609375
-73.2421875
-70.49560546875
-64.0869140625
-68.66455078125
-58.59375
-54.01611328125
-54.931640625
-61.34033203125
-56.7626953125
-57.67822265625
-59.50927734375
-54.931640625
-55.84716796875
-36.62109375
-19.22607421875
3.662109375
23.8037109375
32.04345703125
24.71923828125
32.958984375
42.1142578125
28.38134765625
31.1279296875
36.62109375
48.52294921875
76.904296875
97.0458984375
122.6806640625
122.6806640625
119.0185546875
80.56640625
-72.32666015625
-263.671875
-444.9462890625
-670.166015625
-833.1298828125
-915.52734375
-1003.41796875
-1030.8837890625
-986.9384765625
-945.73974609375
-899.96337890625
-839.53857421875
-753.47900390625
-658.26416015625
-584.1064453125
-536.4990234375
-480.65185546875
-433.04443359375
-390.93017578125
-357.0556640625
-343.32275390625
-317.68798828125
-298.4619140625
-282.89794921875
-256.34765625
-240.78369140625
-226.13525390625
-216.97998046875
-219.7265625
-221.5576171875
-216.97998046875
-225.2197265625
-226.13525390625
-218.81103515625
-208.740234375
-205.99365234375
-185.85205078125
-184.02099609375
-173.9501953125
-170.2880859375
-166.6259765625
-158.38623046875
-151.9775390625
-144.6533203125
-133.6669921875
-114.44091796875
-106.201171875
-104.3701171875
-102.5390625
-94.29931640625
-77.81982421875
-54.931640625
-35.70556640625
-33.87451171875
-22.88818359375
-10.986328125
0
2.74658203125
9.1552734375
19.22607421875
22.88818359375
26.55029296875
27.4658203125
26.55029296875
15.56396484375
24.71923828125
33.87451171875
35.70556640625
41.19873046875
43.9453125
38.4521484375
36.62109375
35.70556640625
39.36767578125
48.52294921875
45.7763671875
42.1142578125
50.35400390625
62.255859375
58.59375
57.67822265625
54.01611328125
58.59375
49.4384765625
57.67822265625
61.34033203125
67.7490234375
68.66455078125
71.4111328125
72.32666015625
67.7490234375
69.580078125
64.0869140625
64.0869140625
70.49560546875
75.98876953125
86.97509765625
97.96142578125
96.13037109375
94.29931640625
92.46826171875
88.80615234375
89.7216796875
86.0595703125
90.63720703125
105.28564453125
119.93408203125
122.6806640625
117.1875
120.849609375
126.3427734375
135.498046875
140.9912109375
141.90673828125
135.498046875
143.73779296875
151.9775390625
151.9775390625
146.484375
148.3154296875
147.39990234375
151.9775390625
148.3154296875
141.90673828125
141.90673828125
156.55517578125
160.21728515625
164.794921875
173.03466796875
174.86572265625
174.86572265625
177.6123046875
172.119140625
173.03466796875
167.54150390625
169.37255859375
173.9501953125
171.20361328125
167.54150390625
163.87939453125
156.55517578125
152.89306640625
154.72412109375
147.39990234375
138.24462890625
140.07568359375
140.07568359375
136.41357421875
133.6669921875
123.59619140625
116.27197265625
105.28564453125
101.62353515625
86.0595703125
77.81982421875
80.56640625
75.98876953125
69.580078125
58.59375
51.26953125
43.02978515625
40.283203125
41.19873046875
37.53662109375
24.71923828125
21.05712890625
21.97265625
27.4658203125
18.310546875
11.90185546875
7.32421875
0.91552734375
-14.6484375
-22.88818359375
-10.986328125
-9.1552734375
-4.57763671875
-1.8310546875
6.40869140625
6.40869140625
1.8310546875
-2.74658203125
-1.8310546875
-3.662109375
-8.23974609375
-8.23974609375
-0.91552734375
1.8310546875
3.662109375
1.8310546875
1.8310546875
-2.74658203125
-6.40869140625
-8.23974609375
-8.23974609375
-10.07080078125
1.8310546875
6.40869140625
0
7.32421875
4.57763671875
2.74658203125
6.40869140625
-0.91552734375
-1.8310546875
8.23974609375
10.07080078125
11.90185546875
2.74658203125
-2.74658203125
9.1552734375
2.74658203125
0
3.662109375
2.74658203125
2.74658203125
0.91552734375
9.1552734375
14.6484375
7.32421875
-2.74658203125
-1.8310546875
0.91552734375
-1.8310546875
-3.662109375
0.91552734375
7.32421875
9.1552734375
4.57763671875
5.4931640625
-0.91552734375
-10.986328125
-10.07080078125
-5.4931640625
-10.07080078125
-13.73291015625
-6.40869140625
-4.57763671875
-7.32421875
-5.4931640625
-7.32421875
-10.986328125
-18.310546875
-21.97265625
-30.21240234375
-22.88818359375
-16.4794921875
-11.90185546875
-11.90185546875
-19.22607421875
-19.22607421875
-14.6484375
-22.88818359375
-24.71923828125
-21.97265625
-18.310546875
-8.23974609375
-10.07080078125
-10.986328125
-14.6484375
-20.1416015625
-20.1416015625
-27.4658203125
-30.21240234375
-27.4658203125
-22.88818359375
-21.05712890625
-20.1416015625
-14.6484375
-19.22607421875
-21.05712890625
-29.296875
-32.04345703125
-32.958984375
-29.296875
-23.8037109375
-22.88818359375
-23.8037109375
-25.634765625
-28.38134765625
-30.21240234375
-36.62109375
-35.70556640625
-41.19873046875
-45.7763671875
-36.62109375
-28.38134765625
-17.39501953125
-15.56396484375
-20.1416015625
-24.71923828125
-32.958984375
-34.7900390625
-41.19873046875
-34.7900390625
-27.4658203125
-18.310546875
-24.71923828125
-27.4658203125
-27.4658203125
-32.04345703125
-29.296875
-34.7900390625
-40.283203125
-36.62109375
-24.71923828125
-32.04345703125
-34.7900390625
-28.38134765625
-28.38134765625
-36.62109375
-43.02978515625
-32.958984375
-25.634765625
-24.71923828125
-27.4658203125
-20.1416015625
-3.662109375
8.23974609375
10.986328125
17.39501953125
28.38134765625
33.87451171875
32.958984375
31.1279296875
34.7900390625
30.21240234375
30.21240234375
28.38134765625
25.634765625
21.05712890625
16.4794921875
16.4794921875
21.97265625
29.296875
46.69189453125
53.1005859375
54.931640625
59.50927734375
57.67822265625
49.4384765625
49.4384765625
55.84716796875
53.1005859375
52.18505859375
40.283203125
28.38134765625
26.55029296875
32.04345703125
27.4658203125
21.05712890625
8.23974609375
-3.662109375
-8.23974609375
-12.8173828125
-11.90185546875
-18.310546875
-30.21240234375
-32.04345703125
-38.4521484375
-33.87451171875
-41.19873046875
-42.1142578125
-40.283203125
-43.9453125
-46.69189453125
-44.86083984375
-45.7763671875
-49.4384765625
-52.18505859375
-59.50927734375
-56.7626953125
-55.84716796875
-55.84716796875
-58.59375
-54.01611328125
-49.4384765625
-40.283203125
-43.02978515625
-41.19873046875
-45.7763671875
-42.1142578125
-43.02978515625
-52.18505859375
-64.0869140625
-57.67822265625
-52.18505859375
-43.02978515625
-39.36767578125
-42.1142578125
-45.7763671875
-45.7763671875
-43.9453125
-21.97265625
-2.74658203125
11.90185546875
28.38134765625
44.86083984375
49.4384765625
51.26953125
47.607421875
44.86083984375
43.9453125
40.283203125
54.931640625
64.0869140625
74.15771484375
99.79248046875
119.0185546875
97.0458984375
88.80615234375
-7.32421875
-182.18994140625
-374.45068359375
-556.640625
-779.11376953125
-885.31494140625
-960.38818359375
-1022.64404296875
-1001.5869140625
-956.72607421875
-899.96337890625
-842.28515625
-770.8740234375
-683.89892578125
-603.33251953125
-541.9921875
-498.96240234375
-460.51025390625
-414.73388671875
-368.0419921875
-342.4072265625
-330.50537109375
-302.1240234375
-277.40478515625
-258.1787109375
-235.29052734375
-227.05078125
-215.14892578125
-222.47314453125
-216.064453125
-222.47314453125
-217.8955078125
-210.5712890625
-200.50048828125
-192.2607421875
-177.6123046875
-166.6259765625
-166.6259765625
-158.38623046875
-152.89306640625
-150.146484375
-148.3154296875
-151.9775390625
-144.6533203125
-124.51171875
-119.93408203125
-107.11669921875
-89.7216796875
-86.0595703125
-85.14404296875
-81.48193359375
-63.17138671875
-41.19873046875
-25.634765625
-13.73291015625
-6.40869140625
-0.91552734375
14.6484375
18.310546875
17.39501953125
25.634765625
36.62109375
43.02978515625
38.4521484375
39.36767578125
39.36767578125
50.35400390625
54.01611328125
49.4384765625
43.9453125
50.35400390625
52.18505859375
44.86083984375
43.9453125
44.86083984375
47.607421875
66.83349609375
75.0732421875
78.7353515625
74.15771484375
74.15771484375
70.49560546875
70.49560546875
71.4111328125
66.83349609375
66.83349609375
84.228515625
91.552734375
89.7216796875
101.62353515625
88.80615234375
91.552734375
89.7216796875
93.3837890625
98.876953125
97.96142578125
97.96142578125
106.201171875
103.45458984375
101.62353515625
107.11669921875
111.6943359375
111.6943359375
109.86328125
112.60986328125
121.76513671875
129.08935546875
124.51171875
128.173828125
127.25830078125
132.75146484375
140.9912109375
139.16015625
136.41357421875
140.07568359375
146.484375
160.21728515625
162.9638671875
162.04833984375
161.1328125
162.9638671875
159.3017578125
164.794921875
173.03466796875
167.54150390625
173.9501953125
173.03466796875
179.443359375
180.35888671875
178.52783203125
174.86572265625
176.69677734375
179.443359375
181.2744140625
182.18994140625
177.6123046875
179.443359375
176.69677734375
180.35888671875
178.52783203125
170.2880859375
160.21728515625
158.38623046875
159.3017578125
155.6396484375
147.39990234375
153.80859375
152.89306640625
138.24462890625
127.25830078125
118.10302734375
112.60986328125
105.28564453125
99.79248046875
96.13037109375
87.890625
85.14404296875
81.48193359375
75.98876953125
74.15771484375
64.0869140625
55.84716796875
44.86083984375
42.1142578125
39.36767578125
31.1279296875
25.634765625
32.958984375
39.36767578125
27.4658203125
28.38134765625
18.310546875
10.986328125
7.32421875
5.4931640625
7.32421875
-3.662109375
3.662109375
9.1552734375
10.07080078125
5.4931640625
6.40869140625
7.32421875
7.32421875
4.57763671875
7.32421875
3.662109375
5.4931640625
11.90185546875
11.90185546875
14.6484375
6.40869140625
0
1.8310546875
10.986328125
13.73291015625
13.73291015625
15.56396484375
22.88818359375
10.986328125
12.8173828125
21.05712890625
14.6484375
11.90185546875
5.4931640625
14.6484375
20.1416015625
25.634765625
23.8037109375
24.71923828125
23.8037109375
22.88818359375
20.1416015625
18.310546875
14.6484375
21.05712890625
17.39501953125
20.1416015625
27.4658203125
22.88818359375
17.39501953125
12.8173828125
9.1552734375
11.90185546875
11.90185546875
7.32421875
6.40869140625
10.07080078125
2.74658203125
9.1552734375
13.73291015625
12.8173828125
2.74658203125
2.74658203125
7.32421875
8.23974609375
13.73291015625
14.6484375
11.90185546875
-0.91552734375
-9.1552734375
-4.57763671875
-1.8310546875
-1.8310546875
-3.662109375
-0.91552734375
-1.8310546875
-2.74658203125
-11.90185546875
-12.8173828125
-14.6484375
-10.07080078125
-11.90185546875
-19.22607421875
-18.310546875
-8.23974609375
-8.23974609375
-9.1552734375
-10.07080078125
-10.986328125
-11.90185546875
-10.07080078125
-15.56396484375
-22.88818359375
-17.39501953125
-20.1416015625
-17.39501953125
-14.6484375
-12.8173828125
-14.6484375
-15.56396484375
-21.97265625
-19.22607421875
-19.22607421875
-20.1416015625
-14.6484375
-27.4658203125
-24.71923828125
-29.296875
-27.4658203125
-32.04345703125
-30.21240234375
-30.21240234375
-27.4658203125
-15.56396484375
-10.07080078125
-7.32421875
-11.90185546875
-16.4794921875
-19.22607421875
-29.296875
-32.04345703125
-27.4658203125
-20.1416015625
-20.1416015625
-13.73291015625
-14.6484375
-19.22607421875
-10.986328125
-5.4931640625
5.4931640625
16.4794921875
16.4794921875
20.1416015625
32.958984375
36.62109375
32.04345703125
28.38134765625
36.62109375
50.35400390625
46.69189453125
29.296875
19.22607421875
16.4794921875
21.05712890625
26.55029296875
40.283203125
54.01611328125
46.69189453125
40.283203125
36.62109375
39.36767578125
32.958984375
38.4521484375
45.7763671875
45.7763671875
45.7763671875
38.4521484375
35.70556640625
35.70556640625
27.4658203125
11.90185546875
7.32421875
7.32421875
0.91552734375
-6.40869140625
-16.4794921875
-13.73291015625
-25.634765625
-27.4658203125
-31.1279296875
-41.19873046875
-45.7763671875
-47.607421875
-45.7763671875
-46.69189453125
-39.36767578125
-44.86083984375
-49.4384765625
-45.7763671875
-53.1005859375
-55.84716796875
-56.7626953125
-56.7626953125
-54.931640625
-47.607421875
-46.69189453125
-48.52294921875
-43.02978515625
-36.62109375
-38.4521484375
-48.52294921875
-44.86083984375
-43.02978515625
-41.19873046875
-42.1142578125
-40.283203125
-45.7763671875
-43.9453125
-43.9453125
-49.4384765625
-54.931640625
-49.4384765625
-43.02978515625
-37.53662109375
-23.8037109375
-5.4931640625
10.07080078125
28.38134765625
33.87451171875
37.53662109375
33.87451171875
29.296875
17.39501953125
24.71923828125
32.958984375
53.1005859375
83.31298828125
104.3701171875
133.6669921875
148.3154296875
133.6669921875
103.45458984375
4.57763671875
-165.71044921875
-346.0693359375
-520.93505859375
-738.83056640625
-854.18701171875
-931.09130859375
-990.6005859375
-997.9248046875
-956.72607421875
-893.5546875
-836.7919921875
-762.63427734375
-682.9833984375
-606.0791015625
-554.8095703125
-509.033203125
-466.9189453125
-429.38232421875
-381.77490234375
-357.97119140625
-331.4208984375
-301.20849609375
-281.06689453125
-255.43212890625
-238.037109375
-231.62841796875
-229.79736328125
-230.712890625
-229.79736328125
-223.388671875
-216.97998046875
-216.064453125
-217.8955078125
-211.48681640625
-194.091796875
-181.2744140625
-178.52783203125
-172.119140625
-163.87939453125
-168.45703125
-165.71044921875
-150.146484375
-152.89306640625
-132.75146484375
-126.3427734375
-108.0322265625
-94.29931640625
-98.876953125
-90.63720703125
-75.98876953125
-50.35400390625
-25.634765625
-17.39501953125
-2.74658203125
6.40869140625
10.07080078125
21.97265625
24.71923828125
25.634765625
33.87451171875
44.86083984375
50.35400390625
58.59375
53.1005859375
51.26953125
55.84716796875
59.50927734375
57.67822265625
49.4384765625
58.59375
65.91796875
71.4111328125
71.4111328125
73.2421875
75.0732421875
75.0732421875
70.49560546875
66.83349609375
76.904296875
77.81982421875
76.904296875
78.7353515625
86.97509765625
91.552734375
88.80615234375
88.80615234375
84.228515625
90.63720703125
87.890625
89.7216796875
96.13037109375
97.0458984375
98.876953125
101.62353515625
104.3701171875
108.0322265625
111.6943359375
110.77880859375
115.3564453125
119.0185546875
119.0185546875
119.0185546875
123.59619140625
139.16015625
138.24462890625
135.498046875
133.6669921875
131.8359375
139.16015625
132.75146484375
147.39990234375
156.55517578125
159.3017578125
155.6396484375
155.6396484375
161.1328125
169.37255859375
174.86572265625
172.119140625
176.69677734375
184.02099609375
184.02099609375
184.9365234375
195.00732421875
197.75390625
197.75390625
191.34521484375
190.4296875
193.17626953125
186.767578125
184.02099609375
195.00732421875
196.83837890625
194.091796875
188.5986328125
181.2744140625
176.69677734375
176.69677734375
177.6123046875
179.443359375
180.35888671875
167.54150390625
165.71044921875
167.54150390625
162.9638671875
151.9775390625
146.484375
138.24462890625
121.76513671875
119.93408203125
113.525390625
104.3701171875
100.7080078125
91.552734375
85.14404296875
68.66455078125
65.00244140625
60.4248046875
55.84716796875
52.18505859375
45.7763671875
43.9453125
47.607421875
34.7900390625
29.296875
36.62109375
31.1279296875
25.634765625
22.88818359375
18.310546875
16.4794921875
10.986328125
7.32421875
16.4794921875
16.4794921875
9.1552734375
2.74658203125
-3.662109375
-15.56396484375
-7.32421875
14.6484375
7.32421875
9.1552734375
0
-3.662109375
-0.91552734375
0.91552734375
1.8310546875
-0.91552734375
3.662109375
6.40869140625
5.4931640625
10.986328125
10.986328125
9.1552734375
10.07080078125
11.90185546875
18.310546875
16.4794921875
14.6484375
15.56396484375
24.71923828125
29.296875
19.22607421875
20.1416015625
18.310546875
12.8173828125
13.73291015625
14.6484375
4.57763671875
3.662109375
23.8037109375
20.1416015625
21.05712890625
19.22607421875
20.1416015625
21.05712890625
21.05712890625
13.73291015625
14.6484375
14.6484375
17.39501953125
24.71923828125
26.55029296875
15.56396484375
18.310546875
12.8173828125
10.07080078125
12.8173828125
1.8310546875
0
-9.1552734375
-0.91552734375
0.91552734375
-0.91552734375
8.23974609375
0.91552734375
0
10.07080078125
4.57763671875
0
4.57763671875
0
-1.8310546875
-0.91552734375
-2.74658203125
-2.74658203125
-7.32421875
-10.07080078125
-9.1552734375
-9.1552734375
-13.73291015625
-11.90185546875
-17.39501953125
-13.73291015625
-1.8310546875
-10.07080078125
-7.32421875
-10.986328125
-13.73291015625
-10.07080078125
-10.07080078125
-10.07080078125
-11.90185546875
-6.40869140625
-15.56396484375
-20.1416015625
-17.39501953125
-17.39501953125
-21.97265625
-13.73291015625
-18.310546875
-14.6484375
-14.6484375
-21.05712890625
-6.40869140625
-11.90185546875
-10.986328125
-20.1416015625
-29.296875
-30.21240234375
-18.310546875
-10.986328125
-17.39501953125
-8.23974609375
-4.57763671875
-17.39501953125
-26.55029296875
-20.1416015625
-14.6484375
-21.05712890625
-25.634765625
-17.39501953125
-9.1552734375
-11.90185546875
-15.56396484375
-13.73291015625
-25.634765625
-24.71923828125
-25.634765625
-27.4658203125
-28.38134765625
-20.1416015625
-8.23974609375
0.91552734375
-0.91552734375
2.74658203125
18.310546875
21.05712890625
21.97265625
18.310546875
28.38134765625
30.21240234375
32.04345703125
38.4521484375
48.52294921875
48.52294921875
42.1142578125
38.4521484375
31.1279296875
26.55029296875
13.73291015625
11.90185546875
24.71923828125
32.958984375
37.53662109375
39.36767578125
23.8037109375
25.634765625
29.296875
21.97265625
31.1279296875
50.35400390625
54.01611328125
45.7763671875
32.04345703125
30.21240234375
26.55029296875
19.22607421875
11.90185546875
14.6484375
6.40869140625
0.91552734375
-5.4931640625
-14.6484375
-14.6484375
-21.05712890625
-27.4658203125
-25.634765625
-34.7900390625
-38.4521484375
-35.70556640625
-35.70556640625
-42.1142578125
-49.4384765625
-49.4384765625
-52.18505859375
-45.7763671875
-44.86083984375
-51.26953125
-61.34033203125
-59.50927734375
-56.7626953125
-54.01611328125
-49.4384765625
-46.69189453125
-51.26953125
-45.7763671875
-43.9453125
-53.1005859375
-52.18505859375
-57.67822265625
-47.607421875
-38.4521484375
-37.53662109375
-44.86083984375
-42.1142578125
-47.607421875
-47.607421875
-49.4384765625
-54.01611328125
-43.9453125
-16.4794921875
0.91552734375
22.88818359375
43.9453125
46.69189453125
47.607421875
42.1142578125
50.35400390625
54.01611328125
61.34033203125
72.32666015625
96.13037109375
120.849609375
140.07568359375
158.38623046875
170.2880859375
149.23095703125
127.25830078125
23.8037109375
-144.6533203125
-326.84326171875
-500.79345703125
-733.33740234375
-846.86279296875
-941.162109375
-1024.47509765625
-1018.06640625
-968.6279296875
-921.0205078125
-867.919921875
-808.41064453125
-729.67529296875
-636.29150390625
-569.4580078125
-523.681640625
-486.14501953125
-441.2841796875
-399.169921875
-375.3662109375
-346.0693359375
-309.4482421875
-294.7998046875
-278.3203125
-260.92529296875
-240.78369140625
-229.79736328125
-227.96630859375
-221.5576171875
-218.81103515625
-218.81103515625
-204.16259765625
-211.48681640625
-211.48681640625
-205.078125
-201.416015625
-192.2607421875
-186.767578125
-180.35888671875
-178.52783203125
-165.71044921875
-154.72412109375
-139.16015625
-127.25830078125
-120.849609375
-108.0322265625
-97.96142578125
-101.62353515625
-96.13037109375
-85.14404296875
-65.00244140625
-54.01611328125
-37.53662109375
-23.8037109375
-15.56396484375
-7.32421875
0
-3.662109375
5.4931640625
21.05712890625
31.1279296875
33.87451171875
33.87451171875
36.62109375
35.70556640625
40.283203125
39.36767578125
39.36767578125
37.53662109375
33.87451171875
40.283203125
46.69189453125
43.9453125
41.19873046875
40.283203125
39.36767578125
51.26953125
50.35400390625
48.52294921875
55.84716796875
58.59375
59.50927734375
60.4248046875
66.83349609375
63.17138671875
73.2421875
70.49560546875
76.904296875
76.904296875
84.228515625
86.0595703125
86.97509765625
88.80615234375
89.7216796875
92.46826171875
100.7080078125
94.29931640625
90.63720703125
93.3837890625
98.876953125
109.86328125
116.27197265625
124.51171875
131.8359375
129.08935546875
127.25830078125
127.25830078125
127.25830078125
120.849609375
130.0048828125
143.73779296875
151.06201171875
145.56884765625
155.6396484375
155.6396484375
154.72412109375
158.38623046875
164.794921875
169.37255859375
167.54150390625
170.2880859375
163.87939453125
170.2880859375
177.6123046875
174.86572265625
167.54150390625
170.2880859375
164.794921875
167.54150390625
173.03466796875
169.37255859375
165.71044921875
167.54150390625
165.71044921875
169.37255859375
169.37255859375
171.20361328125
170.2880859375
156.55517578125
154.72412109375
143.73779296875
150.146484375
153.80859375
157.470703125
159.3017578125
149.23095703125
144.6533203125
121.76513671875
109.86328125
97.0458984375
99.79248046875
95.21484375
86.0595703125
84.228515625
83.31298828125
78.7353515625
69.580078125
63.17138671875
50.35400390625
31.1279296875
19.22607421875
23.8037109375
37.53662109375
33.87451171875
30.21240234375
26.55029296875
13.73291015625
5.4931640625
10.07080078125
-1.8310546875
-0.91552734375
-0.91552734375
1.8310546875
3.662109375
-3.662109375
-10.986328125
-17.39501953125
-24.71923828125
-18.310546875
-24.71923828125
-22.88818359375
-17.39501953125
-16.4794921875
-7.32421875
-13.73291015625
-17.39501953125
-27.4658203125
-28.38134765625
-24.71923828125
-24.71923828125
-25.634765625
-21.05712890625
-18.310546875
-10.986328125
-14.6484375
-20.1416015625
-16.4794921875
-14.6484375
-13.73291015625
-9.1552734375
-2.74658203125
-8.23974609375
-2.74658203125
-15.56396484375
-21.97265625
-18.310546875
-20.1416015625
-15.56396484375
-10.07080078125
0
15.56396484375
17.39501953125
13.73291015625
6.40869140625
15.56396484375
4.57763671875
-1.8310546875
-2.74658203125
-8.23974609375
-10.986328125
-2.74658203125
-0.91552734375
4.57763671875
13.73291015625
5.4931640625
0.91552734375
1.8310546875
0.91552734375
-10.07080078125
-9.1552734375
-0.91552734375
-4.57763671875
-2.74658203125
-5.4931640625
-5.4931640625
-10.07080078125
-19.22607421875
-18.310546875
-12.8173828125
-10.986328125
-17.39501953125
-17.39501953125
-17.39501953125
-16.4794921875
-22.88818359375
-26.55029296875
-21.05712890625
-32.04345703125
-26.55029296875
-25.634765625
-28.38134765625
-24.71923828125
-22.88818359375
-22.88818359375
-32.958984375
-32.04345703125
-29.296875
-28.38134765625
-34.7900390625
-32.958984375
-32.958984375
-21.05712890625
-25.634765625
-29.296875
-26.55029296875
-26.55029296875
-36.62109375
-40.283203125
-43.02978515625
-39.36767578125
-32.04345703125
-29.296875
-38.4521484375
-32.958984375
-35.70556640625
-33.87451171875
-31.1279296875
-42.1142578125
-55.84716796875
-54.01611328125
-48.52294921875
-43.9453125
-32.04345703125
-27.4658203125
-27.4658203125
-39.36767578125
-40.283203125
-34.7900390625
-28.38134765625
-23.8037109375
-25.634765625
-24.71923828125
-21.05712890625
-28.38134765625
-36.62109375
-41.19873046875
-48.52294921875
-37.53662109375
-40.283203125
-34.7900390625
-34.7900390625
-38.4521484375
-35.70556640625
-36.62109375
-40.283203125
-40.283203125
-38.4521484375
-43.02978515625
-37.53662109375
-19.22607421875
-17.39501953125
-20.1416015625
-8.23974609375
1.8310546875
6.40869140625
10.986328125
11.90185546875
6.40869140625
-0.91552734375
4.57763671875
21.97265625
21.97265625
14.6484375
9.1552734375
-1.8310546875
-5.4931640625
-6.40869140625
-8.23974609375
4.57763671875
18.310546875
25.634765625
26.55029296875
20.1416015625
15.56396484375
19.22607421875
29.296875
31.1279296875
32.04345703125
27.4658203125
6.40869140625
10.986328125
13.73291015625
16.4794921875
9.1552734375
5.4931640625
-2.74658203125
-10.07080078125
-21.05712890625
-34.7900390625
-28.38134765625
-19.22607421875
-33.87451171875
-33.87451171875
-43.02978515625
-41.19873046875
-53.1005859375
-54.931640625
-55.84716796875
-56.7626953125
-62.255859375
-65.91796875
-63.17138671875
-61.34033203125
-68.66455078125
-61.34033203125
-61.34033203125
-62.255859375
-60.4248046875
-64.0869140625
-56.7626953125
-55.84716796875
-56.7626953125
-54.01611328125
-62.255859375
-56.7626953125
-54.931640625
-58.59375
-62.255859375
-63.17138671875
-66.83349609375
-59.50927734375
-59.50927734375
-55.84716796875
-58.59375
-55.84716796875
-55.84716796875
-45.7763671875
-31.1279296875
0.91552734375
21.05712890625
41.19873046875
51.26953125
41.19873046875
38.4521484375
51.26953125
52.18505859375
57.67822265625
84.228515625
108.0322265625
137.3291015625
163.87939453125
194.091796875
199.5849609375
191.34521484375
145.56884765625
20.1416015625
-178.52783203125
-365.29541015625
-574.951171875
-786.43798828125
-880.7373046875
-977.783203125
-1063.8427734375
-1047.36328125
-998.84033203125
-938.41552734375
-887.14599609375
-819.39697265625
-732.421875
-646.3623046875
-580.4443359375
-525.5126953125
-468.75
-429.38232421875
-390.93017578125
-362.548828125
-334.16748046875
-298.4619140625
-268.24951171875
-249.93896484375
-233.45947265625
-224.30419921875
-210.5712890625
-205.078125
-205.078125
-204.16259765625
-207.82470703125
-203.2470703125
-206.9091796875
-212.40234375
-204.16259765625
-188.5986328125
-178.52783203125
-173.03466796875
-162.04833984375
-162.9638671875
-155.6396484375
-141.90673828125
-133.6669921875
-128.173828125
-108.94775390625
-93.3837890625
-95.21484375
-95.21484375
-82.3974609375
-62.255859375
-57.67822265625
-45.7763671875
-27.4658203125
-25.634765625
-6.40869140625
8.23974609375
12.8173828125
18.310546875
16.4794921875
9.1552734375
9.1552734375
12.8173828125
18.310546875
24.71923828125
32.04345703125
40.283203125
41.19873046875
41.19873046875
38.4521484375
35.70556640625
43.02978515625
42.1142578125
48.52294921875
55.84716796875
59.50927734375
62.255859375
65.91796875
66.83349609375
63.17138671875
62.255859375
67.7490234375
64.0869140625
65.00244140625
65.00244140625
81.48193359375
75.98876953125
75.98876953125
86.97509765625
80.56640625
80.56640625
89.7216796875
86.97509765625
89.7216796875
86.0595703125
99.79248046875
106.201171875
108.94775390625
108.94775390625
112.60986328125
120.849609375
119.0185546875
118.10302734375
120.849609375
115.3564453125
130.92041015625
140.07568359375
151.9775390625
148.3154296875
147.39990234375
146.484375
151.9775390625
150.146484375
150.146484375
161.1328125
167.54150390625
173.03466796875
178.52783203125
174.86572265625
183.10546875
173.03466796875
173.9501953125
174.86572265625
170.2880859375
180.35888671875
191.34521484375
198.66943359375
196.83837890625
206.9091796875
207.82470703125
204.16259765625
199.5849609375
195.00732421875
207.82470703125
201.416015625
196.83837890625
199.5849609375
196.83837890625
191.34521484375
191.34521484375
192.2607421875
183.10546875
167.54150390625
156.55517578125
145.56884765625
137.3291015625
139.16015625
145.56884765625
141.90673828125
133.6669921875
123.59619140625
107.11669921875
97.0458984375
88.80615234375
82.3974609375
72.32666015625
70.49560546875
61.34033203125
60.4248046875
54.01611328125
40.283203125
24.71923828125
15.56396484375
1.8310546875
0.91552734375
16.4794921875
22.88818359375
26.55029296875
9.1552734375
-7.32421875
-24.71923828125
-30.21240234375
-36.62109375
-43.9453125
-22.88818359375
-21.05712890625
-26.55029296875
-21.97265625
-11.90185546875
-4.57763671875
5.4931640625
0.91552734375
-6.40869140625
-9.1552734375
-12.8173828125
-12.8173828125
-20.1416015625
-10.986328125
-7.32421875
-10.07080078125
-6.40869140625
-11.90185546875
-18.310546875
-11.90185546875
-12.8173828125
-14.6484375
-7.32421875
-10.986328125
-8.23974609375
-10.986328125
-0.91552734375
-4.57763671875
-9.1552734375
-11.90185546875
-7.32421875
-2.74658203125
5.4931640625
4.57763671875
-1.8310546875
-0.91552734375
-1.8310546875
-5.4931640625
-3.662109375
-0.91552734375
-0.91552734375
3.662109375
0
2.74658203125
-2.74658203125
-7.32421875
-11.90185546875
-9.1552734375
-4.57763671875
-12.8173828125
-7.32421875
-0.91552734375
-4.57763671875
-7.32421875
-9.1552734375
-15.56396484375
-16.4794921875
-10.07080078125
-14.6484375
-20.1416015625
-24.71923828125
-19.22607421875
-19.22607421875
-21.97265625
-12.8173828125
-11.90185546875
-15.56396484375
-17.39501953125
-18.310546875
-21.97265625
-20.1416015625
-22.88818359375
-27.4658203125
-17.39501953125
-15.56396484375
-21.05712890625
-23.8037109375
-22.88818359375
-23.8037109375
-30.21240234375
-26.55029296875
-27.4658203125
-24.71923828125
-18.310546875
-26.55029296875
-28.38134765625
-22.88818359375
-32.04345703125
-36.62109375
-39.36767578125
-33.87451171875
-41.19873046875
-42.1142578125
-36.62109375
-34.7900390625
-39.36767578125
-40.283203125
-35.70556640625
-31.1279296875
-29.296875
-34.7900390625
-43.02978515625
-39.36767578125
-32.04345703125
-35.70556640625
-35.70556640625
-37.53662109375
-33.87451171875
-36.62109375
-44.86083984375
-42.1142578125
-34.7900390625
-32.04345703125
-34.7900390625
-30.21240234375
-33.87451171875
-43.9453125
-44.86083984375
-42.1142578125
-32.958984375
-33.87451171875
-34.7900390625
-42.1142578125
-38.4521484375
-26.55029296875
-32.958984375
-35.70556640625
-31.1279296875
-42.1142578125
-53.1005859375
-51.26953125
-48.52294921875
-49.4384765625
-32.958984375
-30.21240234375
-33.87451171875
-33.87451171875
-32.958984375
-39.36767578125
-51.26953125
-63.17138671875
-50.35400390625
-32.958984375
-22.88818359375
-21.05712890625
-18.310546875
-27.4658203125
-38.4521484375
-32.04345703125
-26.55029296875
-22.88818359375
-12.8173828125
0.91552734375
16.4794921875
28.38134765625
25.634765625
20.1416015625
16.4794921875
21.05712890625
16.4794921875
23.8037109375
23.8037109375
20.1416015625
9.1552734375
10.986328125
7.32421875
3.662109375
10.07080078125
17.39501953125
16.4794921875
12.8173828125
9.1552734375
-0.91552734375
0
2.74658203125
10.986328125
27.4658203125
17.39501953125
14.6484375
10.07080078125
3.662109375
-1.8310546875
7.32421875
6.40869140625
8.23974609375
0
-14.6484375
-34.7900390625
-27.4658203125
-33.87451171875
-43.9453125
-43.9453125
-41.19873046875
-44.86083984375
-52.18505859375
-57.67822265625
-55.84716796875
-57.67822265625
-60.4248046875
-66.83349609375
-62.255859375
-56.7626953125
-61.34033203125
-55.84716796875
-54.01611328125
-54.931640625
-57.67822265625
-67.7490234375
-73.2421875
-64.0869140625
-62.255859375
-63.17138671875
-56.7626953125
-57.67822265625
-65.00244140625
-58.59375
-53.1005859375
-53.1005859375
-56.7626953125
-57.67822265625
-54.931640625
-59.50927734375
-55.84716796875
-55.84716796875
-54.01611328125
-54.931640625
-40.283203125
-11.90185546875
2.74658203125
18.310546875
35.70556640625
45.7763671875
49.4384765625
48.52294921875
49.4384765625
54.931640625
60.4248046875
79.65087890625
92.46826171875
114.44091796875
130.0048828125
162.9638671875
158.38623046875
149.23095703125
108.94775390625
-21.05712890625
-218.81103515625
-403.74755859375
-622.55859375
-820.3125
-909.11865234375
-997.9248046875
-1056.5185546875
-1017.15087890625
-969.54345703125
-923.76708984375
-868.83544921875
-804.74853515625
-710.44921875
-616.14990234375
-556.640625
-502.62451171875
-454.1015625
-403.74755859375
-371.7041015625
-346.98486328125
-321.35009765625
-292.05322265625
-265.5029296875
-253.60107421875
-239.8681640625
-231.62841796875
-222.47314453125
-218.81103515625
-222.47314453125
-215.14892578125
-213.31787109375
-203.2470703125
-202.33154296875
-207.82470703125
-212.40234375
-206.9091796875
-179.443359375
-159.3017578125
-159.3017578125
-151.9775390625
-145.56884765625
-140.9912109375
-139.16015625
-124.51171875
-108.94775390625
-101.62353515625
-96.13037109375
-91.552734375
-82.3974609375
-68.66455078125
-48.52294921875
-37.53662109375
-27.4658203125
-17.39501953125
-6.40869140625
2.74658203125
6.40869140625
14.6484375
15.56396484375
21.97265625
25.634765625
30.21240234375
35.70556640625
38.4521484375
41.19873046875
34.7900390625
37.53662109375
40.283203125
45.7763671875
42.1142578125
38.4521484375
32.04345703125
32.958984375
36.62109375
35.70556640625
42.1142578125
52.18505859375
57.67822265625
70.49560546875
73.2421875
73.2421875
72.32666015625
75.0732421875
76.904296875
73.2421875
73.2421875
76.904296875
75.98876953125
83.31298828125
75.0732421875
81.48193359375
92.46826171875
89.7216796875
86.97509765625
86.97509765625
95.21484375
106.201171875
108.0322265625
113.525390625
111.6943359375
117.1875
120.849609375
116.27197265625
114.44091796875
121.76513671875
126.3427734375
132.75146484375
136.41357421875
137.3291015625
141.90673828125
141.90673828125
150.146484375
157.470703125
163.87939453125
160.21728515625
160.21728515625
174.86572265625
178.52783203125
177.6123046875
181.2744140625
184.02099609375
184.9365234375
178.52783203125
167.54150390625
172.119140625
184.9365234375
187.68310546875
193.17626953125
193.17626953125
198.66943359375
196.83837890625
198.66943359375
196.83837890625
198.66943359375
193.17626953125
184.02099609375
197.75390625
200.50048828125
189.51416015625
185.85205078125
176.69677734375
161.1328125
140.9912109375
146.484375
151.9775390625
147.39990234375
143.73779296875
138.24462890625
127.25830078125
113.525390625
117.1875
108.0322265625
100.7080078125
97.0458984375
79.65087890625
86.0595703125
76.904296875
65.00244140625
62.255859375
52.18505859375
42.1142578125
38.4521484375
26.55029296875
24.71923828125
23.8037109375
17.39501953125
15.56396484375
14.6484375
9.1552734375
5.4931640625
3.662109375
0.91552734375
-8.23974609375
-17.39501953125
-15.56396484375
-14.6484375
-10.986328125
-7.32421875
-8.23974609375
-12.8173828125
-10.986328125
-9.1552734375
-22.88818359375
-27.4658203125
-18.310546875
-20.1416015625
-21.05712890625
-18.310546875
-16.4794921875
-18.310546875
-16.4794921875
-11.90185546875
-17.39501953125
-8.23974609375
-15.56396484375
-17.39501953125
-8.23974609375
-7.32421875
-10.986328125
-8.23974609375
-18.310546875
-19.22607421875
-19.22607421875
-17.39501953125
-12.8173828125
0
5.4931640625
17.39501953125
18.310546875
14.6484375
11.90185546875
13.73291015625
8.23974609375
9.1552734375
7.32421875
5.4931640625
7.32421875
9.1552734375
9.1552734375
14.6484375
10.07080078125
3.662109375
1.8310546875
2.74658203125
1.8310546875
3.662109375
2.74658203125
0.91552734375
4.57763671875
4.57763671875
2.74658203125
-0.91552734375
0
-7.32421875
-8.23974609375
-10.986328125
-6.40869140625
0
-7.32421875
-10.986328125
-23.8037109375
-19.22607421875
-11.90185546875
-9.1552734375
-10.986328125
-16.4794921875
-20.1416015625
-28.38134765625
-27.4658203125
-26.55029296875
-23.8037109375
-26.55029296875
-21.97265625
-21.05712890625
-21.05712890625
-17.39501953125
-18.310546875
-14.6484375
-14.6484375
-21.05712890625
-26.55029296875
-33.87451171875
-38.4521484375
-32.04345703125
-28.38134765625
-31.1279296875
-27.4658203125
-24.71923828125
-20.1416015625
-19.22607421875
-16.4794921875
-23.8037109375
-22.88818359375
-25.634765625
-33.87451171875
-34.7900390625
-30.21240234375
-21.05712890625
-20.1416015625
-24.71923828125
-31.1279296875
-30.21240234375
-31.1279296875
-32.04345703125
-28.38134765625
-29.296875
-28.38134765625
-27.4658203125
-27.4658203125
-25.634765625
-29.296875
-21.97265625
-29.296875
-35.70556640625
-37.53662109375
-31.1279296875
-36.62109375
-31.1279296875
-28.38134765625
-34.7900390625
-33.87451171875
-30.21240234375
-26.55029296875
-27.4658203125
-29.296875
-30.21240234375
-32.958984375
-28.38134765625
-28.38134765625
-32.04345703125
-31.1279296875
-29.296875
-30.21240234375
-23.8037109375
-23.8037109375
-24.71923828125
-21.05712890625
-10.07080078125
-5.4931640625
13.73291015625
12.8173828125
24.71923828125
31.1279296875
18.310546875
25.634765625
29.296875
40.283203125
43.9453125
38.4521484375
21.05712890625
20.1416015625
16.4794921875
14.6484375
12.8173828125
17.39501953125
29.296875
34.7900390625
30.21240234375
21.97265625
22.88818359375
23.8037109375
18.310546875
32.04345703125
34.7900390625
29.296875
31.1279296875
34.7900390625
27.4658203125
22.88818359375
8.23974609375
13.73291015625
4.57763671875
-13.73291015625
-29.296875
-29.296875
-22.88818359375
-21.97265625
-25.634765625
-31.1279296875
-39.36767578125
-37.53662109375
-41.19873046875
-50.35400390625
-54.01611328125
-63.17138671875
-51.26953125
-49.4384765625
-46.69189453125
-57.67822265625
-61.34033203125
-61.34033203125
-67.7490234375
-65.00244140625
-56.7626953125
-53.1005859375
-37.53662109375
-34.7900390625
-31.1279296875
-42.1142578125
-46.69189453125
-49.4384765625
-38.4521484375
-41.19873046875
-43.9453125
-41.19873046875
-40.283203125
-41.19873046875
-44.86083984375
-41.19873046875
-38.4521484375
-36.62109375
-45.7763671875
-38.4521484375
-18.310546875
7.32421875
23.8037109375
36.62109375
54.931640625
54.931640625
49.4384765625
63.17138671875
65.00244140625
68.66455078125
70.49560546875
84.228515625
101.62353515625
110.77880859375
125.42724609375
136.41357421875
123.59619140625
105.28564453125
0.91552734375
-184.9365234375
-379.94384765625
-574.03564453125
-797.42431640625
-891.7236328125
-975.9521484375
-1038.2080078125
-1022.64404296875
-972.2900390625
-921.0205078125
-877.99072265625
-799.25537109375
-704.9560546875
-617.98095703125
-553.89404296875
-498.046875
-455.9326171875
-423.88916015625
-397.3388671875
-366.2109375
-330.50537109375
-305.7861328125
-280.1513671875
-259.09423828125
-233.45947265625
-216.97998046875
-205.99365234375
-204.16259765625
-205.99365234375
-193.17626953125
-193.17626953125
-192.2607421875
-192.2607421875
-184.02099609375
-182.18994140625
-180.35888671875
-162.04833984375
-139.16015625
-139.16015625
-150.146484375
-155.6396484375
-140.9912109375
-130.0048828125
-113.525390625
-93.3837890625
-78.7353515625
-82.3974609375
-77.81982421875
-77.81982421875
-75.0732421875
-55.84716796875
-27.4658203125
-16.4794921875
-10.07080078125
-2.74658203125
16.4794921875
18.310546875
16.4794921875
28.38134765625
39.36767578125
36.62109375
41.19873046875
43.9453125
43.9453125
53.1005859375
51.26953125
57.67822265625
59.50927734375
54.931640625
54.931640625
58.59375
53.1005859375
52.18505859375
58.59375
76.904296875
77.81982421875
76.904296875
72.32666015625
74.15771484375
73.2421875
75.98876953125
78.7353515625
78.7353515625
79.65087890625
86.97509765625
93.3837890625
85.14404296875
82.3974609375
97.0458984375
98.876953125
107.11669921875
103.45458984375
102.5390625
109.86328125
111.6943359375
103.45458984375
104.3701171875
112.60986328125
116.27197265625
121.76513671875
113.525390625
121.76513671875
115.3564453125
134.58251953125
155.6396484375
148.3154296875
161.1328125
160.21728515625
161.1328125
159.3017578125
161.1328125
161.1328125
165.71044921875
164.794921875
164.794921875
175.78125
176.69677734375
173.9501953125
180.35888671875
195.9228515625
195.00732421875
188.5986328125
182.18994140625
178.52783203125
188.5986328125
194.091796875
194.091796875
200.50048828125
207.82470703125
212.40234375
211.48681640625
205.99365234375
196.83837890625
205.078125
211.48681640625
204.16259765625
202.33154296875
195.9228515625
188.5986328125
192.2607421875
181.2744140625
164.794921875
170.2880859375
173.9501953125
176.69677734375
161.1328125
163.87939453125
150.146484375
142.822265625
140.9912109375
135.498046875
129.08935546875
123.59619140625
112.60986328125
109.86328125
103.45458984375
100.7080078125
82.3974609375
69.580078125
57.67822265625
43.9453125
41.19873046875
26.55029296875
37.53662109375
52.18505859375
34.7900390625
35.70556640625
32.958984375
32.958984375
32.04345703125
22.88818359375
21.97265625
20.1416015625
20.1416015625
20.1416015625
13.73291015625
17.39501953125
13.73291015625
3.662109375
7.32421875
15.56396484375
12.8173828125
12.8173828125
13.73291015625
10.07080078125
8.23974609375
6.40869140625
-0.91552734375
0.91552734375
4.57763671875
8.23974609375
7.32421875
7.32421875
8.23974609375
13.73291015625
21.97265625
24.71923828125
24.71923828125
29.296875
23.8037109375
20.1416015625
20.1416015625
23.8037109375
26.55029296875
30.21240234375
28.38134765625
31.1279296875
32.04345703125
24.71923828125
12.8173828125
24.71923828125
38.4521484375
35.70556640625
33.87451171875
33.87451171875
44.86083984375
44.86083984375
38.4521484375
34.7900390625
26.55029296875
27.4658203125
32.04345703125
20.1416015625
21.05712890625
29.296875
21.05712890625
26.55029296875
37.53662109375
26.55029296875
28.38134765625
23.8037109375
20.1416015625
23.8037109375
29.296875
29.296875
33.87451171875
32.958984375
32.958984375
30.21240234375
21.05712890625
15.56396484375
4.57763671875
6.40869140625
5.4931640625
16.4794921875
7.32421875
21.97265625
11.90185546875
4.57763671875
9.1552734375
13.73291015625
10.986328125
13.73291015625
14.6484375
15.56396484375
19.22607421875
10.07080078125
2.74658203125
-3.662109375
-2.74658203125
11.90185546875
1.8310546875
7.32421875
10.07080078125
6.40869140625
10.07080078125
13.73291015625
11.90185546875
12.8173828125
10.07080078125
1.8310546875
-4.57763671875
3.662109375
-0.91552734375
0.91552734375
8.23974609375
3.662109375
0.91552734375
-14.6484375
-16.4794921875
-2.74658203125
5.4931640625
2.74658203125
3.662109375
7.32421875
16.4794921875
12.8173828125
15.56396484375
12.8173828125
21.97265625
38.4521484375
50.35400390625
52.18505859375
45.7763671875
54.931640625
61.34033203125
58.59375
59.50927734375
57.67822265625
46.69189453125
49.4384765625
44.86083984375
35.70556640625
40.283203125
46.69189453125
54.01611328125
55.84716796875
56.7626953125
54.931640625
49.4384765625
54.01611328125
49.4384765625
52.18505859375
72.32666015625
72.32666015625
60.4248046875
57.67822265625
45.7763671875
39.36767578125
50.35400390625
43.9453125
32.04345703125
32.04345703125
25.634765625
23.8037109375
17.39501953125
15.56396484375
15.56396484375
5.4931640625
-14.6484375
-13.73291015625
-21.05712890625
-15.56396484375
-17.39501953125
-13.73291015625
-19.22607421875
-10.07080078125
-20.1416015625
-20.1416015625
-26.55029296875
-31.1279296875
-45.7763671875
-37.53662109375
-24.71923828125
-25.634765625
-28.38134765625
-21.97265625
-9.1552734375
-10.986328125
-3.662109375
-8.23974609375
-19.22607421875
-23.8037109375
-22.88818359375
-10.07080078125
-5.4931640625
-4.57763671875
-11.90185546875
-18.310546875
-18.310546875
-10.07080078125
-19.22607421875
-19.22607421875
-15.56396484375
6.40869140625
25.634765625
43.9453125
55.84716796875
69.580078125
65.91796875
68.66455078125
71.4111328125
58.59375
50.35400390625
55.84716796875
84.228515625
96.13037109375
114.44091796875
140.9912109375
140.07568359375
136.41357421875
111.6943359375
21.05712890625
-151.06201171875
-329.58984375
-494.384765625
-708.6181640625
-835.87646484375
-918.27392578125
-986.02294921875
-1000.67138671875
-959.47265625
-899.96337890625
-835.87646484375
-769.95849609375
-695.80078125
-612.48779296875
-560.302734375
-502.62451171875
-463.2568359375
-423.88916015625
-379.0283203125
-351.5625
-319.51904296875
-283.8134765625
-254.5166015625
-234.375
-226.13525390625
-214.2333984375
-202.33154296875
-203.2470703125
-198.66943359375
-201.416015625
-195.00732421875
-186.767578125
-183.10546875
-179.443359375
-168.45703125
-150.146484375
-140.07568359375
-131.8359375
-112.60986328125
-116.27197265625
-110.77880859375
-103.45458984375
-101.62353515625
-93.3837890625
-94.29931640625
-85.14404296875
-75.98876953125
-60.4248046875
-52.18505859375
-57.67822265625
-32.04345703125
-1.8310546875
14.6484375
26.55029296875
35.70556640625
51.26953125
55.84716796875
53.1005859375
53.1005859375
64.0869140625
62.255859375
65.91796875
75.98876953125
83.31298828125
87.890625
87.890625
90.63720703125
86.97509765625
77.81982421875
80.56640625
85.14404296875
90.63720703125
90.63720703125
94.29931640625
88.80615234375
86.97509765625
96.13037109375
98.876953125
96.13037109375
101.62353515625
109.86328125
127.25830078125
120.849609375
111.6943359375
121.76513671875
119.0185546875
120.849609375
123.59619140625
126.3427734375
123.59619140625
127.25830078125
123.59619140625
135.498046875
142.822265625
147.39990234375
146.484375
151.9775390625
159.3017578125
158.38623046875
160.21728515625
160.21728515625
167.54150390625
173.9501953125
168.45703125
164.794921875
162.9638671875
165.71044921875
185.85205078125
197.75390625
189.51416015625
201.416015625
205.078125
204.16259765625
216.97998046875
221.5576171875
213.31787109375
211.48681640625
220.64208984375
236.2060546875
228.8818359375
228.8818359375
235.29052734375
235.29052734375
233.45947265625
237.12158203125
238.037109375
238.95263671875
237.12158203125
238.037109375
232.5439453125
228.8818359375
236.2060546875
231.62841796875
238.037109375
238.95263671875
229.79736328125
219.7265625
209.65576171875
213.31787109375
211.48681640625
210.5712890625
204.16259765625
199.5849609375
194.091796875
196.83837890625
184.02099609375
162.9638671875
162.04833984375
152.89306640625
143.73779296875
134.58251953125
129.08935546875
129.08935546875
126.3427734375
119.93408203125
99.79248046875
87.890625
91.552734375
94.29931640625
92.46826171875
83.31298828125
71.4111328125
67.7490234375
68.66455078125
66.83349609375
65.00244140625
52.18505859375
43.02978515625
39.36767578125
37.53662109375
33.87451171875
21.97265625
20.1416015625
35.70556640625
34.7900390625
25.634765625
23.8037109375
17.39501953125
14.6484375
2.74658203125
15.56396484375
27.4658203125
31.1279296875
31.1279296875
22.88818359375
15.56396484375
33.87451171875
32.958984375
37.53662109375
31.1279296875
31.1279296875
24.71923828125
31.1279296875
33.87451171875
44.86083984375
39.36767578125
33.87451171875
33.87451171875
42.1142578125
32.958984375
46.69189453125
46.69189453125
53.1005859375
52.18505859375
50.35400390625
54.01611328125
53.1005859375
41.19873046875
36.62109375
31.1279296875
24.71923828125
25.634765625
50.35400390625
63.17138671875
56.7626953125
55.84716796875
57.67822265625
47.607421875
50.35400390625
46.69189453125
35.70556640625
50.35400390625
48.52294921875
47.607421875
40.283203125
43.9453125
41.19873046875
36.62109375
32.04345703125
30.21240234375
29.296875
33.87451171875
40.283203125
41.19873046875
43.02978515625
34.7900390625
32.958984375
37.53662109375
29.296875
32.958984375
24.71923828125
32.958984375
31.1279296875
30.21240234375
32.04345703125
23.8037109375
17.39501953125
20.1416015625
9.1552734375
7.32421875
13.73291015625
16.4794921875
12.8173828125
9.1552734375
27.4658203125
16.4794921875
10.07080078125
7.32421875
8.23974609375
11.90185546875
3.662109375
3.662109375
6.40869140625
-0.91552734375
7.32421875
7.32421875
4.57763671875
6.40869140625
10.07080078125
6.40869140625
8.23974609375
10.986328125
8.23974609375
10.986328125
10.07080078125
3.662109375
6.40869140625
13.73291015625
14.6484375
9.1552734375
10.986328125
21.97265625
41.19873046875
47.607421875
51.26953125
52.18505859375
59.50927734375
53.1005859375
61.34033203125
58.59375
60.4248046875
71.4111328125
64.0869140625
58.59375
55.84716796875
48.52294921875
43.02978515625
49.4384765625
55.84716796875
69.580078125
75.0732421875
73.2421875
81.48193359375
83.31298828125
81.48193359375
78.7353515625
75.98876953125
80.56640625
68.66455078125
69.580078125
67.7490234375
65.00244140625
58.59375
58.59375
55.84716796875
39.36767578125
29.296875
20.1416015625
21.97265625
17.39501953125
6.40869140625
3.662109375
0
1.8310546875
-3.662109375
-16.4794921875
-21.05712890625
-32.958984375
-32.958984375
-18.310546875
-13.73291015625
-6.40869140625
0
-2.74658203125
-5.4931640625
-7.32421875
-13.73291015625
-21.05712890625
-26.55029296875
-18.310546875
-20.1416015625
-8.23974609375
-18.310546875
-5.4931640625
7.32421875
-10.07080078125
-18.310546875
-22.88818359375
-12.8173828125
-11.90185546875
-11.90185546875
-1.8310546875
0
-8.23974609375
-10.986328125
-5.4931640625
-4.57763671875
4.57763671875
28.38134765625
43.9453125
44.86083984375
68.66455078125
84.228515625
81.48193359375
83.31298828125
94.29931640625
106.201171875
101.62353515625
115.3564453125
132.75146484375
151.06201171875
176.69677734375
191.34521484375
172.119140625
134.58251953125
20.1416015625
-152.89306640625
-318.603515625
-497.13134765625
-708.6181640625
-828.55224609375
-902.7099609375
-986.02294921875
-1006.16455078125
-956.72607421875
-899.0478515625
-852.35595703125
-784.60693359375
-711.36474609375
-630.79833984375
-581.35986328125
-533.75244140625
-482.48291015625
-425.72021484375
-384.521484375
-362.548828125
-331.4208984375
-302.1240234375
-278.3203125
-262.75634765625
-238.95263671875
-216.064453125
-207.82470703125
-212.40234375
-193.17626953125
-181.2744140625
-178.52783203125
-175.78125
-176.69677734375
-173.9501953125
-164.794921875
-143.73779296875
-143.73779296875
-137.3291015625
-129.08935546875
-122.6806640625
-120.849609375
-120.849609375
-113.525390625
-94.29931640625
-85.14404296875
-77.81982421875
-62.255859375
-60.4248046875
-59.50927734375
-44.86083984375
-29.296875
-2.74658203125
17.39501953125
20.1416015625
31.1279296875
44.86083984375
55.84716796875
75.0732421875
65.91796875
58.59375
67.7490234375
69.580078125
68.66455078125
72.32666015625
91.552734375
88.80615234375
92.46826171875
87.890625
91.552734375
102.5390625
102.5390625
97.96142578125
94.29931640625
98.876953125
94.29931640625
93.3837890625
108.0322265625
99.79248046875
108.0322265625
106.201171875
116.27197265625
115.3564453125
110.77880859375
122.6806640625
