ECG
-245.361328125
-246.27685546875
-237.12158203125
-227.05078125
-230.712890625
-236.2060546875
-250.8544921875
-241.69921875
-246.27685546875
-260.92529296875
-254.5166015625
-243.5302734375
-239.8681640625
-243.5302734375
-249.0234375
-246.27685546875
-240.78369140625
-242.61474609375
-249.93896484375
-259.09423828125
-267.333984375
-257.26318359375
-249.93896484375
-250.8544921875
-254.5166015625
-251.77001953125
-246.27685546875
-246.27685546875
-261.8408203125
-267.333984375
-277.40478515625
-274.658203125
-259.09423828125
-256.34765625
-252.685546875
-245.361328125
-258.1787109375
-269.1650390625
-259.09423828125
-258.1787109375
-268.24951171875
-265.5029296875
-258.1787109375
-257.26318359375
-269.1650390625
-278.3203125
-267.333984375
-260.92529296875
-254.5166015625
-249.93896484375
-276.4892578125
-289.306640625
-269.1650390625
-274.658203125
-279.23583984375
-267.333984375
-268.24951171875
-264.58740234375
-268.24951171875
-264.58740234375
-223.388671875
-177.6123046875
-168.45703125
-179.443359375
-173.03466796875
-172.119140625
-174.86572265625
-181.2744140625
-194.091796875
-195.00732421875
-193.17626953125
-182.18994140625
-167.54150390625
-159.3017578125
-162.04833984375
-144.6533203125
-164.794921875
-157.470703125
-166.6259765625
-161.1328125
-159.3017578125
-162.9638671875
-166.6259765625
-156.55517578125
-163.87939453125
-195.9228515625
-172.119140625
-164.794921875
-163.87939453125
-194.091796875
-214.2333984375
-200.50048828125
-210.5712890625
-232.5439453125
-242.61474609375
-237.12158203125
-255.43212890625
-260.92529296875
-281.06689453125
-270.99609375
-261.8408203125
-283.8134765625
-288.39111328125
-270.99609375
-234.375
-227.96630859375
-248.10791015625
-238.95263671875
-242.61474609375
-253.60107421875
-260.009765625
-259.09423828125
-264.58740234375
-260.009765625
-258.1787109375
-252.685546875
-259.09423828125
-276.4892578125
-274.658203125
-271.91162109375
-270.99609375
-279.23583984375
-282.89794921875
-289.306640625
-278.3203125
-258.1787109375
-229.79736328125
-217.8955078125
-172.119140625
-95.21484375
-35.70556640625
43.02978515625
166.6259765625
278.3203125
348.81591796875
445.86181640625
545.654296875
628.96728515625
672.91259765625
680.23681640625
657.3486328125
563.96484375
401.0009765625
213.31787109375
1.8310546875
-184.9365234375
-306.70166015625
-388.18359375
-426.6357421875
-447.69287109375
-465.087890625
-437.6220703125
-392.76123046875
-352.47802734375
-313.1103515625
-286.56005859375
-247.1923828125
-242.61474609375
-244.44580078125
-239.8681640625
-218.81103515625
-222.47314453125
-228.8818359375
-237.12158203125
-238.037109375
-237.12158203125
-235.29052734375
-231.62841796875
-245.361328125
-247.1923828125
-244.44580078125
-224.30419921875
-208.740234375
-212.40234375
-217.8955078125
-203.2470703125
-207.82470703125
-214.2333984375
-217.8955078125
-231.62841796875
-229.79736328125
-235.29052734375
-236.2060546875
-217.8955078125
-207.82470703125
-210.5712890625
-213.31787109375
-217.8955078125
-229.79736328125
-238.95263671875
-224.30419921875
-217.8955078125
-215.14892578125
-209.65576171875
-192.2607421875
-210.5712890625
-212.40234375
-194.091796875
-199.5849609375
-205.078125
-207.82470703125
-191.34521484375
-170.2880859375
-163.87939453125
-167.54150390625
-170.2880859375
-159.3017578125
-172.119140625
-186.767578125
-166.6259765625
-151.9775390625
-161.1328125
-146.484375
-143.73779296875
-131.8359375
-113.525390625
-114.44091796875
-130.92041015625
-133.6669921875
-124.51171875
-121.76513671875
-110.77880859375
-111.6943359375
-105.28564453125
-104.3701171875
-80.56640625
-72.32666015625
-81.48193359375
-85.14404296875
-62.255859375
-60.4248046875
-54.01611328125
-39.36767578125
-29.296875
-25.634765625
-21.97265625
-7.32421875
-12.8173828125
-20.1416015625
-0.91552734375
0.91552734375
0.91552734375
0
13.73291015625
33.87451171875
47.607421875
54.931640625
55.84716796875
60.4248046875
61.34033203125
76.904296875
75.98876953125
83.31298828125
74.15771484375
75.0732421875
85.14404296875
82.3974609375
79.65087890625
90.63720703125
107.11669921875
87.890625
85.14404296875
80.56640625
79.65087890625
82.3974609375
65.91796875
40.283203125
40.283203125
14.6484375
-4.57763671875
-10.986328125
-23.8037109375
-36.62109375
-44.86083984375
-58.59375
-51.26953125
-75.98876953125
-100.7080078125
-123.59619140625
-128.173828125
-139.16015625
-153.80859375
-162.9638671875
-171.20361328125
-179.443359375
-181.2744140625
-202.33154296875
-203.2470703125
-197.75390625
-189.51416015625
-201.416015625
-227.96630859375
-225.2197265625
-203.2470703125
-203.2470703125
-210.5712890625
-203.2470703125
-203.2470703125
-216.97998046875
-232.5439453125
-222.47314453125
-221.5576171875
-229.79736328125
-233.45947265625
-230.712890625
-215.14892578125
-205.99365234375
-226.13525390625
-227.05078125
-230.712890625
-212.40234375
-208.740234375
-217.8955078125
-208.740234375
-203.2470703125
-218.81103515625
-227.96630859375
-227.96630859375
-234.375
-241.69921875
-232.5439453125
-233.45947265625
-233.45947265625
-231.62841796875
-233.45947265625
-220.64208984375
-219.7265625
-219.7265625
-213.31787109375
-221.5576171875
-243.5302734375
-238.95263671875
-217.8955078125
-209.65576171875
-196.83837890625
-201.416015625
-212.40234375
-220.64208984375
-204.16259765625
-203.2470703125
-225.2197265625
-227.05078125
-232.5439453125
-214.2333984375
-199.5849609375
-192.2607421875
-200.50048828125
-209.65576171875
-203.2470703125
-208.740234375
-201.416015625
-211.48681640625
-216.97998046875
-210.5712890625
-215.14892578125
-231.62841796875
-229.79736328125
-229.79736328125
-218.81103515625
-195.9228515625
-215.14892578125
-228.8818359375
-225.2197265625
-216.97998046875
-210.5712890625
-206.9091796875
-222.47314453125
-234.375
-233.45947265625
-229.79736328125
-238.95263671875
-254.5166015625
-239.8681640625
-229.79736328125
-247.1923828125
-238.95263671875
-224.30419921875
-245.361328125
-228.8818359375
-228.8818359375
-249.0234375
-264.58740234375
-239.8681640625
-232.5439453125
-256.34765625
-247.1923828125
-250.8544921875
-237.12158203125
-248.10791015625
-264.58740234375
-258.1787109375
-234.375
-235.29052734375
-253.60107421875
-244.44580078125
-226.13525390625
-233.45947265625
-255.43212890625
-271.91162109375
-263.671875
-236.2060546875
-233.45947265625
-244.44580078125
-247.1923828125
-246.27685546875
-227.05078125
-231.62841796875
-249.93896484375
-275.57373046875
-282.89794921875
-263.671875
-230.712890625
-238.037109375
-241.69921875
-260.009765625
-254.5166015625
-234.375
-230.712890625
-234.375
-239.8681640625
-258.1787109375
-233.45947265625
-224.30419921875
-248.10791015625
-234.375
-240.78369140625
-239.8681640625
-230.712890625
-252.685546875
-248.10791015625
-252.685546875
-244.44580078125
-249.93896484375
-252.685546875
-252.685546875
-258.1787109375
-252.685546875
-246.27685546875
-242.61474609375
-244.44580078125
-252.685546875
-252.685546875
-261.8408203125
-252.685546875
-246.27685546875
-235.29052734375
-253.60107421875
-270.99609375
-248.10791015625
-237.12158203125
-246.27685546875
-238.95263671875
-249.0234375
-257.26318359375
-239.8681640625
-235.29052734375
-227.05078125
-228.8818359375
-238.95263671875
-252.685546875
-252.685546875
-252.685546875
-249.93896484375
-240.78369140625
-241.69921875
-249.0234375
-250.8544921875
-257.26318359375
-252.685546875
-249.93896484375
-250.8544921875
-264.58740234375
-249.93896484375
-247.1923828125
-249.93896484375
-261.8408203125
-246.27685546875
-243.5302734375
-242.61474609375
-238.037109375
-235.29052734375
-238.95263671875
-248.10791015625
-243.5302734375
-234.375
-241.69921875
-244.44580078125
-232.5439453125
-221.5576171875
-226.13525390625
-235.29052734375
-237.12158203125
-227.96630859375
-205.078125
-176.69677734375
-190.4296875
-188.5986328125
-175.78125
-199.5849609375
-201.416015625
-190.4296875
-177.6123046875
-151.9775390625
-177.6123046875
-185.85205078125
-162.04833984375
-141.90673828125
-139.16015625
-146.484375
-151.06201171875
-149.23095703125
-162.04833984375
-186.767578125
-168.45703125
-164.794921875
-170.2880859375
-164.794921875
-162.9638671875
-173.9501953125
-171.20361328125
-170.2880859375
-176.69677734375
-180.35888671875
-206.9091796875
-210.5712890625
-204.16259765625
-217.8955078125
-240.78369140625
-226.13525390625
-243.5302734375
-275.57373046875
-258.1787109375
-236.2060546875
-219.7265625
-226.13525390625
-265.5029296875
-259.09423828125
-243.5302734375
-279.23583984375
-285.64453125
-266.41845703125
-232.5439453125
-238.95263671875
-242.61474609375
-256.34765625
-236.2060546875
-260.92529296875
-282.89794921875
-292.96875
-294.7998046875
-263.671875
-248.10791015625
-236.2060546875
-253.60107421875
-265.5029296875
-257.26318359375
-236.2060546875
-216.064453125
-210.5712890625
-130.92041015625
-63.17138671875
10.986328125
77.81982421875
184.02099609375
279.23583984375
321.35009765625
442.19970703125
548.40087890625
584.1064453125
633.544921875
691.22314453125
658.26416015625
524.59716796875
391.845703125
184.9365234375
-39.36767578125
-232.5439453125
-380.859375
-433.9599609375
-468.75
-458.67919921875
-484.31396484375
-483.3984375
-413.818359375
-320.4345703125
-284.72900390625
-273.74267578125
-260.92529296875
-256.34765625
-249.0234375
-253.60107421875
-249.93896484375
-243.5302734375
-237.12158203125
-236.2060546875
-238.95263671875
-232.5439453125
-225.2197265625
-233.45947265625
-243.5302734375
-260.92529296875
-259.09423828125
-244.44580078125
-238.037109375
-233.45947265625
-230.712890625
-222.47314453125
-223.388671875
-205.99365234375
-225.2197265625
-213.31787109375
-224.30419921875
-233.45947265625
-206.9091796875
-205.078125
-192.2607421875
-213.31787109375
-230.712890625
-224.30419921875
-230.712890625
-232.5439453125
-218.81103515625
-199.5849609375
-193.17626953125
-212.40234375
-198.66943359375
-203.2470703125
-215.14892578125
-195.00732421875
-177.6123046875
-205.99365234375
-227.96630859375
-220.64208984375
-198.66943359375
-184.02099609375
-151.06201171875
-169.37255859375
-181.2744140625
-171.20361328125
-175.78125
-185.85205078125
-159.3017578125
-150.146484375
-145.56884765625
-141.90673828125
-162.9638671875
-143.73779296875
-132.75146484375
-137.3291015625
-125.42724609375
-122.6806640625
-110.77880859375
-128.173828125
-123.59619140625
-119.0185546875
-94.29931640625
-86.0595703125
-76.904296875
-86.0595703125
-101.62353515625
-87.890625
-75.0732421875
-62.255859375
-62.255859375
-46.69189453125
-26.55029296875
-32.04345703125
-28.38134765625
-21.97265625
-26.55029296875
-21.05712890625
-16.4794921875
3.662109375
14.6484375
28.38134765625
28.38134765625
23.8037109375
35.70556640625
40.283203125
39.36767578125
40.283203125
46.69189453125
63.17138671875
66.83349609375
70.49560546875
72.32666015625
63.17138671875
61.34033203125
71.4111328125
59.50927734375
69.580078125
66.83349609375
67.7490234375
77.81982421875
91.552734375
53.1005859375
56.7626953125
32.04345703125
20.1416015625
0
-1.8310546875
-12.8173828125
-24.71923828125
-37.53662109375
-48.52294921875
-58.59375
-73.2421875
-79.65087890625
-103.45458984375
-133.6669921875
-143.73779296875
-144.6533203125
-157.470703125
-154.72412109375
-163.87939453125
-171.20361328125
-182.18994140625
-197.75390625
-214.2333984375
-217.8955078125
-223.388671875
-228.8818359375
-222.47314453125
-224.30419921875
-233.45947265625
-233.45947265625
-236.2060546875
-246.27685546875
-235.29052734375
-250.8544921875
-252.685546875
-252.685546875
-249.93896484375
-253.60107421875
-249.93896484375
-246.27685546875
-240.78369140625
-250.8544921875
-241.69921875
-251.77001953125
-246.27685546875
-253.60107421875
-254.5166015625
-252.685546875
-256.34765625
-253.60107421875
-244.44580078125
-256.34765625
-270.08056640625
-264.58740234375
-264.58740234375
-244.44580078125
-251.77001953125
-263.671875
-258.1787109375
-238.95263671875
-226.13525390625
-232.5439453125
-247.1923828125
-259.09423828125
-244.44580078125
-236.2060546875
-250.8544921875
-238.037109375
-228.8818359375
-227.96630859375
-217.8955078125
-236.2060546875
-247.1923828125
-239.8681640625
-248.10791015625
-237.12158203125
-227.05078125
-235.29052734375
-236.2060546875
-228.8818359375
-227.96630859375
-226.13525390625
-238.95263671875
-240.78369140625
-249.0234375
-245.361328125
-238.95263671875
-242.61474609375
-238.95263671875
-228.8818359375
-235.29052734375
-246.27685546875
-240.78369140625
-260.009765625
-239.8681640625
-238.95263671875
-245.361328125
-238.95263671875
-241.69921875
-238.037109375
-231.62841796875
-235.29052734375
-247.1923828125
-246.27685546875
-251.77001953125
-244.44580078125
-243.5302734375
-242.61474609375
-243.5302734375
-243.5302734375
-238.037109375
-234.375
-238.037109375
-246.27685546875
-245.361328125
-245.361328125
-262.75634765625
-255.43212890625
-255.43212890625
-260.92529296875
-256.34765625
-254.5166015625
-252.685546875
-257.26318359375
-257.26318359375
-249.93896484375
-269.1650390625
-270.99609375
-277.40478515625
-274.658203125
-279.23583984375
-270.08056640625
-270.99609375
-250.8544921875
-252.685546875
-253.60107421875
-270.08056640625
-268.24951171875
-262.75634765625
-256.34765625
-258.1787109375
-259.09423828125
-260.92529296875
-277.40478515625
-270.08056640625
-265.5029296875
-252.685546875
-260.92529296875
-266.41845703125
-252.685546875
-252.685546875
-257.26318359375
-262.75634765625
-271.91162109375
-265.5029296875
-258.1787109375
-260.009765625
-270.99609375
-265.5029296875
-247.1923828125
-256.34765625
-268.24951171875
-270.08056640625
-270.99609375
-278.3203125
-269.1650390625
-273.74267578125
-267.333984375
-272.8271484375
-276.4892578125
-263.671875
-278.3203125
-277.40478515625
-284.72900390625
-283.8134765625
-272.8271484375
-260.009765625
-255.43212890625
-262.75634765625
-258.1787109375
-244.44580078125
-253.60107421875
-250.8544921875
-267.333984375
-261.8408203125
-253.60107421875
-239.8681640625
-221.5576171875
-209.65576171875
-196.83837890625
-190.4296875
-199.5849609375
-213.31787109375
-221.5576171875
-235.29052734375
-229.79736328125
-203.2470703125
-184.9365234375
-177.6123046875
-182.18994140625
-177.6123046875
-169.37255859375
-190.4296875
-181.2744140625
-175.78125
-173.9501953125
-180.35888671875
-195.9228515625
-202.33154296875
-200.50048828125
-210.5712890625
-211.48681640625
-213.31787109375
-217.8955078125
-201.416015625
-213.31787109375
-234.375
-236.2060546875
-247.1923828125
-244.44580078125
-260.92529296875
-266.41845703125
-273.74267578125
-269.1650390625
-275.57373046875
-284.72900390625
-290.22216796875
-295.71533203125
-292.96875
-290.22216796875
-282.89794921875
-282.89794921875
-287.4755859375
-300.29296875
-300.29296875
-298.4619140625
-295.71533203125
-297.54638671875
-302.1240234375
-306.70166015625
-305.7861328125
-311.279296875
-305.7861328125
-295.71533203125
-296.630859375
-302.1240234375
-312.19482421875
-308.53271484375
-307.6171875
-306.70166015625
-256.34765625
-219.7265625
-165.71044921875
-107.11669921875
-43.02978515625
15.56396484375
101.62353515625
199.5849609375
292.96875
391.845703125
491.63818359375
569.4580078125
623.47412109375
693.05419921875
650.0244140625
554.8095703125
411.07177734375
200.50048828125
-19.22607421875
-230.712890625
-345.15380859375
-421.142578125
-479.736328125
-509.94873046875
-515.44189453125
-495.30029296875
-456.84814453125
-389.09912109375
-324.0966796875
-303.03955078125
-296.630859375
-280.1513671875
-274.658203125
-275.57373046875
-271.91162109375
-259.09423828125
-258.1787109375
-260.92529296875
-264.58740234375
-269.1650390625
-285.64453125
-281.06689453125
-259.09423828125
-255.43212890625
-274.658203125
-268.24951171875
-254.5166015625
-260.009765625
-251.77001953125
-249.0234375
-266.41845703125
-280.1513671875
-279.23583984375
-270.99609375
-259.09423828125
-244.44580078125
-266.41845703125
-264.58740234375
-253.60107421875
-257.26318359375
-249.0234375
-238.037109375
-263.671875
-256.34765625
-249.93896484375
-245.361328125
-242.61474609375
-242.61474609375
-239.8681640625
-228.8818359375
-233.45947265625
-226.13525390625
-227.96630859375
-221.5576171875
-223.388671875
-213.31787109375
-213.31787109375
-219.7265625
-222.47314453125
-215.14892578125
-195.00732421875
-198.66943359375
-206.9091796875
-199.5849609375
-193.17626953125
-199.5849609375
-189.51416015625
-184.02099609375
-184.9365234375
-170.2880859375
-177.6123046875
-173.03466796875
-168.45703125
-162.04833984375
-173.9501953125
-165.71044921875
-161.1328125
-140.07568359375
-119.0185546875
-121.76513671875
-106.201171875
-112.60986328125
-117.1875
-113.525390625
-107.11669921875
-99.79248046875
-98.876953125
-83.31298828125
-61.34033203125
-51.26953125
-53.1005859375
-45.7763671875
-37.53662109375
-47.607421875
-37.53662109375
-34.7900390625
-15.56396484375
-17.39501953125
-9.1552734375
13.73291015625
22.88818359375
21.97265625
10.07080078125
11.90185546875
16.4794921875
30.21240234375
42.1142578125
30.21240234375
35.70556640625
56.7626953125
49.4384765625
45.7763671875
34.7900390625
27.4658203125
35.70556640625
46.69189453125
45.7763671875
47.607421875
28.38134765625
8.23974609375
-10.07080078125
-22.88818359375
-32.04345703125
-48.52294921875
-67.7490234375
-76.904296875
-81.48193359375
-86.0595703125
-108.94775390625
-116.27197265625
-129.08935546875
-156.55517578125
-170.2880859375
-173.03466796875
-172.119140625
-191.34521484375
-201.416015625
-204.16259765625
-227.96630859375
-236.2060546875
-227.05078125
-201.416015625
-229.79736328125
-256.34765625
-268.24951171875
-262.75634765625
-251.77001953125
-245.361328125
-257.26318359375
-264.58740234375
-260.009765625
-254.5166015625
-258.1787109375
-257.26318359375
-260.009765625
-272.8271484375
-264.58740234375
-267.333984375
-268.24951171875
-256.34765625
-259.09423828125
-268.24951171875
-282.89794921875
-275.57373046875
-283.8134765625
-294.7998046875
-294.7998046875
-278.3203125
-275.57373046875
-274.658203125
-280.1513671875
-267.333984375
-257.26318359375
-259.09423828125
-254.5166015625
-267.333984375
-271.91162109375
-270.08056640625
-263.671875
-263.671875
-260.009765625
-257.26318359375
-260.009765625
-270.08056640625
-281.06689453125
-269.1650390625
-246.27685546875
-270.08056640625
-253.60107421875
-256.34765625
-255.43212890625
-254.5166015625
-269.1650390625
-256.34765625
-246.27685546875
-255.43212890625
-252.685546875
-261.8408203125
-263.671875
-258.1787109375
-251.77001953125
-258.1787109375
-261.8408203125
-261.8408203125
-277.40478515625
-265.5029296875
-251.77001953125
-260.92529296875
-268.24951171875
-265.5029296875
-262.75634765625
-256.34765625
-281.982421875
-290.22216796875
-260.009765625
-260.92529296875
-260.009765625
-250.8544921875
-254.5166015625
-255.43212890625
-256.34765625
-257.26318359375
-255.43212890625
-264.58740234375
-274.658203125
-275.57373046875
-279.23583984375
-288.39111328125
-282.89794921875
-272.8271484375
-264.58740234375
-281.982421875
-281.06689453125
-277.40478515625
-275.57373046875
-273.74267578125
-273.74267578125
-279.23583984375
-270.08056640625
-286.56005859375
-293.88427734375
-286.56005859375
-269.1650390625
-298.4619140625
-312.19482421875
-292.96875
-297.54638671875
-302.1240234375
-290.22216796875
-288.39111328125
-274.658203125
-284.72900390625
-292.96875
-299.37744140625
-287.4755859375
-271.91162109375
-273.74267578125
-291.1376953125
-303.955078125
-292.05322265625
-292.96875
-292.05322265625
-287.4755859375
-295.71533203125
-309.4482421875
-312.19482421875
-302.1240234375
-283.8134765625
-292.05322265625
-297.54638671875
-291.1376953125
-292.05322265625
-295.71533203125
-303.03955078125
-308.53271484375
-304.87060546875
-303.03955078125
-290.22216796875
-281.982421875
-288.39111328125
-282.89794921875
-293.88427734375
-296.630859375
-301.20849609375
-294.7998046875
-292.05322265625
-291.1376953125
-286.56005859375
-285.64453125
-270.08056640625
-270.99609375
-277.40478515625
-255.43212890625
-251.77001953125
-246.27685546875
-235.29052734375
-248.10791015625
-266.41845703125
-258.1787109375
-264.58740234375
-263.671875
-242.61474609375
-216.064453125
-209.65576171875
-215.14892578125
-226.13525390625
-197.75390625
-198.66943359375
-212.40234375
-213.31787109375
-205.99365234375
-196.83837890625
-211.48681640625
-238.037109375
-254.5166015625
-260.92529296875
-259.09423828125
-217.8955078125
-216.064453125
-218.81103515625
-215.14892578125
-233.45947265625
-251.77001953125
-271.91162109375
-282.89794921875
-296.630859375
-299.37744140625
-290.22216796875
-300.29296875
-298.4619140625
-297.54638671875
-305.7861328125
-304.87060546875
-305.7861328125
-314.02587890625
-328.67431640625
-325.927734375
-310.36376953125
-306.70166015625
-324.0966796875
-314.94140625
-312.19482421875
-328.67431640625
-322.265625
-304.87060546875
-332.33642578125
-337.82958984375
-331.4208984375
-324.0966796875
-325.927734375
-326.84326171875
-320.4345703125
-333.251953125
-323.18115234375
-319.51904296875
-301.20849609375
-266.41845703125
-213.31787109375
-151.06201171875
-92.46826171875
-28.38134765625
43.02978515625
140.07568359375
226.13525390625
301.20849609375
418.39599609375
499.8779296875
578.61328125
641.78466796875
668.3349609375
611.572265625
475.15869140625
280.1513671875
39.36767578125
-171.20361328125
-338.7451171875
-441.2841796875
-485.2294921875
-525.5126953125
-542.90771484375
-532.8369140625
-485.2294921875
-419.3115234375
-390.93017578125
-344.23828125
-311.279296875
-305.7861328125
-292.96875
-270.99609375
-277.40478515625
-283.8134765625
-285.64453125
-297.54638671875
-303.955078125
-294.7998046875
-304.87060546875
-310.36376953125
-291.1376953125
-287.4755859375
-289.306640625
-285.64453125
-277.40478515625
-277.40478515625
-275.57373046875
-267.333984375
-264.58740234375
-276.4892578125
-291.1376953125
-287.4755859375
-260.009765625
-260.009765625
-260.92529296875
-263.671875
-265.5029296875
-274.658203125
-273.74267578125
-266.41845703125
-261.8408203125
-251.77001953125
-259.09423828125
-253.60107421875
-244.44580078125
-246.27685546875
-260.009765625
-253.60107421875
-254.5166015625
-235.29052734375
-245.361328125
-248.10791015625
-250.8544921875
-233.45947265625
-204.16259765625
-216.064453125
-226.13525390625
-224.30419921875
-211.48681640625
-218.81103515625
-226.13525390625
-205.99365234375
-194.091796875
-195.9228515625
-205.99365234375
-195.00732421875
-198.66943359375
-199.5849609375
-202.33154296875
-203.2470703125
-193.17626953125
-174.86572265625
-151.9775390625
-158.38623046875
-151.9775390625
-149.23095703125
-138.24462890625
-153.80859375
-164.794921875
-143.73779296875
-129.08935546875
-114.44091796875
-112.60986328125
-99.79248046875
-98.876953125
-93.3837890625
-75.98876953125
-68.66455078125
-68.66455078125
-67.7490234375
-41.19873046875
-59.50927734375
-52.18505859375
-35.70556640625
-27.4658203125
-32.04345703125
-32.958984375
-43.02978515625
-41.19873046875
-26.55029296875
-1.8310546875
10.986328125
35.70556640625
39.36767578125
38.4521484375
21.97265625
15.56396484375
-0.91552734375
9.1552734375
15.56396484375
21.97265625
10.986328125
2.74658203125
8.23974609375
12.8173828125
0
-21.05712890625
-37.53662109375
-43.9453125
-54.931640625
-66.83349609375
-63.17138671875
-71.4111328125
-82.3974609375
-97.96142578125
-117.1875
-137.3291015625
-139.16015625
-156.55517578125
-173.03466796875
-199.5849609375
-200.50048828125
-200.50048828125
-205.078125
-219.7265625
-232.5439453125
-248.10791015625
-248.10791015625
-260.009765625
-281.982421875
-287.4755859375
-267.333984375
-255.43212890625
-263.671875
-281.06689453125
-278.3203125
-281.06689453125
-303.955078125
-307.6171875
-298.4619140625
-294.7998046875
-290.22216796875
-313.1103515625
-315.85693359375
-320.4345703125
-322.265625
-320.4345703125
-309.4482421875
-294.7998046875
-314.94140625
-310.36376953125
-296.630859375
-298.4619140625
-310.36376953125
-299.37744140625
-307.6171875
-312.19482421875
-309.4482421875
-312.19482421875
-323.18115234375
-314.02587890625
-299.37744140625
-282.89794921875
-281.982421875
-283.8134765625
-281.982421875
-291.1376953125
-298.4619140625
-292.05322265625
-280.1513671875
-281.982421875
-287.4755859375
-283.8134765625
-276.4892578125
-273.74267578125
-288.39111328125
-292.96875
-281.06689453125
-289.306640625
-277.40478515625
-286.56005859375
-287.4755859375
-282.89794921875
-280.1513671875
-279.23583984375
-280.1513671875
-285.64453125
-273.74267578125
-278.3203125
-287.4755859375
-279.23583984375
-275.57373046875
-285.64453125
-281.982421875
-285.64453125
-297.54638671875
-290.22216796875
-293.88427734375
-290.22216796875
-266.41845703125
-279.23583984375
-285.64453125
-281.982421875
-277.40478515625
-284.72900390625
-294.7998046875
-309.4482421875
-283.8134765625
-274.658203125
-272.8271484375
-268.24951171875
-275.57373046875
-275.57373046875
-276.4892578125
-285.64453125
-294.7998046875
-292.05322265625
-277.40478515625
-298.4619140625
-287.4755859375
-292.05322265625
-296.630859375
-291.1376953125
-301.20849609375
-293.88427734375
-305.7861328125
-312.19482421875
-306.70166015625
-301.20849609375
-292.05322265625
-299.37744140625
-303.03955078125
-289.306640625
-295.71533203125
-287.4755859375
-296.630859375
-303.955078125
-310.36376953125
-309.4482421875
-312.19482421875
-313.1103515625
-303.955078125
-321.35009765625
-312.19482421875
-288.39111328125
-307.6171875
-322.265625
-327.7587890625
-310.36376953125
-303.03955078125
-313.1103515625
-308.53271484375
-313.1103515625
-303.955078125
-312.19482421875
-328.67431640625
-319.51904296875
-318.603515625
-327.7587890625
-330.50537109375
-327.7587890625
-318.603515625
-315.85693359375
-332.33642578125
-316.7724609375
-323.18115234375
-320.4345703125
-307.6171875
-321.35009765625
-321.35009765625
-317.68798828125
-308.53271484375
-310.36376953125
-312.19482421875
-328.67431640625
-335.99853515625
-332.33642578125
-343.32275390625
-349.7314453125
-325.927734375
-335.99853515625
-336.9140625
-346.0693359375
-341.49169921875
-317.68798828125
-325.01220703125
-315.85693359375
-319.51904296875
-321.35009765625
-328.67431640625
-328.67431640625
-342.4072265625
-338.7451171875
-317.68798828125
-332.33642578125
-343.32275390625
-335.0830078125
-325.01220703125
-320.4345703125
-313.1103515625
-315.85693359375
-315.85693359375
-318.603515625
-306.70166015625
-314.02587890625
-310.36376953125
-310.36376953125
-310.36376953125
-287.4755859375
-281.06689453125
-276.4892578125
-274.658203125
-272.8271484375
-287.4755859375
-296.630859375
-289.306640625
-283.8134765625
-269.1650390625
-246.27685546875
-234.375
-249.0234375
-241.69921875
-250.8544921875
-245.361328125
-237.12158203125
-246.27685546875
-253.60107421875
-274.658203125
-269.1650390625
-260.009765625
-249.93896484375
-259.09423828125
-250.8544921875
-251.77001953125
-255.43212890625
-258.1787109375
-267.333984375
-293.88427734375
-314.94140625
-323.18115234375
-323.18115234375
-321.35009765625
-325.01220703125
-339.66064453125
-343.32275390625
-335.0830078125
-341.49169921875
-347.900390625
-344.23828125
-323.18115234375
-322.265625
-326.84326171875
-344.23828125
-342.4072265625
-347.900390625
-346.98486328125
-354.30908203125
-355.224609375
-352.47802734375
-364.3798828125
-359.80224609375
-354.30908203125
-348.81591796875
-340.576171875
-342.4072265625
-339.66064453125
-353.3935546875
-365.29541015625
-368.0419921875
-373.53515625
-352.47802734375
-322.265625
-290.22216796875
-239.8681640625
-142.822265625
-80.56640625
-38.4521484375
65.91796875
154.72412109375
233.45947265625
344.23828125
457.763671875
527.34375
594.17724609375
644.53125
613.4033203125
500.79345703125
350.64697265625
145.56884765625
-81.48193359375
-270.99609375
-386.3525390625
-469.66552734375
-506.28662109375
-534.66796875
-544.73876953125
-533.75244140625
-504.45556640625
-447.69287109375
-395.5078125
-377.197265625
-359.80224609375
-325.927734375
-323.18115234375
-313.1103515625
-318.603515625
-322.265625
-320.4345703125
-319.51904296875
-329.58984375
-326.84326171875
-320.4345703125
-314.94140625
-314.94140625
-321.35009765625
-321.35009765625
-329.58984375
-342.4072265625
-315.85693359375
-314.94140625
-310.36376953125
-317.68798828125
-308.53271484375
-310.36376953125
-333.251953125
-315.85693359375
-314.94140625
-308.53271484375
-303.955078125
-321.35009765625
-322.265625
-311.279296875
-307.6171875
-296.630859375
-296.630859375
-294.7998046875
-304.87060546875
-289.306640625
-281.982421875
-289.306640625
-282.89794921875
-276.4892578125
-274.658203125
-272.8271484375
-276.4892578125
-282.89794921875
-288.39111328125
-282.89794921875
-284.72900390625
-274.658203125
-260.009765625
-261.8408203125
-264.58740234375
-251.77001953125
-243.5302734375
-248.10791015625
-245.361328125
-247.1923828125
-253.60107421875
-260.92529296875
-257.26318359375
-228.8818359375
-210.5712890625
-215.14892578125
-216.064453125
-211.48681640625
-216.97998046875
-206.9091796875
-199.5849609375
-188.5986328125
-181.2744140625
-167.54150390625
-157.470703125
-151.06201171875
-152.89306640625
-134.58251953125
-127.25830078125
-130.92041015625
-137.3291015625
-128.173828125
-91.552734375
-93.3837890625
-84.228515625
-77.81982421875
-79.65087890625
-86.0595703125
-88.80615234375
-73.2421875
-54.01611328125
-61.34033203125
-54.01611328125
-47.607421875
-28.38134765625
-30.21240234375
-27.4658203125
-13.73291015625
-10.07080078125
-14.6484375
-14.6484375
-1.8310546875
5.4931640625
5.4931640625
13.73291015625
26.55029296875
25.634765625
-10.07080078125
-18.310546875
-18.310546875
-21.05712890625
-17.39501953125
-25.634765625
-43.9453125
-73.2421875
-89.7216796875
-70.49560546875
-90.63720703125
-112.60986328125
-144.6533203125
-155.6396484375
-160.21728515625
-167.54150390625
-169.37255859375
-181.2744140625
-202.33154296875
-220.64208984375
-221.5576171875
-237.12158203125
-250.8544921875
-257.26318359375
-269.1650390625
-277.40478515625
-276.4892578125
-274.658203125
-281.982421875
-284.72900390625
-289.306640625
-300.29296875
-314.94140625
-320.4345703125
-327.7587890625
-316.7724609375
-312.19482421875
-321.35009765625
-327.7587890625
-337.82958984375
-325.927734375
-314.94140625
-315.85693359375
-316.7724609375
-323.18115234375
-322.265625
-325.927734375
-314.94140625
-304.87060546875
-314.02587890625
-299.37744140625
-315.85693359375
-326.84326171875
-330.50537109375
-334.16748046875
-325.01220703125
-316.7724609375
-305.7861328125
-306.70166015625
-313.1103515625
-318.603515625
-313.1103515625
-317.68798828125
-305.7861328125
-303.955078125
-324.0966796875
-322.265625
-315.85693359375
-312.19482421875
-308.53271484375
-308.53271484375
-305.7861328125
-299.37744140625
-289.306640625
-299.37744140625
-312.19482421875
-306.70166015625
-303.955078125
-309.4482421875
-309.4482421875
-306.70166015625
-305.7861328125
-298.4619140625
-327.7587890625
-314.94140625
-291.1376953125
-294.7998046875
-303.955078125
-290.22216796875
-289.306640625
-313.1103515625
-314.94140625
-312.19482421875
-316.7724609375
-310.36376953125
-292.05322265625
-284.72900390625
-287.4755859375
-276.4892578125
-294.7998046875
-300.29296875
-306.70166015625
-319.51904296875
-324.0966796875
-314.02587890625
-308.53271484375
-290.22216796875
-302.1240234375
-294.7998046875
-303.955078125
-306.70166015625
-306.70166015625
-310.36376953125
-316.7724609375
-321.35009765625
-317.68798828125
-312.19482421875
-313.1103515625
-321.35009765625
-319.51904296875
-323.18115234375
-324.0966796875
-313.1103515625
-316.7724609375
-309.4482421875
-312.19482421875
-315.85693359375
-330.50537109375
-338.7451171875
-326.84326171875
-323.18115234375
-325.01220703125
-329.58984375
-325.01220703125
-332.33642578125
-349.7314453125
-339.66064453125
-320.4345703125
-306.70166015625
-325.01220703125
-326.84326171875
-322.265625
-314.94140625
-330.50537109375
-330.50537109375
-306.70166015625
-324.0966796875
-335.99853515625
-329.58984375
-335.99853515625
-329.58984375
-321.35009765625
-337.82958984375
-328.67431640625
-335.0830078125
-335.99853515625
-328.67431640625
-341.49169921875
-354.30908203125
-339.66064453125
-326.84326171875
-325.01220703125
-322.265625
-323.18115234375
-322.265625
-323.18115234375
-328.67431640625
-323.18115234375
-338.7451171875
-338.7451171875
-330.50537109375
-340.576171875
-350.64697265625
-350.64697265625
-336.9140625
-338.7451171875
-345.15380859375
-341.49169921875
-340.576171875
-333.251953125
-327.7587890625
-326.84326171875
-345.15380859375
-348.81591796875
-353.3935546875
-335.99853515625
-339.66064453125
-337.82958984375
-333.251953125
-338.7451171875
-330.50537109375
-326.84326171875
-327.7587890625
-325.01220703125
-327.7587890625
-311.279296875
-308.53271484375
-300.29296875
-300.29296875
-292.96875
-278.3203125
-279.23583984375
-280.1513671875
-292.05322265625
-300.29296875
-286.56005859375
-267.333984375
-249.0234375
-234.375
-234.375
-238.037109375
-266.41845703125
-260.92529296875
-231.62841796875
-244.44580078125
-249.93896484375
-249.93896484375
-254.5166015625
-250.8544921875
-266.41845703125
-259.09423828125
-266.41845703125
-264.58740234375
-252.685546875
-258.1787109375
-266.41845703125
-274.658203125
-287.4755859375
-306.70166015625
-322.265625
-318.603515625
-326.84326171875
-337.82958984375
-340.576171875
-359.80224609375
-351.5625
-355.224609375
-345.15380859375
-338.7451171875
-349.7314453125
-357.0556640625
-354.30908203125
-379.0283203125
-367.12646484375
-342.4072265625
-361.63330078125
-362.548828125
-346.98486328125
-357.0556640625
-368.0419921875
-376.28173828125
-374.45068359375
-351.5625
-348.81591796875
-345.15380859375
-371.7041015625
-370.78857421875
-372.61962890625
-379.94384765625
-368.95751953125
-350.64697265625
-316.7724609375
-294.7998046875
-221.5576171875
-131.8359375
-71.4111328125
0
112.60986328125
229.79736328125
297.54638671875
378.11279296875
495.30029296875
558.4716796875
584.1064453125
601.50146484375
574.951171875
472.412109375
301.20849609375
99.79248046875
-125.42724609375
-303.03955078125
-416.56494140625
-480.65185546875
-513.61083984375
-547.4853515625
-555.72509765625
-527.34375
-480.65185546875
-432.12890625
-381.77490234375
-376.28173828125
-377.197265625
-358.88671875
-352.47802734375
-342.4072265625
-329.58984375
-326.84326171875
-345.15380859375
-314.02587890625
-330.50537109375
-339.66064453125
-333.251953125
-349.7314453125
-354.30908203125
-342.4072265625
-340.576171875
-329.58984375
-325.01220703125
-305.7861328125
-311.279296875
-318.603515625
-317.68798828125
-329.58984375
-333.251953125
-331.4208984375
-322.265625
-321.35009765625
-320.4345703125
-298.4619140625
-306.70166015625
-323.18115234375
-299.37744140625
-300.29296875
-303.955078125
-311.279296875
-311.279296875
-293.88427734375
-282.89794921875
-281.982421875
-286.56005859375
-293.88427734375
-288.39111328125
-286.56005859375
-275.57373046875
-276.4892578125
-274.658203125
-273.74267578125
-260.92529296875
-260.009765625
-250.8544921875
-252.685546875
-264.58740234375
-264.58740234375
-257.26318359375
-255.43212890625
-232.5439453125
-218.81103515625
-210.5712890625
-215.14892578125
-220.64208984375
-233.45947265625
-227.05078125
-224.30419921875
-216.064453125
-196.83837890625
-184.9365234375
-170.2880859375
-153.80859375
-163.87939453125
-173.03466796875
-169.37255859375
-165.71044921875
-162.9638671875
-144.6533203125
-139.16015625
-135.498046875
-123.59619140625
-100.7080078125
-94.29931640625
-92.46826171875
-95.21484375
-84.228515625
-95.21484375
-98.876953125
-75.0732421875
-62.255859375
-58.59375
-47.607421875
-44.86083984375
-43.9453125
-35.70556640625
-33.87451171875
-23.8037109375
-2.74658203125
-5.4931640625
-6.40869140625
-3.662109375
-2.74658203125
14.6484375
21.05712890625
23.8037109375
20.1416015625
21.97265625
15.56396484375
38.4521484375
25.634765625
13.73291015625
1.8310546875
1.8310546875
-15.56396484375
-31.1279296875
-44.86083984375
-45.7763671875
-64.0869140625
-72.32666015625
-82.3974609375
-102.5390625
-111.6943359375
-118.10302734375
-135.498046875
-172.119140625
-194.091796875
-190.4296875
-201.416015625
-192.2607421875
-203.2470703125
-214.2333984375
-217.8955078125
-238.037109375
-249.0234375
-248.10791015625
-273.74267578125
-280.1513671875
-280.1513671875
-275.57373046875
-275.57373046875
-269.1650390625
-268.24951171875
-275.57373046875
-277.40478515625
-289.306640625
-287.4755859375
-283.8134765625
-296.630859375
-292.05322265625
-287.4755859375
-293.88427734375
-298.4619140625
-302.1240234375
-301.20849609375
-295.71533203125
-302.1240234375
-304.87060546875
-314.94140625
-319.51904296875
-313.1103515625
-290.22216796875
-282.89794921875
-287.4755859375
-297.54638671875
-299.37744140625
-298.4619140625
-304.87060546875
-314.94140625
-297.54638671875
-302.1240234375
-296.630859375
-288.39111328125
-287.4755859375
-285.64453125
-284.72900390625
-290.22216796875
-305.7861328125
-289.306640625
-292.05322265625
-304.87060546875
-292.05322265625
-273.74267578125
-276.4892578125
-291.1376953125
-291.1376953125
-293.88427734375
-285.64453125
-287.4755859375
-296.630859375
-293.88427734375
-282.89794921875
-285.64453125
-282.89794921875
-273.74267578125
-288.39111328125
-298.4619140625
-272.8271484375
-268.24951171875
-275.57373046875
-266.41845703125
-270.08056640625
-279.23583984375
-289.306640625
-281.982421875
-278.3203125
-294.7998046875
-280.1513671875
-286.56005859375
-292.96875
-281.982421875
-277.40478515625
-270.08056640625
-266.41845703125
-283.8134765625
-292.05322265625
-292.05322265625
-294.7998046875
-291.1376953125
-294.7998046875
-301.20849609375
-303.03955078125
-309.4482421875
-317.68798828125
-298.4619140625
-305.7861328125
-301.20849609375
-306.70166015625
-305.7861328125
-305.7861328125
-297.54638671875
-297.54638671875
-283.8134765625
-290.22216796875
-299.37744140625
-322.265625
-320.4345703125
-323.18115234375
-317.68798828125
-314.02587890625
-312.19482421875
-322.265625
-331.4208984375
-318.603515625
-311.279296875
-322.265625
-322.265625
-317.68798828125
-313.1103515625
-320.4345703125
-325.927734375
-314.02587890625
-297.54638671875
-303.03955078125
-302.1240234375
-310.36376953125
-315.85693359375
-322.265625
-316.7724609375
-322.265625
-323.18115234375
-312.19482421875
-303.03955078125
-308.53271484375
-302.1240234375
-309.4482421875
-330.50537109375
-340.576171875
-318.603515625
-329.58984375
-335.99853515625
-339.66064453125
-322.265625
-316.7724609375
-319.51904296875
-321.35009765625
-325.01220703125
-321.35009765625
-305.7861328125
-308.53271484375
-313.1103515625
-327.7587890625
-321.35009765625
-315.85693359375
-314.94140625
-328.67431640625
-340.576171875
-348.81591796875
-348.81591796875
-340.576171875
-337.82958984375
-335.0830078125
-335.0830078125
-323.18115234375
-312.19482421875
-321.35009765625
-330.50537109375
-335.99853515625
-335.99853515625
-336.9140625
-331.4208984375
-320.4345703125
-320.4345703125
-321.35009765625
-318.603515625
-321.35009765625
-320.4345703125
-319.51904296875
-306.70166015625
-300.29296875
-296.630859375
-291.1376953125
-272.8271484375
-257.26318359375
-247.1923828125
-263.671875
-273.74267578125
-281.06689453125
-270.08056640625
-263.671875
-262.75634765625
-267.333984375
-258.1787109375
-231.62841796875
-207.82470703125
-218.81103515625
-246.27685546875
-249.0234375
-239.8681640625
-224.30419921875
-209.65576171875
-220.64208984375
-224.30419921875
-217.8955078125
-227.96630859375
-248.10791015625
-260.009765625
-251.77001953125
-239.8681640625
-252.685546875
-253.60107421875
-256.34765625
-269.1650390625
-281.06689453125
-288.39111328125
-303.03955078125
-324.0966796875
-328.67431640625
-333.251953125
-326.84326171875
-319.51904296875
-329.58984375
-327.7587890625
-324.0966796875
-318.603515625
-319.51904296875
-341.49169921875
-351.5625
-344.23828125
-338.7451171875
-325.927734375
-324.0966796875
-333.251953125
-329.58984375
-332.33642578125
-323.18115234375
-335.99853515625
-341.49169921875
-334.16748046875
-336.9140625
-357.0556640625
-349.7314453125
-340.576171875
-342.4072265625
-343.32275390625
-313.1103515625
-309.4482421875
-264.58740234375
-182.18994140625
-86.0595703125
-30.21240234375
56.7626953125
153.80859375
241.69921875
315.85693359375
425.72021484375
505.37109375
567.626953125
632.62939453125
646.3623046875
562.1337890625
435.791015625
243.5302734375
6.40869140625
-203.2470703125
-353.3935546875
-461.42578125
-518.1884765625
-553.89404296875
-565.7958984375
-539.24560546875
-498.046875
-435.791015625
-389.09912109375
-357.0556640625
-347.900390625
-338.7451171875
-318.603515625
-303.955078125
-301.20849609375
-304.87060546875
-296.630859375
-298.4619140625
-294.7998046875
-292.96875
-294.7998046875
-300.29296875
-303.955078125
-303.955078125
-292.05322265625
-293.88427734375
-295.71533203125
-300.29296875
-293.88427734375
-299.37744140625
-292.96875
-296.630859375
-299.37744140625
-290.22216796875
-277.40478515625
-284.72900390625
-292.96875
-285.64453125
-292.05322265625
-303.03955078125
-296.630859375
-304.87060546875
-298.4619140625
-281.982421875
-264.58740234375
-267.333984375
-261.8408203125
-264.58740234375
-260.009765625
-258.1787109375
-254.5166015625
-252.685546875
-254.5166015625
-249.93896484375
-249.93896484375
-253.60107421875
-244.44580078125
-234.375
-225.2197265625
-232.5439453125
-227.05078125
-229.79736328125
-239.8681640625
-231.62841796875
-228.8818359375
-218.81103515625
-217.8955078125
-206.9091796875
-202.33154296875
-189.51416015625
-185.85205078125
-202.33154296875
-203.2470703125
-196.83837890625
-188.5986328125
-184.02099609375
-173.03466796875
-171.20361328125
-144.6533203125
-128.173828125
-142.822265625
-133.6669921875
-125.42724609375
-115.3564453125
-119.93408203125
-117.1875
-103.45458984375
-102.5390625
-93.3837890625
-79.65087890625
-85.14404296875
-73.2421875
-68.66455078125
-56.7626953125
-58.59375
-45.7763671875
-21.05712890625
-25.634765625
-31.1279296875
-21.05712890625
-10.07080078125
-14.6484375
-29.296875
-24.71923828125
-6.40869140625
-6.40869140625
4.57763671875
6.40869140625
15.56396484375
27.4658203125
21.05712890625
21.97265625
19.22607421875
10.986328125
12.8173828125
10.986328125
4.57763671875
1.8310546875
-17.39501953125
-14.6484375
-38.4521484375
-60.4248046875
-70.49560546875
-76.904296875
-70.49560546875
-84.228515625
-109.86328125
-123.59619140625
-137.3291015625
-149.23095703125
-151.9775390625
-174.86572265625
-190.4296875
-182.18994140625
-193.17626953125
-205.078125
-215.14892578125
-230.712890625
-233.45947265625
-241.69921875
-253.60107421875
-265.5029296875
-280.1513671875
-293.88427734375
-281.06689453125
-273.74267578125
-273.74267578125
-276.4892578125
-276.4892578125
-286.56005859375
-294.7998046875
-292.05322265625
-300.29296875
-308.53271484375
-293.88427734375
-286.56005859375
-280.1513671875
-291.1376953125
-292.96875
-300.29296875
-311.279296875
-310.36376953125
-312.19482421875
-304.87060546875
-314.02587890625
-319.51904296875
-305.7861328125
-302.1240234375
-295.71533203125
-302.1240234375
-309.4482421875
-282.89794921875
-287.4755859375
-308.53271484375
-314.02587890625
-296.630859375
-293.88427734375
-286.56005859375
-286.56005859375
-290.22216796875
-296.630859375
-301.20849609375
-295.71533203125
-283.8134765625
-297.54638671875
-296.630859375
-296.630859375
-287.4755859375
-288.39111328125
-269.1650390625
-270.99609375
-288.39111328125
-285.64453125
-291.1376953125
-295.71533203125
-296.630859375
-285.64453125
-275.57373046875
-262.75634765625
-276.4892578125
-280.1513671875
-283.8134765625
-286.56005859375
-277.40478515625
-273.74267578125
-278.3203125
-284.72900390625
-289.306640625
-299.37744140625
-301.20849609375
-292.05322265625
-311.279296875
-318.603515625
-311.279296875
-302.1240234375
-301.20849609375
-297.54638671875
-305.7861328125
-302.1240234375
-305.7861328125
-316.7724609375
-314.02587890625
-313.1103515625
-309.4482421875
-305.7861328125
-307.6171875
-303.03955078125
-310.36376953125
-310.36376953125
-303.955078125
-305.7861328125
-314.02587890625
-326.84326171875
-322.265625
-312.19482421875
-316.7724609375
-320.4345703125
-303.03955078125
-303.955078125
-312.19482421875
-322.265625
-325.927734375
-321.35009765625
-325.01220703125
-314.02587890625
-325.01220703125
-325.01220703125
-319.51904296875
-305.7861328125
-298.4619140625
-308.53271484375
-332.33642578125
-338.7451171875
-344.23828125
-338.7451171875
-321.35009765625
-316.7724609375
-321.35009765625
-335.99853515625
-338.7451171875
-340.576171875
-325.01220703125
-312.19482421875
-321.35009765625
-325.01220703125
-328.67431640625
-332.33642578125
-329.58984375
-323.18115234375
-325.01220703125
-310.36376953125
-314.94140625
-339.66064453125
-347.900390625
-336.9140625
-327.7587890625
-334.16748046875
-319.51904296875
-309.4482421875
-314.02587890625
-334.16748046875
-323.18115234375
-307.6171875
-317.68798828125
-338.7451171875
-338.7451171875
-325.01220703125
-324.0966796875
-321.35009765625
-325.01220703125
-325.01220703125
-336.9140625
-331.4208984375
-320.4345703125
-324.0966796875
-343.32275390625
-338.7451171875
-323.18115234375
-316.7724609375
-312.19482421875
-329.58984375
-336.9140625
-321.35009765625
-303.03955078125
-314.02587890625
-324.0966796875
-336.9140625
-338.7451171875
-323.18115234375
-320.4345703125
-323.18115234375
-332.33642578125
-326.84326171875
-329.58984375
-334.16748046875
-330.50537109375
-335.0830078125
-338.7451171875
-322.265625
-325.01220703125
-323.18115234375
-340.576171875
-342.4072265625
-339.66064453125
-326.84326171875
-337.82958984375
-324.0966796875
-325.01220703125
-326.84326171875
-325.927734375
-332.33642578125
-337.82958984375
-333.251953125
-326.84326171875
-340.576171875
-335.99853515625
-327.7587890625
-324.0966796875
-329.58984375
-327.7587890625
-316.7724609375
-304.87060546875
-289.306640625
-266.41845703125
-264.58740234375
-261.8408203125
-259.09423828125
-258.1787109375
-268.24951171875
-274.658203125
-285.64453125
-275.57373046875
-256.34765625
-239.8681640625
-245.361328125
-241.69921875
-221.5576171875
-231.62841796875
-225.2197265625
-217.8955078125
-217.8955078125
-220.64208984375
-229.79736328125
-241.69921875
-242.61474609375
-257.26318359375
-260.009765625
-244.44580078125
-252.685546875
-260.92529296875
-264.58740234375
-249.0234375
-273.74267578125
-295.71533203125
-310.36376953125
-320.4345703125
-317.68798828125
-309.4482421875
-298.4619140625
-297.54638671875
-314.94140625
-331.4208984375
-332.33642578125
-329.58984375
-336.9140625
-335.0830078125
-335.0830078125
-334.16748046875
-329.58984375
-332.33642578125
-342.4072265625
-348.81591796875
-353.3935546875
-350.64697265625
-356.14013671875
-357.0556640625
-353.3935546875
-352.47802734375
-343.32275390625
-333.251953125
-335.0830078125
-349.7314453125
-358.88671875
-339.66064453125
-346.0693359375
-348.81591796875
-319.51904296875
-278.3203125
-240.78369140625
-184.02099609375
-102.5390625
-51.26953125
18.310546875
105.28564453125
187.68310546875
278.3203125
403.74755859375
497.13134765625
554.8095703125
623.47412109375
622.55859375
557.55615234375
425.72021484375
233.45947265625
4.57763671875
-202.33154296875
-373.53515625
-476.07421875
-536.4990234375
-571.2890625
-586.85302734375
-576.7822265625
-522.76611328125
-445.86181640625
-398.25439453125
-358.88671875
-352.47802734375
-324.0966796875
-305.7861328125
-299.37744140625
-307.6171875
-327.7587890625
-332.33642578125
-311.279296875
-318.603515625
-323.18115234375
-316.7724609375
-317.68798828125
-313.1103515625
-305.7861328125
-298.4619140625
-312.19482421875
-328.67431640625
-308.53271484375
-297.54638671875
-310.36376953125
-315.85693359375
-300.29296875
-297.54638671875
-298.4619140625
-294.7998046875
-289.306640625
-304.87060546875
-302.1240234375
-297.54638671875
-291.1376953125
-285.64453125
-296.630859375
-283.8134765625
-288.39111328125
-283.8134765625
-283.8134765625
-283.8134765625
-271.91162109375
-275.57373046875
-278.3203125
-273.74267578125
-267.333984375
-257.26318359375
-259.09423828125
-257.26318359375
-256.34765625
-261.8408203125
-255.43212890625
-256.34765625
-260.009765625
-240.78369140625
-221.5576171875
-227.96630859375
-230.712890625
-227.96630859375
-222.47314453125
-221.5576171875
-217.8955078125
-211.48681640625
-199.5849609375
-199.5849609375
-198.66943359375
-204.16259765625
-206.9091796875
-190.4296875
-178.52783203125
-184.9365234375
-186.767578125
-183.10546875
-168.45703125
-154.72412109375
-144.6533203125
-137.3291015625
-127.25830078125
-136.41357421875
-125.42724609375
-116.27197265625
-117.1875
-121.76513671875
-109.86328125
-85.14404296875
-74.15771484375
-68.66455078125
-78.7353515625
-87.890625
-90.63720703125
-65.00244140625
-54.931640625
-48.52294921875
-37.53662109375
-22.88818359375
-25.634765625
-9.1552734375
-1.8310546875
-7.32421875
-13.73291015625
-18.310546875
-4.57763671875
4.57763671875
11.90185546875
1.8310546875
20.1416015625
24.71923828125
22.88818359375
25.634765625
10.07080078125
-0.91552734375
-7.32421875
-10.07080078125
-9.1552734375
-10.07080078125
-34.7900390625
-40.283203125
-54.931640625
-70.49560546875
-90.63720703125
-108.0322265625
-105.28564453125
-110.77880859375
-136.41357421875
-149.23095703125
-162.04833984375
-176.69677734375
-185.85205078125
-207.82470703125
-226.13525390625
-233.45947265625
-240.78369140625
-235.29052734375
-242.61474609375
-251.77001953125
-261.8408203125
-271.91162109375
-275.57373046875
-276.4892578125
-283.8134765625
-296.630859375
-289.306640625
-294.7998046875
-289.306640625
-281.982421875
-296.630859375
-294.7998046875
-298.4619140625
-303.955078125
-321.35009765625
-319.51904296875
-319.51904296875
-307.6171875
-313.1103515625
-307.6171875
-300.29296875
-301.20849609375
-310.36376953125
-323.18115234375
-312.19482421875
-316.7724609375
-310.36376953125
-325.927734375
-324.0966796875
-307.6171875
-314.02587890625
-308.53271484375
-314.02587890625
-313.1103515625
-320.4345703125
-310.36376953125
-321.35009765625
-318.603515625
-312.19482421875
-314.02587890625
-310.36376953125
-314.02587890625
-292.05322265625
-289.306640625
-306.70166015625
-316.7724609375
-314.94140625
-309.4482421875
-302.1240234375
-295.71533203125
-300.29296875
-295.71533203125
-292.05322265625
-299.37744140625
-309.4482421875
-291.1376953125
-305.7861328125
-307.6171875
-298.4619140625
-300.29296875
-301.20849609375
-301.20849609375
-288.39111328125
-290.22216796875
-303.03955078125
-306.70166015625
-320.4345703125
-310.36376953125
-299.37744140625
-298.4619140625
-312.19482421875
-296.630859375
-297.54638671875
-310.36376953125
-317.68798828125
-313.1103515625
-313.1103515625
-316.7724609375
-315.85693359375
-315.85693359375
-311.279296875
-309.4482421875
-308.53271484375
-308.53271484375
-327.7587890625
-333.251953125
-328.67431640625
-335.0830078125
-332.33642578125
-335.0830078125
-310.36376953125
-315.85693359375
-316.7724609375
-321.35009765625
-347.900390625
-368.0419921875
-364.3798828125
-334.16748046875
-330.50537109375
-327.7587890625
-330.50537109375
-331.4208984375
-347.900390625
-352.47802734375
-346.98486328125
-346.98486328125
-346.0693359375
-325.927734375
-334.16748046875
-331.4208984375
-341.49169921875
-339.66064453125
-343.32275390625
-360.7177734375
-353.3935546875
-361.63330078125
-362.548828125
-364.3798828125
-358.88671875
-348.81591796875
-345.15380859375
-354.30908203125
-356.14013671875
-364.3798828125
-373.53515625
-376.28173828125
-362.548828125
-358.88671875
-372.61962890625
-364.3798828125
-351.5625
-357.97119140625
-370.78857421875
-376.28173828125
-367.12646484375
-360.7177734375
-367.12646484375
-367.12646484375
-368.0419921875
-364.3798828125
-366.2109375
-362.548828125
-369.873046875
-369.873046875
-368.95751953125
-374.45068359375
-375.3662109375
-378.11279296875
-390.93017578125
-395.5078125
-366.2109375
-366.2109375
-376.28173828125
-365.29541015625
-365.29541015625
-384.521484375
-368.95751953125
-375.3662109375
-368.95751953125
-369.873046875
-368.0419921875
-366.2109375
-370.78857421875
-364.3798828125
-379.94384765625
-379.0283203125
-379.94384765625
-383.60595703125
-386.3525390625
-372.61962890625
-360.7177734375
-351.5625
-365.29541015625
-373.53515625
-364.3798828125
-371.7041015625
-383.60595703125
-394.59228515625
-371.7041015625
-362.548828125
-373.53515625
-360.7177734375
-373.53515625
-373.53515625
-373.53515625
-385.43701171875
-382.6904296875
-368.95751953125
-373.53515625
-370.78857421875
-365.29541015625
-366.2109375
-353.3935546875
-363.46435546875
-376.28173828125
-390.93017578125
-391.845703125
-372.61962890625
-366.2109375
-373.53515625
-368.95751953125
-350.64697265625
-364.3798828125
-373.53515625
-373.53515625
-380.859375
-364.3798828125
-368.0419921875
-372.61962890625
-356.14013671875
-358.88671875
-356.14013671875
-340.576171875
-332.33642578125
-329.58984375
-332.33642578125
-322.265625
-326.84326171875
-336.9140625
-340.576171875
-325.01220703125
-292.96875
-289.306640625
-296.630859375
-311.279296875
-290.22216796875
-283.8134765625
-290.22216796875
-298.4619140625
-297.54638671875
-254.5166015625
-260.009765625
-283.8134765625
-291.1376953125
-300.29296875
-299.37744140625
-292.96875
-299.37744140625
-295.71533203125
-293.88427734375
-302.1240234375
-297.54638671875
-309.4482421875
-345.15380859375
-367.12646484375
-362.548828125
-366.2109375
-352.47802734375
-362.548828125
-368.95751953125
-360.7177734375
-358.88671875
-360.7177734375
-384.521484375
-376.28173828125
-381.77490234375
-393.6767578125
-382.6904296875
-371.7041015625
-381.77490234375
-390.93017578125
-386.3525390625
-375.3662109375
-374.45068359375
-387.26806640625
-407.40966796875
-397.3388671875
-408.3251953125
-408.3251953125
-384.521484375
-390.93017578125
-404.6630859375
-411.07177734375
-393.6767578125
-401.91650390625
-393.6767578125
-379.94384765625
-346.98486328125
-316.7724609375
-254.5166015625
-174.86572265625
-116.27197265625
-55.84716796875
49.4384765625
142.822265625
218.81103515625
320.4345703125
421.142578125
496.2158203125
561.21826171875
591.4306640625
558.4716796875
445.86181640625
282.89794921875
51.26953125
-171.20361328125
-365.29541015625
-475.15869140625
-510.8642578125
-563.04931640625
-594.17724609375
-594.17724609375
-574.951171875
-515.44189453125
-481.5673828125
-438.53759765625
-406.494140625
-392.76123046875
-390.0146484375
-380.859375
-357.97119140625
-350.64697265625
-348.81591796875
-351.5625
-344.23828125
-357.97119140625
-367.12646484375
-363.46435546875
-346.98486328125
-351.5625
-356.14013671875
-362.548828125
-367.12646484375
-368.95751953125
-366.2109375
-357.0556640625
-354.30908203125
-357.97119140625
-356.14013671875
-357.97119140625
-355.224609375
-343.32275390625
-334.16748046875
-355.224609375
-348.81591796875
-335.99853515625
-336.9140625
-346.98486328125
-346.0693359375
-344.23828125
-341.49169921875
-351.5625
-341.49169921875
-337.82958984375
-338.7451171875
-349.7314453125
-355.224609375
-315.85693359375
-323.18115234375
-316.7724609375
-311.279296875
-301.20849609375
-298.4619140625
-306.70166015625
-310.36376953125
-310.36376953125
-316.7724609375
-304.87060546875
-293.88427734375
-282.89794921875
-285.64453125
-287.4755859375
-287.4755859375
-289.306640625
-288.39111328125
-281.06689453125
-281.982421875
-270.99609375
-255.43212890625
-258.1787109375
-251.77001953125
-239.8681640625
-228.8818359375
-235.29052734375
-246.27685546875
-247.1923828125
-233.45947265625
-227.05078125
-198.66943359375
-193.17626953125
-189.51416015625
-189.51416015625
-173.03466796875
-173.9501953125
-175.78125
-161.1328125
-157.470703125
-149.23095703125
-151.06201171875
-150.146484375
-132.75146484375
-123.59619140625
-131.8359375
-127.25830078125
-115.3564453125
-114.44091796875
-96.13037109375
-83.31298828125
-81.48193359375
-76.904296875
-75.0732421875
-71.4111328125
-75.98876953125
-63.17138671875
-58.59375
-57.67822265625
-49.4384765625
-36.62109375
-37.53662109375
-44.86083984375
-36.62109375
-25.634765625
-28.38134765625
-35.70556640625
-62.255859375
-81.48193359375
-87.890625
-92.46826171875
-96.13037109375
-95.21484375
-119.0185546875
-123.59619140625
-128.173828125
-150.146484375
-170.2880859375
-193.17626953125
-211.48681640625
-211.48681640625
-233.45947265625
-253.60107421875
-244.44580078125
-242.61474609375
-265.5029296875
-275.57373046875
-293.88427734375
-303.955078125
-304.87060546875
-311.279296875
-310.36376953125
-311.279296875
-325.01220703125
-317.68798828125
-335.0830078125
-354.30908203125
-346.0693359375
-354.30908203125
-356.14013671875
-350.64697265625
-352.47802734375
-357.0556640625
-350.64697265625
-361.63330078125
-368.0419921875
-368.0419921875
-369.873046875
-361.63330078125
-367.12646484375
-356.14013671875
-362.548828125
-353.3935546875
-341.49169921875
-339.66064453125
-353.3935546875
-348.81591796875
-354.30908203125
-352.47802734375
-361.63330078125
-355.224609375
-346.98486328125
-357.0556640625
-352.47802734375
-351.5625
-348.81591796875
-357.97119140625
-359.80224609375
-367.12646484375
-352.47802734375
-356.14013671875
-356.14013671875
-349.7314453125
-352.47802734375
-346.0693359375
-352.47802734375
-365.29541015625
-365.29541015625
-366.2109375
-354.30908203125
-354.30908203125
-349.7314453125
-335.99853515625
-350.64697265625
-344.23828125
-341.49169921875
-350.64697265625
-351.5625
-357.97119140625
-364.3798828125
-367.12646484375
-357.97119140625
-357.0556640625
-337.82958984375
-340.576171875
-342.4072265625
-348.81591796875
-345.15380859375
-346.98486328125
-354.30908203125
-353.3935546875
-342.4072265625
-346.0693359375
-339.66064453125
-338.7451171875
-342.4072265625
-352.47802734375
-352.47802734375
-362.548828125
-365.29541015625
-359.80224609375
-352.47802734375
-350.64697265625
-356.14013671875
-343.32275390625
-351.5625
-363.46435546875
-359.80224609375
-358.88671875
-363.46435546875
-363.46435546875
-359.80224609375
-368.0419921875
-377.197265625
-370.78857421875
-365.29541015625
-374.45068359375
-372.61962890625
-376.28173828125
-396.42333984375
-382.6904296875
-378.11279296875
-372.61962890625
-354.30908203125
-360.7177734375
-380.859375
-389.09912109375
-382.6904296875
-392.76123046875
-396.42333984375
-388.18359375
-383.60595703125
-382.6904296875
-384.521484375
-379.94384765625
-393.6767578125
-402.83203125
-398.25439453125
-395.5078125
-390.93017578125
-379.94384765625
-379.0283203125
-401.0009765625
-392.76123046875
-383.60595703125
-381.77490234375
-387.26806640625
-394.59228515625
-391.845703125
-396.42333984375
-389.09912109375
-387.26806640625
-384.521484375
-385.43701171875
-387.26806640625
-389.09912109375
-390.93017578125
-400.08544921875
-379.94384765625
-383.60595703125
-398.25439453125
-400.08544921875
-390.93017578125
-384.521484375
-389.09912109375
-383.60595703125
-377.197265625
-395.5078125
-403.74755859375
-412.90283203125
-415.6494140625
-402.83203125
-377.197265625
-382.6904296875
-385.43701171875
-392.76123046875
-399.169921875
-393.6767578125
-410.15625
-413.818359375
-390.93017578125
-399.169921875
-416.56494140625
-407.40966796875
-388.18359375
-380.859375
-403.74755859375
-404.6630859375
-399.169921875
-401.91650390625
-401.0009765625
-403.74755859375
-383.60595703125
-379.94384765625
-379.0283203125
-399.169921875
-404.6630859375
-397.3388671875
-398.25439453125
-387.26806640625
-390.0146484375
-389.09912109375
-381.77490234375
-384.521484375
-385.43701171875
-383.60595703125
-365.29541015625
-363.46435546875
-352.47802734375
-346.0693359375
-337.82958984375
-344.23828125
-317.68798828125
-316.7724609375
-325.01220703125
-334.16748046875
-344.23828125
-331.4208984375
-309.4482421875
-297.54638671875
-284.72900390625
-286.56005859375
-277.40478515625
-281.06689453125
-280.1513671875
-273.74267578125
-291.1376953125
-303.03955078125
-304.87060546875
-311.279296875
-311.279296875
-312.19482421875
-322.265625
-299.37744140625
-306.70166015625
-311.279296875
-317.68798828125
-328.67431640625
-344.23828125
-363.46435546875
-371.7041015625
-372.61962890625
-366.2109375
-373.53515625
-386.3525390625
-379.0283203125
-390.0146484375
-390.0146484375
-393.6767578125
-402.83203125
-402.83203125
-394.59228515625
-393.6767578125
-391.845703125
-408.3251953125
-398.25439453125
-387.26806640625
-394.59228515625
-394.59228515625
-399.169921875
-400.08544921875
-401.0009765625
-401.0009765625
-392.76123046875
-401.91650390625
-392.76123046875
-407.40966796875
-410.15625
-408.3251953125
-409.24072265625
-416.56494140625
-421.142578125
-397.3388671875
-353.3935546875
-305.7861328125
-239.8681640625
-172.119140625
-107.11669921875
-11.90185546875
80.56640625
182.18994140625
268.24951171875
366.2109375
455.01708984375
521.8505859375
555.72509765625
556.640625
495.30029296875
373.53515625
197.75390625
-9.1552734375
-215.14892578125
-382.6904296875
-473.32763671875
-529.1748046875
-575.86669921875
-603.33251953125
-594.17724609375
-557.55615234375
-513.61083984375
-451.35498046875
-411.07177734375
-404.6630859375
-387.26806640625
-379.0283203125
-369.873046875
-371.7041015625
-369.873046875
-381.77490234375
-375.3662109375
-379.0283203125
-387.26806640625
-382.6904296875
-373.53515625
-373.53515625
-370.78857421875
-369.873046875
-374.45068359375
-375.3662109375
-368.0419921875
-361.63330078125
-349.7314453125
-350.64697265625
-359.80224609375
-344.23828125
-352.47802734375
-349.7314453125
-361.63330078125
-369.873046875
-347.900390625
-366.2109375
-368.95751953125
-338.7451171875
-350.64697265625
-355.224609375
-349.7314453125
-334.16748046875
-336.9140625
-341.49169921875
-334.16748046875
-326.84326171875
-349.7314453125
-337.82958984375
-332.33642578125
-328.67431640625
-323.18115234375
-310.36376953125
-309.4482421875
-314.02587890625
-318.603515625
-319.51904296875
-321.35009765625
-326.84326171875
-319.51904296875
-310.36376953125
-289.306640625
-298.4619140625
-300.29296875
-306.70166015625
-295.71533203125
-271.91162109375
-265.5029296875
-259.09423828125
-260.009765625
-256.34765625
-260.92529296875
-269.1650390625
-264.58740234375
-263.671875
-245.361328125
-233.45947265625
-236.2060546875
-245.361328125
-218.81103515625
-214.2333984375
-218.81103515625
-203.2470703125
-192.2607421875
-184.02099609375
-183.10546875
-177.6123046875
-173.03466796875
-160.21728515625
-149.23095703125
-145.56884765625
-150.146484375
-146.484375
-136.41357421875
-139.16015625
-131.8359375
-116.27197265625
-99.79248046875
-97.0458984375
-93.3837890625
-83.31298828125
-86.0595703125
-90.63720703125
-90.63720703125
-91.552734375
-77.81982421875
-56.7626953125
-77.81982421875
-82.3974609375
-56.7626953125
-46.69189453125
-46.69189453125
-54.931640625
-64.0869140625
-66.83349609375
-61.34033203125
-66.83349609375
-65.00244140625
-79.65087890625
-98.876953125
-109.86328125
-111.6943359375
-134.58251953125
-155.6396484375
-177.6123046875
-188.5986328125
-192.2607421875
-208.740234375
-212.40234375
-226.13525390625
-244.44580078125
-254.5166015625
-264.58740234375
-274.658203125
-287.4755859375
-304.87060546875
-305.7861328125
-315.85693359375
-314.94140625
-321.35009765625
-324.0966796875
-335.0830078125
-346.0693359375
-360.7177734375
-357.0556640625
-357.0556640625
-335.99853515625
-346.0693359375
-357.0556640625
-356.14013671875
-337.82958984375
-348.81591796875
-364.3798828125
-377.197265625
-372.61962890625
-372.61962890625
-364.3798828125
-355.224609375
-349.7314453125
-343.32275390625
-347.900390625
-360.7177734375
-355.224609375
-356.14013671875
-357.0556640625
-367.12646484375
-358.88671875
-358.88671875
-348.81591796875
-348.81591796875
-345.15380859375
-362.548828125
-368.0419921875
-368.95751953125
-358.88671875
-351.5625
-354.30908203125
-364.3798828125
-360.7177734375
-361.63330078125
-349.7314453125
-352.47802734375
-356.14013671875
-354.30908203125
-346.98486328125
-354.30908203125
-351.5625
-352.47802734375
-346.98486328125
-338.7451171875
-325.01220703125
-325.01220703125
-336.9140625
-348.81591796875
-351.5625
-357.97119140625
-349.7314453125
-335.99853515625
-353.3935546875
-356.14013671875
-346.98486328125
-338.7451171875
-338.7451171875
-345.15380859375
-343.32275390625
-360.7177734375
-355.224609375
-352.47802734375
-357.97119140625
-376.28173828125
-352.47802734375
-334.16748046875
-350.64697265625
-355.224609375
-367.12646484375
-369.873046875
-348.81591796875
-337.82958984375
-337.82958984375
-344.23828125
-350.64697265625
-359.80224609375
-368.0419921875
-380.859375
-364.3798828125
-366.2109375
-373.53515625
-373.53515625
-359.80224609375
-351.5625
-363.46435546875
-365.29541015625
-378.11279296875
-373.53515625
-367.12646484375
-364.3798828125
-378.11279296875
-385.43701171875
-385.43701171875
-388.18359375
-371.7041015625
-357.97119140625
-366.2109375
-359.80224609375
-371.7041015625
-385.43701171875
-375.3662109375
-378.11279296875
-379.94384765625
-378.11279296875
-385.43701171875
-379.0283203125
-374.45068359375
-387.26806640625
-397.3388671875
-379.94384765625
-387.26806640625
-392.76123046875
-380.859375
-369.873046875
-369.873046875
-371.7041015625
-380.859375
-390.93017578125
-393.6767578125
-405.57861328125
-408.3251953125
-394.59228515625
-382.6904296875
-385.43701171875
-374.45068359375
-373.53515625
-379.94384765625
-387.26806640625
-389.09912109375
-385.43701171875
-392.76123046875
-381.77490234375
-382.6904296875
-389.09912109375
-374.45068359375
-374.45068359375
-387.26806640625
-395.5078125
-391.845703125
-397.3388671875
-391.845703125
-384.521484375
-398.25439453125
-397.3388671875
-389.09912109375
-389.09912109375
-393.6767578125
-393.6767578125
-403.74755859375
-397.3388671875
-388.18359375
-390.93017578125
-401.0009765625
-398.25439453125
-395.5078125
-396.42333984375
-392.76123046875
-390.0146484375
-394.59228515625
-393.6767578125
-411.07177734375
-401.91650390625
-400.08544921875
-391.845703125
-397.3388671875
-394.59228515625
-383.60595703125
-376.28173828125
-380.859375
-366.2109375
-367.12646484375
-377.197265625
-366.2109375
-364.3798828125
-367.12646484375
-346.98486328125
-330.50537109375
-345.15380859375
-341.49169921875
-327.7587890625
-339.66064453125
-335.99853515625
-333.251953125
-325.927734375
-309.4482421875
-303.03955078125
-303.03955078125
-290.22216796875
-292.05322265625
-308.53271484375
-315.85693359375
-311.279296875
-299.37744140625
-296.630859375
-300.29296875
-307.6171875
-296.630859375
-311.279296875
-321.35009765625
-311.279296875
-322.265625
-318.603515625
-323.18115234375
-339.66064453125
-331.4208984375
-342.4072265625
-347.900390625
-352.47802734375
-383.60595703125
-410.15625
-408.3251953125
-414.73388671875
-407.40966796875
-414.73388671875
-412.90283203125
-406.494140625
-399.169921875
-404.6630859375
-421.142578125
-424.8046875
-418.39599609375
-409.24072265625
-401.91650390625
-412.90283203125
-415.6494140625
-418.39599609375
-406.494140625
-411.9873046875
-418.39599609375
-419.3115234375
-422.05810546875
-426.6357421875
-419.3115234375
-431.21337890625
-430.2978515625
-418.39599609375
-418.39599609375
-426.6357421875
-401.91650390625
-374.45068359375
-342.4072265625
-269.1650390625
-182.18994140625
-126.3427734375
-37.53662109375
68.66455078125
160.21728515625
231.62841796875
327.7587890625
418.39599609375
482.48291015625
531.92138671875
546.56982421875
479.736328125
349.7314453125
164.794921875
-56.7626953125
-281.06689453125
-444.9462890625
-548.40087890625
-603.33251953125
-625.30517578125
-650.0244140625
-639.0380859375
-585.02197265625
-523.681640625
-464.17236328125
-429.38232421875
-419.3115234375
-407.40966796875
-390.0146484375
-391.845703125
-383.60595703125
-384.521484375
-373.53515625
-370.78857421875
-381.77490234375
-391.845703125
-385.43701171875
-383.60595703125
-390.0146484375
-387.26806640625
-385.43701171875
-385.43701171875
-373.53515625
-371.7041015625
-368.0419921875
-390.93017578125
-400.08544921875
-382.6904296875
-372.61962890625
-374.45068359375
-370.78857421875
-373.53515625
-360.7177734375
-364.3798828125
-354.30908203125
-357.97119140625
-374.45068359375
-367.12646484375
-359.80224609375
-364.3798828125
-347.900390625
-357.0556640625
-355.224609375
-345.15380859375
-350.64697265625
-353.3935546875
-341.49169921875
-342.4072265625
-340.576171875
-352.47802734375
-343.32275390625
-334.16748046875
-323.18115234375
-310.36376953125
-314.94140625
-325.01220703125
-344.23828125
-325.01220703125
-294.7998046875
-306.70166015625
-300.29296875
-296.630859375
-289.306640625
-281.982421875
-282.89794921875
-284.72900390625
-281.982421875
-286.56005859375
-281.06689453125
-289.306640625
-271.91162109375
-240.78369140625
-236.2060546875
-238.037109375
-238.95263671875
-233.45947265625
-237.12158203125
-234.375
-213.31787109375
-202.33154296875
-204.16259765625
-196.83837890625
-177.6123046875
-173.9501953125
-167.54150390625
-183.10546875
-173.9501953125
-180.35888671875
-167.54150390625
-153.80859375
-148.3154296875
-123.59619140625
-115.3564453125
-107.11669921875
-105.28564453125
-109.86328125
-106.201171875
-100.7080078125
-111.6943359375
-115.3564453125
-93.3837890625
-73.2421875
-79.65087890625
-88.80615234375
-80.56640625
-73.2421875
-64.0869140625
-71.4111328125
-65.91796875
-54.931640625
-32.04345703125
-46.69189453125
-67.7490234375
-68.66455078125
-57.67822265625
-84.228515625
-102.5390625
-113.525390625
-122.6806640625
-137.3291015625
-156.55517578125
-163.87939453125
-162.04833984375
-185.85205078125
-207.82470703125
-222.47314453125
-229.79736328125
-247.1923828125
-254.5166015625
-273.74267578125
-280.1513671875
-275.57373046875
-287.4755859375
-305.7861328125
-325.01220703125
-317.68798828125
-323.18115234375
-337.82958984375
-352.47802734375
-366.2109375
-355.224609375
-361.63330078125
-361.63330078125
-368.0419921875
-372.61962890625
-375.3662109375
-376.28173828125
-388.18359375
-380.859375
-375.3662109375
-378.11279296875
-372.61962890625
-379.0283203125
-366.2109375
-368.95751953125
-385.43701171875
-393.6767578125
-391.845703125
-382.6904296875
-380.859375
-389.09912109375
-370.78857421875
-378.11279296875
-387.26806640625
-388.18359375
-372.61962890625
-376.28173828125
-384.521484375
-388.18359375
-382.6904296875
-380.859375
-373.53515625
-373.53515625
-368.0419921875
-362.548828125
-365.29541015625
-379.0283203125
-371.7041015625
-366.2109375
-353.3935546875
-366.2109375
-363.46435546875
-356.14013671875
-356.14013671875
-353.3935546875
-360.7177734375
-368.0419921875
-368.95751953125
-368.95751953125
-373.53515625
-369.873046875
-368.0419921875
-353.3935546875
-355.224609375
-368.95751953125
-372.61962890625
-351.5625
-349.7314453125
-360.7177734375
-356.14013671875
-327.7587890625
-334.16748046875
-350.64697265625
-352.47802734375
-364.3798828125
-352.47802734375
-362.548828125
-368.0419921875
-361.63330078125
-352.47802734375
-356.14013671875
-360.7177734375
-368.95751953125
-363.46435546875
-362.548828125
-348.81591796875
-349.7314453125
-359.80224609375
-354.30908203125
-355.224609375
-355.224609375
-350.64697265625
-354.30908203125
-353.3935546875
-356.14013671875
-370.78857421875
-361.63330078125
-360.7177734375
-374.45068359375
-368.95751953125
-378.11279296875
-371.7041015625
-357.0556640625
-364.3798828125
-383.60595703125
-382.6904296875
-370.78857421875
-373.53515625
-367.12646484375
-375.3662109375
-369.873046875
-364.3798828125
-363.46435546875
-372.61962890625
-365.29541015625
-386.3525390625
-404.6630859375
-391.845703125
-381.77490234375
-386.3525390625
-379.94384765625
-384.521484375
-377.197265625
-368.95751953125
-378.11279296875
-377.197265625
-379.0283203125
-368.95751953125
-369.873046875
-370.78857421875
-375.3662109375
-369.873046875
-372.61962890625
-382.6904296875
-390.93017578125
-400.08544921875
-386.3525390625
-368.0419921875
-380.859375
-373.53515625
-377.197265625
-379.0283203125
-361.63330078125
-368.0419921875
-382.6904296875
-382.6904296875
-404.6630859375
-393.6767578125
-379.94384765625
-394.59228515625
-387.26806640625
-382.6904296875
-374.45068359375
-371.7041015625
-374.45068359375
-390.93017578125
-390.93017578125
-389.09912109375
-384.521484375
-386.3525390625
-375.3662109375
-379.94384765625
-384.521484375
-374.45068359375
-376.28173828125
-381.77490234375
-373.53515625
-376.28173828125
-376.28173828125
-390.0146484375
-391.845703125
-385.43701171875
-375.3662109375
-372.61962890625
-379.94384765625
-376.28173828125
-395.5078125
-402.83203125
-391.845703125
-394.59228515625
-386.3525390625
-366.2109375
-366.2109375
-365.29541015625
-368.95751953125
-377.197265625
-388.18359375
-389.09912109375
-391.845703125
-391.845703125
-378.11279296875
-368.0419921875
-371.7041015625
-358.88671875
-378.11279296875
-375.3662109375
-382.6904296875
-382.6904296875
-375.3662109375
-341.49169921875
-327.7587890625
-321.35009765625
-311.279296875
-298.4619140625
-307.6171875
-338.7451171875
-336.9140625
-331.4208984375
-329.58984375
-335.99853515625
-318.603515625
-275.57373046875
-272.8271484375
-264.58740234375
-274.658203125
-284.72900390625
-290.22216796875
-297.54638671875
-296.630859375
-301.20849609375
-299.37744140625
-298.4619140625
-303.03955078125
-293.88427734375
-297.54638671875
-293.88427734375
-294.7998046875
-301.20849609375
-313.1103515625
-306.70166015625
-304.87060546875
-311.279296875
-326.84326171875
-336.9140625
-354.30908203125
-353.3935546875
-364.3798828125
-372.61962890625
-387.26806640625
-398.25439453125
-400.08544921875
-390.93017578125
-381.77490234375
-369.873046875
-385.43701171875
-390.0146484375
-390.0146484375
-384.521484375
-384.521484375
-391.845703125
-393.6767578125
-390.93017578125
-392.76123046875
-385.43701171875
-390.0146484375
-389.09912109375
-395.5078125
-402.83203125
-401.91650390625
-400.08544921875
-397.3388671875
-405.57861328125
-401.0009765625
-399.169921875
-381.77490234375
-335.99853515625
-309.4482421875
-262.75634765625
-173.9501953125
-126.3427734375
-73.2421875
38.4521484375
131.8359375
218.81103515625
309.4482421875
398.25439453125
470.5810546875
527.34375
574.951171875
549.31640625
427.55126953125
259.09423828125
36.62109375
-198.66943359375
-379.0283203125
-520.01953125
-602.4169921875
-636.29150390625
-638.12255859375
-629.8828125
-585.02197265625
-525.5126953125
-462.34130859375
-421.142578125
-401.0009765625
-385.43701171875
-368.95751953125
-359.80224609375
-349.7314453125
-356.14013671875
-365.29541015625
-342.4072265625
-356.14013671875
-362.548828125
-372.61962890625
-363.46435546875
-373.53515625
-376.28173828125
-363.46435546875
-349.7314453125
-352.47802734375
-356.14013671875
-352.47802734375
-342.4072265625
-351.5625
-350.64697265625
-362.548828125
-358.88671875
-345.15380859375
-338.7451171875
-337.82958984375
-345.15380859375
-349.7314453125
-334.16748046875
-325.01220703125
-323.18115234375
-328.67431640625
-332.33642578125
-332.33642578125
-336.9140625
-349.7314453125
-335.0830078125
-321.35009765625
-312.19482421875
-311.279296875
-322.265625
-322.265625
-318.603515625
-315.85693359375
-292.05322265625
-309.4482421875
-303.03955078125
-293.88427734375
-290.22216796875
-290.22216796875
-294.7998046875
-292.96875
-277.40478515625
-285.64453125
-282.89794921875
-274.658203125
-247.1923828125
-240.78369140625
-246.27685546875
-249.93896484375
-249.93896484375
-258.1787109375
-249.0234375
-229.79736328125
-226.13525390625
-229.79736328125
-230.712890625
-209.65576171875
-216.97998046875
-226.13525390625
-216.97998046875
-203.2470703125
-201.416015625
-194.091796875
-189.51416015625
-176.69677734375
-172.119140625
-158.38623046875
-141.90673828125
-149.23095703125
-173.03466796875
-165.71044921875
-147.39990234375
-130.0048828125
-115.3564453125
-125.42724609375
-128.173828125
-107.11669921875
-105.28564453125
-103.45458984375
-96.13037109375
-102.5390625
-86.97509765625
-86.0595703125
-77.81982421875
-73.2421875
-59.50927734375
-38.4521484375
-38.4521484375
-49.4384765625
-43.02978515625
-38.4521484375
-40.283203125
-37.53662109375
-43.02978515625
-46.69189453125
-52.18505859375
-55.84716796875
-59.50927734375
-72.32666015625
-75.0732421875
-102.5390625
-121.76513671875
-131.8359375
-135.498046875
-150.146484375
-157.470703125
-171.20361328125
-163.87939453125
-192.2607421875
-209.65576171875
-237.12158203125
-247.1923828125
-247.1923828125
-252.685546875
-262.75634765625
-272.8271484375
-277.40478515625
-292.05322265625
-302.1240234375
-325.01220703125
-335.0830078125
-325.927734375
-327.7587890625
-319.51904296875
-333.251953125
-325.927734375
-331.4208984375
-344.23828125
-345.15380859375
-366.2109375
-374.45068359375
-374.45068359375
-372.61962890625
-362.548828125
-357.97119140625
-368.0419921875
-359.80224609375
-336.9140625
-337.82958984375
-338.7451171875
-350.64697265625
-372.61962890625
-374.45068359375
-363.46435546875
-353.3935546875
-354.30908203125
-362.548828125
-360.7177734375
-364.3798828125
-357.0556640625
-368.0419921875
-365.29541015625
-357.0556640625
-358.88671875
-359.80224609375
-352.47802734375
-351.5625
-335.99853515625
-346.0693359375
-347.900390625
-360.7177734375
-366.2109375
-349.7314453125
-340.576171875
-346.98486328125
-347.900390625
-348.81591796875
-355.224609375
-356.14013671875
-358.88671875
-348.81591796875
-353.3935546875
-364.3798828125
-360.7177734375
-362.548828125
-354.30908203125
-357.97119140625
-369.873046875
-352.47802734375
-333.251953125
-346.0693359375
-347.900390625
-357.0556640625
-351.5625
-350.64697265625
-363.46435546875
-370.78857421875
-358.88671875
-361.63330078125
-368.95751953125
-356.14013671875
-362.548828125
-363.46435546875
-362.548828125
-353.3935546875
-337.82958984375
-338.7451171875
-340.576171875
-350.64697265625
-334.16748046875
-338.7451171875
-365.29541015625
-365.29541015625
-370.78857421875
-368.95751953125
-367.12646484375
-362.548828125
-365.29541015625
-367.12646484375
-372.61962890625
-382.6904296875
-374.45068359375
-377.197265625
-381.77490234375
-383.60595703125
-373.53515625
-379.0283203125
-370.78857421875
-378.11279296875
-388.18359375
-390.0146484375
-392.76123046875
-379.94384765625
-376.28173828125
-371.7041015625
-378.11279296875
-370.78857421875
-371.7041015625
-378.11279296875
-379.94384765625
-401.91650390625
-401.0009765625
-398.25439453125
-390.93017578125
-393.6767578125
-376.28173828125
-392.76123046875
-390.0146484375
-383.60595703125
-388.18359375
-371.7041015625
-374.45068359375
-387.26806640625
-391.845703125
-388.18359375
-378.11279296875
-378.11279296875
-374.45068359375
-384.521484375
-376.28173828125
-388.18359375
-389.09912109375
-394.59228515625
-399.169921875
-376.28173828125
-373.53515625
-375.3662109375
-379.0283203125
-389.09912109375
-396.42333984375
-381.77490234375
-378.11279296875
-393.6767578125
-390.93017578125
-388.18359375
-393.6767578125
-395.5078125
-399.169921875
-390.0146484375
-382.6904296875
-390.0146484375
-401.0009765625
-404.6630859375
-389.09912109375
-385.43701171875
-382.6904296875
-396.42333984375
-394.59228515625
-393.6767578125
-408.3251953125
-405.57861328125
-404.6630859375
-401.0009765625
-390.0146484375
-395.5078125
-390.0146484375
-382.6904296875
-390.0146484375
-393.6767578125
-390.0146484375
-379.0283203125
-398.25439453125
-401.0009765625
-401.0009765625
-398.25439453125
-386.3525390625
-379.0283203125
-387.26806640625
-395.5078125
-401.0009765625
-399.169921875
-398.25439453125
-396.42333984375
-394.59228515625
-389.09912109375
-381.77490234375
-389.09912109375
-388.18359375
-392.76123046875
-390.0146484375
-392.76123046875
-371.7041015625
-382.6904296875
-390.0146484375
-380.859375
-388.18359375
-373.53515625
-368.95751953125
-341.49169921875
-333.251953125
-323.18115234375
-328.67431640625
-341.49169921875
-337.82958984375
-346.0693359375
-347.900390625
-325.927734375
-303.03955078125
-303.955078125
-297.54638671875
-303.955078125
-322.265625
-308.53271484375
-292.05322265625
-287.4755859375
-297.54638671875
-293.88427734375
-307.6171875
-324.0966796875
-325.927734375
-325.927734375
-325.01220703125
-326.84326171875
-325.01220703125
-327.7587890625
-338.7451171875
-326.84326171875
-338.7451171875
-361.63330078125
-358.88671875
-369.873046875
-377.197265625
-390.93017578125
-389.09912109375
-411.07177734375
-410.15625
-399.169921875
-376.28173828125
-390.0146484375
-405.57861328125
-401.0009765625
-403.74755859375
-401.91650390625
-406.494140625
-409.24072265625
-406.494140625
-400.08544921875
-408.3251953125
-419.3115234375
-415.6494140625
-422.05810546875
-430.2978515625
-424.8046875
-414.73388671875
-402.83203125
-406.494140625
-414.73388671875
-431.21337890625
-436.70654296875
-437.6220703125
-433.9599609375
-403.74755859375
-383.60595703125
-328.67431640625
-260.92529296875
-181.2744140625
-119.93408203125
-33.87451171875
69.580078125
145.56884765625
213.31787109375
330.50537109375
423.88916015625
476.98974609375
542.90771484375
547.4853515625
487.060546875
357.97119140625
166.6259765625
-69.580078125
-281.982421875
-453.18603515625
-545.654296875
-598.7548828125
-620.7275390625
-639.95361328125
-592.34619140625
-559.38720703125
-507.2021484375
-432.12890625
-413.818359375
-401.0009765625
-401.0009765625
-387.26806640625
-381.77490234375
-377.197265625
-375.3662109375
-377.197265625
-391.845703125
-378.11279296875
-374.45068359375
-381.77490234375
-385.43701171875
-390.93017578125
-397.3388671875
-397.3388671875
-388.18359375
-402.83203125
-406.494140625
-383.60595703125
-398.25439453125
-381.77490234375
-386.3525390625
-377.197265625
-386.3525390625
-394.59228515625
-371.7041015625
-352.47802734375
-357.97119140625
-361.63330078125
-368.95751953125
-382.6904296875
-372.61962890625
-369.873046875
-358.88671875
-354.30908203125
-349.7314453125
-354.30908203125
-361.63330078125
-351.5625
-357.0556640625
-346.98486328125
-346.0693359375
-355.224609375
-341.49169921875
-337.82958984375
-340.576171875
-331.4208984375
-323.18115234375
-318.603515625
-326.84326171875
-331.4208984375
-322.265625
-317.68798828125
-310.36376953125
-314.94140625
-302.1240234375
-294.7998046875
-290.22216796875
-294.7998046875
-300.29296875
-295.71533203125
-284.72900390625
-265.5029296875
-270.99609375
-260.92529296875
-265.5029296875
-249.93896484375
-230.712890625
-229.79736328125
-226.13525390625
-227.96630859375
-227.05078125
-219.7265625
-218.81103515625
-203.2470703125
-198.66943359375
-192.2607421875
-173.9501953125
-171.20361328125
-178.52783203125
-175.78125
-160.21728515625
-145.56884765625
-143.73779296875
-134.58251953125
-130.92041015625
-114.44091796875
-107.11669921875
-110.77880859375
-105.28564453125
-104.3701171875
-109.86328125
-101.62353515625
-99.79248046875
-91.552734375
-85.14404296875
-85.14404296875
-71.4111328125
-60.4248046875
-67.7490234375
-62.255859375
-49.4384765625
-44.86083984375
-53.1005859375
-52.18505859375
-47.607421875
-59.50927734375
-69.580078125
-85.14404296875
-72.32666015625
-69.580078125
-86.97509765625
-90.63720703125
-112.60986328125
-132.75146484375
-142.822265625
-156.55517578125
-196.83837890625
-201.416015625
-202.33154296875
-215.14892578125
-230.712890625
-239.8681640625
-248.10791015625
-269.1650390625
-284.72900390625
-274.658203125
-273.74267578125
-307.6171875
-335.99853515625
-314.94140625
-309.4482421875
-316.7724609375
-316.7724609375
-314.94140625
-320.4345703125
-332.33642578125
-342.4072265625
-357.97119140625
-352.47802734375
-346.0693359375
-357.97119140625
-362.548828125
-347.900390625
-352.47802734375
-344.23828125
-351.5625
-358.88671875
-349.7314453125
-361.63330078125
-363.46435546875
-357.0556640625
-361.63330078125
-349.7314453125
-353.3935546875
-346.0693359375
-349.7314453125
-346.98486328125
-355.224609375
-361.63330078125
-355.224609375
-349.7314453125
-348.81591796875
-343.32275390625
-339.66064453125
-337.82958984375
-346.98486328125
-349.7314453125
-338.7451171875
-353.3935546875
-366.2109375
-365.29541015625
-355.224609375
-342.4072265625
-334.16748046875
-331.4208984375
-332.33642578125
-328.67431640625
-341.49169921875
-363.46435546875
-374.45068359375
-368.95751953125
-361.63330078125
-353.3935546875
-354.30908203125
-357.97119140625
-355.224609375
-343.32275390625
-346.98486328125
-345.15380859375
-342.4072265625
-355.224609375
-354.30908203125
-345.15380859375
-337.82958984375
-326.84326171875
-320.4345703125
-325.927734375
-329.58984375
-336.9140625
-339.66064453125
-340.576171875
-335.99853515625
-338.7451171875
-347.900390625
-320.4345703125
-318.603515625
-330.50537109375
-347.900390625
-335.99853515625
-335.99853515625
-338.7451171875
-342.4072265625
-346.98486328125
-340.576171875
-346.98486328125
-350.64697265625
-354.30908203125
-348.81591796875
-354.30908203125
-357.97119140625
-353.3935546875
-357.0556640625
-357.0556640625
-366.2109375
-355.224609375
-355.224609375
-359.80224609375
-362.548828125
-371.7041015625
-364.3798828125
-347.900390625
-351.5625
-348.81591796875
-377.197265625
-375.3662109375
-349.7314453125
-348.81591796875
-346.0693359375
-327.7587890625
-350.64697265625
-401.0009765625
-393.6767578125
-380.859375
-361.63330078125
-353.3935546875
-362.548828125
-333.251953125
-357.97119140625
-396.42333984375
-387.26806640625
-380.859375
-379.0283203125
-361.63330078125
-364.3798828125
-378.11279296875
-375.3662109375
-382.6904296875
-379.0283203125
-379.94384765625
-390.93017578125
-384.521484375
-387.26806640625
-398.25439453125
-397.3388671875
-373.53515625
-361.63330078125
-380.859375
-386.3525390625
-381.77490234375
-388.18359375
-387.26806640625
-386.3525390625
-384.521484375
-374.45068359375
-369.873046875
-368.0419921875
-378.11279296875
-383.60595703125
-391.845703125
-407.40966796875
-390.93017578125
-392.76123046875
-390.93017578125
-386.3525390625
-377.197265625
-377.197265625
-381.77490234375
-390.93017578125
-396.42333984375
-405.57861328125
-405.57861328125
-385.43701171875
-370.78857421875
-387.26806640625
-386.3525390625
-391.845703125
-390.93017578125
-385.43701171875
-392.76123046875
-393.6767578125
-387.26806640625
-386.3525390625
-390.93017578125
-377.197265625
-379.94384765625
-382.6904296875
-393.6767578125
-385.43701171875
-379.94384765625
-381.77490234375
-380.859375
-378.11279296875
-376.28173828125
-387.26806640625
-381.77490234375
-356.14013671875
-359.80224609375
-370.78857421875
-356.14013671875
-346.0693359375
-338.7451171875
-323.18115234375
-313.1103515625
-305.7861328125
-316.7724609375
-319.51904296875
-325.927734375
-308.53271484375
-305.7861328125
-308.53271484375
-281.06689453125
-267.333984375
-273.74267578125
-289.306640625
-290.22216796875
-285.64453125
-284.72900390625
-293.88427734375
-291.1376953125
-298.4619140625
-304.87060546875
-315.85693359375
-314.02587890625
-303.03955078125
-304.87060546875
-311.279296875
-317.68798828125
-329.58984375
-344.23828125
-355.224609375
-360.7177734375
-364.3798828125
-380.859375
-383.60595703125
-374.45068359375
-384.521484375
-386.3525390625
-382.6904296875
-392.76123046875
-401.91650390625
-400.08544921875
-401.0009765625
-398.25439453125
-392.76123046875
-373.53515625
-382.6904296875
-397.3388671875
-398.25439453125
-421.142578125
-424.8046875
-413.818359375
-421.142578125
-402.83203125
-395.5078125
-422.9736328125
-423.88916015625
-411.07177734375
-414.73388671875
-419.3115234375
-425.72021484375
-410.15625
-357.97119140625
-331.4208984375
-295.71533203125
-222.47314453125
-155.6396484375
-112.60986328125
-18.310546875
120.849609375
201.416015625
284.72900390625
389.09912109375
476.98974609375
528.25927734375
576.7822265625
615.234375
536.4990234375
387.26806640625
187.68310546875
-42.1142578125
-263.671875
-420.22705078125
-506.28662109375
-552.978515625
-575.86669921875
-590.51513671875
-578.61328125
-539.24560546875
-481.5673828125
-438.53759765625
-415.6494140625
-402.83203125
-391.845703125
-375.3662109375
-360.7177734375
-359.80224609375
-357.97119140625
-368.0419921875
-362.548828125
-368.95751953125
-367.12646484375
-364.3798828125
-372.61962890625
-378.11279296875
-346.0693359375
-334.16748046875
-340.576171875
-351.5625
-368.0419921875
-368.0419921875
-363.46435546875
-353.3935546875
-348.81591796875
-346.98486328125
-345.15380859375
-342.4072265625
-349.7314453125
-345.15380859375
-347.900390625
-355.224609375
-344.23828125
-346.0693359375
-342.4072265625
-341.49169921875
-350.64697265625
-346.98486328125
-335.99853515625
-346.0693359375
-332.33642578125
-319.51904296875
-323.18115234375
-321.35009765625
-300.29296875
-303.03955078125
-299.37744140625
-296.630859375
-304.87060546875
-314.02587890625
-325.927734375
-316.7724609375
-310.36376953125
-297.54638671875
-304.87060546875
-298.4619140625
-281.06689453125
-270.08056640625
-266.41845703125
-271.91162109375
-270.08056640625
-266.41845703125
-265.5029296875
-253.60107421875
-254.5166015625
-245.361328125
-241.69921875
-227.05078125
-218.81103515625
-229.79736328125
-232.5439453125
-238.037109375
-209.65576171875
-218.81103515625
-209.65576171875
-200.50048828125
-195.9228515625
-191.34521484375
-199.5849609375
-177.6123046875
-165.71044921875
-164.794921875
-140.9912109375
-145.56884765625
-126.3427734375
-119.93408203125
-108.94775390625
-108.94775390625
-108.0322265625
-99.79248046875
-105.28564453125
-103.45458984375
-104.3701171875
-95.21484375
-86.0595703125
-97.96142578125
-80.56640625
-77.81982421875
-46.69189453125
-53.1005859375
-61.34033203125
-32.04345703125
-25.634765625
-28.38134765625
-27.4658203125
-26.55029296875
-19.22607421875
-32.958984375
-32.958984375
-39.36767578125
-40.283203125
-57.67822265625
-64.0869140625
-72.32666015625
-96.13037109375
-105.28564453125
-102.5390625
-117.1875
-128.173828125
-139.16015625
-171.20361328125
-191.34521484375
-202.33154296875
-197.75390625
-204.16259765625
-211.48681640625
-229.79736328125
-238.037109375
-255.43212890625
-273.74267578125
-273.74267578125
-291.1376953125
-295.71533203125
-303.03955078125
-307.6171875
-313.1103515625
-321.35009765625
-323.18115234375
-330.50537109375
-320.4345703125
-324.0966796875
-338.7451171875
-333.251953125
-335.0830078125
-332.33642578125
-330.50537109375
-316.7724609375
-330.50537109375
-339.66064453125
-333.251953125
-331.4208984375
-338.7451171875
-340.576171875
-350.64697265625
-346.0693359375
-340.576171875
-335.99853515625
-336.9140625
-338.7451171875
-333.251953125
-343.32275390625
-351.5625
-339.66064453125
-342.4072265625
-340.576171875
-338.7451171875
-330.50537109375
-332.33642578125
-346.0693359375
-349.7314453125
-341.49169921875
-347.900390625
-331.4208984375
-332.33642578125
-323.18115234375
-322.265625
-331.4208984375
-335.99853515625
-322.265625
-336.9140625
-331.4208984375
-325.927734375
-320.4345703125
-321.35009765625
-325.927734375
-320.4345703125
-314.94140625
-309.4482421875
-323.18115234375
-330.50537109375
-331.4208984375
-335.99853515625
-333.251953125
-335.99853515625
-344.23828125
-353.3935546875
-350.64697265625
-325.927734375
-321.35009765625
-325.927734375
-331.4208984375
-335.99853515625
-336.9140625
-323.18115234375
-325.01220703125
-320.4345703125
-319.51904296875
-316.7724609375
-314.02587890625
-311.279296875
-339.66064453125
-336.9140625
-343.32275390625
-350.64697265625
-336.9140625
-329.58984375
-330.50537109375
-317.68798828125
-325.927734375
-343.32275390625
-350.64697265625
-335.99853515625
-327.7587890625
-323.18115234375
-326.84326171875
-325.927734375
-335.99853515625
-329.58984375
-332.33642578125
-339.66064453125
-353.3935546875
-357.97119140625
-329.58984375
-331.4208984375
-344.23828125
-335.0830078125
-341.49169921875
-352.47802734375
-340.576171875
-355.224609375
-367.12646484375
-357.97119140625
-349.7314453125
-355.224609375
-370.78857421875
-360.7177734375
-351.5625
-354.30908203125
-349.7314453125
-350.64697265625
-341.49169921875
-335.99853515625
-355.224609375
-342.4072265625
-338.7451171875
-345.15380859375
-353.3935546875
-351.5625
-350.64697265625
-348.81591796875
-357.0556640625
-367.12646484375
-358.88671875
-348.81591796875
-350.64697265625
-341.49169921875
-347.900390625
-345.15380859375
-337.82958984375
-347.900390625
-358.88671875
-362.548828125
-364.3798828125
-366.2109375
-343.32275390625
-335.99853515625
-338.7451171875
-340.576171875
-345.15380859375
-350.64697265625
-361.63330078125
-359.80224609375
-359.80224609375
-346.98486328125
-346.0693359375
-344.23828125
-357.0556640625
-366.2109375
-376.28173828125
-368.0419921875
-368.95751953125
-359.80224609375
-344.23828125
-346.98486328125
-349.7314453125
-336.9140625
-352.47802734375
-346.98486328125
-332.33642578125
-352.47802734375
-365.29541015625
-361.63330078125
-352.47802734375
-348.81591796875
-354.30908203125
-356.14013671875
-340.576171875
-335.99853515625
-354.30908203125
-362.548828125
-374.45068359375
-373.53515625
-353.3935546875
-346.0693359375
-335.99853515625
-335.0830078125
-328.67431640625
-335.0830078125
-348.81591796875
-340.576171875
-329.58984375
-327.7587890625
-309.4482421875
-301.20849609375
-295.71533203125
-290.22216796875
-292.96875
-292.05322265625
-298.4619140625
-300.29296875
-302.1240234375
-281.06689453125
-268.24951171875
-260.009765625
-257.26318359375
-265.5029296875
-257.26318359375
-249.0234375
-257.26318359375
-259.09423828125
-280.1513671875
-286.56005859375
-276.4892578125
-258.1787109375
-264.58740234375
-280.1513671875
-273.74267578125
-270.99609375
-270.99609375
-263.671875
-275.57373046875
-301.20849609375
-314.02587890625
-325.927734375
-331.4208984375
-338.7451171875
-353.3935546875
-346.98486328125
-352.47802734375
-358.88671875
-368.95751953125
-364.3798828125
-357.97119140625
-352.47802734375
-349.7314453125
-343.32275390625
-348.81591796875
-344.23828125
-351.5625
-356.14013671875
-363.46435546875
-363.46435546875
-369.873046875
-366.2109375
-368.95751953125
-351.5625
-352.47802734375
-347.900390625
-350.64697265625
-357.0556640625
-367.12646484375
-379.0283203125
-378.11279296875
-367.12646484375
-360.7177734375
-321.35009765625
-293.88427734375
-237.12158203125
-163.87939453125
-107.11669921875
-32.04345703125
62.255859375
152.89306640625
239.8681640625
319.51904296875
432.12890625
505.37109375
569.4580078125
609.7412109375
575.86669921875
486.14501953125
352.47802734375
144.6533203125
-91.552734375
-294.7998046875
-439.453125
-512.6953125
-547.4853515625
-586.85302734375
-594.17724609375
-570.37353515625
-513.61083984375
-444.9462890625
-402.83203125
-369.873046875
-346.0693359375
-335.0830078125
-314.02587890625
-315.85693359375
-322.265625
-310.36376953125
-316.7724609375
-325.927734375
-328.67431640625
-340.576171875
-337.82958984375
-341.49169921875
-337.82958984375
-317.68798828125
-314.02587890625
-332.33642578125
-324.0966796875
-314.02587890625
-319.51904296875
-317.68798828125
-308.53271484375
-303.03955078125
-317.68798828125
-317.68798828125
-301.20849609375
-311.279296875
-311.279296875
-298.4619140625
-303.03955078125
-302.1240234375
-299.37744140625
-304.87060546875
-296.630859375
-281.982421875
-282.89794921875
-290.22216796875
-295.71533203125
-301.20849609375
-308.53271484375
-288.39111328125
-260.92529296875
-279.23583984375
-283.8134765625
-282.89794921875
-286.56005859375
-290.22216796875
-285.64453125
-255.43212890625
-245.361328125
-249.93896484375
-241.69921875
-238.037109375
-239.8681640625
-248.10791015625
-246.27685546875
-238.037109375
-237.12158203125
-235.29052734375
-239.8681640625
-247.1923828125
-227.96630859375
-225.2197265625
-202.33154296875
-197.75390625
-214.2333984375
-203.2470703125
-198.66943359375
-188.5986328125
-187.68310546875
-176.69677734375
-173.03466796875
-150.146484375
-153.80859375
-158.38623046875
-163.87939453125
-149.23095703125
-139.16015625
-141.90673828125
-125.42724609375
-117.1875
-110.77880859375
-116.27197265625
-108.94775390625
-84.228515625
-77.81982421875
-64.0869140625
-61.34033203125
-71.4111328125
-74.15771484375
-65.00244140625
-56.7626953125
-43.9453125
-44.86083984375
-32.958984375
-24.71923828125
-25.634765625
-28.38134765625
-32.958984375
-37.53662109375
-14.6484375
-15.56396484375
-17.39501953125
-14.6484375
-15.56396484375
-6.40869140625
-13.73291015625
-16.4794921875
-15.56396484375
-31.1279296875
-30.21240234375
-43.9453125
-47.607421875
-40.283203125
-68.66455078125
-88.80615234375
-103.45458984375
-126.3427734375
-131.8359375
-143.73779296875
-168.45703125
-185.85205078125
-192.2607421875
-194.091796875
-213.31787109375
-212.40234375
-216.97998046875
-236.2060546875
-243.5302734375
-258.1787109375
-271.91162109375
-269.1650390625
-284.72900390625
-279.23583984375
-279.23583984375
-286.56005859375
-292.05322265625
-304.87060546875
-305.7861328125
-299.37744140625
-303.955078125
-300.29296875
-294.7998046875
-297.54638671875
-296.630859375
-314.02587890625
-325.927734375
-328.67431640625
-338.7451171875
-339.66064453125
-340.576171875
-305.7861328125
-294.7998046875
-310.36376953125
-308.53271484375
-312.19482421875
-318.603515625
-316.7724609375
-325.927734375
-311.279296875
-304.87060546875
-303.955078125
-304.87060546875
-302.1240234375
-294.7998046875
-295.71533203125
-298.4619140625
-305.7861328125
-302.1240234375
-303.955078125
-309.4482421875
-307.6171875
-318.603515625
-300.29296875
-301.20849609375
-307.6171875
-310.36376953125
-294.7998046875
-284.72900390625
-284.72900390625
-281.982421875
-292.05322265625
-292.96875
-277.40478515625
-286.56005859375
-292.96875
-296.630859375
-291.1376953125
-290.22216796875
-278.3203125
-283.8134765625
-291.1376953125
-290.22216796875
-284.72900390625
-296.630859375
-304.87060546875
-302.1240234375
-292.96875
-296.630859375
-293.88427734375
-298.4619140625
-290.22216796875
-290.22216796875
-292.96875
-280.1513671875
-266.41845703125
-286.56005859375
-303.03955078125
-296.630859375
-298.4619140625
-298.4619140625
-302.1240234375
-286.56005859375
-286.56005859375
-288.39111328125
-295.71533203125
-315.85693359375
-304.87060546875
-297.54638671875
-302.1240234375
-295.71533203125
-298.4619140625
-300.29296875
-294.7998046875
-306.70166015625
-303.03955078125
-296.630859375
-308.53271484375
-306.70166015625
-311.279296875
-306.70166015625
-304.87060546875
-308.53271484375
-290.22216796875
-296.630859375
-314.02587890625
-315.85693359375
-324.0966796875
-325.01220703125
-312.19482421875
-316.7724609375
-311.279296875
-323.18115234375
-310.36376953125
-311.279296875
-315.85693359375
-320.4345703125
-321.35009765625
-314.94140625
-297.54638671875
-303.955078125
-296.630859375
-295.71533203125
-306.70166015625
-315.85693359375
-317.68798828125
-312.19482421875
-319.51904296875
-322.265625
-329.58984375
-329.58984375
-318.603515625
-309.4482421875
-307.6171875
-305.7861328125
-318.603515625
-320.4345703125
-322.265625
-314.94140625
-315.85693359375
-310.36376953125
-307.6171875
-300.29296875
-301.20849609375
-316.7724609375
-328.67431640625
-315.85693359375
-320.4345703125
-312.19482421875
-314.94140625
-310.36376953125
-324.0966796875
-324.0966796875
-323.18115234375
-318.603515625
-320.4345703125
-314.02587890625
-325.927734375
-320.4345703125
-319.51904296875
-304.87060546875
-299.37744140625
-311.279296875
-310.36376953125
-309.4482421875
-327.7587890625
-305.7861328125
-310.36376953125
-317.68798828125
-314.94140625
-310.36376953125
-310.36376953125
-303.955078125
-307.6171875
-314.02587890625
-315.85693359375
-324.0966796875
-325.927734375
-317.68798828125
-313.1103515625
-296.630859375
-297.54638671875
-314.02587890625
-300.29296875
-305.7861328125
-333.251953125
-334.16748046875
-353.3935546875
-366.2109375
-329.58984375
-326.84326171875
-328.67431640625
-329.58984375
-321.35009765625
-315.85693359375
-321.35009765625
-328.67431640625
-317.68798828125
-316.7724609375
-325.01220703125
-313.1103515625
-314.02587890625
-303.03955078125
-289.306640625
-287.4755859375
-281.06689453125
-274.658203125
-264.58740234375
-263.671875
-261.8408203125
-251.77001953125
-253.60107421875
-262.75634765625
-258.1787109375
-251.77001953125
-237.12158203125
-237.12158203125
-236.2060546875
-244.44580078125
-248.10791015625
-249.93896484375
-238.037109375
-212.40234375
-213.31787109375
-211.48681640625
-227.96630859375
-251.77001953125
-262.75634765625
-249.0234375
-261.8408203125
-270.99609375
-266.41845703125
-262.75634765625
-268.24951171875
-270.08056640625
-270.08056640625
-285.64453125
-327.7587890625
-312.19482421875
-303.03955078125
-322.265625
-325.01220703125
-331.4208984375
-325.927734375
-332.33642578125
-335.99853515625
-333.251953125
-335.0830078125
-348.81591796875
-347.900390625
-340.576171875
-327.7587890625
-334.16748046875
-330.50537109375
-334.16748046875
-342.4072265625
-344.23828125
-347.900390625
-359.80224609375
-354.30908203125
-348.81591796875
-344.23828125
-351.5625
-343.32275390625
-351.5625
-361.63330078125
-365.29541015625
-364.3798828125
-325.927734375
-283.8134765625
-271.91162109375
-216.064453125
-119.93408203125
-51.26953125
28.38134765625
117.1875
175.78125
240.78369140625
341.49169921875
453.18603515625
537.41455078125
588.68408203125
623.47412109375
590.51513671875
478.82080078125
308.53271484375
77.81982421875
-154.72412109375
-336.9140625
-470.5810546875
-530.09033203125
-574.03564453125
-580.4443359375
-566.71142578125
-531.005859375
-473.32763671875
-426.6357421875
-388.18359375
-353.3935546875
-350.64697265625
-341.49169921875
-341.49169921875
-319.51904296875
-325.01220703125
-346.0693359375
-349.7314453125
-353.3935546875
-353.3935546875
-354.30908203125
-351.5625
-334.16748046875
-317.68798828125
-320.4345703125
-321.35009765625
-332.33642578125
-335.99853515625
-320.4345703125
-325.01220703125
-334.16748046875
-334.16748046875
-325.01220703125
-325.01220703125
-325.01220703125
-327.7587890625
-318.603515625
-317.68798828125
-335.99853515625
-338.7451171875
-327.7587890625
-327.7587890625
-326.84326171875
-310.36376953125
-310.36376953125
-314.94140625
-320.4345703125
-323.18115234375
-337.82958984375
-321.35009765625
-297.54638671875
-296.630859375
-294.7998046875
-287.4755859375
-283.8134765625
-276.4892578125
-288.39111328125
-278.3203125
-273.74267578125
-267.333984375
-275.57373046875
-267.333984375
-271.91162109375
-257.26318359375
-243.5302734375
-247.1923828125
-249.0234375
-246.27685546875
-245.361328125
-254.5166015625
-245.361328125
-238.037109375
-230.712890625
-229.79736328125
-244.44580078125
-221.5576171875
-212.40234375
-214.2333984375
-218.81103515625
-206.9091796875
-202.33154296875
-190.4296875
-178.52783203125
-165.71044921875
-161.1328125
-145.56884765625
-142.822265625
-149.23095703125
-153.80859375
-134.58251953125
-140.9912109375
-128.173828125
-123.59619140625
-116.27197265625
-98.876953125
-79.65087890625
-75.0732421875
-65.91796875
-86.0595703125
-86.97509765625
-81.48193359375
-63.17138671875
-54.931640625
-52.18505859375
-41.19873046875
-24.71923828125
-29.296875
-18.310546875
-9.1552734375
-0.91552734375
-6.40869140625
-9.1552734375
-2.74658203125
0.91552734375
3.662109375
-17.39501953125
-7.32421875
-18.310546875
-22.88818359375
-39.36767578125
-43.02978515625
-54.01611328125
-59.50927734375
-80.56640625
-77.81982421875
-99.79248046875
-113.525390625
-118.10302734375
-143.73779296875
-157.470703125
-163.87939453125
-198.66943359375
-205.99365234375
-204.16259765625
-216.064453125
-218.81103515625
-232.5439453125
-255.43212890625
-267.333984375
-276.4892578125
-282.89794921875
-290.22216796875
-297.54638671875
-297.54638671875
-293.88427734375
-301.20849609375
-300.29296875
-304.87060546875
-303.955078125
-318.603515625
-329.58984375
-326.84326171875
-316.7724609375
-323.18115234375
-316.7724609375
-321.35009765625
-314.94140625
-303.03955078125
-323.18115234375
-343.32275390625
-334.16748046875
-331.4208984375
-340.576171875
-339.66064453125
-328.67431640625
-317.68798828125
-319.51904296875
-328.67431640625
-336.9140625
-329.58984375
-353.3935546875
-330.50537109375
-320.4345703125
-318.603515625
-313.1103515625
-309.4482421875
-309.4482421875
-319.51904296875
-333.251953125
-340.576171875
-314.94140625
-333.251953125
-329.58984375
-317.68798828125
-318.603515625
-316.7724609375
-304.87060546875
-316.7724609375
-307.6171875
-297.54638671875
-303.955078125
-308.53271484375
-313.1103515625
-314.94140625
-306.70166015625
-314.94140625
-301.20849609375
-307.6171875
-306.70166015625
-325.01220703125
-326.84326171875
-322.265625
-336.9140625
-327.7587890625
-318.603515625
-314.02587890625
-317.68798828125
-312.19482421875
-324.0966796875
-319.51904296875
-311.279296875
-293.88427734375
-304.87060546875
-302.1240234375
-300.29296875
-305.7861328125
-299.37744140625
-314.02587890625
-324.0966796875
-318.603515625
-303.03955078125
-312.19482421875
-314.94140625
-316.7724609375
-312.19482421875
-311.279296875
-335.99853515625
-322.265625
-325.927734375
-329.58984375
-326.84326171875
-312.19482421875
-316.7724609375
-313.1103515625
-312.19482421875
-314.02587890625
-322.265625
-329.58984375
-339.66064453125
-331.4208984375
-338.7451171875
-336.9140625
-332.33642578125
-335.0830078125
-338.7451171875
-327.7587890625
-334.16748046875
-338.7451171875
-337.82958984375
-360.7177734375
-338.7451171875
-314.02587890625
-340.576171875
-357.97119140625
-341.49169921875
-338.7451171875
-329.58984375
-324.0966796875
-331.4208984375
-345.15380859375
-341.49169921875
-329.58984375
-335.0830078125
-328.67431640625
-328.67431640625
-333.251953125
-319.51904296875
-329.58984375
-347.900390625
-346.98486328125
-345.15380859375
-344.23828125
-335.0830078125
-341.49169921875
-349.7314453125
-330.50537109375
-333.251953125
-332.33642578125
-337.82958984375
-359.80224609375
-357.0556640625
-346.98486328125
-344.23828125
-342.4072265625
-352.47802734375
-343.32275390625
-343.32275390625
-346.0693359375
-343.32275390625
-346.98486328125
-353.3935546875
-365.29541015625
-356.14013671875
-345.15380859375
-344.23828125
-344.23828125
-347.900390625
-354.30908203125
-343.32275390625
-359.80224609375
-345.15380859375
-330.50537109375
-344.23828125
-353.3935546875
-340.576171875
-335.99853515625
-329.58984375
-342.4072265625
-341.49169921875
-336.9140625
-335.99853515625
-334.16748046875
-346.0693359375
-355.224609375
-352.47802734375
-335.0830078125
-328.67431640625
-338.7451171875
-358.88671875
-355.224609375
-348.81591796875
-357.97119140625
-353.3935546875
-335.0830078125
-335.0830078125
-338.7451171875
-353.3935546875
-353.3935546875
-331.4208984375
-338.7451171875
-345.15380859375
-357.97119140625
-340.576171875
-312.19482421875
-325.927734375
-313.1103515625
-300.29296875
-302.1240234375
-309.4482421875
-303.03955078125
-296.630859375
-281.982421875
-278.3203125
-295.71533203125
-283.8134765625
-259.09423828125
-257.26318359375
-249.0234375
-257.26318359375
-255.43212890625
-272.8271484375
-270.99609375
-260.009765625
-249.93896484375
-263.671875
-261.8408203125
-260.92529296875
-264.58740234375
-274.658203125
-280.1513671875
-289.306640625
-289.306640625
-287.4755859375
-284.72900390625
-283.8134765625
-271.91162109375
-298.4619140625
-315.85693359375
-335.99853515625
-340.576171875
-338.7451171875
-337.82958984375
-327.7587890625
-346.98486328125
-369.873046875
-355.224609375
-346.98486328125
-353.3935546875
-357.97119140625
-356.14013671875
-353.3935546875
-356.14013671875
-350.64697265625
-347.900390625
-347.900390625
-340.576171875
-355.224609375
-338.7451171875
-357.97119140625
-375.3662109375
-376.28173828125
-370.78857421875
-363.46435546875
-360.7177734375
-360.7177734375
-358.88671875
-369.873046875
-378.11279296875
-362.548828125
-343.32275390625
-304.87060546875
-260.009765625
-193.17626953125
-122.6806640625
-57.67822265625
36.62109375
140.07568359375
226.13525390625
314.94140625
396.42333984375
501.708984375
583.19091796875
627.13623046875
625.30517578125
547.4853515625
392.76123046875
213.31787109375
0
-206.9091796875
-348.81591796875
-446.77734375
-503.5400390625
-538.330078125
-562.1337890625
-547.4853515625
-506.28662109375
-453.18603515625
-411.9873046875
-373.53515625
-357.0556640625
-358.88671875
-336.9140625
-319.51904296875
-311.279296875
-301.20849609375
-301.20849609375
-320.4345703125
-326.84326171875
-340.576171875
-331.4208984375
-329.58984375
-330.50537109375
-318.603515625
-316.7724609375
-315.85693359375
-306.70166015625
-311.279296875
-325.01220703125
-335.0830078125
-333.251953125
-331.4208984375
-335.99853515625
-325.01220703125
-317.68798828125
-302.1240234375
-292.05322265625
-288.39111328125
-292.05322265625
-303.955078125
-309.4482421875
-310.36376953125
-309.4482421875
-300.29296875
-306.70166015625
-309.4482421875
-298.4619140625
-290.22216796875
-285.64453125
-296.630859375
-292.96875
-285.64453125
-285.64453125
-290.22216796875
-282.89794921875
-287.4755859375
-281.982421875
-282.89794921875
-266.41845703125
-260.009765625
-266.41845703125
-259.09423828125
-248.10791015625
-247.1923828125
-239.8681640625
-232.5439453125
-240.78369140625
-234.375
-227.05078125
-241.69921875
-257.26318359375
-227.05078125
-201.416015625
-196.83837890625
-204.16259765625
-204.16259765625
-192.2607421875
-183.10546875
-173.03466796875
-178.52783203125
-187.68310546875
-182.18994140625
-171.20361328125
-152.89306640625
-139.16015625
-135.498046875
-124.51171875
-118.10302734375
-121.76513671875
-114.44091796875
-113.525390625
-105.28564453125
-82.3974609375
-87.890625
-75.0732421875
-78.7353515625
-60.4248046875
-57.67822265625
-65.91796875
-75.98876953125
-58.59375
-43.9453125
-26.55029296875
-13.73291015625
-7.32421875
-18.310546875
-6.40869140625
12.8173828125
1.8310546875
-0.91552734375
6.40869140625
16.4794921875
13.73291015625
13.73291015625
17.39501953125
14.6484375
-1.8310546875
5.4931640625
-17.39501953125
-30.21240234375
-43.02978515625
-47.607421875
-42.1142578125
-57.67822265625
-80.56640625
-101.62353515625
-120.849609375
-138.24462890625
-149.23095703125
-139.16015625
-156.55517578125
-169.37255859375
-181.2744140625
-192.2607421875
-205.99365234375
-218.81103515625
-218.81103515625
-237.12158203125
-247.1923828125
-249.0234375
-257.26318359375
-261.8408203125
-267.333984375
-283.8134765625
-292.05322265625
-289.306640625
-281.06689453125
-274.658203125
-286.56005859375
-297.54638671875
-319.51904296875
-313.1103515625
-315.85693359375
-323.18115234375
-316.7724609375
-312.19482421875
-302.1240234375
-307.6171875
-306.70166015625
-309.4482421875
-306.70166015625
-309.4482421875
-315.85693359375
-308.53271484375
-301.20849609375
-309.4482421875
-288.39111328125
-298.4619140625
-303.955078125
-311.279296875
-317.68798828125
-320.4345703125
-318.603515625
-319.51904296875
-323.18115234375
-304.87060546875
-297.54638671875
-291.1376953125
-301.20849609375
-288.39111328125
-297.54638671875
-306.70166015625
-306.70166015625
-302.1240234375
-299.37744140625
-296.630859375
-285.64453125
-291.1376953125
-292.96875
-300.29296875
-300.29296875
-295.71533203125
-311.279296875
-293.88427734375
-290.22216796875
-290.22216796875
-292.96875
-285.64453125
-288.39111328125
-298.4619140625
-295.71533203125
-299.37744140625
-330.50537109375
-303.03955078125
-283.8134765625
-287.4755859375
-298.4619140625
-291.1376953125
-293.88427734375
-300.29296875
-308.53271484375
-311.279296875
-291.1376953125
-281.06689453125
-281.982421875
-297.54638671875
-285.64453125
-292.96875
-296.630859375
-281.982421875
-297.54638671875
-297.54638671875
-294.7998046875
-297.54638671875
-292.05322265625
-295.71533203125
-298.4619140625
-307.6171875
-308.53271484375
-311.279296875
-310.36376953125
-306.70166015625
-317.68798828125
-317.68798828125
-311.279296875
-310.36376953125
-314.02587890625
-298.4619140625
-303.03955078125
-299.37744140625
-306.70166015625
-304.87060546875
-321.35009765625
-321.35009765625
-314.02587890625
-303.955078125
-305.7861328125
-321.35009765625
-314.94140625
-309.4482421875
-304.87060546875
-314.02587890625
-324.0966796875
-327.7587890625
-324.0966796875
-317.68798828125
-321.35009765625
-325.927734375
-332.33642578125
-330.50537109375
-337.82958984375
-334.16748046875
-315.85693359375
-324.0966796875
-328.67431640625
-312.19482421875
-325.01220703125
-326.84326171875
-322.265625
-335.99853515625
-341.49169921875
-329.58984375
-331.4208984375
-331.4208984375
-324.0966796875
-327.7587890625
-317.68798828125
-319.51904296875
-322.265625
-335.0830078125
-330.50537109375
-321.35009765625
-332.33642578125
-327.7587890625
-317.68798828125
-325.927734375
-319.51904296875
-317.68798828125
-341.49169921875
-342.4072265625
-334.16748046875
-333.251953125
-338.7451171875
-337.82958984375
-328.67431640625
-327.7587890625
-326.84326171875
-328.67431640625
-326.84326171875
-336.9140625
-340.576171875
-333.251953125
-315.85693359375
-324.0966796875
-338.7451171875
-336.9140625
-328.67431640625
-330.50537109375
-329.58984375
-335.99853515625
-325.927734375
-330.50537109375
-322.265625
-319.51904296875
-324.0966796875
-328.67431640625
-319.51904296875
-293.88427734375
-303.955078125
-303.955078125
-298.4619140625
-288.39111328125
-293.88427734375
-286.56005859375
-283.8134765625
-252.685546875
-246.27685546875
-264.58740234375
-251.77001953125
-253.60107421875
-247.1923828125
-252.685546875
-256.34765625
-249.0234375
-239.8681640625
-232.5439453125
-226.13525390625
-245.361328125
-252.685546875
-252.685546875
-250.8544921875
-250.8544921875
-263.671875
-259.09423828125
-259.09423828125
-258.1787109375
-260.009765625
-255.43212890625
-261.8408203125
-281.06689453125
-303.03955078125
-312.19482421875
-309.4482421875
-319.51904296875
-325.01220703125
-325.927734375
-335.0830078125
-342.4072265625
-349.7314453125
-351.5625
-350.64697265625
-344.23828125
-335.99853515625
-334.16748046875
-333.251953125
-344.23828125
-334.16748046875
-340.576171875
-346.98486328125
-358.88671875
-363.46435546875
-359.80224609375
-351.5625
-351.5625
-341.49169921875
-350.64697265625
-341.49169921875
-347.900390625
-351.5625
-350.64697265625
-362.548828125
-334.16748046875
-294.7998046875
-250.8544921875
-192.2607421875
-108.0322265625
-31.1279296875
57.67822265625
161.1328125
245.361328125
320.4345703125
422.05810546875
506.28662109375
565.7958984375
626.220703125
625.30517578125
554.8095703125
417.48046875
234.375
10.07080078125
-201.416015625
-359.80224609375
-471.49658203125
-511.77978515625
-542.90771484375
-570.37353515625
-541.9921875
-497.13134765625
-455.9326171875
-395.5078125
-360.7177734375
-350.64697265625
-351.5625
-349.7314453125
-340.576171875
-330.50537109375
-325.927734375
-322.265625
-323.18115234375
-321.35009765625
-335.99853515625
-335.0830078125
-332.33642578125
-327.7587890625
-328.67431640625
-317.68798828125
-309.4482421875
-317.68798828125
-317.68798828125
-314.02587890625
-313.1103515625
-313.1103515625
-326.84326171875
-328.67431640625
-314.02587890625
-314.94140625
-313.1103515625
-308.53271484375
-303.955078125
-309.4482421875
-315.85693359375
-308.53271484375
-312.19482421875
-318.603515625
-315.85693359375
-295.71533203125
-296.630859375
-280.1513671875
-276.4892578125
-293.88427734375
-300.29296875
-302.1240234375
-296.630859375
-297.54638671875
-288.39111328125
-281.06689453125
-285.64453125
-272.8271484375
-270.99609375
-279.23583984375
-273.74267578125
-272.8271484375
-261.8408203125
-267.333984375
-269.1650390625
-242.61474609375
-252.685546875
-258.1787109375
-232.5439453125
-231.62841796875
-238.037109375
-229.79736328125
-218.81103515625
-216.064453125
-202.33154296875
-190.4296875
-179.443359375
-189.51416015625
-184.9365234375
-173.9501953125
-175.78125
-175.78125
-177.6123046875
-159.3017578125
-149.23095703125
-145.56884765625
-127.25830078125
-118.10302734375
-122.6806640625
-129.08935546875
-119.93408203125
-110.77880859375
-99.79248046875
-95.21484375
-88.80615234375
-73.2421875
-71.4111328125
-66.83349609375
-63.17138671875
-54.931640625
-50.35400390625
-46.69189453125
-45.7763671875
-24.71923828125
-23.8037109375
-13.73291015625
-2.74658203125
0.91552734375
-13.73291015625
-15.56396484375
-10.986328125
12.8173828125
33.87451171875
31.1279296875
32.04345703125
16.4794921875
9.1552734375
8.23974609375
-0.91552734375
-7.32421875
-14.6484375
-31.1279296875
-34.7900390625
-49.4384765625
-62.255859375
-71.4111328125
-79.65087890625
-88.80615234375
-113.525390625
-134.58251953125
-142.822265625
-146.484375
-165.71044921875
-179.443359375
-188.5986328125
-200.50048828125
-245.361328125
-242.61474609375
-237.12158203125
-260.009765625
-268.24951171875
-270.08056640625
-280.1513671875
-281.06689453125
-281.982421875
-282.89794921875
-283.8134765625
-283.8134765625
-302.1240234375
-311.279296875
-292.96875
-284.72900390625
-283.8134765625
-291.1376953125
-286.56005859375
-292.05322265625
-285.64453125
-288.39111328125
-289.306640625
-302.1240234375
-307.6171875
-301.20849609375
-303.03955078125
-309.4482421875
-303.03955078125
-293.88427734375
-303.03955078125
-287.4755859375
-293.88427734375
-299.37744140625
-293.88427734375
-295.71533203125
-298.4619140625
-296.630859375
-298.4619140625
-281.06689453125
-270.08056640625
-290.22216796875
-301.20849609375
-299.37744140625
-300.29296875
-299.37744140625
-297.54638671875
-293.88427734375
-291.1376953125
-286.56005859375
-280.1513671875
-297.54638671875
-288.39111328125
-295.71533203125
-299.37744140625
-289.306640625
-278.3203125
-284.72900390625
-296.630859375
-293.88427734375
-286.56005859375
-276.4892578125
-290.22216796875
-274.658203125
-272.8271484375
-299.37744140625
-295.71533203125
-290.22216796875
-290.22216796875
-290.22216796875
-292.05322265625
-294.7998046875
-292.05322265625
-291.1376953125
-303.955078125
-300.29296875
-282.89794921875
-273.74267578125
-268.24951171875
-278.3203125
-286.56005859375
-275.57373046875
-276.4892578125
-281.06689453125
-288.39111328125
-292.96875
-297.54638671875
-291.1376953125
-280.1513671875
-286.56005859375
-289.306640625
-292.05322265625
-298.4619140625
-300.29296875
-303.955078125
-307.6171875
-303.955078125
-295.71533203125
-306.70166015625
-313.1103515625
-299.37744140625
-302.1240234375
-276.4892578125
-288.39111328125
-314.02587890625
-304.87060546875
-295.71533203125
-298.4619140625
-293.88427734375
-302.1240234375
-309.4482421875
-296.630859375
-291.1376953125
-297.54638671875
-301.20849609375
-303.03955078125
-292.05322265625
-297.54638671875
-300.29296875
-286.56005859375
-303.955078125
-311.279296875
-305.7861328125
-314.02587890625
-319.51904296875
-315.85693359375
-321.35009765625
-316.7724609375
-304.87060546875
-297.54638671875
-280.1513671875
-285.64453125
-301.20849609375
-308.53271484375
-320.4345703125
-314.02587890625
-312.19482421875
-304.87060546875
-292.05322265625
-293.88427734375
-306.70166015625
-300.29296875
-315.85693359375
-330.50537109375
-319.51904296875
-298.4619140625
-308.53271484375
-308.53271484375
-307.6171875
-304.87060546875
-300.29296875
-303.03955078125
-301.20849609375
-314.02587890625
-313.1103515625
-308.53271484375
-310.36376953125
-308.53271484375
-304.87060546875
-288.39111328125
-284.72900390625
-284.72900390625
-302.1240234375
-318.603515625
-322.265625
-326.84326171875
-319.51904296875
-301.20849609375
-303.03955078125
-319.51904296875
-299.37744140625
-298.4619140625
-297.54638671875
-314.94140625
-307.6171875
-305.7861328125
-289.306640625
-295.71533203125
-314.94140625
-311.279296875
-303.03955078125
-290.22216796875
-280.1513671875
-284.72900390625
-298.4619140625
-303.955078125
-298.4619140625
-301.20849609375
-293.88427734375
-292.96875
-291.1376953125
-282.89794921875
-290.22216796875
-292.96875
-292.05322265625
-281.982421875
-265.5029296875
-266.41845703125
-263.671875
-244.44580078125
-248.10791015625
-249.0234375
-243.5302734375
-263.671875
-258.1787109375
-241.69921875
-230.712890625
-227.96630859375
-210.5712890625
-209.65576171875
-207.82470703125
-212.40234375
-215.14892578125
-205.078125
-203.2470703125
-198.66943359375
-210.5712890625
-218.81103515625
-220.64208984375
-219.7265625
-223.388671875
-207.82470703125
-211.48681640625
-236.2060546875
-244.44580078125
-243.5302734375
-227.96630859375
-257.26318359375
-273.74267578125
-283.8134765625
-275.57373046875
-272.8271484375
-287.4755859375
-304.87060546875
-311.279296875
-298.4619140625
-308.53271484375
-317.68798828125
-294.7998046875
-296.630859375
-292.96875
-315.85693359375
-308.53271484375
-302.1240234375
-315.85693359375
-323.18115234375
-317.68798828125
-307.6171875
-304.87060546875
-303.03955078125
-311.279296875
-304.87060546875
-308.53271484375
-304.87060546875
-312.19482421875
-318.603515625
-324.0966796875
-323.18115234375
-320.4345703125
-303.955078125
-255.43212890625
-225.2197265625
-181.2744140625
-111.6943359375
-42.1142578125
35.70556640625
136.41357421875
217.8955078125
296.630859375
403.74755859375
502.62451171875
574.03564453125
634.46044921875
651.85546875
612.48779296875
504.45556640625
346.98486328125
126.3427734375
-109.86328125
-310.36376953125
-422.9736328125
-478.82080078125
-525.5126953125
-550.23193359375
-531.005859375
-505.37109375
-438.53759765625
-367.12646484375
-322.265625
-308.53271484375
-293.88427734375
-282.89794921875
-260.92529296875
-262.75634765625
