ECG
28.38134765625
37.53662109375
51.26953125
61.34033203125
49.4384765625
46.69189453125
47.607421875
78.7353515625
83.31298828125
73.2421875
80.56640625
82.3974609375
82.3974609375
99.79248046875
104.3701171875
96.13037109375
96.13037109375
108.0322265625
114.44091796875
115.3564453125
128.173828125
137.3291015625
127.25830078125
126.3427734375
132.75146484375
158.38623046875
149.23095703125
151.06201171875
173.03466796875
168.45703125
151.06201171875
178.52783203125
185.85205078125
195.9228515625
211.48681640625
218.81103515625
230.712890625
241.69921875
253.60107421875
231.62841796875
230.712890625
252.685546875
265.5029296875
275.57373046875
265.5029296875
256.34765625
255.43212890625
264.58740234375
297.54638671875
302.1240234375
310.36376953125
294.7998046875
283.8134765625
302.1240234375
287.4755859375
263.671875
271.91162109375
262.75634765625
247.1923828125
246.27685546875
238.95263671875
234.375
234.375
207.82470703125
193.17626953125
191.34521484375
168.45703125
140.07568359375
135.498046875
136.41357421875
122.6806640625
120.849609375
113.525390625
113.525390625
96.13037109375
86.97509765625
73.2421875
73.2421875
62.255859375
47.607421875
42.1142578125
49.4384765625
40.283203125
23.8037109375
17.39501953125
14.6484375
30.21240234375
43.02978515625
44.86083984375
37.53662109375
14.6484375
10.07080078125
16.4794921875
21.97265625
15.56396484375
24.71923828125
27.4658203125
21.05712890625
16.4794921875
19.22607421875
22.88818359375
22.88818359375
23.8037109375
24.71923828125
24.71923828125
18.310546875
21.97265625
22.88818359375
20.1416015625
33.87451171875
25.634765625
29.296875
28.38134765625
22.88818359375
32.04345703125
26.55029296875
32.958984375
34.7900390625
24.71923828125
24.71923828125
37.53662109375
43.02978515625
36.62109375
25.634765625
17.39501953125
21.05712890625
23.8037109375
19.22607421875
15.56396484375
14.6484375
15.56396484375
17.39501953125
22.88818359375
30.21240234375
36.62109375
36.62109375
34.7900390625
47.607421875
58.59375
50.35400390625
51.26953125
39.36767578125
27.4658203125
27.4658203125
33.87451171875
30.21240234375
28.38134765625
22.88818359375
28.38134765625
41.19873046875
30.21240234375
29.296875
28.38134765625
28.38134765625
30.21240234375
23.8037109375
38.4521484375
29.296875
27.4658203125
35.70556640625
31.1279296875
31.1279296875
15.56396484375
6.40869140625
25.634765625
31.1279296875
24.71923828125
13.73291015625
19.22607421875
16.4794921875
21.05712890625
16.4794921875
15.56396484375
15.56396484375
10.986328125
17.39501953125
14.6484375
22.88818359375
27.4658203125
34.7900390625
21.97265625
12.8173828125
3.662109375
4.57763671875
9.1552734375
17.39501953125
20.1416015625
12.8173828125
4.57763671875
0.91552734375
10.986328125
16.4794921875
5.4931640625
20.1416015625
13.73291015625
9.1552734375
11.90185546875
22.88818359375
5.4931640625
-10.986328125
-12.8173828125
-0.91552734375
-16.4794921875
-12.8173828125
-7.32421875
0
-3.662109375
8.23974609375
0.91552734375
-16.4794921875
-7.32421875
4.57763671875
4.57763671875
0.91552734375
-15.56396484375
-14.6484375
5.4931640625
14.6484375
5.4931640625
6.40869140625
-11.90185546875
-17.39501953125
-7.32421875
0.91552734375
-6.40869140625
-11.90185546875
-4.57763671875
13.73291015625
5.4931640625
-11.90185546875
-11.90185546875
-0.91552734375
10.986328125
19.22607421875
25.634765625
20.1416015625
12.8173828125
11.90185546875
11.90185546875
-6.40869140625
-0.91552734375
3.662109375
-0.91552734375
-3.662109375
-0.91552734375
-0.91552734375
27.4658203125
41.19873046875
37.53662109375
53.1005859375
76.904296875
75.0732421875
67.7490234375
72.32666015625
68.66455078125
49.4384765625
44.86083984375
59.50927734375
80.56640625
94.29931640625
106.201171875
105.28564453125
94.29931640625
81.48193359375
85.14404296875
105.28564453125
96.13037109375
104.3701171875
95.21484375
87.890625
83.31298828125
81.48193359375
86.97509765625
95.21484375
105.28564453125
88.80615234375
63.17138671875
63.17138671875
55.84716796875
45.7763671875
32.958984375
35.70556640625
26.55029296875
12.8173828125
-2.74658203125
-9.1552734375
-1.8310546875
-0.91552734375
-15.56396484375
-32.04345703125
-15.56396484375
-21.97265625
-19.22607421875
17.39501953125
2.74658203125
-7.32421875
-5.4931640625
-1.8310546875
-9.1552734375
-11.90185546875
-14.6484375
-15.56396484375
-3.662109375
-1.8310546875
-4.57763671875
0.91552734375
-8.23974609375
-10.986328125
-12.8173828125
-21.05712890625
-19.22607421875
-32.04345703125
-10.986328125
14.6484375
67.7490234375
130.0048828125
195.00732421875
246.27685546875
310.36376953125
392.76123046875
500.79345703125
574.951171875
667.41943359375
775.45166015625
850.52490234375
880.7373046875
909.11865234375
889.892578125
792.8466796875
649.10888671875
444.9462890625
230.712890625
35.70556640625
-114.44091796875
-169.37255859375
-223.388671875
-250.8544921875
-246.27685546875
-197.75390625
-134.58251953125
-69.580078125
-43.02978515625
-35.70556640625
-12.8173828125
11.90185546875
18.310546875
0.91552734375
1.8310546875
0
0.91552734375
-0.91552734375
7.32421875
32.04345703125
44.86083984375
32.958984375
25.634765625
19.22607421875
13.73291015625
-2.74658203125
14.6484375
21.97265625
30.21240234375
40.283203125
38.4521484375
13.73291015625
10.07080078125
16.4794921875
12.8173828125
20.1416015625
33.87451171875
26.55029296875
23.8037109375
37.53662109375
44.86083984375
42.1142578125
48.52294921875
53.1005859375
48.52294921875
42.1142578125
36.62109375
43.9453125
47.607421875
55.84716796875
39.36767578125
36.62109375
46.69189453125
53.1005859375
58.59375
56.7626953125
58.59375
58.59375
65.00244140625
68.66455078125
75.98876953125
93.3837890625
103.45458984375
102.5390625
97.0458984375
92.46826171875
115.3564453125
125.42724609375
122.6806640625
111.6943359375
105.28564453125
101.62353515625
100.7080078125
107.11669921875
114.44091796875
120.849609375
124.51171875
126.3427734375
146.484375
171.20361328125
171.20361328125
183.10546875
184.02099609375
192.2607421875
184.9365234375
185.85205078125
192.2607421875
198.66943359375
209.65576171875
197.75390625
215.14892578125
227.96630859375
218.81103515625
233.45947265625
243.5302734375
267.333984375
270.99609375
278.3203125
281.982421875
288.39111328125
291.1376953125
303.03955078125
300.29296875
295.71533203125
296.630859375
300.29296875
289.306640625
296.630859375
312.19482421875
326.84326171875
335.99853515625
333.251953125
342.4072265625
337.82958984375
327.7587890625
310.36376953125
308.53271484375
320.4345703125
325.927734375
303.955078125
296.630859375
290.22216796875
276.4892578125
269.1650390625
256.34765625
242.61474609375
231.62841796875
217.8955078125
208.740234375
182.18994140625
174.86572265625
166.6259765625
162.9638671875
164.794921875
149.23095703125
139.16015625
120.849609375
124.51171875
114.44091796875
99.79248046875
90.63720703125
74.15771484375
77.81982421875
77.81982421875
75.0732421875
79.65087890625
75.0732421875
54.931640625
50.35400390625
52.18505859375
57.67822265625
65.91796875
67.7490234375
61.34033203125
65.00244140625
56.7626953125
53.1005859375
54.01611328125
68.66455078125
77.81982421875
76.904296875
63.17138671875
58.59375
59.50927734375
64.0869140625
54.01611328125
31.1279296875
52.18505859375
63.17138671875
72.32666015625
72.32666015625
72.32666015625
71.4111328125
66.83349609375
73.2421875
88.80615234375
76.904296875
61.34033203125
46.69189453125
39.36767578125
53.1005859375
67.7490234375
71.4111328125
78.7353515625
71.4111328125
62.255859375
49.4384765625
54.931640625
76.904296875
92.46826171875
79.65087890625
76.904296875
87.890625
83.31298828125
75.98876953125
70.49560546875
68.66455078125
81.48193359375
93.3837890625
80.56640625
69.580078125
58.59375
69.580078125
83.31298828125
76.904296875
72.32666015625
70.49560546875
84.228515625
85.14404296875
85.14404296875
93.3837890625
81.48193359375
74.15771484375
68.66455078125
59.50927734375
60.4248046875
71.4111328125
54.931640625
48.52294921875
50.35400390625
56.7626953125
71.4111328125
72.32666015625
54.931640625
53.1005859375
66.83349609375
67.7490234375
69.580078125
49.4384765625
50.35400390625
60.4248046875
53.1005859375
42.1142578125
43.02978515625
44.86083984375
39.36767578125
33.87451171875
25.634765625
48.52294921875
54.931640625
56.7626953125
51.26953125
53.1005859375
54.931640625
59.50927734375
44.86083984375
54.01611328125
69.580078125
67.7490234375
57.67822265625
55.84716796875
58.59375
50.35400390625
54.931640625
47.607421875
40.283203125
35.70556640625
32.958984375
27.4658203125
43.02978515625
46.69189453125
51.26953125
38.4521484375
36.62109375
31.1279296875
26.55029296875
24.71923828125
27.4658203125
29.296875
41.19873046875
38.4521484375
40.283203125
32.04345703125
27.4658203125
31.1279296875
23.8037109375
20.1416015625
25.634765625
13.73291015625
15.56396484375
21.97265625
34.7900390625
26.55029296875
21.97265625
37.53662109375
37.53662109375
16.4794921875
32.958984375
45.7763671875
36.62109375
31.1279296875
17.39501953125
1.8310546875
1.8310546875
5.4931640625
29.296875
27.4658203125
22.88818359375
27.4658203125
23.8037109375
23.8037109375
37.53662109375
34.7900390625
13.73291015625
20.1416015625
21.05712890625
21.05712890625
12.8173828125
9.1552734375
19.22607421875
11.90185546875
12.8173828125
19.22607421875
13.73291015625
20.1416015625
7.32421875
13.73291015625
21.97265625
15.56396484375
9.1552734375
12.8173828125
5.4931640625
14.6484375
21.05712890625
19.22607421875
19.22607421875
18.310546875
12.8173828125
24.71923828125
34.7900390625
34.7900390625
27.4658203125
32.958984375
43.02978515625
38.4521484375
40.283203125
48.52294921875
44.86083984375
34.7900390625
43.9453125
62.255859375
56.7626953125
48.52294921875
47.607421875
65.91796875
84.228515625
100.7080078125
119.93408203125
119.0185546875
113.525390625
101.62353515625
92.46826171875
101.62353515625
100.7080078125
97.96142578125
87.890625
86.97509765625
81.48193359375
63.17138671875
75.0732421875
81.48193359375
91.552734375
88.80615234375
76.904296875
81.48193359375
67.7490234375
48.52294921875
24.71923828125
21.97265625
23.8037109375
19.22607421875
9.1552734375
12.8173828125
1.8310546875
-16.4794921875
-29.296875
-27.4658203125
-28.38134765625
-32.04345703125
-21.05712890625
-30.21240234375
-25.634765625
-13.73291015625
-10.986328125
-16.4794921875
-25.634765625
-24.71923828125
-24.71923828125
-13.73291015625
-31.1279296875
-23.8037109375
-19.22607421875
-32.04345703125
-41.19873046875
-39.36767578125
-48.52294921875
-52.18505859375
-45.7763671875
-30.21240234375
-7.32421875
12.8173828125
76.904296875
140.9912109375
188.5986328125
251.77001953125
337.82958984375
437.6220703125
520.01953125
614.31884765625
699.462890625
784.60693359375
854.18701171875
892.63916015625
896.30126953125
856.01806640625
732.421875
542.90771484375
322.265625
108.0322265625
-58.59375
-164.794921875
-211.48681640625
-253.60107421875
-254.5166015625
-238.037109375
-204.16259765625
-159.3017578125
-102.5390625
-48.52294921875
-39.36767578125
-19.22607421875
-3.662109375
-15.56396484375
-10.986328125
-4.57763671875
-21.97265625
-16.4794921875
-17.39501953125
-12.8173828125
-18.310546875
-20.1416015625
-22.88818359375
-12.8173828125
-15.56396484375
-29.296875
-15.56396484375
-4.57763671875
-5.4931640625
-7.32421875
-9.1552734375
-4.57763671875
-5.4931640625
-8.23974609375
-14.6484375
-21.97265625
-33.87451171875
-27.4658203125
-14.6484375
-10.07080078125
-9.1552734375
8.23974609375
-2.74658203125
-3.662109375
-4.57763671875
-12.8173828125
-0.91552734375
7.32421875
6.40869140625
-0.91552734375
4.57763671875
-6.40869140625
-0.91552734375
-2.74658203125
-10.986328125
-9.1552734375
7.32421875
22.88818359375
30.21240234375
13.73291015625
15.56396484375
41.19873046875
43.9453125
31.1279296875
40.283203125
44.86083984375
46.69189453125
54.01611328125
56.7626953125
54.931640625
56.7626953125
68.66455078125
72.32666015625
70.49560546875
67.7490234375
70.49560546875
69.580078125
91.552734375
98.876953125
99.79248046875
97.96142578125
102.5390625
110.77880859375
122.6806640625
130.0048828125
120.849609375
121.76513671875
125.42724609375
128.173828125
142.822265625
130.0048828125
138.24462890625
142.822265625
156.55517578125
176.69677734375
199.5849609375
205.99365234375
205.078125
219.7265625
205.078125
227.96630859375
233.45947265625
238.037109375
230.712890625
230.712890625
235.29052734375
234.375
251.77001953125
254.5166015625
263.671875
263.671875
261.8408203125
271.91162109375
262.75634765625
268.24951171875
268.24951171875
262.75634765625
253.60107421875
253.60107421875
246.27685546875
238.037109375
253.60107421875
248.10791015625
228.8818359375
206.9091796875
200.50048828125
195.9228515625
173.03466796875
163.87939453125
154.72412109375
142.822265625
121.76513671875
99.79248046875
86.97509765625
79.65087890625
65.00244140625
66.83349609375
54.01611328125
48.52294921875
32.958984375
29.296875
34.7900390625
31.1279296875
12.8173828125
-14.6484375
-31.1279296875
-38.4521484375
-34.7900390625
-13.73291015625
-22.88818359375
-30.21240234375
-25.634765625
-27.4658203125
-12.8173828125
-10.07080078125
-1.8310546875
1.8310546875
2.74658203125
-9.1552734375
-12.8173828125
-7.32421875
-11.90185546875
-16.4794921875
-33.87451171875
-33.87451171875
-38.4521484375
-14.6484375
-33.87451171875
-43.02978515625
-36.62109375
-32.958984375
-40.283203125
-32.958984375
-28.38134765625
-32.04345703125
-36.62109375
-34.7900390625
-34.7900390625
-15.56396484375
0.91552734375
-6.40869140625
-19.22607421875
-25.634765625
-25.634765625
-18.310546875
-21.97265625
-22.88818359375
-26.55029296875
-18.310546875
-19.22607421875
-9.1552734375
-16.4794921875
-27.4658203125
-26.55029296875
-20.1416015625
-33.87451171875
-36.62109375
-22.88818359375
-8.23974609375
-6.40869140625
-8.23974609375
-5.4931640625
-19.22607421875
-24.71923828125
-16.4794921875
-13.73291015625
-29.296875
-30.21240234375
-27.4658203125
-32.04345703125
-24.71923828125
-23.8037109375
-20.1416015625
-29.296875
-26.55029296875
-29.296875
-32.958984375
-37.53662109375
-21.97265625
-21.97265625
-16.4794921875
-10.986328125
-45.7763671875
-47.607421875
-44.86083984375
-54.931640625
-42.1142578125
-35.70556640625
-29.296875
-26.55029296875
-34.7900390625
-52.18505859375
-44.86083984375
-50.35400390625
-54.01611328125
-48.52294921875
-56.7626953125
-57.67822265625
-76.904296875
-61.34033203125
-54.931640625
-38.4521484375
-52.18505859375
-61.34033203125
-66.83349609375
-70.49560546875
-71.4111328125
-74.15771484375
-85.14404296875
-75.0732421875
-59.50927734375
-56.7626953125
-79.65087890625
-81.48193359375
-69.580078125
-59.50927734375
-63.17138671875
-70.49560546875
-78.7353515625
-75.0732421875
-65.00244140625
-53.1005859375
-49.4384765625
-74.15771484375
-83.31298828125
-77.81982421875
-67.7490234375
-77.81982421875
-70.49560546875
-61.34033203125
-50.35400390625
-60.4248046875
-65.91796875
-78.7353515625
-60.4248046875
-66.83349609375
-85.14404296875
-84.228515625
-85.14404296875
-73.2421875
-66.83349609375
-59.50927734375
-70.49560546875
-86.0595703125
-87.890625
-82.3974609375
-77.81982421875
-89.7216796875
-105.28564453125
-121.76513671875
-92.46826171875
-65.00244140625
-55.84716796875
-69.580078125
-70.49560546875
-65.00244140625
-80.56640625
-70.49560546875
-80.56640625
-91.552734375
-86.97509765625
-84.228515625
-92.46826171875
-93.3837890625
-75.0732421875
-76.904296875
-87.890625
-99.79248046875
-91.552734375
-86.0595703125
-93.3837890625
-100.7080078125
-92.46826171875
-87.890625
-67.7490234375
-65.91796875
-70.49560546875
-70.49560546875
-67.7490234375
-56.7626953125
-50.35400390625
-33.87451171875
-42.1142578125
-30.21240234375
-38.4521484375
-25.634765625
-31.1279296875
-51.26953125
-44.86083984375
-28.38134765625
-8.23974609375
0.91552734375
13.73291015625
19.22607421875
7.32421875
-10.07080078125
-21.05712890625
-9.1552734375
-10.07080078125
-12.8173828125
-13.73291015625
-8.23974609375
-12.8173828125
-14.6484375
-12.8173828125
-19.22607421875
-13.73291015625
-25.634765625
-43.02978515625
-52.18505859375
-54.931640625
-76.904296875
-65.00244140625
-65.00244140625
-69.580078125
-77.81982421875
-89.7216796875
-93.3837890625
-106.201171875
-119.0185546875
-108.0322265625
-107.11669921875
-112.60986328125
-116.27197265625
-111.6943359375
-110.77880859375
-123.59619140625
-131.8359375
-150.146484375
-132.75146484375
-123.59619140625
-119.0185546875
-119.0185546875
-129.08935546875
-135.498046875
-110.77880859375
-111.6943359375
-119.93408203125
-138.24462890625
-162.04833984375
-152.89306640625
-169.37255859375
-161.1328125
-146.484375
-108.94775390625
-47.607421875
0
61.34033203125
132.75146484375
216.064453125
326.84326171875
422.9736328125
496.2158203125
570.37353515625
676.57470703125
760.80322265625
808.41064453125
808.41064453125
781.8603515625
702.20947265625
574.951171875
413.818359375
216.064453125
2.74658203125
-156.55517578125
-242.61474609375
-281.982421875
-306.70166015625
-321.35009765625
-286.56005859375
-243.5302734375
-200.50048828125
-162.9638671875
-148.3154296875
-136.41357421875
-127.25830078125
-100.7080078125
-110.77880859375
-113.525390625
-114.44091796875
-100.7080078125
-102.5390625
-114.44091796875
-83.31298828125
-86.0595703125
-100.7080078125
-111.6943359375
-113.525390625
-105.28564453125
-85.14404296875
-86.0595703125
-83.31298828125
-75.98876953125
-91.552734375
-88.80615234375
-88.80615234375
-95.21484375
-97.96142578125
-96.13037109375
-88.80615234375
-78.7353515625
-77.81982421875
-75.0732421875
-71.4111328125
-84.228515625
-87.890625
-76.904296875
-68.66455078125
-68.66455078125
-62.255859375
-64.0869140625
-62.255859375
-51.26953125
-65.91796875
-86.0595703125
-76.904296875
-45.7763671875
-39.36767578125
-36.62109375
-33.87451171875
-34.7900390625
-39.36767578125
-32.04345703125
-44.86083984375
-49.4384765625
-32.958984375
-17.39501953125
-12.8173828125
-16.4794921875
-12.8173828125
-14.6484375
-16.4794921875
-10.07080078125
2.74658203125
-5.4931640625
32.04345703125
19.22607421875
-1.8310546875
5.4931640625
17.39501953125
16.4794921875
11.90185546875
34.7900390625
37.53662109375
31.1279296875
57.67822265625
91.552734375
68.66455078125
59.50927734375
66.83349609375
79.65087890625
84.228515625
100.7080078125
120.849609375
117.1875
134.58251953125
145.56884765625
149.23095703125
147.39990234375
139.16015625
140.9912109375
141.90673828125
144.6533203125
167.54150390625
173.03466796875
192.2607421875
192.2607421875
183.10546875
193.17626953125
194.091796875
205.078125
210.5712890625
209.65576171875
216.97998046875
216.97998046875
217.8955078125
229.79736328125
209.65576171875
201.416015625
192.2607421875
201.416015625
197.75390625
201.416015625
191.34521484375
184.02099609375
180.35888671875
162.9638671875
153.80859375
152.89306640625
144.6533203125
127.25830078125
121.76513671875
104.3701171875
101.62353515625
87.890625
83.31298828125
64.0869140625
57.67822265625
32.958984375
20.1416015625
-2.74658203125
-6.40869140625
-2.74658203125
-15.56396484375
-10.986328125
-2.74658203125
-14.6484375
-26.55029296875
-21.97265625
-21.97265625
-38.4521484375
-55.84716796875
-55.84716796875
-55.84716796875
-51.26953125
-62.255859375
-54.01611328125
-54.931640625
-55.84716796875
-60.4248046875
-69.580078125
-76.904296875
-65.91796875
-53.1005859375
-42.1142578125
-55.84716796875
-65.00244140625
-61.34033203125
-42.1142578125
-45.7763671875
-46.69189453125
-55.84716796875
-43.02978515625
-39.36767578125
-32.958984375
-46.69189453125
-65.91796875
-63.17138671875
-53.1005859375
-47.607421875
-55.84716796875
-55.84716796875
-62.255859375
-56.7626953125
-51.26953125
-62.255859375
-65.00244140625
-63.17138671875
-58.59375
-45.7763671875
-57.67822265625
-36.62109375
-33.87451171875
-62.255859375
-61.34033203125
-54.01611328125
-38.4521484375
-42.1142578125
-43.9453125
-45.7763671875
-41.19873046875
-38.4521484375
-34.7900390625
-35.70556640625
-27.4658203125
-39.36767578125
-43.9453125
-52.18505859375
-46.69189453125
-38.4521484375
-32.958984375
-25.634765625
-26.55029296875
-30.21240234375
-37.53662109375
-40.283203125
-32.958984375
-32.04345703125
-47.607421875
-46.69189453125
-36.62109375
-46.69189453125
-55.84716796875
-55.84716796875
-52.18505859375
-52.18505859375
-58.59375
-59.50927734375
-50.35400390625
-41.19873046875
-47.607421875
-52.18505859375
-44.86083984375
-57.67822265625
-75.0732421875
-96.13037109375
-84.228515625
-65.91796875
-57.67822265625
-67.7490234375
-54.931640625
-58.59375
-70.49560546875
-56.7626953125
-60.4248046875
-77.81982421875
-84.228515625
-75.0732421875
-62.255859375
-71.4111328125
-73.2421875
-54.931640625
-65.00244140625
-82.3974609375
-86.97509765625
-81.48193359375
-70.49560546875
-73.2421875
-64.0869140625
-71.4111328125
-81.48193359375
-75.0732421875
-72.32666015625
-79.65087890625
-84.228515625
-85.14404296875
-79.65087890625
-95.21484375
-74.15771484375
-77.81982421875
-80.56640625
-72.32666015625
-77.81982421875
-94.29931640625
-94.29931640625
-80.56640625
-87.890625
-78.7353515625
-70.49560546875
-67.7490234375
-75.0732421875
-76.904296875
-75.98876953125
-85.14404296875
-82.3974609375
-82.3974609375
-89.7216796875
-93.3837890625
-79.65087890625
-74.15771484375
-91.552734375
-79.65087890625
-75.0732421875
-89.7216796875
-73.2421875
-53.1005859375
-76.904296875
-85.14404296875
-81.48193359375
-78.7353515625
-62.255859375
-54.931640625
-60.4248046875
-72.32666015625
-83.31298828125
-71.4111328125
-63.17138671875
-60.4248046875
-45.7763671875
-37.53662109375
-39.36767578125
-23.8037109375
-9.1552734375
-21.05712890625
-11.90185546875
-3.662109375
11.90185546875
17.39501953125
19.22607421875
13.73291015625
14.6484375
22.88818359375
21.97265625
30.21240234375
26.55029296875
26.55029296875
27.4658203125
1.8310546875
-10.986328125
-22.88818359375
-21.97265625
-13.73291015625
-18.310546875
-2.74658203125
-3.662109375
-1.8310546875
-10.07080078125
-22.88818359375
-28.38134765625
-53.1005859375
-67.7490234375
-84.228515625
-80.56640625
-84.228515625
-92.46826171875
-89.7216796875
-93.3837890625
-100.7080078125
-99.79248046875
-99.79248046875
-97.96142578125
-92.46826171875
-93.3837890625
-97.96142578125
-107.11669921875
-101.62353515625
-101.62353515625
-108.94775390625
-97.96142578125
-95.21484375
-98.876953125
-104.3701171875
-110.77880859375
-88.80615234375
-91.552734375
-88.80615234375
-92.46826171875
-102.5390625
-110.77880859375
-97.0458984375
-64.0869140625
-39.36767578125
6.40869140625
84.228515625
144.6533203125
236.2060546875
351.5625
440.36865234375
502.62451171875
600.5859375
698.54736328125
775.45166015625
822.1435546875
845.03173828125
801.08642578125
681.15234375
533.75244140625
344.23828125
119.0185546875
-63.17138671875
-194.091796875
-259.09423828125
-283.8134765625
-307.6171875
-322.265625
-310.36376953125
-254.5166015625
-194.091796875
-148.3154296875
-121.76513671875
-101.62353515625
-62.255859375
-64.0869140625
-69.580078125
-49.4384765625
-48.52294921875
-73.2421875
-75.0732421875
-70.49560546875
-69.580078125
-74.15771484375
-64.0869140625
-63.17138671875
-66.83349609375
-57.67822265625
-54.01611328125
-47.607421875
-51.26953125
-62.255859375
-82.3974609375
-61.34033203125
-42.1142578125
-53.1005859375
-57.67822265625
-54.931640625
-58.59375
-60.4248046875
-54.931640625
-57.67822265625
-55.84716796875
-45.7763671875
-50.35400390625
-64.0869140625
-54.931640625
-36.62109375
-18.310546875
-40.283203125
-57.67822265625
-44.86083984375
-37.53662109375
-39.36767578125
-38.4521484375
-19.22607421875
-17.39501953125
-24.71923828125
-21.05712890625
-11.90185546875
-1.8310546875
-2.74658203125
0.91552734375
10.07080078125
17.39501953125
19.22607421875
-4.57763671875
-2.74658203125
1.8310546875
12.8173828125
20.1416015625
36.62109375
33.87451171875
37.53662109375
41.19873046875
50.35400390625
56.7626953125
54.931640625
53.1005859375
41.19873046875
46.69189453125
58.59375
62.255859375
65.91796875
55.84716796875
69.580078125
102.5390625
101.62353515625
91.552734375
97.0458984375
119.0185546875
126.3427734375
138.24462890625
155.6396484375
151.9775390625
152.89306640625
175.78125
173.9501953125
173.9501953125
180.35888671875
182.18994140625
178.52783203125
187.68310546875
195.00732421875
201.416015625
214.2333984375
216.97998046875
216.064453125
215.14892578125
227.05078125
235.29052734375
238.95263671875
228.8818359375
229.79736328125
238.037109375
242.61474609375
253.60107421875
254.5166015625
249.0234375
238.037109375
244.44580078125
234.375
207.82470703125
201.416015625
194.091796875
184.9365234375
166.6259765625
184.02099609375
171.20361328125
138.24462890625
137.3291015625
126.3427734375
108.0322265625
102.5390625
97.0458984375
75.0732421875
76.904296875
68.66455078125
59.50927734375
43.9453125
21.05712890625
21.05712890625
21.97265625
16.4794921875
21.97265625
26.55029296875
13.73291015625
11.90185546875
9.1552734375
-2.74658203125
-16.4794921875
-15.56396484375
-8.23974609375
-5.4931640625
-8.23974609375
-12.8173828125
-12.8173828125
-17.39501953125
-13.73291015625
-21.97265625
-21.05712890625
-25.634765625
-18.310546875
-7.32421875
-3.662109375
-5.4931640625
-11.90185546875
-7.32421875
0
-10.07080078125
-23.8037109375
-10.07080078125
-11.90185546875
-24.71923828125
-25.634765625
4.57763671875
11.90185546875
-5.4931640625
6.40869140625
18.310546875
17.39501953125
17.39501953125
-9.1552734375
-9.1552734375
-7.32421875
-1.8310546875
-11.90185546875
8.23974609375
9.1552734375
1.8310546875
-4.57763671875
10.07080078125
17.39501953125
4.57763671875
4.57763671875
12.8173828125
16.4794921875
12.8173828125
12.8173828125
9.1552734375
-0.91552734375
3.662109375
4.57763671875
-2.74658203125
8.23974609375
14.6484375
21.05712890625
17.39501953125
5.4931640625
-4.57763671875
-5.4931640625
-8.23974609375
-19.22607421875
-3.662109375
19.22607421875
5.4931640625
-9.1552734375
4.57763671875
21.97265625
21.05712890625
-5.4931640625
-16.4794921875
-16.4794921875
-11.90185546875
-6.40869140625
-13.73291015625
-21.97265625
-19.22607421875
-15.56396484375
-21.05712890625
-18.310546875
-3.662109375
-9.1552734375
-10.986328125
-12.8173828125
-15.56396484375
-16.4794921875
-19.22607421875
-21.97265625
-16.4794921875
-24.71923828125
-10.986328125
-1.8310546875
-14.6484375
-22.88818359375
-32.04345703125
-27.4658203125
-21.97265625
-17.39501953125
-24.71923828125
-20.1416015625
-22.88818359375
-11.90185546875
-9.1552734375
-10.07080078125
-28.38134765625
-45.7763671875
-17.39501953125
-5.4931640625
-15.56396484375
-32.958984375
-35.70556640625
-40.283203125
-31.1279296875
-20.1416015625
-15.56396484375
-36.62109375
-45.7763671875
-35.70556640625
-18.310546875
-22.88818359375
-21.97265625
-24.71923828125
-25.634765625
-19.22607421875
-20.1416015625
-15.56396484375
-25.634765625
-42.1142578125
-37.53662109375
-35.70556640625
-33.87451171875
-32.04345703125
-23.8037109375
-26.55029296875
-22.88818359375
-18.310546875
-11.90185546875
-25.634765625
-27.4658203125
-23.8037109375
-41.19873046875
-61.34033203125
-44.86083984375
-40.283203125
-43.9453125
-38.4521484375
-40.283203125
-26.55029296875
-4.57763671875
-22.88818359375
-41.19873046875
-36.62109375
-28.38134765625
-32.958984375
-21.05712890625
-13.73291015625
-20.1416015625
-29.296875
-30.21240234375
-35.70556640625
-36.62109375
-42.1142578125
-31.1279296875
-4.57763671875
-11.90185546875
0
9.1552734375
34.7900390625
52.18505859375
48.52294921875
50.35400390625
59.50927734375
37.53662109375
21.97265625
47.607421875
59.50927734375
71.4111328125
66.83349609375
58.59375
48.52294921875
53.1005859375
59.50927734375
64.0869140625
65.00244140625
67.7490234375
58.59375
49.4384765625
47.607421875
38.4521484375
29.296875
46.69189453125
62.255859375
53.1005859375
47.607421875
42.1142578125
23.8037109375
0.91552734375
-3.662109375
-8.23974609375
2.74658203125
-1.8310546875
-14.6484375
-40.283203125
-36.62109375
-29.296875
-17.39501953125
-20.1416015625
-34.7900390625
-54.01611328125
-59.50927734375
-43.02978515625
-55.84716796875
-54.01611328125
-48.52294921875
-35.70556640625
-34.7900390625
-34.7900390625
-48.52294921875
-65.91796875
-54.931640625
-43.9453125
-41.19873046875
-37.53662109375
-43.02978515625
-54.01611328125
-58.59375
-48.52294921875
-46.69189453125
-21.05712890625
6.40869140625
43.02978515625
107.11669921875
165.71044921875
206.9091796875
285.64453125
401.0009765625
503.5400390625
574.03564453125
659.1796875
745.2392578125
812.07275390625
860.595703125
888.0615234375
850.52490234375
735.16845703125
592.34619140625
396.42333984375
181.2744140625
-35.70556640625
-166.6259765625
-218.81103515625
-247.1923828125
-275.57373046875
-281.982421875
-249.0234375
-184.9365234375
-118.10302734375
-78.7353515625
-63.17138671875
-54.931640625
-52.18505859375
-28.38134765625
-18.310546875
-23.8037109375
-40.283203125
-40.283203125
-36.62109375
-37.53662109375
-41.19873046875
-24.71923828125
-10.07080078125
-19.22607421875
-33.87451171875
-19.22607421875
-17.39501953125
-15.56396484375
-10.07080078125
-14.6484375
-14.6484375
-12.8173828125
-7.32421875
-4.57763671875
-26.55029296875
-28.38134765625
-13.73291015625
-12.8173828125
-2.74658203125
11.90185546875
9.1552734375
6.40869140625
9.1552734375
7.32421875
0.91552734375
23.8037109375
28.38134765625
30.21240234375
17.39501953125
11.90185546875
18.310546875
16.4794921875
25.634765625
32.958984375
28.38134765625
36.62109375
34.7900390625
33.87451171875
30.21240234375
43.02978515625
41.19873046875
43.02978515625
43.02978515625
37.53662109375
28.38134765625
48.52294921875
54.01611328125
57.67822265625
57.67822265625
54.931640625
49.4384765625
54.01611328125
77.81982421875
80.56640625
111.6943359375
113.525390625
104.3701171875
107.11669921875
101.62353515625
106.201171875
113.525390625
123.59619140625
117.1875
123.59619140625
129.08935546875
126.3427734375
143.73779296875
148.3154296875
142.822265625
168.45703125
177.6123046875
193.17626953125
192.2607421875
210.5712890625
207.82470703125
213.31787109375
209.65576171875
225.2197265625
252.685546875
240.78369140625
237.12158203125
249.0234375
257.26318359375
251.77001953125
265.5029296875
270.08056640625
277.40478515625
278.3203125
272.8271484375
275.57373046875
282.89794921875
290.22216796875
292.96875
290.22216796875
296.630859375
293.88427734375
287.4755859375
276.4892578125
276.4892578125
264.58740234375
269.1650390625
269.1650390625
257.26318359375
248.10791015625
255.43212890625
246.27685546875
227.96630859375
211.48681640625
206.9091796875
185.85205078125
163.87939453125
161.1328125
142.822265625
136.41357421875
117.1875
119.0185546875
125.42724609375
104.3701171875
99.79248046875
89.7216796875
59.50927734375
55.84716796875
43.9453125
45.7763671875
52.18505859375
39.36767578125
44.86083984375
53.1005859375
41.19873046875
34.7900390625
42.1142578125
33.87451171875
32.04345703125
29.296875
36.62109375
27.4658203125
11.90185546875
2.74658203125
6.40869140625
5.4931640625
12.8173828125
7.32421875
11.90185546875
27.4658203125
34.7900390625
38.4521484375
30.21240234375
21.97265625
6.40869140625
23.8037109375
22.88818359375
31.1279296875
18.310546875
29.296875
38.4521484375
32.958984375
17.39501953125
21.05712890625
32.04345703125
42.1142578125
43.9453125
43.02978515625
52.18505859375
51.26953125
33.87451171875
43.9453125
45.7763671875
35.70556640625
37.53662109375
23.8037109375
36.62109375
44.86083984375
51.26953125
49.4384765625
41.19873046875
33.87451171875
49.4384765625
34.7900390625
32.958984375
32.04345703125
30.21240234375
39.36767578125
25.634765625
32.958984375
42.1142578125
55.84716796875
49.4384765625
46.69189453125
39.36767578125
35.70556640625
29.296875
17.39501953125
18.310546875
20.1416015625
16.4794921875
19.22607421875
26.55029296875
42.1142578125
51.26953125
62.255859375
51.26953125
29.296875
22.88818359375
18.310546875
32.04345703125
34.7900390625
29.296875
38.4521484375
35.70556640625
34.7900390625
14.6484375
22.88818359375
22.88818359375
9.1552734375
12.8173828125
21.97265625
25.634765625
13.73291015625
27.4658203125
30.21240234375
22.88818359375
13.73291015625
19.22607421875
8.23974609375
0
-5.4931640625
2.74658203125
8.23974609375
3.662109375
26.55029296875
42.1142578125
22.88818359375
20.1416015625
21.97265625
14.6484375
3.662109375
0
15.56396484375
-2.74658203125
3.662109375
6.40869140625
-17.39501953125
-18.310546875
7.32421875
8.23974609375
18.310546875
33.87451171875
11.90185546875
14.6484375
9.1552734375
-5.4931640625
10.986328125
15.56396484375
21.05712890625
19.22607421875
18.310546875
18.310546875
19.22607421875
20.1416015625
12.8173828125
10.07080078125
20.1416015625
21.97265625
6.40869140625
4.57763671875
0.91552734375
-0.91552734375
0.91552734375
3.662109375
14.6484375
17.39501953125
21.05712890625
10.986328125
18.310546875
12.8173828125
14.6484375
23.8037109375
18.310546875
4.57763671875
0
3.662109375
7.32421875
-12.8173828125
5.4931640625
8.23974609375
17.39501953125
18.310546875
10.986328125
4.57763671875
17.39501953125
4.57763671875
-8.23974609375
-0.91552734375
15.56396484375
13.73291015625
9.1552734375
5.4931640625
14.6484375
17.39501953125
11.90185546875
8.23974609375
32.958984375
41.19873046875
42.1142578125
51.26953125
50.35400390625
74.15771484375
64.0869140625
61.34033203125
65.00244140625
62.255859375
63.17138671875
64.0869140625
79.65087890625
75.0732421875
77.81982421875
110.77880859375
121.76513671875
109.86328125
111.6943359375
112.60986328125
102.5390625
108.94775390625
108.0322265625
111.6943359375
99.79248046875
78.7353515625
78.7353515625
90.63720703125
86.0595703125
82.3974609375
70.49560546875
71.4111328125
81.48193359375
79.65087890625
61.34033203125
31.1279296875
17.39501953125
5.4931640625
6.40869140625
-9.1552734375
-31.1279296875
-12.8173828125
-7.32421875
0
3.662109375
14.6484375
0.91552734375
-6.40869140625
-2.74658203125
13.73291015625
8.23974609375
1.8310546875
1.8310546875
12.8173828125
-3.662109375
-5.4931640625
-3.662109375
-8.23974609375
-10.07080078125
-12.8173828125
-16.4794921875
-17.39501953125
-16.4794921875
-15.56396484375
-11.90185546875
-21.97265625
7.32421875
24.71923828125
42.1142578125
108.0322265625
173.9501953125
232.5439453125
298.4619140625
387.26806640625
477.9052734375
547.4853515625
646.3623046875
759.8876953125
833.1298828125
893.5546875
942.07763671875
920.10498046875
819.39697265625
671.08154296875
467.83447265625
236.2060546875
39.36767578125
-101.62353515625
-152.89306640625
-194.091796875
-221.5576171875
-215.14892578125
-200.50048828125
-141.90673828125
-90.63720703125
-57.67822265625
-19.22607421875
-0.91552734375
16.4794921875
22.88818359375
21.05712890625
32.04345703125
30.21240234375
6.40869140625
9.1552734375
10.986328125
-1.8310546875
-2.74658203125
14.6484375
15.56396484375
14.6484375
18.310546875
23.8037109375
26.55029296875
17.39501953125
16.4794921875
14.6484375
8.23974609375
25.634765625
39.36767578125
36.62109375
29.296875
18.310546875
16.4794921875
29.296875
34.7900390625
6.40869140625
10.07080078125
6.40869140625
17.39501953125
23.8037109375
40.283203125
43.02978515625
39.36767578125
42.1142578125
50.35400390625
33.87451171875
26.55029296875
43.02978515625
49.4384765625
58.59375
56.7626953125
47.607421875
52.18505859375
49.4384765625
60.4248046875
54.01611328125
57.67822265625
62.255859375
85.14404296875
76.904296875
76.904296875
87.890625
95.21484375
103.45458984375
98.876953125
88.80615234375
88.80615234375
103.45458984375
112.60986328125
108.94775390625
113.525390625
114.44091796875
109.86328125
110.77880859375
115.3564453125
128.173828125
139.16015625
153.80859375
151.9775390625
151.9775390625
164.794921875
180.35888671875
199.5849609375
202.33154296875
210.5712890625
219.7265625
213.31787109375
201.416015625
215.14892578125
221.5576171875
216.064453125
220.64208984375
240.78369140625
241.69921875
256.34765625
242.61474609375
244.44580078125
259.09423828125
254.5166015625
258.1787109375
269.1650390625
277.40478515625
273.74267578125
270.99609375
295.71533203125
289.306640625
294.7998046875
294.7998046875
303.03955078125
308.53271484375
296.630859375
299.37744140625
301.20849609375
302.1240234375
303.03955078125
310.36376953125
289.306640625
279.23583984375
268.24951171875
257.26318359375
260.009765625
240.78369140625
222.47314453125
217.8955078125
205.078125
191.34521484375
180.35888671875
180.35888671875
154.72412109375
132.75146484375
107.11669921875
93.3837890625
109.86328125
117.1875
91.552734375
79.65087890625
79.65087890625
73.2421875
63.17138671875
69.580078125
63.17138671875
54.01611328125
32.04345703125
28.38134765625
33.87451171875
22.88818359375
16.4794921875
21.97265625
4.57763671875
-6.40869140625
8.23974609375
10.986328125
14.6484375
14.6484375
25.634765625
33.87451171875
37.53662109375
28.38134765625
16.4794921875
11.90185546875
10.986328125
2.74658203125
-3.662109375
1.8310546875
21.97265625
23.8037109375
18.310546875
21.05712890625
18.310546875
22.88818359375
24.71923828125
26.55029296875
25.634765625
29.296875
22.88818359375
24.71923828125
35.70556640625
25.634765625
14.6484375
10.986328125
19.22607421875
25.634765625
24.71923828125
21.97265625
26.55029296875
15.56396484375
-0.91552734375
12.8173828125
4.57763671875
11.90185546875
18.310546875
19.22607421875
20.1416015625
4.57763671875
-3.662109375
11.90185546875
12.8173828125
-2.74658203125
5.4931640625
-19.22607421875
-10.07080078125
-1.8310546875
9.1552734375
26.55029296875
19.22607421875
10.986328125
15.56396484375
24.71923828125
6.40869140625
4.57763671875
10.07080078125
7.32421875
2.74658203125
4.57763671875
-1.8310546875
-4.57763671875
11.90185546875
2.74658203125
19.22607421875
6.40869140625
-4.57763671875
-1.8310546875
-12.8173828125
-15.56396484375
-35.70556640625
-35.70556640625
-33.87451171875
-35.70556640625
-31.1279296875
-25.634765625
-16.4794921875
-19.22607421875
-17.39501953125
-21.97265625
-29.296875
-30.21240234375
-27.4658203125
-31.1279296875
-32.958984375
-37.53662109375
-36.62109375
-38.4521484375
-45.7763671875
-21.97265625
-36.62109375
-41.19873046875
-36.62109375
-32.958984375
-51.26953125
-49.4384765625
-50.35400390625
-53.1005859375
-52.18505859375
-43.9453125
-44.86083984375
-43.9453125
-38.4521484375
-26.55029296875
-39.36767578125
-25.634765625
-24.71923828125
-43.9453125
-43.9453125
-46.69189453125
-49.4384765625
-64.0869140625
-63.17138671875
-51.26953125
-67.7490234375
-54.931640625
-67.7490234375
-53.1005859375
-33.87451171875
-45.7763671875
-58.59375
-61.34033203125
-45.7763671875
-43.9453125
-60.4248046875
-65.91796875
-44.86083984375
-55.84716796875
-76.904296875
-66.83349609375
-77.81982421875
-54.931640625
-46.69189453125
-92.46826171875
-88.80615234375
-70.49560546875
-58.59375
-52.18505859375
-65.00244140625
-67.7490234375
-72.32666015625
-71.4111328125
-57.67822265625
-75.98876953125
-84.228515625
-67.7490234375
-66.83349609375
-82.3974609375
-77.81982421875
-59.50927734375
-60.4248046875
-61.34033203125
-72.32666015625
-72.32666015625
-75.0732421875
-78.7353515625
-69.580078125
-65.00244140625
-73.2421875
-63.17138671875
-48.52294921875
-28.38134765625
-17.39501953125
-20.1416015625
-33.87451171875
-45.7763671875
-56.7626953125
-51.26953125
-34.7900390625
-14.6484375
7.32421875
22.88818359375
25.634765625
16.4794921875
1.8310546875
6.40869140625
4.57763671875
11.90185546875
19.22607421875
-2.74658203125
-4.57763671875
-5.4931640625
2.74658203125
-10.986328125
0
-3.662109375
0
3.662109375
-7.32421875
-14.6484375
-32.04345703125
-49.4384765625
-57.67822265625
-67.7490234375
-75.98876953125
-75.0732421875
-84.228515625
-94.29931640625
-90.63720703125
-96.13037109375
-89.7216796875
-95.21484375
-94.29931640625
-95.21484375
-104.3701171875
-110.77880859375
-117.1875
-119.93408203125
-99.79248046875
-101.62353515625
-104.3701171875
-101.62353515625
-110.77880859375
-112.60986328125
-126.3427734375
-128.173828125
-113.525390625
-126.3427734375
-122.6806640625
-112.60986328125
-110.77880859375
-122.6806640625
-122.6806640625
-94.29931640625
-66.83349609375
-40.283203125
16.4794921875
87.890625
161.1328125
236.2060546875
320.4345703125
417.48046875
496.2158203125
592.34619140625
686.6455078125
756.2255859375
802.91748046875
834.04541015625
809.326171875
702.20947265625
549.31640625
335.0830078125
121.76513671875
-41.19873046875
-151.06201171875
-229.79736328125
-285.64453125
-326.84326171875
-331.4208984375
-300.29296875
-251.77001953125
-204.16259765625
-147.39990234375
-119.0185546875
-125.42724609375
-117.1875
-102.5390625
-115.3564453125
-109.86328125
-91.552734375
-66.83349609375
-75.0732421875
-86.0595703125
-99.79248046875
-105.28564453125
-105.28564453125
-84.228515625
-86.0595703125
-80.56640625
-75.98876953125
-77.81982421875
-83.31298828125
-91.552734375
-97.0458984375
-92.46826171875
-93.3837890625
-78.7353515625
-70.49560546875
-70.49560546875
-72.32666015625
-77.81982421875
-62.255859375
-69.580078125
-83.31298828125
-91.552734375
-108.0322265625
-91.552734375
-95.21484375
-80.56640625
-41.19873046875
-44.86083984375
-58.59375
-53.1005859375
-46.69189453125
-51.26953125
-62.255859375
-42.1142578125
-53.1005859375
-67.7490234375
-63.17138671875
-61.34033203125
-66.83349609375
-42.1142578125
-45.7763671875
-51.26953125
-33.87451171875
-27.4658203125
-33.87451171875
-13.73291015625
-22.88818359375
-17.39501953125
-21.05712890625
7.32421875
7.32421875
9.1552734375
-1.8310546875
23.8037109375
40.283203125
14.6484375
11.90185546875
18.310546875
11.90185546875
28.38134765625
24.71923828125
32.04345703125
46.69189453125
50.35400390625
59.50927734375
65.91796875
62.255859375
69.580078125
78.7353515625
81.48193359375
97.0458984375
117.1875
118.10302734375
129.08935546875
151.06201171875
147.39990234375
154.72412109375
139.16015625
149.23095703125
156.55517578125
166.6259765625
160.21728515625
169.37255859375
159.3017578125
186.767578125
193.17626953125
202.33154296875
204.16259765625
187.68310546875
193.17626953125
196.83837890625
194.091796875
198.66943359375
201.416015625
196.83837890625
196.83837890625
205.078125
210.5712890625
184.02099609375
194.091796875
195.00732421875
168.45703125
171.20361328125
171.20361328125
172.119140625
167.54150390625
141.90673828125
132.75146484375
108.94775390625
91.552734375
85.14404296875
82.3974609375
60.4248046875
46.69189453125
26.55029296875
27.4658203125
25.634765625
10.986328125
-10.986328125
-18.310546875
-15.56396484375
-25.634765625
-40.283203125
-55.84716796875
-80.56640625
-77.81982421875
-74.15771484375
-78.7353515625
-81.48193359375
-73.2421875
-72.32666015625
-80.56640625
-69.580078125
-58.59375
-59.50927734375
-70.49560546875
-62.255859375
-84.228515625
-97.0458984375
-97.0458984375
-101.62353515625
-102.5390625
-98.876953125
-104.3701171875
-104.3701171875
-93.3837890625
-91.552734375
-94.29931640625
-96.13037109375
-65.91796875
-75.0732421875
-77.81982421875
-69.580078125
-69.580078125
-78.7353515625
-87.890625
-67.7490234375
-67.7490234375
-62.255859375
-54.931640625
-55.84716796875
-77.81982421875
-67.7490234375
-79.65087890625
-68.66455078125
-84.228515625
-86.0595703125
-65.00244140625
-63.17138671875
-69.580078125
-68.66455078125
-76.904296875
-91.552734375
-86.97509765625
-77.81982421875
-71.4111328125
-78.7353515625
-76.904296875
-77.81982421875
-78.7353515625
-85.14404296875
-94.29931640625
-83.31298828125
-77.81982421875
-71.4111328125
-72.32666015625
-72.32666015625
-83.31298828125
-87.890625
-94.29931640625
-100.7080078125
-107.11669921875
-85.14404296875
-68.66455078125
-67.7490234375
-72.32666015625
-65.00244140625
-58.59375
-75.0732421875
-88.80615234375
-85.14404296875
-97.96142578125
-94.29931640625
-95.21484375
-97.0458984375
-90.63720703125
-95.21484375
-91.552734375
-97.0458984375
-100.7080078125
-92.46826171875
-99.79248046875
-105.28564453125
-106.201171875
-97.0458984375
-102.5390625
-100.7080078125
-107.11669921875
-104.3701171875
-103.45458984375
-116.27197265625
-118.10302734375
-105.28564453125
-101.62353515625
-99.79248046875
-109.86328125
-93.3837890625
-95.21484375
-98.876953125
-100.7080078125
-121.76513671875
-136.41357421875
-145.56884765625
-130.0048828125
-113.525390625
-84.228515625
-86.0595703125
-108.94775390625
-119.0185546875
-126.3427734375
-123.59619140625
-120.849609375
-133.6669921875
-122.6806640625
-108.0322265625
-104.3701171875
-113.525390625
-108.94775390625
-122.6806640625
-135.498046875
-128.173828125
-125.42724609375
-120.849609375
-128.173828125
-141.90673828125
-160.21728515625
-149.23095703125
-143.73779296875
-140.9912109375
-129.08935546875
-128.173828125
-105.28564453125
-103.45458984375
-125.42724609375
-131.8359375
-128.173828125
-111.6943359375
-103.45458984375
-105.28564453125
-105.28564453125
-116.27197265625
-107.11669921875
-99.79248046875
-95.21484375
-79.65087890625
-74.15771484375
-75.0732421875
-81.48193359375
-81.48193359375
-69.580078125
-80.56640625
-55.84716796875
-27.4658203125
-19.22607421875
-15.56396484375
-21.97265625
-23.8037109375
-29.296875
-28.38134765625
-18.310546875
-19.22607421875
-34.7900390625
-48.52294921875
-48.52294921875
-54.01611328125
-52.18505859375
-54.931640625
-64.0869140625
-47.607421875
-47.607421875
-54.931640625
-71.4111328125
-73.2421875
-65.91796875
-89.7216796875
-97.0458984375
-103.45458984375
-109.86328125
-118.10302734375
-120.849609375
-137.3291015625
-135.498046875
-131.8359375
-133.6669921875
-152.89306640625
-162.04833984375
-151.9775390625
-148.3154296875
-145.56884765625
-145.56884765625
-150.146484375
-168.45703125
-149.23095703125
-162.04833984375
-159.3017578125
-155.6396484375
-158.38623046875
-136.41357421875
-148.3154296875
-179.443359375
-178.52783203125
-176.69677734375
-151.06201171875
-162.04833984375
-164.794921875
-139.16015625
-109.86328125
-82.3974609375
-32.958984375
25.634765625
88.80615234375
174.86572265625
266.41845703125
357.0556640625
450.439453125
520.01953125
619.81201171875
706.787109375
732.421875
765.380859375
760.80322265625
692.138671875
564.88037109375
405.57861328125
205.99365234375
-6.40869140625
-156.55517578125
-254.5166015625
-293.88427734375
-332.33642578125
-346.0693359375
-347.900390625
-304.87060546875
-242.61474609375
-197.75390625
-168.45703125
-151.9775390625
-165.71044921875
-165.71044921875
-151.06201171875
-146.484375
-142.822265625
-128.173828125
-100.7080078125
-97.0458984375
-97.96142578125
-109.86328125
-108.0322265625
-119.93408203125
-118.10302734375
-133.6669921875
-131.8359375
-123.59619140625
-116.27197265625
-114.44091796875
-113.525390625
-112.60986328125
-114.44091796875
-113.525390625
-101.62353515625
-109.86328125
-111.6943359375
-100.7080078125
-105.28564453125
-106.201171875
-97.0458984375
-87.890625
-110.77880859375
-112.60986328125
-117.1875
-104.3701171875
-100.7080078125
-87.890625
-78.7353515625
-85.14404296875
-89.7216796875
-89.7216796875
-86.0595703125
-78.7353515625
-70.49560546875
-77.81982421875
-95.21484375
-94.29931640625
-75.98876953125
-68.66455078125
-65.91796875
-55.84716796875
-54.931640625
-48.52294921875
-49.4384765625
-54.931640625
-59.50927734375
-34.7900390625
-46.69189453125
-63.17138671875
-47.607421875
-38.4521484375
-44.86083984375
-37.53662109375
-37.53662109375
-43.9453125
-15.56396484375
-10.07080078125
-17.39501953125
5.4931640625
21.05712890625
27.4658203125
4.57763671875
3.662109375
16.4794921875
31.1279296875
33.87451171875
42.1142578125
44.86083984375
54.931640625
62.255859375
64.0869140625
75.98876953125
84.228515625
101.62353515625
95.21484375
104.3701171875
112.60986328125
115.3564453125
108.94775390625
119.0185546875
142.822265625
147.39990234375
155.6396484375
166.6259765625
160.21728515625
149.23095703125
144.6533203125
148.3154296875
154.72412109375
175.78125
186.767578125
184.9365234375
185.85205078125
183.10546875
175.78125
181.2744140625
184.9365234375
192.2607421875
184.9365234375
164.794921875
148.3154296875
133.6669921875
131.8359375
132.75146484375
127.25830078125
108.0322265625
99.79248046875
80.56640625
55.84716796875
32.04345703125
18.310546875
12.8173828125
18.310546875
14.6484375
2.74658203125
-23.8037109375
-27.4658203125
-34.7900390625
-54.01611328125
-68.66455078125
-61.34033203125
-63.17138671875
-76.904296875
-79.65087890625
-76.904296875
-75.98876953125
-62.255859375
-75.0732421875
-86.97509765625
-83.31298828125
-81.48193359375
-88.80615234375
-94.29931640625
-105.28564453125
-97.96142578125
-77.81982421875
-73.2421875
-64.0869140625
-66.83349609375
-71.4111328125
-72.32666015625
-96.13037109375
-98.876953125
-97.96142578125
-85.14404296875
-76.904296875
-73.2421875
-57.67822265625
-58.59375
-74.15771484375
-83.31298828125
-82.3974609375
-74.15771484375
-62.255859375
-79.65087890625
-88.80615234375
-72.32666015625
-69.580078125
-61.34033203125
-68.66455078125
-65.00244140625
-80.56640625
-80.56640625
-74.15771484375
-64.0869140625
-61.34033203125
-67.7490234375
-67.7490234375
-67.7490234375
-75.98876953125
-73.2421875
-71.4111328125
-82.3974609375
-78.7353515625
-95.21484375
-96.13037109375
-85.14404296875
-76.904296875
-65.00244140625
-62.255859375
-47.607421875
-56.7626953125
-74.15771484375
-68.66455078125
-70.49560546875
-80.56640625
-68.66455078125
-69.580078125
-75.0732421875
-70.49560546875
-66.83349609375
-78.7353515625
-90.63720703125
-73.2421875
-63.17138671875
-69.580078125
-72.32666015625
-68.66455078125
-71.4111328125
-75.98876953125
-74.15771484375
-75.98876953125
-72.32666015625
-86.0595703125
-85.14404296875
-93.3837890625
-90.63720703125
-98.876953125
-91.552734375
-97.96142578125
-98.876953125
-96.13037109375
-96.13037109375
-84.228515625
-107.11669921875
-111.6943359375
-119.0185546875
-106.201171875
-98.876953125
-101.62353515625
-95.21484375
-92.46826171875
-91.552734375
-97.0458984375
-109.86328125
-118.10302734375
-119.93408203125
-97.96142578125
-91.552734375
-103.45458984375
-108.0322265625
-96.13037109375
-111.6943359375
-120.849609375
-111.6943359375
-102.5390625
-88.80615234375
-88.80615234375
-97.96142578125
-82.3974609375
-89.7216796875
-97.96142578125
-117.1875
-119.93408203125
-116.27197265625
-123.59619140625
-119.0185546875
-116.27197265625
-119.93408203125
-123.59619140625
-108.0322265625
-100.7080078125
-108.94775390625
-116.27197265625
-114.44091796875
-128.173828125
-118.10302734375
-104.3701171875
-108.0322265625
-131.8359375
-130.0048828125
-98.876953125
-108.94775390625
-116.27197265625
-131.8359375
-120.849609375
-111.6943359375
-106.201171875
-91.552734375
-77.81982421875
-63.17138671875
-65.91796875
-68.66455078125
-69.580078125
-57.67822265625
-48.52294921875
-68.66455078125
-68.66455078125
-62.255859375
-68.66455078125
-53.1005859375
-26.55029296875
-8.23974609375
2.74658203125
6.40869140625
-4.57763671875
-27.4658203125
-21.97265625
-32.04345703125
-43.9453125
-53.1005859375
-39.36767578125
-21.05712890625
-31.1279296875
-30.21240234375
-49.4384765625
-52.18505859375
-43.02978515625
-26.55029296875
-27.4658203125
-39.36767578125
-52.18505859375
-61.34033203125
-67.7490234375
-75.0732421875
-91.552734375
-107.11669921875
-118.10302734375
-116.27197265625
-103.45458984375
-114.44091796875
-130.92041015625
-125.42724609375
-131.8359375
-137.3291015625
-131.8359375
-125.42724609375
-121.76513671875
-115.3564453125
-109.86328125
-104.3701171875
-112.60986328125
-128.173828125
-121.76513671875
-109.86328125
-115.3564453125
-128.173828125
-130.92041015625
-126.3427734375
-128.173828125
-127.25830078125
-130.0048828125
-145.56884765625
-151.06201171875
-147.39990234375
-102.5390625
-73.2421875
-36.62109375
20.1416015625
86.97509765625
158.38623046875
239.8681640625
340.576171875
428.466796875
498.046875
603.33251953125
693.05419921875
762.63427734375
815.73486328125
834.9609375
777.28271484375
643.61572265625
492.5537109375
268.24951171875
42.1142578125
-143.73779296875
-238.037109375
-285.64453125
-326.84326171875
-356.14013671875
-346.0693359375
-296.630859375
-221.5576171875
-147.39990234375
-127.25830078125
-121.76513671875
-107.11669921875
-99.79248046875
-101.62353515625
-91.552734375
-86.97509765625
-96.13037109375
-85.14404296875
-61.34033203125
-63.17138671875
-72.32666015625
-83.31298828125
-87.890625
-86.97509765625
-77.81982421875
-82.3974609375
-98.876953125
-92.46826171875
-87.890625
-86.97509765625
-73.2421875
-71.4111328125
-80.56640625
-80.56640625
-78.7353515625
-88.80615234375
-87.890625
-75.98876953125
-55.84716796875
-69.580078125
-89.7216796875
-87.890625
-87.890625
-82.3974609375
-81.48193359375
-73.2421875
-67.7490234375
-61.34033203125
-66.83349609375
-61.34033203125
-61.34033203125
-51.26953125
-54.01611328125
-36.62109375
-25.634765625
-13.73291015625
-21.97265625
-40.283203125
-33.87451171875
-22.88818359375
-32.958984375
-34.7900390625
-24.71923828125
-21.05712890625
-26.55029296875
-13.73291015625
-7.32421875
0.91552734375
-5.4931640625
3.662109375
11.90185546875
10.986328125
10.07080078125
7.32421875
31.1279296875
23.8037109375
20.1416015625
27.4658203125
30.21240234375
42.1142578125
49.4384765625
48.52294921875
65.91796875
54.931640625
68.66455078125
84.228515625
86.0595703125
95.21484375
95.21484375
100.7080078125
121.76513671875
125.42724609375
116.27197265625
118.10302734375
139.16015625
151.9775390625
151.9775390625
149.23095703125
154.72412109375
150.146484375
164.794921875
151.9775390625
170.2880859375
176.69677734375
187.68310546875
211.48681640625
211.48681640625
196.83837890625
202.33154296875
210.5712890625
197.75390625
204.16259765625
205.078125
216.064453125
211.48681640625
209.65576171875
207.82470703125
191.34521484375
197.75390625
183.10546875
175.78125
173.9501953125
173.9501953125
159.3017578125
147.39990234375
142.822265625
119.0185546875
100.7080078125
95.21484375
92.46826171875
71.4111328125
60.4248046875
65.91796875
50.35400390625
39.36767578125
31.1279296875
38.4521484375
17.39501953125
13.73291015625
-11.90185546875
-26.55029296875
-32.958984375
-38.4521484375
-57.67822265625
-65.91796875
-52.18505859375
-19.22607421875
-9.1552734375
-27.4658203125
-44.86083984375
-54.01611328125
-47.607421875
-58.59375
-52.18505859375
-52.18505859375
-48.52294921875
-42.1142578125
-50.35400390625
-58.59375
-49.4384765625
-38.4521484375
-43.9453125
-52.18505859375
-42.1142578125
-50.35400390625
-52.18505859375
-47.607421875
-34.7900390625
-57.67822265625
-51.26953125
-52.18505859375
-48.52294921875
-54.01611328125
-64.0869140625
-63.17138671875
-54.931640625
-51.26953125
-47.607421875
-50.35400390625
-50.35400390625
-43.9453125
-56.7626953125
-46.69189453125
-40.283203125
-34.7900390625
-21.97265625
-18.310546875
-27.4658203125
-42.1142578125
-47.607421875
-50.35400390625
-42.1142578125
-39.36767578125
-37.53662109375
-37.53662109375
-43.02978515625
-49.4384765625
-41.19873046875
-29.296875
-46.69189453125
-35.70556640625
-37.53662109375
-31.1279296875
-41.19873046875
-48.52294921875
-52.18505859375
-46.69189453125
-38.4521484375
-21.97265625
-37.53662109375
-43.9453125
-41.19873046875
-45.7763671875
-44.86083984375
-41.19873046875
-39.36767578125
-40.283203125
-55.84716796875
-48.52294921875
-44.86083984375
-68.66455078125
-55.84716796875
-55.84716796875
-51.26953125
-57.67822265625
-53.1005859375
-54.931640625
-43.9453125
-33.87451171875
-48.52294921875
-57.67822265625
-71.4111328125
-65.00244140625
-46.69189453125
-61.34033203125
-68.66455078125
-55.84716796875
-37.53662109375
-41.19873046875
-58.59375
-68.66455078125
-75.98876953125
-69.580078125
-66.83349609375
-58.59375
-57.67822265625
-62.255859375
-60.4248046875
-65.91796875
-84.228515625
-91.552734375
-79.65087890625
-83.31298828125
-76.904296875
-70.49560546875
-62.255859375
-67.7490234375
-85.14404296875
-72.32666015625
-75.98876953125
-70.49560546875
-64.0869140625
-74.15771484375
-92.46826171875
-81.48193359375
-59.50927734375
-66.83349609375
-66.83349609375
-64.0869140625
-73.2421875
-80.56640625
-72.32666015625
-68.66455078125
-74.15771484375
-74.15771484375
-75.98876953125
-69.580078125
-81.48193359375
-68.66455078125
-59.50927734375
-68.66455078125
-85.14404296875
-88.80615234375
-71.4111328125
-75.98876953125
-65.91796875
-71.4111328125
-82.3974609375
-73.2421875
-72.32666015625
-72.32666015625
-73.2421875
-86.97509765625
-87.890625
-76.904296875
-71.4111328125
-68.66455078125
-76.904296875
-67.7490234375
-74.15771484375
-74.15771484375
-81.48193359375
-79.65087890625
-67.7490234375
-60.4248046875
-45.7763671875
-42.1142578125
-30.21240234375
-41.19873046875
-35.70556640625
-8.23974609375
4.57763671875
1.8310546875
-14.6484375
-30.21240234375
-21.97265625
-22.88818359375
-21.97265625
-9.1552734375
2.74658203125
14.6484375
16.4794921875
10.07080078125
10.07080078125
19.22607421875
22.88818359375
30.21240234375
22.88818359375
14.6484375
4.57763671875
-9.1552734375
-22.88818359375
-18.310546875
-10.986328125
1.8310546875
3.662109375
-3.662109375
-10.986328125
-20.1416015625
-43.02978515625
-49.4384765625
-51.26953125
-62.255859375
-75.98876953125
-83.31298828125
-77.81982421875
-75.0732421875
-94.29931640625
-88.80615234375
-85.14404296875
-93.3837890625
-93.3837890625
-96.13037109375
-115.3564453125
-124.51171875
-119.93408203125
-113.525390625
-106.201171875
-97.0458984375
-98.876953125
-109.86328125
-105.28564453125
-105.28564453125
-84.228515625
-80.56640625
-91.552734375
-91.552734375
-106.201171875
-107.11669921875
-99.79248046875
-105.28564453125
-75.98876953125
-42.1142578125
2.74658203125
76.904296875
143.73779296875
175.78125
277.40478515625
374.45068359375
453.18603515625
536.4990234375
640.869140625
732.421875
772.705078125
814.8193359375
834.04541015625
792.8466796875
652.77099609375
460.51025390625
220.64208984375
24.71923828125
-136.41357421875
-227.96630859375
-262.75634765625
-308.53271484375
-323.18115234375
-313.1103515625
-272.8271484375
-207.82470703125
-151.06201171875
-114.44091796875
-91.552734375
-83.31298828125
-76.904296875
-56.7626953125
-45.7763671875
-49.4384765625
-41.19873046875
-50.35400390625
-64.0869140625
-62.255859375
-70.49560546875
-65.00244140625
-64.0869140625
-64.0869140625
-53.1005859375
-54.931640625
-62.255859375
-89.7216796875
-74.15771484375
-68.66455078125
-61.34033203125
-62.255859375
-44.86083984375
-38.4521484375
-33.87451171875
-28.38134765625
-32.04345703125
-44.86083984375
-40.283203125
-32.958984375
-44.86083984375
-33.87451171875
-32.04345703125
-42.1142578125
-42.1142578125
-27.4658203125
-27.4658203125
-32.958984375
-33.87451171875
-35.70556640625
-26.55029296875
-17.39501953125
-20.1416015625
-17.39501953125
-22.88818359375
-8.23974609375
-1.8310546875
-3.662109375
0.91552734375
4.57763671875
-1.8310546875
-9.1552734375
2.74658203125
16.4794921875
30.21240234375
32.958984375
32.04345703125
31.1279296875
33.87451171875
35.70556640625
42.1142578125
46.69189453125
43.9453125
29.296875
45.7763671875
52.18505859375
71.4111328125
83.31298828125
81.48193359375
83.31298828125
78.7353515625
75.98876953125
107.11669921875
110.77880859375
104.3701171875
109.86328125
119.0185546875
123.59619140625
130.92041015625
129.08935546875
151.9775390625
145.56884765625
164.794921875
171.20361328125
173.03466796875
181.2744140625
181.2744140625
180.35888671875
202.33154296875
212.40234375
192.2607421875
208.740234375
231.62841796875
225.2197265625
241.69921875
235.29052734375
212.40234375
206.9091796875
220.64208984375
238.95263671875
238.95263671875
243.5302734375
244.44580078125
246.27685546875
249.93896484375
248.10791015625
241.69921875
233.45947265625
240.78369140625
240.78369140625
227.96630859375
218.81103515625
207.82470703125
198.66943359375
184.9365234375
177.6123046875
169.37255859375
151.9775390625
123.59619140625
118.10302734375
119.0185546875
98.876953125
85.14404296875
104.3701171875
94.29931640625
80.56640625
65.00244140625
60.4248046875
47.607421875
32.04345703125
29.296875
37.53662109375
15.56396484375
7.32421875
-2.74658203125
-3.662109375
-12.8173828125
-13.73291015625
-10.07080078125
-7.32421875
-7.32421875
1.8310546875
-4.57763671875
-5.4931640625
-18.310546875
-17.39501953125
-17.39501953125
-10.986328125
-15.56396484375
-13.73291015625
-17.39501953125
-20.1416015625
-21.05712890625
-31.1279296875
-23.8037109375
-9.1552734375
-15.56396484375
-17.39501953125
-12.8173828125
-9.1552734375
3.662109375
-5.4931640625
-10.07080078125
4.57763671875
2.74658203125
6.40869140625
-9.1552734375
-0.91552734375
-0.91552734375
0.91552734375
7.32421875
12.8173828125
3.662109375
22.88818359375
8.23974609375
0.91552734375
-9.1552734375
-2.74658203125
1.8310546875
-2.74658203125
10.986328125
5.4931640625
-14.6484375
-3.662109375
0
1.8310546875
12.8173828125
10.07080078125
13.73291015625
7.32421875
7.32421875
-8.23974609375
4.57763671875
8.23974609375
3.662109375
-8.23974609375
2.74658203125
17.39501953125
19.22607421875
-7.32421875
4.57763671875
-2.74658203125
-13.73291015625
4.57763671875
13.73291015625
9.1552734375
4.57763671875
6.40869140625
-6.40869140625
-1.8310546875
-12.8173828125
-15.56396484375
-9.1552734375
-12.8173828125
-12.8173828125
-15.56396484375
-21.05712890625
-12.8173828125
-12.8173828125
-23.8037109375
-21.05712890625
-15.56396484375
-16.4794921875
-23.8037109375
-13.73291015625
-11.90185546875
-13.73291015625
-20.1416015625
-28.38134765625
-16.4794921875
-17.39501953125
0.91552734375
-3.662109375
-16.4794921875
-15.56396484375
-21.05712890625
-13.73291015625
-17.39501953125
-29.296875
-34.7900390625
-20.1416015625
-10.986328125
-15.56396484375
-3.662109375
-7.32421875
-12.8173828125
-29.296875
-42.1142578125
-54.01611328125
-39.36767578125
-26.55029296875
-37.53662109375
-49.4384765625
-32.04345703125
-32.04345703125
-43.9453125
-37.53662109375
-32.04345703125
-32.958984375
-34.7900390625
-9.1552734375
-20.1416015625
-27.4658203125
-22.88818359375
-29.296875
-36.62109375
-34.7900390625
-23.8037109375
-43.02978515625
-34.7900390625
-28.38134765625
-32.958984375
-24.71923828125
-18.310546875
-14.6484375
-24.71923828125
-21.05712890625
-24.71923828125
-22.88818359375
-31.1279296875
-30.21240234375
-33.87451171875
-30.21240234375
-28.38134765625
-33.87451171875
-37.53662109375
-36.62109375
-23.8037109375
-32.958984375
-38.4521484375
-25.634765625
-15.56396484375
-35.70556640625
-49.4384765625
-12.8173828125
-8.23974609375
-24.71923828125
-21.05712890625
-36.62109375
-30.21240234375
-35.70556640625
-28.38134765625
-28.38134765625
-35.70556640625
-33.87451171875
-23.8037109375
-23.8037109375
-25.634765625
-24.71923828125
-21.97265625
-16.4794921875
-13.73291015625
-19.22607421875
-25.634765625
-26.55029296875
-20.1416015625
1.8310546875
-0.91552734375
0
0.91552734375
15.56396484375
25.634765625
22.88818359375
19.22607421875
8.23974609375
17.39501953125
43.02978515625
58.59375
71.4111328125
86.0595703125
71.4111328125
66.83349609375
80.56640625
92.46826171875
76.904296875
69.580078125
55.84716796875
57.67822265625
47.607421875
37.53662109375
36.62109375
38.4521484375
43.9453125
32.958984375
18.310546875
21.97265625
21.05712890625
10.07080078125
-1.8310546875
-20.1416015625
-17.39501953125
-12.8173828125
-8.23974609375
-18.310546875
-19.22607421875
-35.70556640625
-52.18505859375
-28.38134765625
-34.7900390625
-28.38134765625
-30.21240234375
-29.296875
-42.1142578125
-40.283203125
-43.02978515625
-41.19873046875
-34.7900390625
-46.69189453125
-56.7626953125
-63.17138671875
-62.255859375
-59.50927734375
-51.26953125
-47.607421875
-57.67822265625
-53.1005859375
-58.59375
-75.0732421875
-70.49560546875
-32.04345703125
0
56.7626953125
124.51171875
188.5986328125
243.5302734375
344.23828125
439.453125
499.8779296875
594.17724609375
691.22314453125
782.77587890625
835.87646484375
891.7236328125
888.97705078125
820.3125
670.166015625
459.5947265625
239.8681640625
42.1142578125
-106.201171875
-200.50048828125
-232.5439453125
-254.5166015625
-267.333984375
-250.8544921875
-203.2470703125
-141.90673828125
-91.552734375
-75.98876953125
-71.4111328125
-50.35400390625
-23.8037109375
-3.662109375
-24.71923828125
-31.1279296875
-43.9453125
-43.02978515625
-36.62109375
-38.4521484375
-31.1279296875
-21.05712890625
-32.04345703125
-35.70556640625
-41.19873046875
-52.18505859375
-48.52294921875
-43.02978515625
-38.4521484375
-43.9453125
-27.4658203125
-36.62109375
-41.19873046875
-21.97265625
-10.986328125
-14.6484375
-21.97265625
-31.1279296875
-18.310546875
-20.1416015625
-7.32421875
-4.57763671875
10.07080078125
12.8173828125
-6.40869140625
-23.8037109375
-4.57763671875
-15.56396484375
-8.23974609375
3.662109375
-0.91552734375
2.74658203125
12.8173828125
2.74658203125
2.74658203125
10.986328125
-6.40869140625
3.662109375
6.40869140625
6.40869140625
10.986328125
18.310546875
27.4658203125
22.88818359375
33.87451171875
38.4521484375
43.02978515625
46.69189453125
52.18505859375
61.34033203125
62.255859375
67.7490234375
65.91796875
67.7490234375
74.15771484375
74.15771484375
75.98876953125
77.81982421875
80.56640625
81.48193359375
97.96142578125
102.5390625
95.21484375
112.60986328125
120.849609375
124.51171875
122.6806640625
131.8359375
137.3291015625
135.498046875
159.3017578125
170.2880859375
171.20361328125
173.03466796875
180.35888671875
164.794921875
159.3017578125
189.51416015625
220.64208984375
234.375
213.31787109375
213.31787109375
195.00732421875
209.65576171875
228.8818359375
226.13525390625
225.2197265625
222.47314453125
238.95263671875
253.60107421875
254.5166015625
247.1923828125
240.78369140625
241.69921875
247.1923828125
260.92529296875
250.8544921875
248.10791015625
242.61474609375
223.388671875
212.40234375
204.16259765625
191.34521484375
190.4296875
195.00732421875
180.35888671875
168.45703125
158.38623046875
147.39990234375
119.93408203125
119.93408203125
106.201171875
84.228515625
65.00244140625
42.1142578125
30.21240234375
27.4658203125
16.4794921875
10.07080078125
20.1416015625
22.88818359375
9.1552734375
5.4931640625
-1.8310546875
-6.40869140625
7.32421875
-9.1552734375
-15.56396484375
-18.310546875
-28.38134765625
-36.62109375
-48.52294921875
-40.283203125
-40.283203125
-50.35400390625
-51.26953125
-43.9453125
-40.283203125
-61.34033203125
-69.580078125
-72.32666015625
-42.1142578125
-28.38134765625
-31.1279296875
-39.36767578125
-34.7900390625
-21.05712890625
-25.634765625
-32.958984375
-45.7763671875
-54.01611328125
-49.4384765625
-44.86083984375
-58.59375
-66.83349609375
-55.84716796875
-36.62109375
-42.1142578125
-54.931640625
-60.4248046875
-64.0869140625
-43.9453125
-24.71923828125
-19.22607421875
-35.70556640625
-52.18505859375
-60.4248046875
-54.931640625
-56.7626953125
-62.255859375
-47.607421875
-56.7626953125
-44.86083984375
-31.1279296875
-30.21240234375
-22.88818359375
-35.70556640625
-52.18505859375
-57.67822265625
-59.50927734375
-63.17138671875
-53.1005859375
-53.1005859375
-51.26953125
-57.67822265625
-48.52294921875
-48.52294921875
-47.607421875
-39.36767578125
-43.02978515625
-61.34033203125
-65.91796875
-59.50927734375
-48.52294921875
-56.7626953125
-73.2421875
-81.48193359375
-65.91796875
-74.15771484375
-66.83349609375
-69.580078125
-65.91796875
-59.50927734375
-63.17138671875
-71.4111328125
-65.00244140625
-53.1005859375
-61.34033203125
-66.83349609375
-77.81982421875
-80.56640625
-74.15771484375
-70.49560546875
-72.32666015625
-75.98876953125
-74.15771484375
-68.66455078125
-65.91796875
-74.15771484375
-88.80615234375
-117.1875
-111.6943359375
-90.63720703125
-85.14404296875
-96.13037109375
-88.80615234375
-84.228515625
-99.79248046875
-97.96142578125
-92.46826171875
-105.28564453125
-117.1875
-98.876953125
-97.0458984375
-94.29931640625
-95.21484375
-86.0595703125
-97.96142578125
-101.62353515625
-102.5390625
-107.11669921875
-100.7080078125
-99.79248046875
-106.201171875
-99.79248046875
-97.96142578125
-106.201171875
-105.28564453125
-108.94775390625
-117.1875
-130.0048828125
-115.3564453125
-103.45458984375
-114.44091796875
-110.77880859375
-111.6943359375
-113.525390625
-111.6943359375
-117.1875
-112.60986328125
-109.86328125
-118.10302734375
-122.6806640625
-130.92041015625
-130.0048828125
-121.76513671875
-126.3427734375
-117.1875
-128.173828125
-122.6806640625
-130.0048828125
-116.27197265625
-110.77880859375
-105.28564453125
-119.93408203125
-119.93408203125
-113.525390625
-130.92041015625
-142.822265625
-133.6669921875
-123.59619140625
-120.849609375
-137.3291015625
-134.58251953125
-146.484375
-159.3017578125
-139.16015625
-124.51171875
-126.3427734375
-126.3427734375
-134.58251953125
-130.0048828125
-133.6669921875
-129.08935546875
-122.6806640625
-124.51171875
-119.93408203125
-110.77880859375
-110.77880859375
-107.11669921875
-116.27197265625
-106.201171875
-92.46826171875
-86.97509765625
-86.0595703125
-81.48193359375
-75.0732421875
-71.4111328125
-88.80615234375
-99.79248046875
-103.45458984375
-103.45458984375
-69.580078125
-59.50927734375
-43.9453125
-41.19873046875
-36.62109375
-49.4384765625
-57.67822265625
-54.01611328125
-51.26953125
-51.26953125
-72.32666015625
-66.83349609375
-73.2421875
-61.34033203125
-66.83349609375
-79.65087890625
-70.49560546875
-56.7626953125
-65.00244140625
-93.3837890625
-82.3974609375
-95.21484375
-117.1875
-129.08935546875
-122.6806640625
-128.173828125
-131.8359375
-136.41357421875
-149.23095703125
-156.55517578125
-162.9638671875
-161.1328125
-157.470703125
-159.3017578125
-162.9638671875
-162.9638671875
-152.89306640625
-143.73779296875
-148.3154296875
-167.54150390625
-162.9638671875
-162.9638671875
-163.87939453125
-173.9501953125
-181.2744140625
-183.10546875
-179.443359375
-182.18994140625
-202.33154296875
-181.2744140625
-191.34521484375
-207.82470703125
-203.2470703125
-183.10546875
-154.72412109375
-118.10302734375
-73.2421875
-24.71923828125
44.86083984375
125.42724609375
253.60107421875
354.30908203125
422.05810546875
498.96240234375
600.5859375
693.05419921875
743.408203125
761.71875
761.71875
695.80078125
542.90771484375
361.63330078125
144.6533203125
-56.7626953125
-218.81103515625
-284.72900390625
-351.5625
-379.94384765625
-380.859375
-371.7041015625
-305.7861328125
-261.8408203125
-242.61474609375
-208.740234375
-181.2744140625
-169.37255859375
-184.02099609375
-176.69677734375
-162.04833984375
-151.06201171875
-154.72412109375
-149.23095703125
-125.42724609375
-126.3427734375
-135.498046875
-142.822265625
-146.484375
-156.55517578125
-151.06201171875
-141.90673828125
-126.3427734375
-130.92041015625
-152.89306640625
-137.3291015625
-123.59619140625
-141.90673828125
-143.73779296875
-140.07568359375
-136.41357421875
-135.498046875
-132.75146484375
-137.3291015625
-149.23095703125
-141.90673828125
-143.73779296875
-134.58251953125
-151.9775390625
-152.89306640625
-129.08935546875
-127.25830078125
-130.0048828125
-123.59619140625
-122.6806640625
-118.10302734375
-106.201171875
-113.525390625
-111.6943359375
-118.10302734375
-124.51171875
-122.6806640625
-112.60986328125
-109.86328125
-112.60986328125
-87.890625
-80.56640625
-92.46826171875
-72.32666015625
-79.65087890625
-74.15771484375
-71.4111328125
-68.66455078125
-70.49560546875
-70.49560546875
-76.904296875
-76.904296875
-70.49560546875
-55.84716796875
-43.02978515625
-38.4521484375
-32.958984375
-45.7763671875
-38.4521484375
-32.04345703125
-26.55029296875
-21.05712890625
-9.1552734375
19.22607421875
7.32421875
18.310546875
23.8037109375
26.55029296875
23.8037109375
32.958984375
22.88818359375
39.36767578125
49.4384765625
43.9453125
57.67822265625
61.34033203125
60.4248046875
61.34033203125
63.17138671875
77.81982421875
92.46826171875
97.96142578125
97.96142578125
96.13037109375
87.890625
103.45458984375
117.1875
119.93408203125
130.0048828125
151.06201171875
148.3154296875
151.06201171875
143.73779296875
137.3291015625
129.08935546875
130.0048828125
139.16015625
143.73779296875
156.55517578125
145.56884765625
134.58251953125
123.59619140625
97.0458984375
90.63720703125
92.46826171875
86.0595703125
65.00244140625
42.1142578125
42.1142578125
19.22607421875
11.90185546875
-23.8037109375
-38.4521484375
-38.4521484375
-62.255859375
-92.46826171875
-101.62353515625
-92.46826171875
-97.0458984375
-83.31298828125
-66.83349609375
-75.98876953125
-47.607421875
-52.18505859375
-82.3974609375
-81.48193359375
-104.3701171875
-111.6943359375
-116.27197265625
-121.76513671875
-119.0185546875
-134.58251953125
-141.90673828125
-130.0048828125
-130.0048828125
-114.44091796875
-102.5390625
-110.77880859375
-118.10302734375
-124.51171875
-133.6669921875
-122.6806640625
-109.86328125
-129.08935546875
-146.484375
-138.24462890625
-128.173828125
-119.0185546875
-108.0322265625
-96.13037109375
-107.11669921875
-118.10302734375
-127.25830078125
-140.9912109375
-135.498046875
-125.42724609375
-121.76513671875
-115.3564453125
-108.94775390625
-109.86328125
-99.79248046875
-109.86328125
-144.6533203125
-142.822265625
-133.6669921875
-128.173828125
-130.92041015625
-135.498046875
-98.876953125
-105.28564453125
-106.201171875
-100.7080078125
-86.0595703125
-97.0458984375
-98.876953125
-97.96142578125
-99.79248046875
-105.28564453125
-111.6943359375
-105.28564453125
-100.7080078125
-97.96142578125
-90.63720703125
-89.7216796875
-104.3701171875
-115.3564453125
-127.25830078125
-130.0048828125
-116.27197265625
-95.21484375
-83.31298828125
-104.3701171875
-119.0185546875
-120.849609375
-117.1875
-126.3427734375
-115.3564453125
-119.93408203125
-112.60986328125
-113.525390625
-118.10302734375
-111.6943359375
-116.27197265625
-130.0048828125
-121.76513671875
-115.3564453125
-130.92041015625
-127.25830078125
-123.59619140625
-130.92041015625
-140.9912109375
-150.146484375
-154.72412109375
-133.6669921875
-140.9912109375
-142.822265625
-141.90673828125
-143.73779296875
-136.41357421875
-120.849609375
-127.25830078125
-134.58251953125
-134.58251953125
-131.8359375
-136.41357421875
-142.822265625
-131.8359375
-148.3154296875
-162.04833984375
-153.80859375
-153.80859375
-150.146484375
-142.822265625
-147.39990234375
-140.9912109375
-155.6396484375
-152.89306640625
-153.80859375
-160.21728515625
-163.87939453125
-170.2880859375
-170.2880859375
-163.87939453125
-158.38623046875
-140.07568359375
-151.9775390625
-141.90673828125
-151.9775390625
-152.89306640625
-161.1328125
-146.484375
-148.3154296875
-150.146484375
-153.80859375
-155.6396484375
-173.03466796875
-174.86572265625
-159.3017578125
-154.72412109375
-153.80859375
-151.9775390625
-143.73779296875
-143.73779296875
-164.794921875
-148.3154296875
-148.3154296875
-151.9775390625
-151.9775390625
-154.72412109375
-161.1328125
-172.119140625
-166.6259765625
-170.2880859375
-177.6123046875
-183.10546875
-176.69677734375
-162.04833984375
-163.87939453125
-173.03466796875
-162.9638671875
-149.23095703125
-147.39990234375
-154.72412109375
-152.89306640625
-164.794921875
-173.03466796875
-162.9638671875
-162.04833984375
-156.55517578125
-170.2880859375
-149.23095703125
-141.90673828125
-149.23095703125
-152.89306640625
-156.55517578125
-152.89306640625
-137.3291015625
-117.1875
-114.44091796875
-98.876953125
-91.552734375
-98.876953125
-113.525390625
-110.77880859375
-127.25830078125
-126.3427734375
-98.876953125
-70.49560546875
-53.1005859375
-66.83349609375
-66.83349609375
-55.84716796875
-73.2421875
-79.65087890625
-84.228515625
-70.49560546875
-67.7490234375
-79.65087890625
-71.4111328125
-77.81982421875
-98.876953125
-100.7080078125
-80.56640625
-64.0869140625
-82.3974609375
-88.80615234375
-106.201171875
-121.76513671875
-124.51171875
-131.8359375
-146.484375
-160.21728515625
-172.119140625
-157.470703125
-162.9638671875
-171.20361328125
-178.52783203125
-171.20361328125
-161.1328125
-159.3017578125
-159.3017578125
-149.23095703125
-173.03466796875
-196.83837890625
-181.2744140625
-177.6123046875
-188.5986328125
-194.091796875
-182.18994140625
-167.54150390625
-169.37255859375
-198.66943359375
-195.00732421875
-175.78125
-176.69677734375
-205.078125
-216.064453125
-207.82470703125
-205.99365234375
-185.85205078125
-156.55517578125
-114.44091796875
-70.49560546875
5.4931640625
92.46826171875
166.6259765625
243.5302734375
350.64697265625
409.24072265625
493.46923828125
600.5859375
682.06787109375
731.50634765625
763.5498046875
732.421875
637.20703125
494.384765625
314.02587890625
95.21484375
-116.27197265625
-265.5029296875
-319.51904296875
-361.63330078125
-382.6904296875
-399.169921875
-373.53515625
-306.70166015625
-250.8544921875
-207.82470703125
-191.34521484375
-181.2744140625
-182.18994140625
-155.6396484375
-144.6533203125
-157.470703125
-147.39990234375
-152.89306640625
-167.54150390625
-161.1328125
-162.04833984375
-156.55517578125
-150.146484375
-142.822265625
-130.0048828125
-130.0048828125
-135.498046875
-132.75146484375
-138.24462890625
-138.24462890625
-135.498046875
-137.3291015625
-149.23095703125
-151.06201171875
-144.6533203125
-139.16015625
-135.498046875
-143.73779296875
-151.9775390625
-156.55517578125
-137.3291015625
-128.173828125
-116.27197265625
-105.28564453125
-119.0185546875
-130.0048828125
-130.0048828125
-129.08935546875
-133.6669921875
-119.0185546875
-102.5390625
-98.876953125
-104.3701171875
-113.525390625
-108.94775390625
-105.28564453125
-108.94775390625
-116.27197265625
-102.5390625
-95.21484375
-84.228515625
-81.48193359375
-70.49560546875
-71.4111328125
-81.48193359375
-65.91796875
-69.580078125
-61.34033203125
-62.255859375
-55.84716796875
-41.19873046875
-38.4521484375
-43.9453125
-55.84716796875
-48.52294921875
-36.62109375
-33.87451171875
-21.05712890625
-19.22607421875
-7.32421875
1.8310546875
-8.23974609375
-20.1416015625
-17.39501953125
-17.39501953125
-16.4794921875
0
36.62109375
41.19873046875
39.36767578125
43.02978515625
43.9453125
60.4248046875
69.580078125
72.32666015625
82.3974609375
83.31298828125
98.876953125
109.86328125
120.849609375
126.3427734375
132.75146484375
134.58251953125
119.0185546875
121.76513671875
128.173828125
136.41357421875
140.9912109375
130.0048828125
125.42724609375
149.23095703125
152.89306640625
141.90673828125
144.6533203125
137.3291015625
136.41357421875
146.484375
143.73779296875
143.73779296875
139.16015625
130.0048828125
135.498046875
120.849609375
122.6806640625
119.93408203125
111.6943359375
102.5390625
101.62353515625
77.81982421875
45.7763671875
35.70556640625
41.19873046875
20.1416015625
5.4931640625
0.91552734375
-7.32421875
-11.90185546875
-32.04345703125
-53.1005859375
-61.34033203125
-67.7490234375
-68.66455078125
-69.580078125
-81.48193359375
-86.97509765625
-99.79248046875
-86.0595703125
-98.876953125
-109.86328125
-108.94775390625
-114.44091796875
-117.1875
-107.11669921875
-102.5390625
-111.6943359375
-103.45458984375
-108.0322265625
-119.0185546875
-119.93408203125
-105.28564453125
-105.28564453125
-109.86328125
-105.28564453125
-113.525390625
-120.849609375
-124.51171875
-114.44091796875
-97.96142578125
-97.0458984375
-102.5390625
-113.525390625
-109.86328125
-102.5390625
-102.5390625
-100.7080078125
-103.45458984375
-87.890625
-66.83349609375
-76.904296875
-91.552734375
-97.0458984375
-107.11669921875
-105.28564453125
-119.0185546875
-108.94775390625
-110.77880859375
-105.28564453125
-94.29931640625
-91.552734375
-84.228515625
-77.81982421875
-75.0732421875
-77.81982421875
-86.97509765625
-89.7216796875
-100.7080078125
-103.45458984375
-91.552734375
-90.63720703125
-106.201171875
-97.96142578125
-95.21484375
-96.13037109375
-108.0322265625
-114.44091796875
-101.62353515625
-101.62353515625
-101.62353515625
-111.6943359375
-99.79248046875
-93.3837890625
-104.3701171875
-114.44091796875
-102.5390625
-110.77880859375
-106.201171875
-96.13037109375
-91.552734375
-86.0595703125
-75.98876953125
-80.56640625
-66.83349609375
-93.3837890625
-118.10302734375
-123.59619140625
-116.27197265625
-114.44091796875
-122.6806640625
-121.76513671875
-108.94775390625
-97.0458984375
-103.45458984375
-108.0322265625
-115.3564453125
-120.849609375
-126.3427734375
-122.6806640625
-125.42724609375
-123.59619140625
-115.3564453125
-124.51171875
-103.45458984375
-107.11669921875
-109.86328125
-120.849609375
-118.10302734375
-125.42724609375
-121.76513671875
-115.3564453125
-121.76513671875
-125.42724609375
-118.10302734375
-112.60986328125
-120.849609375
-128.173828125
-137.3291015625
-137.3291015625
-126.3427734375
-100.7080078125
-94.29931640625
-97.0458984375
-109.86328125
-112.60986328125
-116.27197265625
-133.6669921875
-140.9912109375
-120.849609375
-125.42724609375
-130.92041015625
-144.6533203125
-136.41357421875
-118.10302734375
-126.3427734375
-115.3564453125
-123.59619140625
-141.90673828125
-124.51171875
-116.27197265625
-121.76513671875
-129.08935546875
-127.25830078125
-126.3427734375
-133.6669921875
-121.76513671875
-111.6943359375
-126.3427734375
-136.41357421875
-134.58251953125
-119.0185546875
-138.24462890625
-120.849609375
-113.525390625
-117.1875
-122.6806640625
-135.498046875
-131.8359375
-119.0185546875
-124.51171875
-114.44091796875
-114.44091796875
-127.25830078125
-131.8359375
-127.25830078125
-123.59619140625
-126.3427734375
-126.3427734375
-119.93408203125
-127.25830078125
-136.41357421875
-130.92041015625
-129.08935546875
-131.8359375
-132.75146484375
-128.173828125
-130.0048828125
-127.25830078125
-123.59619140625
-113.525390625
-123.59619140625
-122.6806640625
-102.5390625
-104.3701171875
-114.44091796875
-119.93408203125
-140.9912109375
-127.25830078125
-111.6943359375
-105.28564453125
-116.27197265625
-113.525390625
-109.86328125
-95.21484375
-89.7216796875
-97.0458984375
-98.876953125
-76.904296875
-57.67822265625
-54.931640625
-50.35400390625
-56.7626953125
-60.4248046875
-71.4111328125
-61.34033203125
-46.69189453125
-32.04345703125
-2.74658203125
-29.296875
-36.62109375
-32.958984375
-34.7900390625
-13.73291015625
-10.07080078125
-30.21240234375
-31.1279296875
-35.70556640625
-46.69189453125
-46.69189453125
-44.86083984375
-40.283203125
-37.53662109375
-31.1279296875
-43.02978515625
-56.7626953125
-54.931640625
-60.4248046875
-82.3974609375
-79.65087890625
-83.31298828125
-93.3837890625
-124.51171875
-132.75146484375
-144.6533203125
-144.6533203125
-135.498046875
-122.6806640625
-120.849609375
-123.59619140625
-135.498046875
-139.16015625
-144.6533203125
-136.41357421875
-135.498046875
-133.6669921875
-140.07568359375
-131.8359375
-130.92041015625
-125.42724609375
-120.849609375
-130.0048828125
-135.498046875
-128.173828125
-146.484375
-135.498046875
-119.93408203125
-124.51171875
-96.13037109375
-65.91796875
-26.55029296875
42.1142578125
106.201171875
162.04833984375
237.12158203125
325.01220703125
405.57861328125
482.48291015625
585.02197265625
682.06787109375
739.74609375
790.10009765625
805.6640625
754.39453125
633.544921875
466.9189453125
252.685546875
44.86083984375
-124.51171875
-238.037109375
-297.54638671875
-337.82958984375
-353.3935546875
-354.30908203125
-317.68798828125
-237.12158203125
-180.35888671875
-156.55517578125
-148.3154296875
-131.8359375
-122.6806640625
-112.60986328125
-92.46826171875
-73.2421875
-79.65087890625
-107.11669921875
-108.0322265625
-102.5390625
-95.21484375
-90.63720703125
-89.7216796875
-77.81982421875
-73.2421875
-75.0732421875
-99.79248046875
-95.21484375
-98.876953125
-97.0458984375
-94.29931640625
-84.228515625
-82.3974609375
-62.255859375
-70.49560546875
-73.2421875
-79.65087890625
-76.904296875
-76.904296875
-82.3974609375
-92.46826171875
-82.3974609375
-64.0869140625
-53.1005859375
-47.607421875
-54.931640625
-57.67822265625
-62.255859375
-63.17138671875
-61.34033203125
-42.1142578125
-49.4384765625
-49.4384765625
-31.1279296875
-29.296875
-32.04345703125
-35.70556640625
-43.02978515625
-53.1005859375
-58.59375
-37.53662109375
-30.21240234375
-25.634765625
-25.634765625
-30.21240234375
-26.55029296875
-19.22607421875
0
10.07080078125
6.40869140625
3.662109375
12.8173828125
4.57763671875
4.57763671875
-6.40869140625
-6.40869140625
12.8173828125
27.4658203125
35.70556640625
26.55029296875
39.36767578125
65.00244140625
63.17138671875
60.4248046875
65.00244140625
81.48193359375
102.5390625
108.94775390625
103.45458984375
91.552734375
92.46826171875
98.876953125
106.201171875
114.44091796875
123.59619140625
131.8359375
152.89306640625
156.55517578125
159.3017578125
159.3017578125
158.38623046875
172.119140625
173.03466796875
166.6259765625
166.6259765625
171.20361328125
184.9365234375
181.2744140625
173.03466796875
186.767578125
195.00732421875
200.50048828125
210.5712890625
202.33154296875
197.75390625
210.5712890625
219.7265625
217.8955078125
222.47314453125
202.33154296875
194.091796875
201.416015625
194.091796875
187.68310546875
176.69677734375
174.86572265625
173.03466796875
157.470703125
129.08935546875
108.0322265625
84.228515625
66.83349609375
68.66455078125
61.34033203125
57.67822265625
50.35400390625
38.4521484375
32.958984375
24.71923828125
9.1552734375
4.57763671875
-11.90185546875
-21.97265625
-21.05712890625
-15.56396484375
-18.310546875
-22.88818359375
-35.70556640625
-48.52294921875
-48.52294921875
-53.1005859375
-60.4248046875
-61.34033203125
-70.49560546875
-54.931640625
-39.36767578125
-46.69189453125
-49.4384765625
-43.9453125
-43.02978515625
-60.4248046875
-56.7626953125
-45.7763671875
-45.7763671875
-46.69189453125
-41.19873046875
-33.87451171875
-30.21240234375
-35.70556640625
-54.01611328125
-53.1005859375
-45.7763671875
-37.53662109375
-38.4521484375
-33.87451171875
-25.634765625
-36.62109375
-47.607421875
-50.35400390625
-50.35400390625
-36.62109375
-41.19873046875
-47.607421875
-52.18505859375
-37.53662109375
-10.07080078125
-19.22607421875
-6.40869140625
-29.296875
-41.19873046875
-42.1142578125
-35.70556640625
-27.4658203125
-21.05712890625
-36.62109375
-27.4658203125
-32.958984375
-18.310546875
-9.1552734375
-6.40869140625
-21.97265625
-22.88818359375
-26.55029296875
-22.88818359375
-30.21240234375
-26.55029296875
-31.1279296875
-41.19873046875
-32.958984375
-14.6484375
-26.55029296875
-21.05712890625
-17.39501953125
-21.97265625
-32.958984375
-19.22607421875
-21.05712890625
-21.05712890625
-26.55029296875
-30.21240234375
-26.55029296875
-33.87451171875
-34.7900390625
-27.4658203125
-44.86083984375
-48.52294921875
-45.7763671875
-44.86083984375
-44.86083984375
-41.19873046875
-43.9453125
-43.9453125
-42.1142578125
-42.1142578125
-37.53662109375
-35.70556640625
-31.1279296875
-30.21240234375
-43.02978515625
-57.67822265625
-53.1005859375
-52.18505859375
-50.35400390625
-44.86083984375
-35.70556640625
-19.22607421875
-33.87451171875
-36.62109375
-42.1142578125
-59.50927734375
-59.50927734375
-52.18505859375
-51.26953125
-54.01611328125
-44.86083984375
-38.4521484375
-39.36767578125
-37.53662109375
-30.21240234375
-48.52294921875
-57.67822265625
-53.1005859375
-43.02978515625
-47.607421875
-58.59375
-56.7626953125
-49.4384765625
-43.9453125
-52.18505859375
-46.69189453125
-42.1142578125
-52.18505859375
-54.931640625
-63.17138671875
-50.35400390625
-28.38134765625
-28.38134765625
-70.49560546875
-65.00244140625
-33.87451171875
-26.55029296875
-40.283203125
-40.283203125
-38.4521484375
-49.4384765625
-54.931640625
-33.87451171875
-49.4384765625
-61.34033203125
-55.84716796875
-55.84716796875
-65.91796875
-62.255859375
-62.255859375
-54.01611328125
-31.1279296875
-40.283203125
-39.36767578125
-54.931640625
-56.7626953125
-53.1005859375
-56.7626953125
-71.4111328125
-57.67822265625
-50.35400390625
-54.01611328125
-63.17138671875
-64.0869140625
-61.34033203125
-68.66455078125
-75.98876953125
-67.7490234375
-51.26953125
-50.35400390625
-56.7626953125
-49.4384765625
-49.4384765625
-43.02978515625
-63.17138671875
-69.580078125
-75.0732421875
-65.91796875
-45.7763671875
-45.7763671875
-54.01611328125
-61.34033203125
-60.4248046875
-65.91796875
-56.7626953125
-61.34033203125
-63.17138671875
-53.1005859375
-43.02978515625
-40.283203125
-33.87451171875
-25.634765625
-32.04345703125
-34.7900390625
-39.36767578125
-41.19873046875
-40.283203125
-22.88818359375
2.74658203125
5.4931640625
2.74658203125
4.57763671875
-24.71923828125
-16.4794921875
7.32421875
21.05712890625
19.22607421875
10.07080078125
26.55029296875
32.958984375
25.634765625
28.38134765625
47.607421875
40.283203125
21.97265625
-10.986328125
-7.32421875
-4.57763671875
-6.40869140625
-6.40869140625
-2.74658203125
3.662109375
15.56396484375
0.91552734375
-1.8310546875
-13.73291015625
-24.71923828125
-43.9453125
-51.26953125
-70.49560546875
-61.34033203125
-70.49560546875
-73.2421875
-62.255859375
-54.01611328125
-55.84716796875
-71.4111328125
-73.2421875
-86.97509765625
-84.228515625
-81.48193359375
-86.0595703125
-80.56640625
-70.49560546875
-71.4111328125
-80.56640625
-95.21484375
-93.3837890625
-99.79248046875
-101.62353515625
-90.63720703125
-90.63720703125
-90.63720703125
-106.201171875
-108.94775390625
-117.1875
-119.0185546875
-80.56640625
-34.7900390625
-9.1552734375
47.607421875
139.16015625
202.33154296875
252.685546875
344.23828125
422.9736328125
501.708984375
603.33251953125
706.787109375
764.46533203125
819.39697265625
851.4404296875
823.974609375
715.9423828125
546.56982421875
339.66064453125
128.173828125
-50.35400390625
-165.71044921875
-214.2333984375
-257.26318359375
-293.88427734375
-292.05322265625
-261.8408203125
-213.31787109375
-153.80859375
-112.60986328125
-96.13037109375
-80.56640625
-66.83349609375
-73.2421875
-71.4111328125
-71.4111328125
-77.81982421875
-89.7216796875
-71.4111328125
-65.00244140625
-68.66455078125
-53.1005859375
-51.26953125
-62.255859375
-71.4111328125
-80.56640625
-69.580078125
-68.66455078125
-83.31298828125
-93.3837890625
-94.29931640625
-77.81982421875
-51.26953125
-65.91796875
-66.83349609375
-60.4248046875
-74.15771484375
-74.15771484375
-65.00244140625
-74.15771484375
-46.69189453125
-38.4521484375
-36.62109375
-34.7900390625
-18.310546875
-16.4794921875
-32.958984375
-38.4521484375
-36.62109375
-42.1142578125
-40.283203125
-32.04345703125
-39.36767578125
-33.87451171875
-25.634765625
-12.8173828125
-13.73291015625
-8.23974609375
-7.32421875
-7.32421875
-12.8173828125
-7.32421875
-14.6484375
-20.1416015625
-21.97265625
-23.8037109375
-12.8173828125
-8.23974609375
-7.32421875
1.8310546875
21.97265625
11.90185546875
10.07080078125
23.8037109375
19.22607421875
4.57763671875
0
9.1552734375
24.71923828125
43.02978515625
64.0869140625
90.63720703125
93.3837890625
78.7353515625
82.3974609375
95.21484375
100.7080078125
86.0595703125
88.80615234375
106.201171875
112.60986328125
117.1875
116.27197265625
126.3427734375
133.6669921875
149.23095703125
135.498046875
134.58251953125
138.24462890625
146.484375
153.80859375
153.80859375
162.9638671875
162.9638671875
170.2880859375
182.18994140625
184.9365234375
181.2744140625
175.78125
185.85205078125
208.740234375
209.65576171875
209.65576171875
205.99365234375
191.34521484375
219.7265625
227.05078125
216.064453125
205.078125
198.66943359375
187.68310546875
189.51416015625
192.2607421875
184.9365234375
180.35888671875
164.794921875
148.3154296875
128.173828125
108.94775390625
97.96142578125
100.7080078125
86.0595703125
67.7490234375
54.01611328125
34.7900390625
24.71923828125
20.1416015625
27.4658203125
11.90185546875
7.32421875
-10.07080078125
-26.55029296875
-34.7900390625
-20.1416015625
-32.04345703125
-41.19873046875
-47.607421875
-61.34033203125
-61.34033203125
-56.7626953125
-66.83349609375
-71.4111328125
-86.0595703125
-94.29931640625
-94.29931640625
-99.79248046875
-74.15771484375
-69.580078125
-66.83349609375
-83.31298828125
-91.552734375
-84.228515625
-75.0732421875
-66.83349609375
-60.4248046875
-82.3974609375
-78.7353515625
-75.0732421875
-75.98876953125
-71.4111328125
-69.580078125
-72.32666015625
-69.580078125
-63.17138671875
-64.0869140625
-51.26953125
-56.7626953125
-65.00244140625
-73.2421875
-78.7353515625
-77.81982421875
-66.83349609375
-68.66455078125
-70.49560546875
-67.7490234375
-60.4248046875
-69.580078125
-75.98876953125
-80.56640625
-65.91796875
-73.2421875
-80.56640625
-68.66455078125
-71.4111328125
-80.56640625
-64.0869140625
-64.0869140625
-82.3974609375
-78.7353515625
-75.0732421875
-72.32666015625
-72.32666015625
-69.580078125
-64.0869140625
-72.32666015625
-62.255859375
-46.69189453125
-60.4248046875
-71.4111328125
-84.228515625
-88.80615234375
-91.552734375
-76.904296875
-65.91796875
-76.904296875
-81.48193359375
-75.0732421875
-70.49560546875
-75.98876953125
-80.56640625
-65.00244140625
-58.59375
-81.48193359375
-77.81982421875
-79.65087890625
-84.228515625
-79.65087890625
-95.21484375
-97.0458984375
-106.201171875
-113.525390625
-113.525390625
-104.3701171875
-107.11669921875
-104.3701171875
-111.6943359375
-119.93408203125
-113.525390625
-93.3837890625
-102.5390625
-111.6943359375
-107.11669921875
-99.79248046875
-111.6943359375
-96.13037109375
-97.0458984375
-108.94775390625
-114.44091796875
-107.11669921875
-99.79248046875
-90.63720703125
-93.3837890625
-106.201171875
-123.59619140625
-115.3564453125
-119.93408203125
-129.08935546875
-126.3427734375
-110.77880859375
-100.7080078125
-96.13037109375
-95.21484375
-103.45458984375
-108.0322265625
-119.93408203125
-126.3427734375
-129.08935546875
-119.0185546875
-99.79248046875
-108.0322265625
-130.0048828125
-139.16015625
-126.3427734375
-129.08935546875
-128.173828125
-124.51171875
-127.25830078125
-123.59619140625
-120.849609375
-108.94775390625
-117.1875
-117.1875
-114.44091796875
-126.3427734375
-130.0048828125
-120.849609375
-112.60986328125
-127.25830078125
-123.59619140625
-122.6806640625
-125.42724609375
-112.60986328125
-114.44091796875
-133.6669921875
-147.39990234375
-152.89306640625
-142.822265625
-128.173828125
-125.42724609375
-130.92041015625
-137.3291015625
-138.24462890625
-132.75146484375
-127.25830078125
-142.822265625
-154.72412109375
-145.56884765625
-131.8359375
-134.58251953125
-140.9912109375
-145.56884765625
-130.0048828125
-120.849609375
-107.11669921875
-113.525390625
-118.10302734375
-126.3427734375
-121.76513671875
-106.201171875
-110.77880859375
-90.63720703125
-88.80615234375
-87.890625
-96.13037109375
-96.13037109375
-98.876953125
-107.11669921875
-110.77880859375
-97.96142578125
-77.81982421875
-53.1005859375
-42.1142578125
-41.19873046875
-51.26953125
-63.17138671875
-69.580078125
-57.67822265625
-52.18505859375
-45.7763671875
-51.26953125
-64.0869140625
-63.17138671875
-60.4248046875
-46.69189453125
-54.931640625
-71.4111328125
-75.98876953125
-81.48193359375
-106.201171875
-104.3701171875
-115.3564453125
-156.55517578125
-175.78125
-161.1328125
-156.55517578125
-155.6396484375
-170.2880859375
-163.87939453125
-151.9775390625
-141.90673828125
-148.3154296875
-155.6396484375
-173.03466796875
-196.83837890625
-192.2607421875
-177.6123046875
-150.146484375
-153.80859375
-149.23095703125
-130.92041015625
-104.3701171875
-123.59619140625
-135.498046875
-141.90673828125
-148.3154296875
-157.470703125
-146.484375
-155.6396484375
-168.45703125
-175.78125
-174.86572265625
-187.68310546875
-156.55517578125
-135.498046875
-105.28564453125
-52.18505859375
7.32421875
78.7353515625
151.9775390625
251.77001953125
346.0693359375
426.6357421875
521.8505859375
611.572265625
678.40576171875
735.16845703125
750.732421875
726.9287109375
632.62939453125
487.060546875
328.67431640625
131.8359375
-65.91796875
-210.5712890625
-273.74267578125
-328.67431640625
-372.61962890625
-398.25439453125
-379.94384765625
-319.51904296875
-274.658203125
-234.375
-201.416015625
-202.33154296875
-195.00732421875
-185.85205078125
-176.69677734375
-155.6396484375
-146.484375
-145.56884765625
-156.55517578125
-159.3017578125
-169.37255859375
-164.794921875
-164.794921875
-162.9638671875
-153.80859375
-148.3154296875
-147.39990234375
-149.23095703125
-140.9912109375
-130.92041015625
-132.75146484375
-113.525390625
-126.3427734375
-131.8359375
-115.3564453125
-117.1875
-119.93408203125
-120.849609375
-119.93408203125
-125.42724609375
-127.25830078125
-114.44091796875
-98.876953125
-94.29931640625
-97.96142578125
-96.13037109375
-107.11669921875
-109.86328125
-107.11669921875
-103.45458984375
-113.525390625
-116.27197265625
-92.46826171875
-79.65087890625
-73.2421875
-92.46826171875
-96.13037109375
-84.228515625
-76.904296875
-68.66455078125
-68.66455078125
-75.98876953125
-75.0732421875
-78.7353515625
-86.0595703125
-72.32666015625
-54.01611328125
-61.34033203125
-59.50927734375
-59.50927734375
-67.7490234375
-58.59375
-24.71923828125
-33.87451171875
-41.19873046875
-40.283203125
-18.310546875
-10.986328125
-9.1552734375
-13.73291015625
8.23974609375
15.56396484375
10.986328125
8.23974609375
16.4794921875
22.88818359375
36.62109375
43.02978515625
46.69189453125
66.83349609375
77.81982421875
75.0732421875
69.580078125
74.15771484375
86.0595703125
86.0595703125
108.0322265625
104.3701171875
108.0322265625
102.5390625
118.10302734375
130.0048828125
130.0048828125
140.9912109375
139.16015625
132.75146484375
137.3291015625
127.25830078125
132.75146484375
140.07568359375
142.822265625
146.484375
155.6396484375
141.90673828125
149.23095703125
162.04833984375
172.119140625
162.9638671875
155.6396484375
140.9912109375
131.8359375
127.25830078125
124.51171875
114.44091796875
115.3564453125
110.77880859375
119.0185546875
100.7080078125
78.7353515625
76.904296875
56.7626953125
32.958984375
24.71923828125
10.07080078125
-2.74658203125
-12.8173828125
-27.4658203125
-35.70556640625
-32.958984375
-42.1142578125
-35.70556640625
-43.02978515625
-52.18505859375
-61.34033203125
-75.98876953125
-90.63720703125
-91.552734375
-98.876953125
-104.3701171875
-95.21484375
-103.45458984375
-98.876953125
-77.81982421875
-79.65087890625
-95.21484375
-108.0322265625
-108.0322265625
-112.60986328125
-105.28564453125
-119.93408203125
-109.86328125
-120.849609375
-117.1875
-108.94775390625
-97.96142578125
-108.94775390625
-108.94775390625
-110.77880859375
-87.890625
-92.46826171875
-94.29931640625
-85.14404296875
-94.29931640625
-85.14404296875
-86.0595703125
-97.0458984375
-118.10302734375
-107.11669921875
-101.62353515625
-98.876953125
-89.7216796875
-109.86328125
-81.48193359375
-86.0595703125
-99.79248046875
-110.77880859375
-109.86328125
-97.96142578125
-97.96142578125
-94.29931640625
-96.13037109375
-96.13037109375
-83.31298828125
-89.7216796875
-83.31298828125
-89.7216796875
-97.96142578125
-100.7080078125
-89.7216796875
-83.31298828125
-80.56640625
-83.31298828125
-87.890625
-86.0595703125
-95.21484375
-96.13037109375
-102.5390625
-94.29931640625
-74.15771484375
-79.65087890625
-86.97509765625
-83.31298828125
-87.890625
-92.46826171875
-86.0595703125
-84.228515625
-68.66455078125
-85.14404296875
-86.0595703125
-86.97509765625
-92.46826171875
-85.14404296875
-97.0458984375
-111.6943359375
-108.94775390625
-114.44091796875
-108.94775390625
-108.94775390625
-106.201171875
-103.45458984375
-105.28564453125
-91.552734375
-83.31298828125
-98.876953125
-108.94775390625
-118.10302734375
-113.525390625
-117.1875
-127.25830078125
-137.3291015625
-128.173828125
-124.51171875
-118.10302734375
-121.76513671875
-114.44091796875
-110.77880859375
-117.1875
-129.08935546875
-119.0185546875
-122.6806640625
-102.5390625
-104.3701171875
-112.60986328125
-119.93408203125
-123.59619140625
-127.25830078125
-123.59619140625
-124.51171875
-130.0048828125
-124.51171875
-130.92041015625
-126.3427734375
-106.201171875
-107.11669921875
-118.10302734375
-122.6806640625
-131.8359375
-133.6669921875
-138.24462890625
-140.9912109375
-142.822265625
-140.07568359375
-121.76513671875
-110.77880859375
-106.201171875
-121.76513671875
-126.3427734375
-125.42724609375
-127.25830078125
-116.27197265625
-118.10302734375
-120.849609375
-115.3564453125
-116.27197265625
-113.525390625
-114.44091796875
-113.525390625
-110.77880859375
-121.76513671875
-120.849609375
-119.0185546875
-121.76513671875
-114.44091796875
-114.44091796875
-133.6669921875
-133.6669921875
-139.16015625
-131.8359375
-126.3427734375
-133.6669921875
-130.92041015625
-126.3427734375
-140.07568359375
-135.498046875
-122.6806640625
-94.29931640625
-110.77880859375
-141.90673828125
-129.08935546875
-125.42724609375
-128.173828125
-129.08935546875
-123.59619140625
-123.59619140625
-134.58251953125
-138.24462890625
-132.75146484375
-128.173828125
-115.3564453125
-100.7080078125
-106.201171875
-108.0322265625
-115.3564453125
-101.62353515625
-92.46826171875
-87.890625
-75.98876953125
-65.00244140625
-71.4111328125
-86.97509765625
-71.4111328125
-72.32666015625
-78.7353515625
-82.3974609375
-54.931640625
-26.55029296875
-21.97265625
-20.1416015625
-22.88818359375
-28.38134765625
-37.53662109375
-43.02978515625
-20.1416015625
-9.1552734375
-33.87451171875
-43.9453125
-33.87451171875
-35.70556640625
-43.02978515625
-39.36767578125
-46.69189453125
-55.84716796875
-48.52294921875
-40.283203125
-65.00244140625
-77.81982421875
-87.890625
-92.46826171875
-85.14404296875
-91.552734375
-110.77880859375
-118.10302734375
-128.173828125
-125.42724609375
-131.8359375
-130.0048828125
-121.76513671875
-116.27197265625
-130.92041015625
-136.41357421875
-140.07568359375
-123.59619140625
-109.86328125
-119.0185546875
-139.16015625
-130.92041015625
-121.76513671875
-137.3291015625
-154.72412109375
-143.73779296875
-137.3291015625
-130.0048828125
-117.1875
-127.25830078125
-135.498046875
-129.08935546875
-137.3291015625
-121.76513671875
-106.201171875
-75.98876953125
-15.56396484375
74.15771484375
130.0048828125
180.35888671875
276.4892578125
366.2109375
430.2978515625
521.8505859375
624.3896484375
701.2939453125
763.5498046875
813.90380859375
823.05908203125
715.9423828125
558.4716796875
351.5625
152.89306640625
-50.35400390625
-191.34521484375
-269.1650390625
-301.20849609375
-331.4208984375
-346.98486328125
-321.35009765625
-272.8271484375
-198.66943359375
-147.39990234375
-127.25830078125
-124.51171875
-123.59619140625
-127.25830078125
-109.86328125
-97.0458984375
-95.21484375
-106.201171875
-104.3701171875
-109.86328125
-110.77880859375
-113.525390625
-108.94775390625
-112.60986328125
-108.94775390625
-97.0458984375
-86.0595703125
-82.3974609375
-90.63720703125
-105.28564453125
-108.94775390625
-116.27197265625
-99.79248046875
-82.3974609375
-70.49560546875
-63.17138671875
-77.81982421875
-72.32666015625
-65.91796875
-73.2421875
-91.552734375
-76.904296875
-65.00244140625
-54.931640625
-66.83349609375
-60.4248046875
-64.0869140625
-76.904296875
-68.66455078125
-61.34033203125
-52.18505859375
-56.7626953125
-43.9453125
-45.7763671875
-54.01611328125
-50.35400390625
-48.52294921875
-48.52294921875
-45.7763671875
-38.4521484375
-32.04345703125
-29.296875
-24.71923828125
-33.87451171875
-31.1279296875
-29.296875
-11.90185546875
-21.05712890625
-32.04345703125
-12.8173828125
-10.986328125
-15.56396484375
-14.6484375
0.91552734375
4.57763671875
18.310546875
22.88818359375
26.55029296875
43.02978515625
49.4384765625
47.607421875
39.36767578125
46.69189453125
77.81982421875
68.66455078125
70.49560546875
77.81982421875
77.81982421875
85.14404296875
86.97509765625
79.65087890625
79.65087890625
97.0458984375
113.525390625
127.25830078125
138.24462890625
151.06201171875
155.6396484375
153.80859375
155.6396484375
160.21728515625
168.45703125
173.9501953125
178.52783203125
194.091796875
186.767578125
192.2607421875
192.2607421875
188.5986328125
184.9365234375
176.69677734375
195.00732421875
197.75390625
205.078125
201.416015625
212.40234375
203.2470703125
197.75390625
194.091796875
184.9365234375
184.02099609375
190.4296875
184.9365234375
183.10546875
173.9501953125
163.87939453125
161.1328125
133.6669921875
120.849609375
107.11669921875
77.81982421875
61.34033203125
75.0732421875
86.97509765625
76.904296875
62.255859375
44.86083984375
23.8037109375
14.6484375
-10.07080078125
-9.1552734375
-7.32421875
0
-8.23974609375
-3.662109375
-4.57763671875
-29.296875
-25.634765625
-30.21240234375
-41.19873046875
-43.9453125
-48.52294921875
-52.18505859375
-48.52294921875
-42.1142578125
-32.04345703125
-28.38134765625
-30.21240234375
-32.958984375
-33.87451171875
-39.36767578125
-52.18505859375
-62.255859375
-54.01611328125
-45.7763671875
-54.931640625
-40.283203125
-42.1142578125
-54.931640625
-58.59375
-68.66455078125
-64.0869140625
-71.4111328125
-69.580078125
-61.34033203125
-41.19873046875
-42.1142578125
-46.69189453125
-51.26953125
-49.4384765625
-56.7626953125
-51.26953125
-51.26953125
-40.283203125
-49.4384765625
-33.87451171875
-20.1416015625
-33.87451171875
-32.04345703125
-29.296875
-14.6484375
-22.88818359375
-13.73291015625
-18.310546875
-19.22607421875
-17.39501953125
-33.87451171875
-42.1142578125
-44.86083984375
-40.283203125
-43.02978515625
-47.607421875
-43.9453125
-35.70556640625
-37.53662109375
-32.958984375
-41.19873046875
-26.55029296875
-32.04345703125
-41.19873046875
-45.7763671875
-47.607421875
-44.86083984375
-43.9453125
-44.86083984375
-50.35400390625
-50.35400390625
-54.01611328125
-49.4384765625
-35.70556640625
-35.70556640625
-39.36767578125
-36.62109375
-29.296875
-38.4521484375
-45.7763671875
-32.958984375
-43.02978515625
-48.52294921875
-54.01611328125
-59.50927734375
-45.7763671875
-32.958984375
-42.1142578125
-43.9453125
-43.9453125
-38.4521484375
-55.84716796875
-51.26953125
-52.18505859375
-68.66455078125
-59.50927734375
-53.1005859375
-36.62109375
-29.296875
-37.53662109375
-54.01611328125
-60.4248046875
-54.931640625
-53.1005859375
-68.66455078125
-65.00244140625
-67.7490234375
-72.32666015625
-73.2421875
-76.904296875
-51.26953125
-60.4248046875
-69.580078125
-65.91796875
-65.91796875
-66.83349609375
-67.7490234375
-62.255859375
-56.7626953125
-58.59375
-64.0869140625
-55.84716796875
-64.0869140625
-63.17138671875
-60.4248046875
-64.0869140625
-71.4111328125
-58.59375
-60.4248046875
-70.49560546875
-60.4248046875
-52.18505859375
-60.4248046875
-75.98876953125
-83.31298828125
-78.7353515625
-58.59375
-47.607421875
-58.59375
-67.7490234375
-69.580078125
-68.66455078125
-64.0869140625
-74.15771484375
-67.7490234375
-72.32666015625
-70.49560546875
-66.83349609375
-77.81982421875
-68.66455078125
-66.83349609375
-67.7490234375
-58.59375
-78.7353515625
-79.65087890625
-70.49560546875
-55.84716796875
-44.86083984375
-42.1142578125
-44.86083984375
-47.607421875
-52.18505859375
-59.50927734375
-80.56640625
-82.3974609375
-75.98876953125
-57.67822265625
-64.0869140625
-64.0869140625
-63.17138671875
-64.0869140625
-57.67822265625
-63.17138671875
-61.34033203125
-60.4248046875
-54.01611328125
-65.00244140625
-73.2421875
-46.69189453125
-46.69189453125
-51.26953125
-51.26953125
-43.02978515625
-45.7763671875
-35.70556640625
-32.958984375
-15.56396484375
-4.57763671875
-10.07080078125
2.74658203125
6.40869140625
-7.32421875
3.662109375
-10.986328125
-18.310546875
-5.4931640625
28.38134765625
35.70556640625
40.283203125
56.7626953125
22.88818359375
13.73291015625
26.55029296875
31.1279296875
29.296875
28.38134765625
29.296875
33.87451171875
21.97265625
31.1279296875
24.71923828125
8.23974609375
16.4794921875
22.88818359375
6.40869140625
1.8310546875
-18.310546875
-29.296875
-26.55029296875
-16.4794921875
-28.38134765625
-49.4384765625
-43.02978515625
-37.53662109375
-50.35400390625
-52.18505859375
-55.84716796875
-59.50927734375
-65.00244140625
-67.7490234375
-64.0869140625
-66.83349609375
-55.84716796875
-57.67822265625
-64.0869140625
-65.00244140625
-61.34033203125
-53.1005859375
-57.67822265625
-56.7626953125
-49.4384765625
-63.17138671875
-68.66455078125
-75.98876953125
-78.7353515625
-73.2421875
-77.81982421875
-93.3837890625
-96.13037109375
-59.50927734375
-24.71923828125
23.8037109375
79.65087890625
137.3291015625
180.35888671875
292.96875
380.859375
455.9326171875
541.9921875
668.3349609375
757.14111328125
802.91748046875
865.17333984375
889.892578125
828.55224609375
706.787109375
525.5126953125
298.4619140625
97.96142578125
-72.32666015625
-173.9501953125
-238.037109375
-285.64453125
-296.630859375
-276.4892578125
-242.61474609375
-181.2744140625
-139.16015625
-105.28564453125
-73.2421875
-51.26953125
-43.9453125
-25.634765625
-32.04345703125
-38.4521484375
-55.84716796875
-44.86083984375
-44.86083984375
-53.1005859375
-43.02978515625
-40.283203125
-40.283203125
-36.62109375
-57.67822265625
-62.255859375
-53.1005859375
-45.7763671875
-39.36767578125
-37.53662109375
-23.8037109375
-15.56396484375
-18.310546875
-34.7900390625
-41.19873046875
-31.1279296875
-10.986328125
-13.73291015625
-27.4658203125
-39.36767578125
-38.4521484375
-31.1279296875
-14.6484375
0.91552734375
7.32421875
-6.40869140625
-8.23974609375
0
-3.662109375
-2.74658203125
1.8310546875
5.4931640625
6.40869140625
-7.32421875
-12.8173828125
-3.662109375
14.6484375
21.97265625
13.73291015625
21.05712890625
39.36767578125
45.7763671875
43.9453125
49.4384765625
46.69189453125
43.02978515625
26.55029296875
36.62109375
30.21240234375
39.36767578125
69.580078125
63.17138671875
63.17138671875
65.91796875
65.00244140625
70.49560546875
74.15771484375
86.97509765625
91.552734375
97.96142578125
101.62353515625
87.890625
87.890625
94.29931640625
101.62353515625
123.59619140625
133.6669921875
128.173828125
137.3291015625
148.3154296875
153.80859375
173.03466796875
176.69677734375
174.86572265625
172.119140625
164.794921875
193.17626953125
205.99365234375
216.064453125
220.64208984375
229.79736328125
223.388671875
227.96630859375
227.96630859375
216.97998046875
218.81103515625
223.388671875
228.8818359375
237.12158203125
254.5166015625
260.009765625
272.8271484375
256.34765625
240.78369140625
234.375
232.5439453125
249.93896484375
263.671875
250.8544921875
248.10791015625
245.361328125
251.77001953125
235.29052734375
217.8955078125
209.65576171875
197.75390625
197.75390625
180.35888671875
166.6259765625
139.16015625
121.76513671875
123.59619140625
113.525390625
86.0595703125
86.97509765625
81.48193359375
70.49560546875
65.91796875
55.84716796875
54.01611328125
37.53662109375
22.88818359375
25.634765625
19.22607421875
6.40869140625
0
-7.32421875
1.8310546875
0.91552734375
-4.57763671875
-33.87451171875
-32.04345703125
-25.634765625
-8.23974609375
-14.6484375
-25.634765625
-27.4658203125
-27.4658203125
-25.634765625
-30.21240234375
-33.87451171875
-38.4521484375
-30.21240234375
-38.4521484375
-37.53662109375
-43.9453125
-40.283203125
-19.22607421875
0
-18.310546875
-14.6484375
-21.05712890625
-26.55029296875
-39.36767578125
-36.62109375
-32.04345703125
-24.71923828125
-32.04345703125
-34.7900390625
-28.38134765625
-27.4658203125
-21.05712890625
-21.05712890625
-12.8173828125
-14.6484375
-23.8037109375
-24.71923828125
-28.38134765625
-50.35400390625
-34.7900390625
-40.283203125
-47.607421875
-47.607421875
-40.283203125
-33.87451171875
-12.8173828125
-15.56396484375
-33.87451171875
-46.69189453125
-41.19873046875
-24.71923828125
-20.1416015625
-18.310546875
-23.8037109375
-32.958984375
-41.19873046875
-23.8037109375
-26.55029296875
-30.21240234375
-46.69189453125
-31.1279296875
-30.21240234375
-43.02978515625
-25.634765625
-33.87451171875
-52.18505859375
-39.36767578125
-35.70556640625
-47.607421875
-42.1142578125
-56.7626953125
-50.35400390625
-43.9453125
-43.9453125
-41.19873046875
-55.84716796875
-56.7626953125
-52.18505859375
-54.01611328125
-55.84716796875
-55.84716796875
-62.255859375
-72.32666015625
-63.17138671875
-63.17138671875
-57.67822265625
-63.17138671875
-56.7626953125
-56.7626953125
-51.26953125
-64.0869140625
-74.15771484375
-73.2421875
-90.63720703125
-80.56640625
-65.91796875
-58.59375
-53.1005859375
-67.7490234375
-59.50927734375
-63.17138671875
-76.904296875
-86.97509765625
-86.97509765625
-86.0595703125
-90.63720703125
-86.97509765625
-79.65087890625
-81.48193359375
-82.3974609375
-99.79248046875
-101.62353515625
-118.10302734375
-103.45458984375
-102.5390625
-107.11669921875
-109.86328125
-97.96142578125
-96.13037109375
-89.7216796875
-80.56640625
-84.228515625
-75.0732421875
-77.81982421875
-98.876953125
-116.27197265625
-117.1875
-101.62353515625
-97.96142578125
-93.3837890625
-86.0595703125
-99.79248046875
-95.21484375
-81.48193359375
-76.904296875
-91.552734375
-103.45458984375
-106.201171875
-108.0322265625
-116.27197265625
-99.79248046875
-115.3564453125
-117.1875
-106.201171875
-89.7216796875
-97.0458984375
-106.201171875
-112.60986328125
-109.86328125
-89.7216796875
-108.0322265625
-111.6943359375
-120.849609375
-121.76513671875
-120.849609375
-119.0185546875
-100.7080078125
-105.28564453125
-111.6943359375
-101.62353515625
-118.10302734375
-119.0185546875
-102.5390625
-88.80615234375
-95.21484375
-75.98876953125
-65.00244140625
-65.91796875
-64.0869140625
-56.7626953125
-62.255859375
-64.0869140625
-73.2421875
-103.45458984375
-108.0322265625
-77.81982421875
-52.18505859375
-38.4521484375
-24.71923828125
-21.97265625
-17.39501953125
-23.8037109375
-19.22607421875
-16.4794921875
-17.39501953125
-37.53662109375
-54.01611328125
-48.52294921875
-44.86083984375
-56.7626953125
-42.1142578125
-48.52294921875
-77.81982421875
-71.4111328125
-73.2421875
-85.14404296875
-83.31298828125
-94.29931640625
-99.79248046875
-113.525390625
-125.42724609375
-128.173828125
-136.41357421875
-121.76513671875
-136.41357421875
-146.484375
-138.24462890625
-131.8359375
-116.27197265625
-116.27197265625
-135.498046875
-149.23095703125
-149.23095703125
-146.484375
-134.58251953125
-131.8359375
-135.498046875
-145.56884765625
-150.146484375
-157.470703125
-159.3017578125
-157.470703125
-136.41357421875
-128.173828125
-134.58251953125
-146.484375
-153.80859375
-151.06201171875
-140.9912109375
-108.94775390625
-83.31298828125
-22.88818359375
48.52294921875
123.59619140625
193.17626953125
289.306640625
398.25439453125
498.046875
581.35986328125
655.517578125
720.52001953125
778.1982421875
791.93115234375
738.83056640625
624.3896484375
481.5673828125
287.4755859375
49.4384765625
-116.27197265625
-224.30419921875
-264.58740234375
-315.85693359375
-368.0419921875
-367.12646484375
-330.50537109375
-277.40478515625
-236.2060546875
-191.34521484375
-174.86572265625
-184.02099609375
-170.2880859375
-161.1328125
-134.58251953125
-116.27197265625
-115.3564453125
-124.51171875
-128.173828125
-144.6533203125
-146.484375
-137.3291015625
-130.92041015625
-124.51171875
-140.07568359375
-150.146484375
-139.16015625
-132.75146484375
-129.08935546875
-121.76513671875
-127.25830078125
-134.58251953125
-119.0185546875
-130.0048828125
-125.42724609375
-130.92041015625
-122.6806640625
-106.201171875
-110.77880859375
-134.58251953125
-148.3154296875
-125.42724609375
-114.44091796875
-108.94775390625
-107.11669921875
-95.21484375
-117.1875
-123.59619140625
-125.42724609375
-124.51171875
-116.27197265625
-113.525390625
-112.60986328125
-105.28564453125
-114.44091796875
-115.3564453125
-121.76513671875
-122.6806640625
-97.96142578125
-68.66455078125
-73.2421875
-79.65087890625
-69.580078125
-67.7490234375
-72.32666015625
-84.228515625
-78.7353515625
-60.4248046875
-43.9453125
-43.9453125
-43.02978515625
-48.52294921875
-43.02978515625
-45.7763671875
-38.4521484375
-22.88818359375
-15.56396484375
-25.634765625
-31.1279296875
-34.7900390625
-27.4658203125
-4.57763671875
-1.8310546875
-4.57763671875
11.90185546875
21.97265625
27.4658203125
8.23974609375
21.97265625
17.39501953125
24.71923828125
32.04345703125
63.17138671875
65.91796875
67.7490234375
82.3974609375
93.3837890625
94.29931640625
96.13037109375
103.45458984375
87.890625
86.0595703125
117.1875
119.0185546875
134.58251953125
145.56884765625
143.73779296875
147.39990234375
154.72412109375
171.20361328125
162.04833984375
172.119140625
174.86572265625
165.71044921875
153.80859375
168.45703125
160.21728515625
141.90673828125
137.3291015625
132.75146484375
141.90673828125
137.3291015625
128.173828125
122.6806640625
95.21484375
75.98876953125
68.66455078125
60.4248046875
34.7900390625
32.958984375
15.56396484375
2.74658203125
-15.56396484375
-32.958984375
-36.62109375
-34.7900390625
-64.0869140625
-86.97509765625
-78.7353515625
-68.66455078125
-93.3837890625
-90.63720703125
-103.45458984375
-113.525390625
-102.5390625
-109.86328125
-122.6806640625
-109.86328125
-94.29931640625
-112.60986328125
-133.6669921875
-141.90673828125
-129.08935546875
-133.6669921875
-136.41357421875
-130.0048828125
-141.90673828125
-136.41357421875
-119.93408203125
-105.28564453125
-101.62353515625
-110.77880859375
-128.173828125
-129.08935546875
-132.75146484375
-130.0048828125
-138.24462890625
-155.6396484375
-153.80859375
-151.9775390625
-148.3154296875
-134.58251953125
-125.42724609375
-128.173828125
-132.75146484375
-130.0048828125
-133.6669921875
-123.59619140625
-117.1875
-121.76513671875
-130.0048828125
-130.92041015625
-140.9912109375
-144.6533203125
-140.07568359375
-122.6806640625
-120.849609375
-142.822265625
-140.9912109375
-137.3291015625
-120.849609375
-138.24462890625
-145.56884765625
-131.8359375
-122.6806640625
-133.6669921875
-129.08935546875
-123.59619140625
-118.10302734375
-106.201171875
-119.93408203125
-132.75146484375
-128.173828125
-115.3564453125
-118.10302734375
-123.59619140625
-139.16015625
-143.73779296875
-135.498046875
-133.6669921875
-118.10302734375
-110.77880859375
-122.6806640625
-142.822265625
-141.90673828125
-131.8359375
-132.75146484375
-136.41357421875
-140.9912109375
-137.3291015625
-122.6806640625
-125.42724609375
-126.3427734375
-119.0185546875
-134.58251953125
-145.56884765625
-149.23095703125
-165.71044921875
-168.45703125
-166.6259765625
-156.55517578125
-153.80859375
-157.470703125
-146.484375
-140.07568359375
-130.92041015625
-161.1328125
-168.45703125
-138.24462890625
-149.23095703125
-145.56884765625
-150.146484375
-140.9912109375
-153.80859375
-144.6533203125
-140.07568359375
-145.56884765625
-151.06201171875
-156.55517578125
-174.86572265625
-164.794921875
-178.52783203125
-175.78125
-173.9501953125
-173.9501953125
-169.37255859375
-171.20361328125
-173.03466796875
-159.3017578125
-151.9775390625
-149.23095703125
-162.04833984375
-169.37255859375
-162.04833984375
-177.6123046875
-166.6259765625
-164.794921875
-168.45703125
-163.87939453125
-158.38623046875
-156.55517578125
-163.87939453125
-156.55517578125
-169.37255859375
-196.83837890625
-190.4296875
-191.34521484375
-186.767578125
-192.2607421875
-188.5986328125
-179.443359375
-155.6396484375
-167.54150390625
-165.71044921875
-153.80859375
-153.80859375
-171.20361328125
-178.52783203125
-172.119140625
-163.87939453125
-153.80859375
-136.41357421875
-137.3291015625
-119.0185546875
-114.44091796875
-108.94775390625
-120.849609375
-119.0185546875
-124.51171875
-121.76513671875
-120.849609375
-103.45458984375
-75.0732421875
-85.14404296875
-75.0732421875
-74.15771484375
-81.48193359375
-100.7080078125
-100.7080078125
-73.2421875
-51.26953125
-66.83349609375
-85.14404296875
-97.96142578125
-112.60986328125
-126.3427734375
-128.173828125
-100.7080078125
-97.0458984375
-112.60986328125
-119.93408203125
-116.27197265625
-132.75146484375
-135.498046875
-148.3154296875
-163.87939453125
-165.71044921875
-161.1328125
-182.18994140625
-184.02099609375
-184.02099609375
-184.02099609375
-193.17626953125
-192.2607421875
-171.20361328125
-184.9365234375
-190.4296875
-173.9501953125
-171.20361328125
-165.71044921875
-171.20361328125
-184.02099609375
-169.37255859375
-160.21728515625
-168.45703125
-172.119140625
-187.68310546875
-195.9228515625
-187.68310546875
-173.9501953125
-162.9638671875
-172.119140625
-189.51416015625
-200.50048828125
-173.9501953125
-130.92041015625
-108.94775390625
-40.283203125
41.19873046875
108.0322265625
185.85205078125
299.37744140625
400.08544921875
447.69287109375
550.23193359375
642.7001953125
688.4765625
730.5908203125
750.732421875
693.9697265625
570.37353515625
420.22705078125
235.29052734375
21.05712890625
-160.21728515625
-260.92529296875
-323.18115234375
-353.3935546875
-369.873046875
-374.45068359375
-341.49169921875
-274.658203125
-216.97998046875
-198.66943359375
-180.35888671875
-162.04833984375
-170.2880859375
-173.03466796875
-162.9638671875
-140.9912109375
-146.484375
-143.73779296875
-138.24462890625
-144.6533203125
-141.90673828125
-138.24462890625
-142.822265625
-151.06201171875
-152.89306640625
-154.72412109375
-144.6533203125
-134.58251953125
-132.75146484375
-132.75146484375
-124.51171875
-120.849609375
-131.8359375
-144.6533203125
-140.9912109375
-123.59619140625
-124.51171875
-128.173828125
-128.173828125
-134.58251953125
-110.77880859375
-117.1875
-127.25830078125
-140.07568359375
-126.3427734375
-117.1875
-115.3564453125
-101.62353515625
-103.45458984375
-104.3701171875
-107.11669921875
-96.13037109375
-104.3701171875
-109.86328125
-104.3701171875
-95.21484375
-91.552734375
-88.80615234375
-83.31298828125
-83.31298828125
-91.552734375
-83.31298828125
-82.3974609375
-75.98876953125
-83.31298828125
-79.65087890625
-60.4248046875
-51.26953125
-54.01611328125
-43.02978515625
-29.296875
-25.634765625
-37.53662109375
-46.69189453125
-30.21240234375
-13.73291015625
-7.32421875
-5.4931640625
10.986328125
4.57763671875
-10.986328125
-13.73291015625
-9.1552734375
-3.662109375
17.39501953125
25.634765625
34.7900390625
37.53662109375
41.19873046875
60.4248046875
62.255859375
76.904296875
84.228515625
85.14404296875
94.29931640625
96.13037109375
100.7080078125
93.3837890625
89.7216796875
109.86328125
140.07568359375
161.1328125
140.9912109375
143.73779296875
129.08935546875
135.498046875
