ECG
-18.310546875
-23.8037109375
-23.8037109375
-10.07080078125
-6.40869140625
-3.662109375
8.23974609375
18.310546875
13.73291015625
8.23974609375
18.310546875
22.88818359375
31.1279296875
32.958984375
54.01611328125
53.1005859375
55.84716796875
74.15771484375
75.98876953125
82.3974609375
88.80615234375
89.7216796875
102.5390625
108.94775390625
112.60986328125
133.6669921875
132.75146484375
129.08935546875
131.8359375
142.822265625
152.89306640625
151.9775390625
151.06201171875
160.21728515625
168.45703125
166.6259765625
178.52783203125
189.51416015625
196.83837890625
193.17626953125
195.9228515625
196.83837890625
213.31787109375
213.31787109375
218.81103515625
222.47314453125
214.2333984375
205.078125
189.51416015625
192.2607421875
183.10546875
167.54150390625
173.03466796875
178.52783203125
152.89306640625
139.16015625
122.6806640625
105.28564453125
88.80615234375
79.65087890625
59.50927734375
55.84716796875
39.36767578125
32.04345703125
8.23974609375
3.662109375
-8.23974609375
-26.55029296875
-38.4521484375
-38.4521484375
-48.52294921875
-54.931640625
-65.00244140625
-74.15771484375
-83.31298828125
-82.3974609375
-78.7353515625
-88.80615234375
-91.552734375
-98.876953125
-102.5390625
-92.46826171875
-92.46826171875
-105.28564453125
-120.849609375
-113.525390625
-111.6943359375
-117.1875
-122.6806640625
-119.93408203125
-101.62353515625
-114.44091796875
-120.849609375
-120.849609375
-119.93408203125
-118.10302734375
-111.6943359375
-116.27197265625
-108.94775390625
-112.60986328125
-108.0322265625
-104.3701171875
-110.77880859375
-111.6943359375
-112.60986328125
-106.201171875
-106.201171875
-109.86328125
-96.13037109375
-103.45458984375
-101.62353515625
-102.5390625
-105.28564453125
-100.7080078125
-105.28564453125
-100.7080078125
-108.0322265625
-105.28564453125
-102.5390625
-106.201171875
-105.28564453125
-107.11669921875
-101.62353515625
-103.45458984375
-97.0458984375
-94.29931640625
-104.3701171875
-99.79248046875
-97.96142578125
-101.62353515625
-112.60986328125
-108.94775390625
-107.11669921875
-105.28564453125
-102.5390625
-102.5390625
-102.5390625
-109.86328125
-113.525390625
-105.28564453125
-108.0322265625
-108.0322265625
-106.201171875
-119.0185546875
-113.525390625
-104.3701171875
-105.28564453125
-114.44091796875
-104.3701171875
-104.3701171875
-119.93408203125
-116.27197265625
-110.77880859375
-114.44091796875
-120.849609375
-120.849609375
-127.25830078125
-127.25830078125
-118.10302734375
-117.1875
-128.173828125
-123.59619140625
-128.173828125
-127.25830078125
-125.42724609375
-133.6669921875
-129.08935546875
-127.25830078125
-140.9912109375
-124.51171875
-130.0048828125
-137.3291015625
-125.42724609375
-130.0048828125
-132.75146484375
-125.42724609375
-130.0048828125
-143.73779296875
-140.07568359375
-136.41357421875
-149.23095703125
-153.80859375
-135.498046875
-142.822265625
-141.90673828125
-143.73779296875
-130.92041015625
-143.73779296875
-136.41357421875
-140.07568359375
-149.23095703125
-148.3154296875
-145.56884765625
-144.6533203125
-142.822265625
-144.6533203125
-150.146484375
-154.72412109375
-145.56884765625
-154.72412109375
-147.39990234375
-146.484375
-138.24462890625
-143.73779296875
-142.822265625
-143.73779296875
-150.146484375
-152.89306640625
-150.146484375
-140.07568359375
-149.23095703125
-150.146484375
-139.16015625
-149.23095703125
-155.6396484375
-151.06201171875
-151.06201171875
-150.146484375
-149.23095703125
-156.55517578125
-162.9638671875
-149.23095703125
-148.3154296875
-149.23095703125
-152.89306640625
-150.146484375
-145.56884765625
-142.822265625
-147.39990234375
-150.146484375
-152.89306640625
-153.80859375
-151.9775390625
-155.6396484375
-165.71044921875
-148.3154296875
-164.794921875
-156.55517578125
-149.23095703125
-152.89306640625
-151.9775390625
-148.3154296875
-139.16015625
-130.0048828125
-119.93408203125
-118.10302734375
-114.44091796875
-113.525390625
-103.45458984375
-107.11669921875
-121.76513671875
-119.0185546875
-116.27197265625
-115.3564453125
-96.13037109375
-75.0732421875
-79.65087890625
-76.904296875
-77.81982421875
-68.66455078125
-75.98876953125
-65.00244140625
-58.59375
-71.4111328125
-75.98876953125
-66.83349609375
-67.7490234375
-79.65087890625
-93.3837890625
-103.45458984375
-107.11669921875
-91.552734375
-93.3837890625
-97.96142578125
-107.11669921875
-111.6943359375
-119.93408203125
-150.146484375
-152.89306640625
-160.21728515625
-173.03466796875
-171.20361328125
-159.3017578125
-171.20361328125
-172.119140625
-178.52783203125
-184.02099609375
-182.18994140625
-184.9365234375
-189.51416015625
-188.5986328125
-181.2744140625
-178.52783203125
-175.78125
-177.6123046875
-170.2880859375
-181.2744140625
-187.68310546875
-188.5986328125
-192.2607421875
-185.85205078125
-178.52783203125
-177.6123046875
-181.2744140625
-197.75390625
-196.83837890625
-199.5849609375
-185.85205078125
-149.23095703125
-128.173828125
-86.97509765625
-22.88818359375
45.7763671875
108.94775390625
180.35888671875
283.8134765625
368.95751953125
455.01708984375
565.7958984375
664.6728515625
715.9423828125
764.46533203125
769.04296875
681.15234375
538.330078125
341.49169921875
107.11669921875
-100.7080078125
-242.61474609375
-329.58984375
-385.43701171875
-418.39599609375
-424.8046875
-403.74755859375
-357.97119140625
-286.56005859375
-247.1923828125
-214.2333984375
-196.83837890625
-189.51416015625
-184.02099609375
-166.6259765625
-162.04833984375
-166.6259765625
-163.87939453125
-170.2880859375
-164.794921875
-165.71044921875
-163.87939453125
-160.21728515625
-162.04833984375
-157.470703125
-154.72412109375
-156.55517578125
-159.3017578125
-141.90673828125
-144.6533203125
-138.24462890625
-134.58251953125
-140.07568359375
-153.80859375
-146.484375
-139.16015625
-148.3154296875
-143.73779296875
-151.06201171875
-148.3154296875
-149.23095703125
-151.9775390625
-145.56884765625
-139.16015625
-129.08935546875
-119.0185546875
-136.41357421875
-129.08935546875
-128.173828125
-127.25830078125
-123.59619140625
-127.25830078125
-128.173828125
-126.3427734375
-117.1875
-112.60986328125
-108.94775390625
-122.6806640625
-102.5390625
-110.77880859375
-114.44091796875
-108.94775390625
-111.6943359375
-102.5390625
-95.21484375
-77.81982421875
-85.14404296875
-74.15771484375
-65.00244140625
-64.0869140625
-69.580078125
-64.0869140625
-63.17138671875
-60.4248046875
-54.931640625
-48.52294921875
-44.86083984375
-35.70556640625
-34.7900390625
-22.88818359375
-26.55029296875
-14.6484375
-8.23974609375
1.8310546875
5.4931640625
9.1552734375
2.74658203125
15.56396484375
24.71923828125
38.4521484375
37.53662109375
43.02978515625
53.1005859375
54.931640625
67.7490234375
68.66455078125
77.81982421875
82.3974609375
86.0595703125
103.45458984375
97.96142578125
113.525390625
110.77880859375
124.51171875
120.849609375
118.10302734375
118.10302734375
134.58251953125
136.41357421875
139.16015625
149.23095703125
151.9775390625
155.6396484375
149.23095703125
143.73779296875
143.73779296875
138.24462890625
133.6669921875
128.173828125
109.86328125
92.46826171875
81.48193359375
69.580078125
45.7763671875
52.18505859375
36.62109375
17.39501953125
-1.8310546875
-11.90185546875
-19.22607421875
-31.1279296875
-59.50927734375
-65.91796875
-77.81982421875
-85.14404296875
-84.228515625
-97.96142578125
-103.45458984375
-115.3564453125
-132.75146484375
-141.90673828125
-159.3017578125
-153.80859375
-155.6396484375
-162.04833984375
-163.87939453125
-169.37255859375
-165.71044921875
-152.89306640625
-168.45703125
-164.794921875
-167.54150390625
-171.20361328125
-176.69677734375
-170.2880859375
-176.69677734375
-171.20361328125
-166.6259765625
-166.6259765625
-168.45703125
-176.69677734375
-171.20361328125
-179.443359375
-184.02099609375
-182.18994140625
-184.02099609375
-179.443359375
-174.86572265625
-176.69677734375
-172.119140625
-176.69677734375
-170.2880859375
-174.86572265625
-179.443359375
-168.45703125
-173.03466796875
-174.86572265625
-168.45703125
-160.21728515625
-160.21728515625
-170.2880859375
-165.71044921875
-167.54150390625
-171.20361328125
-173.9501953125
-176.69677734375
-173.9501953125
-163.87939453125
-164.794921875
-168.45703125
-173.9501953125
-165.71044921875
-162.04833984375
-160.21728515625
-167.54150390625
-158.38623046875
-170.2880859375
-171.20361328125
-160.21728515625
-170.2880859375
-170.2880859375
-162.9638671875
-167.54150390625
-166.6259765625
-165.71044921875
-176.69677734375
-174.86572265625
-171.20361328125
-162.9638671875
-153.80859375
-156.55517578125
-156.55517578125
-167.54150390625
-180.35888671875
-174.86572265625
-168.45703125
-163.87939453125
-162.9638671875
-170.2880859375
-166.6259765625
-175.78125
-174.86572265625
-179.443359375
-179.443359375
-182.18994140625
-175.78125
-182.18994140625
-183.10546875
-176.69677734375
-192.2607421875
-189.51416015625
-179.443359375
-184.02099609375
-187.68310546875
-189.51416015625
-184.02099609375
-188.5986328125
-189.51416015625
-187.68310546875
-204.16259765625
-191.34521484375
-198.66943359375
-196.83837890625
-197.75390625
-189.51416015625
-197.75390625
-194.091796875
-193.17626953125
-196.83837890625
-210.5712890625
-202.33154296875
-192.2607421875
-205.078125
-203.2470703125
-211.48681640625
-206.9091796875
-205.99365234375
-197.75390625
-202.33154296875
-198.66943359375
-201.416015625
-203.2470703125
-204.16259765625
-213.31787109375
-209.65576171875
-210.5712890625
-205.99365234375
-196.83837890625
-196.83837890625
-207.82470703125
-215.14892578125
-208.740234375
-203.2470703125
-217.8955078125
-216.97998046875
-210.5712890625
-216.064453125
-211.48681640625
-201.416015625
-208.740234375
-215.14892578125
-210.5712890625
-215.14892578125
-212.40234375
-211.48681640625
-207.82470703125
-209.65576171875
-202.33154296875
-204.16259765625
-215.14892578125
-201.416015625
-190.4296875
-206.9091796875
-214.2333984375
-203.2470703125
-204.16259765625
-190.4296875
-177.6123046875
-173.03466796875
-171.20361328125
-159.3017578125
-166.6259765625
-157.470703125
-172.119140625
-167.54150390625
-169.37255859375
-149.23095703125
-135.498046875
-131.8359375
-130.92041015625
-126.3427734375
-119.93408203125
-131.8359375
-135.498046875
-119.0185546875
-122.6806640625
-132.75146484375
-128.173828125
-130.92041015625
-141.90673828125
-151.9775390625
-152.89306640625
-151.9775390625
-145.56884765625
-140.07568359375
-148.3154296875
-151.06201171875
-162.9638671875
-170.2880859375
-186.767578125
-198.66943359375
-190.4296875
-205.078125
-224.30419921875
-219.7265625
-217.8955078125
-228.8818359375
-234.375
-223.388671875
-229.79736328125
-234.375
-227.96630859375
-251.77001953125
-251.77001953125
-246.27685546875
-238.037109375
-229.79736328125
-223.388671875
-238.037109375
-237.12158203125
-232.5439453125
-256.34765625
-251.77001953125
-239.8681640625
-232.5439453125
-231.62841796875
-240.78369140625
-242.61474609375
-253.60107421875
-247.1923828125
-224.30419921875
-197.75390625
-173.03466796875
-113.525390625
-37.53662109375
22.88818359375
99.79248046875
208.740234375
304.87060546875
386.3525390625
497.13134765625
595.0927734375
651.85546875
691.22314453125
698.54736328125
654.60205078125
554.8095703125
400.08544921875
209.65576171875
-12.8173828125
-199.5849609375
-302.1240234375
-373.53515625
-414.73388671875
-441.2841796875
-455.01708984375
-405.57861328125
-358.88671875
-309.4482421875
-274.658203125
-257.26318359375
-249.93896484375
-243.5302734375
-238.037109375
-207.82470703125
-197.75390625
-201.416015625
-191.34521484375
-191.34521484375
-205.99365234375
-207.82470703125
-195.00732421875
-207.82470703125
-201.416015625
-199.5849609375
-205.078125
-201.416015625
-186.767578125
-187.68310546875
-192.2607421875
-198.66943359375
-184.9365234375
-183.10546875
-188.5986328125
-195.00732421875
-189.51416015625
-184.9365234375
-183.10546875
-192.2607421875
-191.34521484375
-185.85205078125
-179.443359375
-184.02099609375
-184.02099609375
-178.52783203125
-168.45703125
-165.71044921875
-162.04833984375
-155.6396484375
-155.6396484375
-161.1328125
-160.21728515625
-168.45703125
-162.04833984375
-157.470703125
-147.39990234375
-131.8359375
-134.58251953125
-131.8359375
-135.498046875
-134.58251953125
-112.60986328125
-125.42724609375
-127.25830078125
-118.10302734375
-106.201171875
-108.0322265625
-111.6943359375
-106.201171875
-103.45458984375
-94.29931640625
-92.46826171875
-83.31298828125
-84.228515625
-84.228515625
-76.904296875
-71.4111328125
-63.17138671875
-56.7626953125
-54.931640625
-46.69189453125
-39.36767578125
-44.86083984375
-21.05712890625
-22.88818359375
-10.986328125
-5.4931640625
6.40869140625
20.1416015625
24.71923828125
26.55029296875
44.86083984375
41.19873046875
39.36767578125
46.69189453125
55.84716796875
57.67822265625
58.59375
75.98876953125
79.65087890625
88.80615234375
98.876953125
100.7080078125
102.5390625
108.94775390625
127.25830078125
127.25830078125
126.3427734375
130.92041015625
122.6806640625
135.498046875
129.08935546875
118.10302734375
115.3564453125
114.44091796875
110.77880859375
98.876953125
101.62353515625
108.0322265625
83.31298828125
62.255859375
62.255859375
44.86083984375
15.56396484375
8.23974609375
-5.4931640625
-21.97265625
-41.19873046875
-46.69189453125
-53.1005859375
-78.7353515625
-99.79248046875
-103.45458984375
-108.94775390625
-109.86328125
-120.849609375
-129.08935546875
-143.73779296875
-157.470703125
-152.89306640625
-155.6396484375
-162.04833984375
-181.2744140625
-183.10546875
-185.85205078125
-181.2744140625
-167.54150390625
-184.02099609375
-182.18994140625
-178.52783203125
-188.5986328125
-187.68310546875
-198.66943359375
-191.34521484375
-201.416015625
-208.740234375
-195.9228515625
-195.00732421875
-197.75390625
-193.17626953125
-195.00732421875
-203.2470703125
-193.17626953125
-195.9228515625
-192.2607421875
-191.34521484375
-192.2607421875
-183.10546875
-184.02099609375
-187.68310546875
-189.51416015625
-184.9365234375
-188.5986328125
-191.34521484375
-185.85205078125
-186.767578125
-182.18994140625
-174.86572265625
-174.86572265625
-184.9365234375
-186.767578125
-186.767578125
-184.02099609375
-186.767578125
-188.5986328125
-181.2744140625
-178.52783203125
-173.03466796875
-172.119140625
-179.443359375
-182.18994140625
-173.03466796875
-171.20361328125
-172.119140625
-164.794921875
-172.119140625
-175.78125
-173.9501953125
-176.69677734375
-180.35888671875
-184.02099609375
-173.9501953125
-174.86572265625
-173.03466796875
-177.6123046875
-171.20361328125
-174.86572265625
-177.6123046875
-175.78125
-185.85205078125
-189.51416015625
-175.78125
-188.5986328125
-186.767578125
-173.9501953125
-165.71044921875
-172.119140625
-164.794921875
-174.86572265625
-184.9365234375
-192.2607421875
-193.17626953125
-201.416015625
-209.65576171875
-199.5849609375
-184.02099609375
-188.5986328125
-173.9501953125
-187.68310546875
-187.68310546875
-178.52783203125
-189.51416015625
-199.5849609375
-196.83837890625
-195.00732421875
-189.51416015625
-203.2470703125
-200.50048828125
-192.2607421875
-201.416015625
-194.091796875
-199.5849609375
-195.00732421875
-200.50048828125
-200.50048828125
-202.33154296875
-208.740234375
-211.48681640625
-202.33154296875
-204.16259765625
-217.8955078125
-215.14892578125
-212.40234375
-212.40234375
-214.2333984375
-214.2333984375
-211.48681640625
-211.48681640625
-205.99365234375
-216.97998046875
-208.740234375
-207.82470703125
-213.31787109375
-205.078125
-205.078125
-211.48681640625
-212.40234375
-212.40234375
-222.47314453125
-220.64208984375
-221.5576171875
-229.79736328125
-212.40234375
-210.5712890625
-207.82470703125
-198.66943359375
-202.33154296875
-195.9228515625
-195.00732421875
-196.83837890625
-196.83837890625
-179.443359375
-182.18994140625
-176.69677734375
-175.78125
-158.38623046875
-152.89306640625
-147.39990234375
-157.470703125
-154.72412109375
-134.58251953125
-123.59619140625
-118.10302734375
-106.201171875
-99.79248046875
-93.3837890625
-102.5390625
-103.45458984375
-104.3701171875
-90.63720703125
-96.13037109375
-103.45458984375
-104.3701171875
-105.28564453125
-108.0322265625
-103.45458984375
-108.94775390625
-95.21484375
-104.3701171875
-113.525390625
-135.498046875
-145.56884765625
-161.1328125
-166.6259765625
-169.37255859375
-191.34521484375
-206.9091796875
-214.2333984375
-220.64208984375
-219.7265625
-227.05078125
-216.97998046875
-225.2197265625
-232.5439453125
-238.95263671875
-236.2060546875
-226.13525390625
-240.78369140625
-247.1923828125
-251.77001953125
-242.61474609375
-243.5302734375
-249.93896484375
-245.361328125
-245.361328125
-242.61474609375
-246.27685546875
-242.61474609375
-240.78369140625
-249.93896484375
-251.77001953125
-256.34765625
-260.92529296875
-248.10791015625
-247.1923828125
-252.685546875
-247.1923828125
-215.14892578125
-185.85205078125
-154.72412109375
-86.0595703125
-4.57763671875
50.35400390625
139.16015625
261.8408203125
361.63330078125
435.791015625
539.24560546875
627.13623046875
675.6591796875
720.52001953125
707.70263671875
616.14990234375
483.3984375
291.1376953125
75.0732421875
-121.76513671875
-275.57373046875
-364.3798828125
-409.24072265625
-438.53759765625
-450.439453125
-445.86181640625
-410.15625
-344.23828125
-299.37744140625
-261.8408203125
-238.95263671875
-235.29052734375
-220.64208984375
-209.65576171875
-215.14892578125
-223.388671875
-208.740234375
-210.5712890625
-210.5712890625
-202.33154296875
-204.16259765625
-195.9228515625
-204.16259765625
-203.2470703125
-210.5712890625
-211.48681640625
-205.99365234375
-190.4296875
-195.9228515625
-201.416015625
-189.51416015625
-196.83837890625
-192.2607421875
-201.416015625
-203.2470703125
-196.83837890625
-196.83837890625
-190.4296875
-184.9365234375
-186.767578125
-183.10546875
-193.17626953125
-183.10546875
-175.78125
-181.2744140625
-180.35888671875
-186.767578125
-169.37255859375
-168.45703125
-173.03466796875
-160.21728515625
-160.21728515625
-163.87939453125
-148.3154296875
-147.39990234375
-151.9775390625
-155.6396484375
-148.3154296875
-140.07568359375
-129.08935546875
-130.92041015625
-134.58251953125
-131.8359375
-128.173828125
-131.8359375
-120.849609375
-105.28564453125
-97.0458984375
-95.21484375
-97.0458984375
-85.14404296875
-90.63720703125
-87.890625
-83.31298828125
-81.48193359375
-65.00244140625
-66.83349609375
-55.84716796875
-43.02978515625
-33.87451171875
-19.22607421875
-20.1416015625
-26.55029296875
-24.71923828125
-25.634765625
-13.73291015625
0
8.23974609375
14.6484375
29.296875
36.62109375
44.86083984375
46.69189453125
47.607421875
53.1005859375
58.59375
65.91796875
84.228515625
75.98876953125
84.228515625
86.0595703125
101.62353515625
101.62353515625
108.94775390625
112.60986328125
113.525390625
124.51171875
119.93408203125
131.8359375
132.75146484375
131.8359375
136.41357421875
127.25830078125
129.08935546875
115.3564453125
105.28564453125
102.5390625
97.0458984375
86.97509765625
74.15771484375
61.34033203125
51.26953125
33.87451171875
15.56396484375
-10.986328125
-21.97265625
-31.1279296875
-41.19873046875
-52.18505859375
-61.34033203125
-67.7490234375
-75.0732421875
-93.3837890625
-116.27197265625
-114.44091796875
-123.59619140625
-136.41357421875
-140.9912109375
-144.6533203125
-153.80859375
-158.38623046875
-158.38623046875
-152.89306640625
-164.794921875
-166.6259765625
-162.04833984375
-167.54150390625
-180.35888671875
-177.6123046875
-168.45703125
-158.38623046875
-172.119140625
-186.767578125
-183.10546875
-174.86572265625
-185.85205078125
-186.767578125
-193.17626953125
-181.2744140625
-191.34521484375
-181.2744140625
-182.18994140625
-186.767578125
-183.10546875
-178.52783203125
-176.69677734375
-179.443359375
-182.18994140625
-171.20361328125
-176.69677734375
-172.119140625
-171.20361328125
-174.86572265625
-173.03466796875
-180.35888671875
-181.2744140625
-171.20361328125
-173.9501953125
-163.87939453125
-158.38623046875
-151.9775390625
-162.04833984375
-170.2880859375
-173.9501953125
-172.119140625
-168.45703125
-158.38623046875
-154.72412109375
-162.9638671875
-161.1328125
-160.21728515625
-162.9638671875
-163.87939453125
-162.04833984375
-167.54150390625
-175.78125
-167.54150390625
-166.6259765625
-162.9638671875
-167.54150390625
-162.04833984375
-168.45703125
-171.20361328125
-164.794921875
-162.04833984375
-165.71044921875
-169.37255859375
-162.04833984375
-166.6259765625
-159.3017578125
-156.55517578125
-162.04833984375
-171.20361328125
-166.6259765625
-169.37255859375
-174.86572265625
-165.71044921875
-172.119140625
-163.87939453125
-166.6259765625
-161.1328125
-168.45703125
-175.78125
-173.9501953125
-176.69677734375
-173.03466796875
-185.85205078125
-173.9501953125
-167.54150390625
-177.6123046875
-178.52783203125
-181.2744140625
-180.35888671875
-173.9501953125
-164.794921875
-179.443359375
-188.5986328125
-178.52783203125
-175.78125
-179.443359375
-184.9365234375
-184.02099609375
-183.10546875
-178.52783203125
-188.5986328125
-188.5986328125
-182.18994140625
-184.02099609375
-184.9365234375
-184.02099609375
-192.2607421875
-191.34521484375
-189.51416015625
-192.2607421875
-190.4296875
-193.17626953125
-187.68310546875
-181.2744140625
-176.69677734375
-180.35888671875
-184.02099609375
-191.34521484375
-190.4296875
-183.10546875
-187.68310546875
-192.2607421875
-185.85205078125
-184.02099609375
-192.2607421875
-187.68310546875
-186.767578125
-198.66943359375
-201.416015625
-195.9228515625
-187.68310546875
-197.75390625
-190.4296875
-189.51416015625
-184.9365234375
-173.9501953125
-177.6123046875
-171.20361328125
-165.71044921875
-164.794921875
-160.21728515625
-157.470703125
-145.56884765625
-136.41357421875
-128.173828125
-128.173828125
-117.1875
-120.849609375
-122.6806640625
-114.44091796875
-105.28564453125
-97.96142578125
-83.31298828125
-63.17138671875
-67.7490234375
-73.2421875
-75.0732421875
-76.904296875
-69.580078125
-73.2421875
-73.2421875
-81.48193359375
-94.29931640625
-91.552734375
-78.7353515625
-79.65087890625
-74.15771484375
-82.3974609375
-92.46826171875
-87.890625
-110.77880859375
-112.60986328125
-119.0185546875
-127.25830078125
-140.07568359375
-160.21728515625
-173.03466796875
-187.68310546875
-185.85205078125
-185.85205078125
-189.51416015625
-195.00732421875
-204.16259765625
-194.091796875
-194.091796875
-204.16259765625
-207.82470703125
-210.5712890625
-210.5712890625
-201.416015625
-206.9091796875
-208.740234375
-201.416015625
-208.740234375
-204.16259765625
-210.5712890625
-211.48681640625
-212.40234375
-213.31787109375
-214.2333984375
-221.5576171875
-227.05078125
-229.79736328125
-227.05078125
-226.13525390625
-225.2197265625
-216.97998046875
-178.52783203125
-155.6396484375
-102.5390625
-41.19873046875
26.55029296875
73.2421875
169.37255859375
281.06689453125
363.46435546875
455.01708984375
558.4716796875
641.78466796875
700.37841796875
747.98583984375
739.74609375
647.27783203125
490.72265625
301.20849609375
77.81982421875
-124.51171875
-268.24951171875
-343.32275390625
-390.93017578125
-421.142578125
-426.6357421875
-399.169921875
-352.47802734375
-307.6171875
-250.8544921875
-223.388671875
-208.740234375
-181.2744140625
-179.443359375
-176.69677734375
-173.03466796875
-179.443359375
-172.119140625
-164.794921875
-166.6259765625
-163.87939453125
-168.45703125
-168.45703125
-178.52783203125
-181.2744140625
-187.68310546875
-175.78125
-171.20361328125
-161.1328125
-166.6259765625
-168.45703125
-159.3017578125
-161.1328125
-165.71044921875
-162.9638671875
-157.470703125
-160.21728515625
-155.6396484375
-143.73779296875
-144.6533203125
-149.23095703125
-144.6533203125
-140.9912109375
-140.07568359375
-138.24462890625
-130.0048828125
-136.41357421875
-133.6669921875
-136.41357421875
-130.92041015625
-125.42724609375
-124.51171875
-116.27197265625
-117.1875
-114.44091796875
-116.27197265625
-110.77880859375
-103.45458984375
-86.0595703125
-97.0458984375
-86.97509765625
-86.97509765625
-93.3837890625
-86.97509765625
-73.2421875
-73.2421875
-75.0732421875
-53.1005859375
-57.67822265625
-55.84716796875
-59.50927734375
-54.01611328125
-45.7763671875
-42.1142578125
-44.86083984375
-43.9453125
-31.1279296875
-15.56396484375
-3.662109375
-7.32421875
4.57763671875
-1.8310546875
2.74658203125
14.6484375
17.39501953125
11.90185546875
21.97265625
28.38134765625
38.4521484375
58.59375
61.34033203125
59.50927734375
78.7353515625
86.0595703125
84.228515625
90.63720703125
101.62353515625
108.0322265625
104.3701171875
119.93408203125
126.3427734375
130.0048828125
138.24462890625
142.822265625
143.73779296875
150.146484375
151.06201171875
155.6396484375
150.146484375
155.6396484375
162.04833984375
167.54150390625
170.2880859375
164.794921875
155.6396484375
154.72412109375
140.9912109375
130.92041015625
131.8359375
124.51171875
109.86328125
96.13037109375
84.228515625
60.4248046875
49.4384765625
38.4521484375
25.634765625
11.90185546875
-11.90185546875
-29.296875
-35.70556640625
-37.53662109375
-55.84716796875
-62.255859375
-76.904296875
-96.13037109375
-106.201171875
-108.0322265625
-105.28564453125
-104.3701171875
-105.28564453125
-119.0185546875
-126.3427734375
-127.25830078125
-141.90673828125
-148.3154296875
-138.24462890625
-136.41357421875
-134.58251953125
-140.9912109375
-143.73779296875
-144.6533203125
-147.39990234375
-151.06201171875
-148.3154296875
-150.146484375
-147.39990234375
-142.822265625
-143.73779296875
-150.146484375
-138.24462890625
-143.73779296875
-144.6533203125
-148.3154296875
-147.39990234375
-152.89306640625
-149.23095703125
-140.9912109375
-142.822265625
-138.24462890625
-134.58251953125
-137.3291015625
-139.16015625
-141.90673828125
-140.9912109375
-143.73779296875
-145.56884765625
-143.73779296875
-141.90673828125
-134.58251953125
-131.8359375
-129.08935546875
-130.0048828125
-136.41357421875
-134.58251953125
-134.58251953125
-140.9912109375
-142.822265625
-143.73779296875
-137.3291015625
-131.8359375
-129.08935546875
-135.498046875
-134.58251953125
-125.42724609375
-131.8359375
-138.24462890625
-125.42724609375
-126.3427734375
-119.93408203125
-109.86328125
-105.28564453125
-111.6943359375
-125.42724609375
-132.75146484375
-138.24462890625
-129.08935546875
-128.173828125
-132.75146484375
-130.92041015625
-122.6806640625
-119.93408203125
-121.76513671875
-121.76513671875
-124.51171875
-124.51171875
-136.41357421875
-136.41357421875
-141.90673828125
-136.41357421875
-128.173828125
-132.75146484375
-146.484375
-148.3154296875
-140.9912109375
-139.16015625
-140.9912109375
-141.90673828125
-139.16015625
-129.08935546875
-137.3291015625
-148.3154296875
-133.6669921875
-132.75146484375
-141.90673828125
-145.56884765625
-139.16015625
-146.484375
-145.56884765625
-141.90673828125
-143.73779296875
-149.23095703125
-150.146484375
-149.23095703125
-158.38623046875
-154.72412109375
-135.498046875
-133.6669921875
-143.73779296875
-143.73779296875
-145.56884765625
-151.06201171875
-154.72412109375
-141.90673828125
-141.90673828125
-144.6533203125
-154.72412109375
-151.9775390625
-151.06201171875
-151.9775390625
-146.484375
-140.9912109375
-151.06201171875
-143.73779296875
-148.3154296875
-145.56884765625
-144.6533203125
-140.07568359375
-146.484375
-151.9775390625
-147.39990234375
-144.6533203125
-137.3291015625
-140.07568359375
-147.39990234375
-156.55517578125
-155.6396484375
-157.470703125
-153.80859375
-145.56884765625
-151.06201171875
-152.89306640625
-146.484375
-151.06201171875
-153.80859375
-147.39990234375
-144.6533203125
-147.39990234375
-150.146484375
-147.39990234375
-152.89306640625
-157.470703125
-155.6396484375
-152.89306640625
-150.146484375
-143.73779296875
-155.6396484375
-149.23095703125
-143.73779296875
-144.6533203125
-132.75146484375
-130.92041015625
-131.8359375
-131.8359375
-132.75146484375
-127.25830078125
-115.3564453125
-97.96142578125
-99.79248046875
-92.46826171875
-76.904296875
-79.65087890625
-79.65087890625
-72.32666015625
-79.65087890625
-80.56640625
-61.34033203125
-54.01611328125
-35.70556640625
-21.97265625
-19.22607421875
-43.9453125
-43.02978515625
-33.87451171875
-29.296875
-28.38134765625
-21.05712890625
-16.4794921875
-32.04345703125
-32.958984375
-30.21240234375
-29.296875
-28.38134765625
-23.8037109375
-38.4521484375
-42.1142578125
-48.52294921875
-64.0869140625
-75.0732421875
-75.98876953125
-92.46826171875
-104.3701171875
-119.0185546875
-123.59619140625
-131.8359375
-135.498046875
-131.8359375
-133.6669921875
-144.6533203125
-141.90673828125
-151.06201171875
-148.3154296875
-133.6669921875
-143.73779296875
-147.39990234375
-152.89306640625
-148.3154296875
-151.9775390625
-138.24462890625
-145.56884765625
-147.39990234375
-151.9775390625
-154.72412109375
-159.3017578125
-164.794921875
-162.9638671875
-156.55517578125
-158.38623046875
-152.89306640625
-151.9775390625
-156.55517578125
-172.119140625
-167.54150390625
-141.90673828125
-110.77880859375
-75.98876953125
-21.05712890625
53.1005859375
106.201171875
171.20361328125
274.658203125
377.197265625
455.01708984375
552.978515625
645.44677734375
727.84423828125
784.60693359375
803.8330078125
759.8876953125
642.7001953125
466.00341796875
221.5576171875
7.32421875
-165.71044921875
-283.8134765625
-344.23828125
-384.521484375
-393.6767578125
-383.60595703125
-339.66064453125
-272.8271484375
-216.97998046875
-186.767578125
-161.1328125
-154.72412109375
-138.24462890625
-134.58251953125
-126.3427734375
-118.10302734375
-115.3564453125
-122.6806640625
-117.1875
-127.25830078125
-119.93408203125
-119.93408203125
-128.173828125
-120.849609375
-114.44091796875
-118.10302734375
-114.44091796875
-110.77880859375
-117.1875
-119.93408203125
-125.42724609375
-120.849609375
-114.44091796875
-108.0322265625
-108.94775390625
-119.0185546875
-108.0322265625
-101.62353515625
-99.79248046875
-94.29931640625
-97.96142578125
-91.552734375
-94.29931640625
-104.3701171875
-86.0595703125
-88.80615234375
-89.7216796875
-82.3974609375
-79.65087890625
-77.81982421875
-76.904296875
-69.580078125
-70.49560546875
-64.0869140625
-62.255859375
-66.83349609375
-53.1005859375
-53.1005859375
-59.50927734375
-50.35400390625
-41.19873046875
-37.53662109375
-43.9453125
-42.1142578125
-37.53662109375
-34.7900390625
-21.05712890625
-17.39501953125
-21.97265625
-14.6484375
-6.40869140625
-10.986328125
-2.74658203125
-7.32421875
4.57763671875
16.4794921875
14.6484375
20.1416015625
21.05712890625
28.38134765625
35.70556640625
47.607421875
58.59375
61.34033203125
66.83349609375
75.98876953125
81.48193359375
85.14404296875
99.79248046875
104.3701171875
111.6943359375
103.45458984375
121.76513671875
128.173828125
144.6533203125
147.39990234375
154.72412109375
168.45703125
171.20361328125
164.794921875
163.87939453125
167.54150390625
163.87939453125
184.02099609375
192.2607421875
196.83837890625
199.5849609375
206.9091796875
207.82470703125
216.064453125
212.40234375
208.740234375
214.2333984375
212.40234375
206.9091796875
202.33154296875
194.091796875
184.02099609375
178.52783203125
178.52783203125
157.470703125
133.6669921875
123.59619140625
121.76513671875
109.86328125
89.7216796875
82.3974609375
71.4111328125
50.35400390625
32.04345703125
23.8037109375
14.6484375
0
-16.4794921875
-8.23974609375
-26.55029296875
-37.53662109375
-37.53662109375
-48.52294921875
-59.50927734375
-59.50927734375
-69.580078125
-77.81982421875
-77.81982421875
-86.97509765625
-89.7216796875
-94.29931640625
-90.63720703125
-95.21484375
-99.79248046875
-97.96142578125
-104.3701171875
-99.79248046875
-97.0458984375
-101.62353515625
-105.28564453125
-104.3701171875
-100.7080078125
-108.94775390625
-102.5390625
-101.62353515625
-106.201171875
-110.77880859375
-113.525390625
-98.876953125
-103.45458984375
-107.11669921875
-97.0458984375
-97.0458984375
-93.3837890625
-105.28564453125
-106.201171875
-92.46826171875
-88.80615234375
-90.63720703125
-81.48193359375
-80.56640625
-92.46826171875
-98.876953125
-93.3837890625
-83.31298828125
-93.3837890625
-94.29931640625
-90.63720703125
-90.63720703125
-93.3837890625
-85.14404296875
-77.81982421875
-86.97509765625
-94.29931640625
-89.7216796875
-89.7216796875
-85.14404296875
-85.14404296875
-81.48193359375
-82.3974609375
-79.65087890625
-88.80615234375
-84.228515625
-79.65087890625
-86.0595703125
-100.7080078125
-90.63720703125
-88.80615234375
-94.29931640625
-97.0458984375
-94.29931640625
-87.890625
-80.56640625
-93.3837890625
-91.552734375
-99.79248046875
-96.13037109375
-81.48193359375
-83.31298828125
-87.890625
-92.46826171875
-87.890625
-97.96142578125
-108.0322265625
-94.29931640625
-102.5390625
-95.21484375
-94.29931640625
-91.552734375
-102.5390625
-100.7080078125
-94.29931640625
-97.96142578125
-104.3701171875
-108.94775390625
-117.1875
-108.94775390625
-113.525390625
-110.77880859375
-113.525390625
-106.201171875
-105.28564453125
-106.201171875
-107.11669921875
-109.86328125
-117.1875
-116.27197265625
-108.0322265625
-103.45458984375
-111.6943359375
-119.93408203125
-118.10302734375
-115.3564453125
-117.1875
-123.59619140625
-130.0048828125
-131.8359375
-119.0185546875
-114.44091796875
-117.1875
-118.10302734375
-117.1875
-114.44091796875
-107.11669921875
-126.3427734375
-124.51171875
-124.51171875
-129.08935546875
-114.44091796875
-122.6806640625
-119.93408203125
-120.849609375
-123.59619140625
-117.1875
-117.1875
-130.92041015625
-129.08935546875
-121.76513671875
-124.51171875
-122.6806640625
-129.08935546875
-124.51171875
-132.75146484375
-130.0048828125
-121.76513671875
-138.24462890625
-137.3291015625
-131.8359375
-122.6806640625
-121.76513671875
-116.27197265625
-122.6806640625
-129.08935546875
-132.75146484375
-133.6669921875
-133.6669921875
-133.6669921875
-134.58251953125
-132.75146484375
-130.92041015625
-130.0048828125
-128.173828125
-135.498046875
-133.6669921875
-142.822265625
-151.9775390625
-132.75146484375
-137.3291015625
-133.6669921875
-142.822265625
-138.24462890625
-137.3291015625
-140.07568359375
-145.56884765625
-143.73779296875
-144.6533203125
-142.822265625
-136.41357421875
-137.3291015625
-136.41357421875
-134.58251953125
-135.498046875
-136.41357421875
-139.16015625
-137.3291015625
-141.90673828125
-146.484375
-143.73779296875
-138.24462890625
-137.3291015625
-136.41357421875
-127.25830078125
-132.75146484375
-132.75146484375
-129.08935546875
-138.24462890625
-129.08935546875
-126.3427734375
-111.6943359375
-102.5390625
-87.890625
-96.13037109375
-86.97509765625
-83.31298828125
-87.890625
-91.552734375
-98.876953125
-91.552734375
-86.97509765625
-54.931640625
-57.67822265625
-58.59375
-53.1005859375
-43.02978515625
-59.50927734375
-54.01611328125
-54.931640625
-54.931640625
-56.7626953125
-62.255859375
-70.49560546875
-75.0732421875
-82.3974609375
-86.0595703125
-80.56640625
-83.31298828125
-78.7353515625
-73.2421875
-76.904296875
-97.96142578125
-107.11669921875
-117.1875
-119.0185546875
-127.25830078125
-134.58251953125
-151.06201171875
-156.55517578125
-154.72412109375
-157.470703125
-158.38623046875
-147.39990234375
-136.41357421875
-151.9775390625
-156.55517578125
-162.9638671875
-165.71044921875
-161.1328125
-151.9775390625
-155.6396484375
-149.23095703125
-155.6396484375
-159.3017578125
-161.1328125
-163.87939453125
-159.3017578125
-159.3017578125
-167.54150390625
-173.9501953125
-173.9501953125
-172.119140625
-173.03466796875
-176.69677734375
-159.3017578125
-136.41357421875
-117.1875
-51.26953125
26.55029296875
75.0732421875
134.58251953125
231.62841796875
326.84326171875
423.88916015625
526.42822265625
617.98095703125
697.6318359375
758.97216796875
802.001953125
759.8876953125
655.517578125
509.033203125
296.630859375
62.255859375
-133.6669921875
-247.1923828125
-312.19482421875
-364.3798828125
-383.60595703125
-382.6904296875
-356.14013671875
-298.4619140625
-241.69921875
-207.82470703125
-190.4296875
-166.6259765625
-160.21728515625
-145.56884765625
-132.75146484375
-131.8359375
-130.92041015625
-133.6669921875
-126.3427734375
-131.8359375
-139.16015625
-139.16015625
-134.58251953125
-137.3291015625
-132.75146484375
-126.3427734375
-120.849609375
-120.849609375
-120.849609375
-130.0048828125
-130.0048828125
-132.75146484375
-132.75146484375
-141.90673828125
-121.76513671875
-124.51171875
-123.59619140625
-123.59619140625
-130.0048828125
-121.76513671875
-102.5390625
-108.0322265625
-112.60986328125
-114.44091796875
-110.77880859375
-100.7080078125
-93.3837890625
-99.79248046875
-83.31298828125
-81.48193359375
-86.97509765625
-89.7216796875
-91.552734375
-97.96142578125
-92.46826171875
-85.14404296875
-71.4111328125
-74.15771484375
-76.904296875
-71.4111328125
-74.15771484375
-71.4111328125
-67.7490234375
-63.17138671875
-56.7626953125
-54.01611328125
-49.4384765625
-48.52294921875
-45.7763671875
-36.62109375
-24.71923828125
-25.634765625
-26.55029296875
-29.296875
-25.634765625
-6.40869140625
3.662109375
2.74658203125
8.23974609375
7.32421875
10.07080078125
13.73291015625
18.310546875
16.4794921875
31.1279296875
40.283203125
48.52294921875
59.50927734375
54.01611328125
63.17138671875
82.3974609375
91.552734375
97.96142578125
94.29931640625
104.3701171875
107.11669921875
110.77880859375
122.6806640625
133.6669921875
130.92041015625
130.92041015625
140.07568359375
151.06201171875
153.80859375
157.470703125
162.9638671875
177.6123046875
190.4296875
193.17626953125
191.34521484375
188.5986328125
191.34521484375
187.68310546875
186.767578125
187.68310546875
183.10546875
169.37255859375
173.03466796875
174.86572265625
151.06201171875
137.3291015625
126.3427734375
111.6943359375
92.46826171875
75.0732421875
68.66455078125
57.67822265625
34.7900390625
37.53662109375
5.4931640625
-0.91552734375
-12.8173828125
-26.55029296875
-42.1142578125
-47.607421875
-56.7626953125
-66.83349609375
-67.7490234375
-75.98876953125
-95.21484375
-101.62353515625
-100.7080078125
-117.1875
-116.27197265625
-114.44091796875
-118.10302734375
-128.173828125
-124.51171875
-118.10302734375
-124.51171875
-125.42724609375
-127.25830078125
-131.8359375
-140.9912109375
-140.07568359375
-133.6669921875
-142.822265625
-146.484375
-148.3154296875
-140.07568359375
-138.24462890625
-134.58251953125
-136.41357421875
-140.9912109375
-129.08935546875
-130.0048828125
-134.58251953125
-132.75146484375
-140.07568359375
-140.9912109375
-144.6533203125
-142.822265625
-145.56884765625
-146.484375
-139.16015625
-131.8359375
-137.3291015625
-136.41357421875
-128.173828125
-130.0048828125
-134.58251953125
-127.25830078125
-129.08935546875
-144.6533203125
-136.41357421875
-130.92041015625
-133.6669921875
-123.59619140625
-113.525390625
-122.6806640625
-132.75146484375
-126.3427734375
-130.0048828125
-133.6669921875
-125.42724609375
-128.173828125
-111.6943359375
-117.1875
-121.76513671875
-125.42724609375
-134.58251953125
-127.25830078125
-135.498046875
-132.75146484375
-125.42724609375
-118.10302734375
-127.25830078125
-121.76513671875
-109.86328125
-123.59619140625
-121.76513671875
-120.849609375
-132.75146484375
-129.08935546875
-138.24462890625
-127.25830078125
-122.6806640625
-125.42724609375
-122.6806640625
-134.58251953125
-133.6669921875
-132.75146484375
-136.41357421875
-140.07568359375
-142.822265625
-133.6669921875
-138.24462890625
-138.24462890625
-130.0048828125
-132.75146484375
-144.6533203125
-146.484375
-152.89306640625
-152.89306640625
-142.822265625
-140.9912109375
-141.90673828125
-137.3291015625
-140.07568359375
-137.3291015625
-143.73779296875
-151.06201171875
-144.6533203125
-148.3154296875
-148.3154296875
-147.39990234375
-151.06201171875
-151.06201171875
-148.3154296875
-150.146484375
-150.146484375
-158.38623046875
-161.1328125
-158.38623046875
-149.23095703125
-149.23095703125
-148.3154296875
-148.3154296875
-147.39990234375
-157.470703125
-154.72412109375
-148.3154296875
-155.6396484375
-158.38623046875
-157.470703125
-154.72412109375
-148.3154296875
-150.146484375
-154.72412109375
-151.9775390625
-160.21728515625
-146.484375
-150.146484375
-157.470703125
-162.04833984375
-161.1328125
-162.9638671875
-170.2880859375
-168.45703125
-170.2880859375
-163.87939453125
-156.55517578125
-155.6396484375
-154.72412109375
-162.04833984375
-156.55517578125
-158.38623046875
-162.04833984375
-153.80859375
-165.71044921875
-163.87939453125
-153.80859375
-159.3017578125
-167.54150390625
-165.71044921875
-160.21728515625
-157.470703125
-165.71044921875
-165.71044921875
-164.794921875
-168.45703125
-168.45703125
-174.86572265625
-173.03466796875
-166.6259765625
-154.72412109375
-151.9775390625
-146.484375
-151.06201171875
-155.6396484375
-145.56884765625
-146.484375
-149.23095703125
-149.23095703125
-141.90673828125
-131.8359375
-120.849609375
-109.86328125
-99.79248046875
-98.876953125
-115.3564453125
-124.51171875
-130.0048828125
-127.25830078125
-101.62353515625
-83.31298828125
-80.56640625
-70.49560546875
-72.32666015625
-70.49560546875
-86.0595703125
-77.81982421875
-79.65087890625
-73.2421875
-73.2421875
-75.98876953125
-74.15771484375
-75.98876953125
-87.890625
-104.3701171875
-107.11669921875
-95.21484375
-92.46826171875
-97.96142578125
-107.11669921875
-116.27197265625
-127.25830078125
-140.9912109375
-136.41357421875
-142.822265625
-159.3017578125
-176.69677734375
-176.69677734375
-183.10546875
-170.2880859375
-168.45703125
-179.443359375
-177.6123046875
-162.9638671875
-166.6259765625
-175.78125
-180.35888671875
-175.78125
-183.10546875
-185.85205078125
-180.35888671875
-181.2744140625
-185.85205078125
-173.03466796875
-173.9501953125
-186.767578125
-184.02099609375
-182.18994140625
-193.17626953125
-194.091796875
-197.75390625
-208.740234375
-204.16259765625
-184.02099609375
-144.6533203125
-120.849609375
-59.50927734375
17.39501953125
69.580078125
139.16015625
235.29052734375
345.15380859375
427.55126953125
522.76611328125
623.47412109375
710.44921875
758.056640625
767.2119140625
725.09765625
639.0380859375
476.07421875
278.3203125
65.91796875
-120.849609375
-237.12158203125
-301.20849609375
-345.15380859375
-383.60595703125
-394.59228515625
-366.2109375
-312.19482421875
-267.333984375
-227.96630859375
-214.2333984375
-188.5986328125
-168.45703125
-159.3017578125
-154.72412109375
-146.484375
-151.06201171875
-139.16015625
-129.08935546875
-144.6533203125
-140.07568359375
-151.06201171875
-151.9775390625
-152.89306640625
-148.3154296875
-142.822265625
-159.3017578125
-137.3291015625
-139.16015625
-139.16015625
-130.0048828125
-131.8359375
-141.90673828125
-130.92041015625
-129.08935546875
-141.90673828125
-136.41357421875
-131.8359375
-126.3427734375
-114.44091796875
-113.525390625
-123.59619140625
-121.76513671875
-129.08935546875
-125.42724609375
-114.44091796875
-120.849609375
-103.45458984375
-108.94775390625
-110.77880859375
-102.5390625
-105.28564453125
-111.6943359375
-100.7080078125
-97.0458984375
-93.3837890625
-87.890625
-87.890625
-89.7216796875
-78.7353515625
-72.32666015625
-75.0732421875
-75.98876953125
-62.255859375
-68.66455078125
-73.2421875
-52.18505859375
-52.18505859375
-65.91796875
-51.26953125
-34.7900390625
-30.21240234375
-19.22607421875
-22.88818359375
-18.310546875
-21.05712890625
-20.1416015625
-6.40869140625
-3.662109375
7.32421875
18.310546875
21.97265625
19.22607421875
27.4658203125
31.1279296875
39.36767578125
50.35400390625
57.67822265625
68.66455078125
76.904296875
81.48193359375
91.552734375
103.45458984375
100.7080078125
100.7080078125
110.77880859375
118.10302734375
130.0048828125
140.07568359375
151.9775390625
154.72412109375
157.470703125
162.9638671875
170.2880859375
162.9638671875
173.03466796875
184.9365234375
189.51416015625
179.443359375
188.5986328125
196.83837890625
197.75390625
192.2607421875
194.091796875
186.767578125
176.69677734375
181.2744140625
171.20361328125
161.1328125
143.73779296875
130.0048828125
118.10302734375
110.77880859375
97.0458984375
74.15771484375
59.50927734375
45.7763671875
19.22607421875
21.97265625
13.73291015625
-9.1552734375
-25.634765625
-41.19873046875
-51.26953125
-62.255859375
-65.91796875
-76.904296875
-78.7353515625
-68.66455078125
-82.3974609375
-103.45458984375
-106.201171875
-109.86328125
-113.525390625
-127.25830078125
-131.8359375
-134.58251953125
-129.08935546875
-119.93408203125
-129.08935546875
-130.92041015625
-133.6669921875
-136.41357421875
-135.498046875
-141.90673828125
-138.24462890625
-141.90673828125
-134.58251953125
-136.41357421875
-141.90673828125
-135.498046875
-133.6669921875
-130.0048828125
-129.08935546875
-143.73779296875
-137.3291015625
-137.3291015625
-132.75146484375
-131.8359375
-130.92041015625
-134.58251953125
-136.41357421875
-129.08935546875
-132.75146484375
-145.56884765625
-135.498046875
-133.6669921875
-133.6669921875
-129.08935546875
-122.6806640625
-118.10302734375
-134.58251953125
-133.6669921875
-127.25830078125
-129.08935546875
-122.6806640625
-120.849609375
-119.0185546875
-121.76513671875
-111.6943359375
-113.525390625
-115.3564453125
-116.27197265625
-128.173828125
-119.93408203125
-123.59619140625
-123.59619140625
-120.849609375
-127.25830078125
-119.0185546875
-130.92041015625
-132.75146484375
-120.849609375
-121.76513671875
-127.25830078125
-119.93408203125
-120.849609375
-122.6806640625
-119.93408203125
-117.1875
-113.525390625
-123.59619140625
-119.93408203125
-122.6806640625
-125.42724609375
-121.76513671875
-123.59619140625
-126.3427734375
-129.08935546875
-127.25830078125
-121.76513671875
-136.41357421875
-134.58251953125
-130.92041015625
-134.58251953125
-134.58251953125
-150.146484375
-145.56884765625
-143.73779296875
-123.59619140625
-128.173828125
-138.24462890625
-140.9912109375
-135.498046875
-140.07568359375
-138.24462890625
-140.9912109375
-146.484375
-151.06201171875
-155.6396484375
-146.484375
-147.39990234375
-145.56884765625
-142.822265625
-159.3017578125
-158.38623046875
-160.21728515625
-149.23095703125
-138.24462890625
-140.07568359375
-148.3154296875
-152.89306640625
-146.484375
-140.07568359375
-149.23095703125
-158.38623046875
-151.9775390625
-159.3017578125
-153.80859375
-152.89306640625
-157.470703125
-161.1328125
-157.470703125
-151.9775390625
-154.72412109375
-151.06201171875
-141.90673828125
-143.73779296875
-159.3017578125
-159.3017578125
-152.89306640625
-158.38623046875
-168.45703125
-168.45703125
-170.2880859375
-173.03466796875
-157.470703125
-160.21728515625
-166.6259765625
-156.55517578125
-167.54150390625
-160.21728515625
-165.71044921875
-162.04833984375
-156.55517578125
-153.80859375
-155.6396484375
-151.06201171875
-162.9638671875
-159.3017578125
-161.1328125
-161.1328125
-160.21728515625
-161.1328125
-160.21728515625
-162.04833984375
-152.89306640625
-151.06201171875
-151.9775390625
-145.56884765625
-137.3291015625
-130.92041015625
-131.8359375
-118.10302734375
-116.27197265625
-106.201171875
-100.7080078125
-101.62353515625
-97.96142578125
-92.46826171875
-98.876953125
-95.21484375
-76.904296875
-61.34033203125
-63.17138671875
-63.17138671875
-66.83349609375
-78.7353515625
-75.0732421875
-71.4111328125
-65.00244140625
-50.35400390625
-60.4248046875
-68.66455078125
-86.0595703125
-89.7216796875
-86.0595703125
-84.228515625
-77.81982421875
-77.81982421875
-83.31298828125
-80.56640625
-95.21484375
-108.94775390625
-119.0185546875
-134.58251953125
-130.92041015625
-142.822265625
-159.3017578125
-158.38623046875
-164.794921875
-170.2880859375
-171.20361328125
-171.20361328125
-178.52783203125
-195.00732421875
-184.02099609375
-171.20361328125
-175.78125
-174.86572265625
-174.86572265625
-179.443359375
-182.18994140625
-188.5986328125
-185.85205078125
-182.18994140625
-184.9365234375
-186.767578125
-191.34521484375
-191.34521484375
-185.85205078125
-183.10546875
-193.17626953125
-198.66943359375
-203.2470703125
-200.50048828125
-179.443359375
-155.6396484375
-123.59619140625
-55.84716796875
8.23974609375
73.2421875
144.6533203125
233.45947265625
335.0830078125
413.818359375
513.61083984375
623.47412109375
712.2802734375
756.2255859375
780.94482421875
754.39453125
653.6865234375
507.2021484375
297.54638671875
70.49560546875
-116.27197265625
-240.78369140625
-309.4482421875
-353.3935546875
-388.18359375
-390.93017578125
-362.548828125
-316.7724609375
-267.333984375
-232.5439453125
-205.078125
-192.2607421875
-178.52783203125
-161.1328125
-142.822265625
-137.3291015625
-136.41357421875
-143.73779296875
-142.822265625
-133.6669921875
-132.75146484375
-139.16015625
-140.07568359375
-136.41357421875
-139.16015625
-146.484375
-147.39990234375
-151.06201171875
-146.484375
-134.58251953125
-130.92041015625
-127.25830078125
-125.42724609375
-132.75146484375
-131.8359375
-127.25830078125
-128.173828125
-119.0185546875
-119.0185546875
-124.51171875
-116.27197265625
-98.876953125
-112.60986328125
-119.0185546875
-104.3701171875
-112.60986328125
-115.3564453125
-108.94775390625
-104.3701171875
-91.552734375
-98.876953125
-96.13037109375
-95.21484375
-90.63720703125
-83.31298828125
-79.65087890625
-83.31298828125
-76.904296875
-75.98876953125
-72.32666015625
-71.4111328125
-65.00244140625
-57.67822265625
-49.4384765625
-52.18505859375
-43.9453125
-37.53662109375
-43.9453125
-35.70556640625
-34.7900390625
-36.62109375
-23.8037109375
-20.1416015625
-13.73291015625
-12.8173828125
-21.05712890625
-8.23974609375
-4.57763671875
9.1552734375
9.1552734375
10.986328125
23.8037109375
25.634765625
41.19873046875
45.7763671875
49.4384765625
62.255859375
77.81982421875
75.0732421875
86.0595703125
94.29931640625
100.7080078125
108.94775390625
112.60986328125
116.27197265625
114.44091796875
127.25830078125
136.41357421875
133.6669921875
140.9912109375
152.89306640625
161.1328125
162.04833984375
166.6259765625
174.86572265625
177.6123046875
177.6123046875
185.85205078125
182.18994140625
194.091796875
191.34521484375
201.416015625
203.2470703125
205.99365234375
194.091796875
184.02099609375
175.78125
173.03466796875
169.37255859375
158.38623046875
133.6669921875
119.93408203125
104.3701171875
101.62353515625
92.46826171875
77.81982421875
62.255859375
43.02978515625
17.39501953125
5.4931640625
-3.662109375
-20.1416015625
-21.05712890625
-36.62109375
-52.18505859375
-55.84716796875
-55.84716796875
-70.49560546875
-87.890625
-86.97509765625
-86.97509765625
-91.552734375
-102.5390625
-109.86328125
-108.94775390625
-121.76513671875
-124.51171875
-117.1875
-115.3564453125
-125.42724609375
-119.93408203125
-126.3427734375
-122.6806640625
-123.59619140625
-123.59619140625
-129.08935546875
-128.173828125
-138.24462890625
-147.39990234375
-135.498046875
-130.92041015625
-130.92041015625
-133.6669921875
-122.6806640625
-128.173828125
-138.24462890625
-132.75146484375
-130.92041015625
-136.41357421875
-124.51171875
-119.93408203125
-122.6806640625
-122.6806640625
-125.42724609375
-125.42724609375
-125.42724609375
-121.76513671875
-118.10302734375
-128.173828125
-135.498046875
-129.08935546875
-121.76513671875
-115.3564453125
-116.27197265625
-116.27197265625
-112.60986328125
-117.1875
-117.1875
-119.93408203125
-119.93408203125
-115.3564453125
-119.93408203125
-106.201171875
-113.525390625
-113.525390625
-112.60986328125
-114.44091796875
-119.0185546875
-122.6806640625
-120.849609375
-115.3564453125
-110.77880859375
-104.3701171875
-103.45458984375
-104.3701171875
-107.11669921875
-109.86328125
-115.3564453125
-117.1875
-109.86328125
-103.45458984375
-111.6943359375
-112.60986328125
-97.0458984375
-96.13037109375
-110.77880859375
-114.44091796875
-108.0322265625
-120.849609375
-119.93408203125
-115.3564453125
-120.849609375
-115.3564453125
-119.93408203125
-119.0185546875
-119.0185546875
-109.86328125
-119.93408203125
-127.25830078125
-117.1875
-114.44091796875
-118.10302734375
-109.86328125
-109.86328125
-118.10302734375
-120.849609375
-125.42724609375
-131.8359375
-144.6533203125
-140.9912109375
-130.0048828125
-127.25830078125
-131.8359375
-131.8359375
-125.42724609375
-123.59619140625
-113.525390625
-120.849609375
-134.58251953125
-139.16015625
-132.75146484375
-133.6669921875
-127.25830078125
-127.25830078125
-132.75146484375
-130.92041015625
-123.59619140625
-123.59619140625
-132.75146484375
-137.3291015625
-121.76513671875
-125.42724609375
-132.75146484375
-134.58251953125
-138.24462890625
-137.3291015625
-130.92041015625
-127.25830078125
-133.6669921875
-133.6669921875
-141.90673828125
-133.6669921875
-132.75146484375
-127.25830078125
-128.173828125
-130.0048828125
-127.25830078125
-127.25830078125
-133.6669921875
-130.92041015625
-135.498046875
-139.16015625
-134.58251953125
-123.59619140625
-119.0185546875
-122.6806640625
-122.6806640625
-119.0185546875
-130.92041015625
-130.92041015625
-129.08935546875
-128.173828125
-123.59619140625
-122.6806640625
-117.1875
-119.0185546875
-130.92041015625
-132.75146484375
-130.92041015625
-129.08935546875
-125.42724609375
-115.3564453125
-109.86328125
-115.3564453125
-118.10302734375
-116.27197265625
-110.77880859375
-118.10302734375
-128.173828125
-118.10302734375
-113.525390625
-113.525390625
-108.0322265625
-118.10302734375
-119.0185546875
-118.10302734375
-111.6943359375
-97.0458984375
-108.0322265625
-106.201171875
-101.62353515625
-90.63720703125
-86.97509765625
-68.66455078125
-71.4111328125
-61.34033203125
-61.34033203125
-58.59375
-69.580078125
-66.83349609375
-68.66455078125
-57.67822265625
-44.86083984375
-22.88818359375
-14.6484375
-13.73291015625
-10.07080078125
-15.56396484375
-28.38134765625
-28.38134765625
-20.1416015625
-17.39501953125
-19.22607421875
-24.71923828125
-24.71923828125
-37.53662109375
-38.4521484375
-34.7900390625
-39.36767578125
-32.04345703125
-37.53662109375
-48.52294921875
-54.931640625
-63.17138671875
-74.15771484375
-79.65087890625
-88.80615234375
-85.14404296875
-102.5390625
-116.27197265625
-119.0185546875
-109.86328125
-117.1875
-118.10302734375
-128.173828125
-123.59619140625
-121.76513671875
-126.3427734375
-133.6669921875
-142.822265625
-133.6669921875
-120.849609375
-119.93408203125
-119.0185546875
-120.849609375
-134.58251953125
-128.173828125
-128.173828125
-131.8359375
-131.8359375
-135.498046875
-129.08935546875
-122.6806640625
-126.3427734375
-143.73779296875
-141.90673828125
-127.25830078125
-95.21484375
-74.15771484375
-24.71923828125
32.958984375
116.27197265625
181.2744140625
273.74267578125
362.548828125
457.763671875
537.41455078125
635.3759765625
726.9287109375
799.25537109375
848.69384765625
833.1298828125
747.98583984375
607.91015625
399.169921875
160.21728515625
-36.62109375
-192.2607421875
-280.1513671875
-322.265625
-357.0556640625
-362.548828125
-329.58984375
-275.57373046875
-216.97998046875
-162.9638671875
-134.58251953125
-118.10302734375
-119.93408203125
-104.3701171875
-87.890625
-86.0595703125
-87.890625
-83.31298828125
-88.80615234375
-91.552734375
-88.80615234375
-88.80615234375
-89.7216796875
-88.80615234375
-90.63720703125
-87.890625
-83.31298828125
-72.32666015625
-76.904296875
-83.31298828125
-86.0595703125
-82.3974609375
-77.81982421875
-71.4111328125
-86.0595703125
-82.3974609375
-74.15771484375
-53.1005859375
-59.50927734375
-62.255859375
-56.7626953125
-60.4248046875
-71.4111328125
-70.49560546875
-55.84716796875
-60.4248046875
-63.17138671875
-48.52294921875
-49.4384765625
-41.19873046875
-45.7763671875
-46.69189453125
-45.7763671875
-35.70556640625
-32.958984375
-25.634765625
-14.6484375
-16.4794921875
-21.05712890625
-10.07080078125
-12.8173828125
-13.73291015625
0.91552734375
2.74658203125
10.07080078125
6.40869140625
8.23974609375
13.73291015625
19.22607421875
13.73291015625
20.1416015625
28.38134765625
24.71923828125
33.87451171875
43.02978515625
48.52294921875
54.01611328125
49.4384765625
56.7626953125
65.00244140625
70.49560546875
76.904296875
77.81982421875
93.3837890625
99.79248046875
106.201171875
107.11669921875
126.3427734375
133.6669921875
128.173828125
130.92041015625
137.3291015625
153.80859375
162.04833984375
171.20361328125
173.03466796875
187.68310546875
188.5986328125
186.767578125
197.75390625
203.2470703125
208.740234375
204.16259765625
205.99365234375
223.388671875
233.45947265625
238.95263671875
236.2060546875
236.2060546875
251.77001953125
248.10791015625
249.0234375
245.361328125
243.5302734375
243.5302734375
237.12158203125
245.361328125
238.037109375
227.96630859375
206.9091796875
203.2470703125
187.68310546875
162.9638671875
153.80859375
142.822265625
129.08935546875
119.0185546875
108.0322265625
88.80615234375
61.34033203125
58.59375
47.607421875
31.1279296875
30.21240234375
15.56396484375
7.32421875
2.74658203125
-7.32421875
-22.88818359375
-27.4658203125
-32.04345703125
-46.69189453125
-54.931640625
-48.52294921875
-50.35400390625
-56.7626953125
-58.59375
-52.18505859375
-65.91796875
-70.49560546875
-70.49560546875
-65.91796875
-76.904296875
-78.7353515625
-77.81982421875
-79.65087890625
-75.98876953125
-73.2421875
-74.15771484375
-74.15771484375
-63.17138671875
-72.32666015625
-86.97509765625
-87.890625
-74.15771484375
-83.31298828125
-75.0732421875
-71.4111328125
-75.0732421875
-73.2421875
-64.0869140625
-73.2421875
-84.228515625
-74.15771484375
-72.32666015625
-69.580078125
-65.00244140625
-58.59375
-62.255859375
-66.83349609375
-69.580078125
-65.00244140625
-62.255859375
-62.255859375
-55.84716796875
-55.84716796875
-57.67822265625
-49.4384765625
-60.4248046875
-67.7490234375
-62.255859375
-58.59375
-52.18505859375
-52.18505859375
-47.607421875
-51.26953125
-52.18505859375
-50.35400390625
-58.59375
-54.931640625
-52.18505859375
-60.4248046875
-59.50927734375
-58.59375
-49.4384765625
-57.67822265625
-56.7626953125
-57.67822265625
-64.0869140625
-53.1005859375
-53.1005859375
-60.4248046875
-58.59375
-64.0869140625
-57.67822265625
-58.59375
-51.26953125
-53.1005859375
-61.34033203125
-62.255859375
-52.18505859375
-50.35400390625
-65.91796875
-70.49560546875
-67.7490234375
-57.67822265625
-55.84716796875
-61.34033203125
-67.7490234375
-65.91796875
-52.18505859375
-62.255859375
-67.7490234375
-65.91796875
-65.91796875
-65.00244140625
-64.0869140625
-65.91796875
-67.7490234375
-75.0732421875
-69.580078125
-72.32666015625
-72.32666015625
-69.580078125
-70.49560546875
-72.32666015625
-71.4111328125
-66.83349609375
-70.49560546875
-65.91796875
-58.59375
-62.255859375
-72.32666015625
-66.83349609375
-64.0869140625
-63.17138671875
-75.98876953125
-70.49560546875
-65.00244140625
-75.0732421875
-76.904296875
-74.15771484375
-75.0732421875
-71.4111328125
-70.49560546875
-73.2421875
-70.49560546875
-65.91796875
-70.49560546875
-73.2421875
-67.7490234375
-80.56640625
-82.3974609375
-75.0732421875
-73.2421875
-74.15771484375
-75.0732421875
-75.98876953125
-75.98876953125
-77.81982421875
-77.81982421875
-78.7353515625
-76.904296875
-71.4111328125
-71.4111328125
-75.98876953125
-67.7490234375
-66.83349609375
-69.580078125
-64.0869140625
-68.66455078125
-76.904296875
-78.7353515625
-77.81982421875
-84.228515625
-82.3974609375
-81.48193359375
-65.00244140625
-68.66455078125
-76.904296875
-75.98876953125
-79.65087890625
-76.904296875
-74.15771484375
-74.15771484375
-70.49560546875
-72.32666015625
-63.17138671875
-85.14404296875
-89.7216796875
-77.81982421875
-76.904296875
-77.81982421875
-75.0732421875
-66.83349609375
-62.255859375
-59.50927734375
-69.580078125
-68.66455078125
-68.66455078125
-66.83349609375
-78.7353515625
-77.81982421875
-69.580078125
-56.7626953125
-65.91796875
-67.7490234375
-70.49560546875
-61.34033203125
-65.00244140625
-58.59375
-64.0869140625
-64.0869140625
-59.50927734375
-32.04345703125
-29.296875
-32.04345703125
-25.634765625
-18.310546875
-11.90185546875
-11.90185546875
-18.310546875
-23.8037109375
-24.71923828125
-14.6484375
0
11.90185546875
24.71923828125
24.71923828125
12.8173828125
15.56396484375
9.1552734375
15.56396484375
16.4794921875
29.296875
25.634765625
16.4794921875
10.07080078125
-2.74658203125
-8.23974609375
-3.662109375
0
3.662109375
-0.91552734375
-10.07080078125
-15.56396484375
-27.4658203125
-40.283203125
-46.69189453125
-52.18505859375
-54.931640625
-65.00244140625
-73.2421875
-75.0732421875
-82.3974609375
-78.7353515625
-74.15771484375
-79.65087890625
-81.48193359375
-86.97509765625
-87.890625
-82.3974609375
-79.65087890625
-80.56640625
-76.904296875
-86.0595703125
-85.14404296875
-86.97509765625
-89.7216796875
-93.3837890625
-82.3974609375
-88.80615234375
-78.7353515625
-83.31298828125
-78.7353515625
-89.7216796875
-100.7080078125
-105.28564453125
-78.7353515625
-44.86083984375
-21.05712890625
27.4658203125
96.13037109375
161.1328125
227.05078125
324.0966796875
420.22705078125
499.8779296875
599.67041015625
706.787109375
790.10009765625
842.28515625
884.3994140625
840.4541015625
727.84423828125
574.951171875
346.98486328125
127.25830078125
-80.56640625
-216.064453125
-285.64453125
-329.58984375
-349.7314453125
-320.4345703125
-284.72900390625
-227.96630859375
-162.04833984375
-130.0048828125
-103.45458984375
-87.890625
-67.7490234375
-59.50927734375
-52.18505859375
-45.7763671875
-52.18505859375
-61.34033203125
-67.7490234375
-70.49560546875
-59.50927734375
-54.01611328125
-55.84716796875
-59.50927734375
-57.67822265625
-56.7626953125
-47.607421875
-53.1005859375
-56.7626953125
-54.01611328125
-55.84716796875
-54.01611328125
-60.4248046875
-64.0869140625
-52.18505859375
-55.84716796875
-58.59375
-57.67822265625
-53.1005859375
-45.7763671875
-52.18505859375
-40.283203125
-40.283203125
-51.26953125
-51.26953125
-43.02978515625
-35.70556640625
-29.296875
-24.71923828125
-22.88818359375
-22.88818359375
-21.97265625
-25.634765625
-28.38134765625
-21.05712890625
-17.39501953125
-19.22607421875
-9.1552734375
0.91552734375
-1.8310546875
-6.40869140625
3.662109375
6.40869140625
2.74658203125
1.8310546875
10.986328125
4.57763671875
4.57763671875
20.1416015625
10.07080078125
26.55029296875
45.7763671875
37.53662109375
42.1142578125
45.7763671875
47.607421875
58.59375
67.7490234375
79.65087890625
79.65087890625
79.65087890625
92.46826171875
96.13037109375
89.7216796875
90.63720703125
98.876953125
110.77880859375
126.3427734375
129.08935546875
134.58251953125
134.58251953125
150.146484375
161.1328125
144.6533203125
162.04833984375
173.03466796875
172.119140625
186.767578125
192.2607421875
193.17626953125
194.091796875
202.33154296875
211.48681640625
205.99365234375
207.82470703125
223.388671875
231.62841796875
232.5439453125
242.61474609375
249.93896484375
242.61474609375
234.375
232.5439453125
227.96630859375
229.79736328125
227.05078125
217.8955078125
213.31787109375
205.99365234375
192.2607421875
182.18994140625
178.52783203125
163.87939453125
142.822265625
131.8359375
116.27197265625
103.45458984375
93.3837890625
86.0595703125
72.32666015625
46.69189453125
24.71923828125
26.55029296875
7.32421875
-15.56396484375
-13.73291015625
-15.56396484375
-19.22607421875
-22.88818359375
-39.36767578125
-51.26953125
-75.0732421875
-71.4111328125
-65.91796875
-72.32666015625
-65.91796875
-70.49560546875
-76.904296875
-72.32666015625
-85.14404296875
-86.0595703125
-94.29931640625
-86.97509765625
-85.14404296875
-89.7216796875
-92.46826171875
-88.80615234375
-88.80615234375
-93.3837890625
-97.96142578125
-94.29931640625
-89.7216796875
-91.552734375
-99.79248046875
-99.79248046875
-97.96142578125
-95.21484375
-101.62353515625
-93.3837890625
-102.5390625
-102.5390625
-101.62353515625
-97.96142578125
-101.62353515625
-97.96142578125
-103.45458984375
-96.13037109375
-106.201171875
-92.46826171875
-88.80615234375
-87.890625
-92.46826171875
-99.79248046875
-101.62353515625
-93.3837890625
-93.3837890625
-96.13037109375
-99.79248046875
-95.21484375
-86.97509765625
-80.56640625
-85.14404296875
-89.7216796875
-89.7216796875
-92.46826171875
-85.14404296875
-89.7216796875
-92.46826171875
-87.890625
-86.0595703125
-92.46826171875
-84.228515625
-86.0595703125
-86.97509765625
-89.7216796875
-91.552734375
-92.46826171875
-92.46826171875
-90.63720703125
-86.97509765625
-83.31298828125
-80.56640625
-90.63720703125
-82.3974609375
-89.7216796875
-88.80615234375
-81.48193359375
-82.3974609375
-88.80615234375
-91.552734375
-96.13037109375
-98.876953125
-94.29931640625
-108.0322265625
-110.77880859375
-103.45458984375
-108.94775390625
-90.63720703125
-90.63720703125
-95.21484375
-104.3701171875
-112.60986328125
-117.1875
-117.1875
-105.28564453125
-93.3837890625
-97.0458984375
-97.0458984375
-90.63720703125
-95.21484375
-97.96142578125
-99.79248046875
-102.5390625
-112.60986328125
-109.86328125
-109.86328125
-111.6943359375
-109.86328125
-103.45458984375
-102.5390625
-105.28564453125
-110.77880859375
-101.62353515625
-108.0322265625
-113.525390625
-120.849609375
-120.849609375
-114.44091796875
-109.86328125
-109.86328125
-116.27197265625
-108.0322265625
-112.60986328125
-108.94775390625
-106.201171875
-112.60986328125
-119.0185546875
-121.76513671875
-114.44091796875
-114.44091796875
-120.849609375
-125.42724609375
-121.76513671875
-111.6943359375
-116.27197265625
-124.51171875
-119.0185546875
-115.3564453125
-113.525390625
-128.173828125
-115.3564453125
-115.3564453125
-123.59619140625
-128.173828125
-123.59619140625
-123.59619140625
-134.58251953125
-132.75146484375
-121.76513671875
-131.8359375
-131.8359375
-119.93408203125
-119.0185546875
-117.1875
-113.525390625
-108.94775390625
-126.3427734375
-115.3564453125
-118.10302734375
-116.27197265625
-119.0185546875
-130.92041015625
-131.8359375
-140.07568359375
-136.41357421875
-119.93408203125
-119.0185546875
-118.10302734375
-110.77880859375
-116.27197265625
-129.08935546875
-127.25830078125
-126.3427734375
-143.73779296875
-131.8359375
-122.6806640625
-120.849609375
-124.51171875
-132.75146484375
-126.3427734375
-123.59619140625
-104.3701171875
-105.28564453125
-120.849609375
-110.77880859375
-97.0458984375
-103.45458984375
-97.0458984375
-89.7216796875
-73.2421875
-76.904296875
-73.2421875
-77.81982421875
-85.14404296875
-86.97509765625
-84.228515625
-63.17138671875
-50.35400390625
-42.1142578125
-43.02978515625
-44.86083984375
-48.52294921875
-43.9453125
-49.4384765625
-49.4384765625
-38.4521484375
-51.26953125
-50.35400390625
-47.607421875
-59.50927734375
-65.00244140625
-57.67822265625
-71.4111328125
-73.2421875
-75.98876953125
-74.15771484375
-77.81982421875
-88.80615234375
-108.0322265625
-112.60986328125
-119.0185546875
-117.1875
-127.25830078125
-144.6533203125
-143.73779296875
-145.56884765625
-141.90673828125
-142.822265625
-139.16015625
-142.822265625
-145.56884765625
-151.9775390625
-165.71044921875
-164.794921875
-154.72412109375
-154.72412109375
-159.3017578125
-162.04833984375
-157.470703125
-160.21728515625
-165.71044921875
-159.3017578125
-165.71044921875
-168.45703125
-166.6259765625
-151.06201171875
-159.3017578125
-178.52783203125
-173.9501953125
-164.794921875
-123.59619140625
-97.0458984375
-49.4384765625
12.8173828125
77.81982421875
149.23095703125
246.27685546875
350.64697265625
441.2841796875
536.4990234375
631.7138671875
714.111328125
775.45166015625
814.8193359375
789.1845703125
693.05419921875
552.978515625
351.5625
128.173828125
-80.56640625
-214.2333984375
-279.23583984375
-328.67431640625
-369.873046875
-388.18359375
-358.88671875
-299.37744140625
-247.1923828125
-216.97998046875
-173.9501953125
-158.38623046875
-158.38623046875
-153.80859375
-139.16015625
-128.173828125
-126.3427734375
-112.60986328125
-115.3564453125
-118.10302734375
-112.60986328125
-113.525390625
-119.93408203125
-117.1875
-118.10302734375
-114.44091796875
-109.86328125
-110.77880859375
-106.201171875
-104.3701171875
-106.201171875
-99.79248046875
-114.44091796875
-108.94775390625
-109.86328125
-108.0322265625
-106.201171875
-105.28564453125
-101.62353515625
-96.13037109375
-102.5390625
-94.29931640625
-99.79248046875
-99.79248046875
-94.29931640625
-101.62353515625
-90.63720703125
-81.48193359375
-78.7353515625
-75.0732421875
-73.2421875
-74.15771484375
-77.81982421875
-69.580078125
-63.17138671875
-59.50927734375
-62.255859375
-69.580078125
-70.49560546875
-50.35400390625
-46.69189453125
-54.931640625
-47.607421875
-30.21240234375
-42.1142578125
-28.38134765625
-26.55029296875
-30.21240234375
-23.8037109375
-31.1279296875
-21.05712890625
-21.97265625
-12.8173828125
-5.4931640625
-1.8310546875
10.07080078125
9.1552734375
11.90185546875
19.22607421875
24.71923828125
33.87451171875
38.4521484375
59.50927734375
61.34033203125
53.1005859375
67.7490234375
76.904296875
81.48193359375
92.46826171875
100.7080078125
107.11669921875
112.60986328125
121.76513671875
128.173828125
134.58251953125
141.90673828125
157.470703125
158.38623046875
157.470703125
170.2880859375
175.78125
182.18994140625
190.4296875
189.51416015625
188.5986328125
192.2607421875
193.17626953125
202.33154296875
198.66943359375
209.65576171875
208.740234375
219.7265625
224.30419921875
212.40234375
212.40234375
223.388671875
215.14892578125
202.33154296875
195.9228515625
188.5986328125
175.78125
154.72412109375
137.3291015625
117.1875
98.876953125
87.890625
77.81982421875
59.50927734375
53.1005859375
35.70556640625
17.39501953125
-0.91552734375
-11.90185546875
-18.310546875
-39.36767578125
-42.1142578125
-38.4521484375
-50.35400390625
-54.931640625
-54.01611328125
-69.580078125
-82.3974609375
-85.14404296875
-94.29931640625
-100.7080078125
-90.63720703125
-97.96142578125
-106.201171875
-109.86328125
-96.13037109375
-103.45458984375
-120.849609375
-118.10302734375
-117.1875
-128.173828125
-128.173828125
-120.849609375
-119.0185546875
-113.525390625
-102.5390625
-112.60986328125
-115.3564453125
-110.77880859375
-111.6943359375
-117.1875
-118.10302734375
-111.6943359375
-112.60986328125
-112.60986328125
-115.3564453125
-128.173828125
-121.76513671875
-105.28564453125
-109.86328125
-118.10302734375
-107.11669921875
-105.28564453125
-109.86328125
-115.3564453125
-99.79248046875
-90.63720703125
-95.21484375
-96.13037109375
-97.96142578125
-106.201171875
-113.525390625
-100.7080078125
-104.3701171875
-108.94775390625
-99.79248046875
-105.28564453125
-109.86328125
-104.3701171875
-105.28564453125
-97.96142578125
-92.46826171875
-94.29931640625
-89.7216796875
-93.3837890625
-96.13037109375
-101.62353515625
-97.0458984375
-101.62353515625
-98.876953125
-97.96142578125
-98.876953125
-89.7216796875
-100.7080078125
-97.96142578125
-84.228515625
-102.5390625
-101.62353515625
-101.62353515625
-92.46826171875
-106.201171875
-108.94775390625
-106.201171875
-109.86328125
-108.0322265625
-103.45458984375
-95.21484375
-94.29931640625
-97.96142578125
-95.21484375
-110.77880859375
-109.86328125
-109.86328125
-108.0322265625
-100.7080078125
-95.21484375
-104.3701171875
-110.77880859375
-112.60986328125
-107.11669921875
-108.0322265625
-119.0185546875
-123.59619140625
-101.62353515625
-93.3837890625
-100.7080078125
-108.94775390625
-119.93408203125
-120.849609375
-130.92041015625
-133.6669921875
-123.59619140625
-127.25830078125
-125.42724609375
-131.8359375
-129.08935546875
-123.59619140625
-126.3427734375
-114.44091796875
-123.59619140625
-134.58251953125
-128.173828125
-126.3427734375
-121.76513671875
-119.0185546875
-128.173828125
-129.08935546875
-130.92041015625
-132.75146484375
-137.3291015625
-133.6669921875
-143.73779296875
-134.58251953125
-134.58251953125
-129.08935546875
-131.8359375
-129.08935546875
-127.25830078125
-132.75146484375
-145.56884765625
-148.3154296875
-139.16015625
-132.75146484375
-140.07568359375
-149.23095703125
-132.75146484375
-130.0048828125
-133.6669921875
-135.498046875
-132.75146484375
-142.822265625
-149.23095703125
-137.3291015625
-140.9912109375
-145.56884765625
-139.16015625
-149.23095703125
-150.146484375
-138.24462890625
-130.0048828125
-145.56884765625
-137.3291015625
-141.90673828125
-150.146484375
-144.6533203125
-140.07568359375
-137.3291015625
-133.6669921875
-128.173828125
-133.6669921875
-142.822265625
-135.498046875
-128.173828125
-112.60986328125
-107.11669921875
-97.0458984375
-93.3837890625
-90.63720703125
-85.14404296875
-89.7216796875
-94.29931640625
-101.62353515625
-97.96142578125
-89.7216796875
-71.4111328125
-49.4384765625
-45.7763671875
-42.1142578125
-47.607421875
-60.4248046875
-58.59375
-65.91796875
-51.26953125
-46.69189453125
-43.02978515625
-54.01611328125
-57.67822265625
-58.59375
-56.7626953125
-76.904296875
-73.2421875
-66.83349609375
-68.66455078125
-70.49560546875
-76.904296875
-86.97509765625
-100.7080078125
-113.525390625
-124.51171875
-128.173828125
-140.9912109375
-145.56884765625
-151.9775390625
-150.146484375
-146.484375
-146.484375
-144.6533203125
-151.9775390625
-154.72412109375
-150.146484375
-161.1328125
-153.80859375
-158.38623046875
-146.484375
-147.39990234375
-149.23095703125
-155.6396484375
-161.1328125
-151.06201171875
-154.72412109375
-165.71044921875
-162.04833984375
-159.3017578125
-164.794921875
-169.37255859375
-170.2880859375
-168.45703125
-146.484375
-111.6943359375
-87.890625
-40.283203125
35.70556640625
107.11669921875
172.119140625
264.58740234375
374.45068359375
460.51025390625
555.72509765625
660.09521484375
729.67529296875
780.029296875
818.4814453125
791.015625
702.20947265625
551.1474609375
348.81591796875
121.76513671875
-86.0595703125
-217.8955078125
-280.1513671875
-332.33642578125
-355.224609375
-364.3798828125
-346.0693359375
-291.1376953125
-233.45947265625
-192.2607421875
-173.9501953125
-162.04833984375
-159.3017578125
-146.484375
-130.92041015625
-116.27197265625
-101.62353515625
-105.28564453125
-108.94775390625
-116.27197265625
-121.76513671875
-119.93408203125
-101.62353515625
-113.525390625
-108.94775390625
-110.77880859375
-121.76513671875
-111.6943359375
-105.28564453125
-109.86328125
-119.0185546875
-101.62353515625
-103.45458984375
-116.27197265625
-113.525390625
-108.0322265625
-108.0322265625
-102.5390625
-98.876953125
-102.5390625
-102.5390625
-100.7080078125
-101.62353515625
-105.28564453125
-91.552734375
-91.552734375
-97.96142578125
-89.7216796875
-79.65087890625
-78.7353515625
-87.890625
-88.80615234375
-83.31298828125
-91.552734375
-77.81982421875
-61.34033203125
-60.4248046875
-65.00244140625
-60.4248046875
-57.67822265625
-58.59375
-55.84716796875
-48.52294921875
-40.283203125
-38.4521484375
-35.70556640625
-27.4658203125
-27.4658203125
-23.8037109375
-22.88818359375
-24.71923828125
-18.310546875
-12.8173828125
-7.32421875
-1.8310546875
3.662109375
10.986328125
15.56396484375
19.22607421875
28.38134765625
37.53662109375
46.69189453125
52.18505859375
52.18505859375
67.7490234375
67.7490234375
70.49560546875
97.96142578125
108.94775390625
107.11669921875
108.0322265625
108.94775390625
111.6943359375
115.3564453125
122.6806640625
143.73779296875
143.73779296875
150.146484375
156.55517578125
175.78125
184.9365234375
189.51416015625
191.34521484375
189.51416015625
197.75390625
201.416015625
205.078125
214.2333984375
220.64208984375
222.47314453125
216.97998046875
226.13525390625
214.2333984375
209.65576171875
210.5712890625
201.416015625
198.66943359375
195.00732421875
193.17626953125
178.52783203125
161.1328125
145.56884765625
130.0048828125
114.44091796875
99.79248046875
84.228515625
60.4248046875
53.1005859375
50.35400390625
40.283203125
10.986328125
3.662109375
-8.23974609375
-25.634765625
-34.7900390625
-27.4658203125
-39.36767578125
-47.607421875
-45.7763671875
-54.01611328125
-63.17138671875
-72.32666015625
-80.56640625
-86.97509765625
-86.97509765625
-89.7216796875
-97.0458984375
-90.63720703125
-93.3837890625
-99.79248046875
-100.7080078125
-96.13037109375
-99.79248046875
-110.77880859375
-111.6943359375
-112.60986328125
-110.77880859375
-109.86328125
-102.5390625
-103.45458984375
-107.11669921875
-111.6943359375
-109.86328125
-116.27197265625
-106.201171875
-100.7080078125
-107.11669921875
-95.21484375
-90.63720703125
-98.876953125
-103.45458984375
-100.7080078125
-105.28564453125
-108.0322265625
-97.96142578125
-87.890625
-97.96142578125
-92.46826171875
-82.3974609375
-99.79248046875
-97.96142578125
-99.79248046875
-96.13037109375
-86.97509765625
-90.63720703125
-91.552734375
-97.96142578125
-96.13037109375
-91.552734375
-87.890625
-93.3837890625
-91.552734375
-87.890625
-93.3837890625
-86.97509765625
-92.46826171875
-87.890625
-92.46826171875
-81.48193359375
-83.31298828125
-86.0595703125
-84.228515625
-86.97509765625
-83.31298828125
-87.890625
-83.31298828125
-82.3974609375
-81.48193359375
-81.48193359375
-87.890625
-82.3974609375
-73.2421875
-76.904296875
-76.904296875
-84.228515625
-85.14404296875
-86.0595703125
-88.80615234375
-89.7216796875
-91.552734375
-91.552734375
-97.0458984375
-102.5390625
-96.13037109375
-86.97509765625
-86.0595703125
-89.7216796875
-97.96142578125
-101.62353515625
-104.3701171875
-92.46826171875
-103.45458984375
-116.27197265625
-113.525390625
-106.201171875
-104.3701171875
-97.0458984375
-96.13037109375
-93.3837890625
-102.5390625
-101.62353515625
-106.201171875
-117.1875
-119.0185546875
-110.77880859375
-110.77880859375
-108.0322265625
-102.5390625
-102.5390625
-119.0185546875
-113.525390625
-121.76513671875
-119.93408203125
-131.8359375
-129.08935546875
-118.10302734375
-123.59619140625
-126.3427734375
-126.3427734375
-110.77880859375
-101.62353515625
-109.86328125
-126.3427734375
-130.92041015625
-128.173828125
-119.0185546875
-118.10302734375
-119.0185546875
-113.525390625
-114.44091796875
-112.60986328125
-109.86328125
-118.10302734375
-119.93408203125
-117.1875
-120.849609375
-122.6806640625
-114.44091796875
-109.86328125
-106.201171875
-98.876953125
-108.94775390625
-106.201171875
-114.44091796875
-116.27197265625
-110.77880859375
-113.525390625
-108.94775390625
-98.876953125
-108.94775390625
-115.3564453125
-112.60986328125
-112.60986328125
-120.849609375
-115.3564453125
-110.77880859375
-118.10302734375
-116.27197265625
-111.6943359375
-114.44091796875
-126.3427734375
-121.76513671875
-113.525390625
-106.201171875
-106.201171875
-96.13037109375
-98.876953125
-88.80615234375
-92.46826171875
-86.0595703125
-82.3974609375
-86.97509765625
-76.904296875
-68.66455078125
-68.66455078125
-62.255859375
-58.59375
-51.26953125
-53.1005859375
-66.83349609375
-54.01611328125
-36.62109375
-38.4521484375
-41.19873046875
-32.958984375
-17.39501953125
-13.73291015625
-15.56396484375
-14.6484375
-18.310546875
-16.4794921875
-10.07080078125
-24.71923828125
-41.19873046875
-40.283203125
-35.70556640625
-29.296875
-38.4521484375
-35.70556640625
-42.1142578125
-46.69189453125
-60.4248046875
-70.49560546875
-92.46826171875
-98.876953125
-94.29931640625
-108.0322265625
-101.62353515625
-113.525390625
-113.525390625
-114.44091796875
-124.51171875
-124.51171875
-120.849609375
-106.201171875
-102.5390625
-90.63720703125
-106.201171875
-133.6669921875
-108.0322265625
-109.86328125
-111.6943359375
-127.25830078125
-127.25830078125
-113.525390625
-110.77880859375
-114.44091796875
-115.3564453125
-123.59619140625
-144.6533203125
-145.56884765625
-146.484375
-142.822265625
-162.04833984375
-123.59619140625
-61.34033203125
-33.87451171875
28.38134765625
110.77880859375
162.9638671875
240.78369140625
360.7177734375
437.6220703125
519.10400390625
628.0517578125
718.68896484375
773.62060546875
831.298828125
847.7783203125
784.60693359375
648.193359375
448.6083984375
205.99365234375
5.4931640625
-151.06201171875
-238.037109375
-299.37744140625
-322.265625
-350.64697265625
-353.3935546875
-320.4345703125
-235.29052734375
-185.85205078125
-147.39990234375
-125.42724609375
-123.59619140625
-111.6943359375
-66.83349609375
-62.255859375
-76.904296875
-86.97509765625
-89.7216796875
-80.56640625
-89.7216796875
-85.14404296875
-89.7216796875
-91.552734375
-70.49560546875
-65.00244140625
-100.7080078125
-105.28564453125
-102.5390625
-126.3427734375
-125.42724609375
-103.45458984375
-48.52294921875
-34.7900390625
-37.53662109375
-7.32421875
-26.55029296875
-57.67822265625
-75.0732421875
-87.890625
-74.15771484375
-61.34033203125
-63.17138671875
-67.7490234375
-52.18505859375
-47.607421875
-46.69189453125
-43.02978515625
-58.59375
-69.580078125
-65.91796875
-56.7626953125
-57.67822265625
-66.83349609375
-50.35400390625
-31.1279296875
-17.39501953125
-9.1552734375
-17.39501953125
-11.90185546875
-5.4931640625
0
10.986328125
15.56396484375
6.40869140625
25.634765625
35.70556640625
31.1279296875
31.1279296875
43.9453125
43.02978515625
47.607421875
61.34033203125
33.87451171875
41.19873046875
55.84716796875
57.67822265625
58.59375
69.580078125
72.32666015625
79.65087890625
84.228515625
86.97509765625
97.0458984375
107.11669921875
121.76513671875
121.76513671875
131.8359375
136.41357421875
145.56884765625
140.07568359375
151.9775390625
161.1328125
177.6123046875
186.767578125
195.00732421875
192.2607421875
199.5849609375
204.16259765625
209.65576171875
221.5576171875
225.2197265625
232.5439453125
235.29052734375
247.1923828125
255.43212890625
253.60107421875
249.0234375
259.09423828125
257.26318359375
260.92529296875
262.75634765625
275.57373046875
276.4892578125
264.58740234375
263.671875
258.1787109375
255.43212890625
241.69921875
223.388671875
209.65576171875
211.48681640625
185.85205078125
170.2880859375
168.45703125
148.3154296875
131.8359375
113.525390625
91.552734375
78.7353515625
68.66455078125
60.4248046875
53.1005859375
47.607421875
28.38134765625
23.8037109375
18.310546875
10.07080078125
0
0
-16.4794921875
-27.4658203125
-21.05712890625
-22.88818359375
-33.87451171875
-37.53662109375
-42.1142578125
-42.1142578125
-40.283203125
-47.607421875
-52.18505859375
-54.01611328125
-60.4248046875
-60.4248046875
-54.931640625
-56.7626953125
-54.931640625
-59.50927734375
-54.931640625
-66.83349609375
-67.7490234375
-69.580078125
-66.83349609375
-62.255859375
-67.7490234375
-63.17138671875
-70.49560546875
-78.7353515625
-81.48193359375
-78.7353515625
-72.32666015625
-67.7490234375
-66.83349609375
-61.34033203125
-61.34033203125
-50.35400390625
-55.84716796875
-59.50927734375
-63.17138671875
-69.580078125
-67.7490234375
-59.50927734375
-55.84716796875
-54.931640625
-50.35400390625
-40.283203125
-51.26953125
-54.01611328125
-48.52294921875
-59.50927734375
-64.0869140625
-73.2421875
-61.34033203125
-53.1005859375
-45.7763671875
-51.26953125
-48.52294921875
-42.1142578125
-49.4384765625
-53.1005859375
-43.02978515625
-46.69189453125
-43.02978515625
-40.283203125
-34.7900390625
-47.607421875
-45.7763671875
-42.1142578125
-36.62109375
-45.7763671875
-44.86083984375
-41.19873046875
-36.62109375
-48.52294921875
-46.69189453125
-40.283203125
-52.18505859375
-43.9453125
-44.86083984375
-44.86083984375
-55.84716796875
-48.52294921875
-50.35400390625
-52.18505859375
-54.931640625
-48.52294921875
-39.36767578125
-42.1142578125
-58.59375
-70.49560546875
-68.66455078125
-64.0869140625
-65.91796875
-61.34033203125
-46.69189453125
-48.52294921875
-53.1005859375
-53.1005859375
-59.50927734375
-59.50927734375
-56.7626953125
-62.255859375
-65.00244140625
-54.931640625
-49.4384765625
-59.50927734375
-69.580078125
-64.0869140625
-57.67822265625
-82.3974609375
-79.65087890625
-67.7490234375
-70.49560546875
-65.00244140625
-60.4248046875
-54.931640625
-61.34033203125
-65.91796875
-66.83349609375
-74.15771484375
-82.3974609375
-73.2421875
-67.7490234375
-59.50927734375
-51.26953125
-56.7626953125
-69.580078125
-73.2421875
-67.7490234375
-63.17138671875
-64.0869140625
-69.580078125
-72.32666015625
-77.81982421875
-72.32666015625
-75.98876953125
-79.65087890625
-69.580078125
-78.7353515625
-69.580078125
-74.15771484375
-65.91796875
-69.580078125
-75.0732421875
-69.580078125
-69.580078125
-66.83349609375
-58.59375
-60.4248046875
-65.91796875
-69.580078125
-65.91796875
-60.4248046875
-75.98876953125
-75.98876953125
-65.00244140625
-75.0732421875
-72.32666015625
-75.98876953125
-81.48193359375
-75.98876953125
-67.7490234375
-64.0869140625
-50.35400390625
-48.52294921875
-55.84716796875
-69.580078125
-68.66455078125
-56.7626953125
-73.2421875
-79.65087890625
-81.48193359375
-68.66455078125
-56.7626953125
-42.1142578125
-53.1005859375
-54.01611328125
-63.17138671875
-69.580078125
-61.34033203125
-64.0869140625
-53.1005859375
-55.84716796875
-57.67822265625
-58.59375
-54.01611328125
-49.4384765625
-56.7626953125
-54.01611328125
-60.4248046875
-75.98876953125
-62.255859375
-52.18505859375
-49.4384765625
-49.4384765625
-53.1005859375
-54.931640625
-54.01611328125
-51.26953125
-55.84716796875
-51.26953125
-32.04345703125
-32.958984375
-16.4794921875
-10.07080078125
4.57763671875
2.74658203125
0.91552734375
-3.662109375
-10.07080078125
7.32421875
14.6484375
28.38134765625
37.53662109375
32.04345703125
31.1279296875
21.97265625
32.958984375
37.53662109375
28.38134765625
33.87451171875
37.53662109375
31.1279296875
18.310546875
13.73291015625
14.6484375
16.4794921875
3.662109375
10.07080078125
3.662109375
-0.91552734375
-7.32421875
-12.8173828125
-34.7900390625
-43.02978515625
-53.1005859375
-60.4248046875
-63.17138671875
-65.91796875
-73.2421875
-68.66455078125
-43.9453125
-46.69189453125
-64.0869140625
-49.4384765625
-53.1005859375
-61.34033203125
-61.34033203125
-66.83349609375
-68.66455078125
-75.98876953125
-74.15771484375
-70.49560546875
-78.7353515625
-67.7490234375
-59.50927734375
-74.15771484375
-69.580078125
-71.4111328125
-75.0732421875
-81.48193359375
-76.904296875
-77.81982421875
-74.15771484375
-63.17138671875
-29.296875
-10.07080078125
38.4521484375
105.28564453125
165.71044921875
218.81103515625
319.51904296875
429.38232421875
509.94873046875
603.33251953125
705.87158203125
787.353515625
856.01806640625
903.62548828125
886.23046875
786.43798828125
639.0380859375
427.55126953125
193.17626953125
-1.8310546875
-142.822265625
-227.96630859375
-276.4892578125
-311.279296875
-308.53271484375
-291.1376953125
-225.2197265625
-162.9638671875
-113.525390625
-78.7353515625
-53.1005859375
-51.26953125
-36.62109375
-37.53662109375
-37.53662109375
-39.36767578125
-38.4521484375
-38.4521484375
-44.86083984375
-32.04345703125
-37.53662109375
-32.958984375
-31.1279296875
-27.4658203125
-44.86083984375
-50.35400390625
-33.87451171875
-25.634765625
-33.87451171875
-23.8037109375
-29.296875
-32.958984375
-31.1279296875
-14.6484375
-12.8173828125
-22.88818359375
-14.6484375
-5.4931640625
4.57763671875
1.8310546875
2.74658203125
-5.4931640625
-0.91552734375
-4.57763671875
-12.8173828125
-7.32421875
16.4794921875
10.986328125
10.986328125
13.73291015625
11.90185546875
14.6484375
24.71923828125
12.8173828125
3.662109375
29.296875
28.38134765625
28.38134765625
30.21240234375
34.7900390625
35.70556640625
36.62109375
39.36767578125
52.18505859375
44.86083984375
53.1005859375
53.1005859375
63.17138671875
78.7353515625
92.46826171875
84.228515625
83.31298828125
87.890625
88.80615234375
84.228515625
100.7080078125
100.7080078125
111.6943359375
118.10302734375
122.6806640625
133.6669921875
130.92041015625
135.498046875
151.9775390625
149.23095703125
161.1328125
169.37255859375
172.119140625
176.69677734375
195.9228515625
196.83837890625
207.82470703125
219.7265625
209.65576171875
215.14892578125
239.8681640625
231.62841796875
238.037109375
249.0234375
260.009765625
254.5166015625
263.671875
264.58740234375
268.24951171875
277.40478515625
290.22216796875
304.87060546875
295.71533203125
298.4619140625
313.1103515625
311.279296875
310.36376953125
313.1103515625
307.6171875
298.4619140625
296.630859375
289.306640625
285.64453125
274.658203125
267.333984375
261.8408203125
245.361328125
218.81103515625
206.9091796875
184.02099609375
174.86572265625
162.9638671875
144.6533203125
126.3427734375
119.0185546875
104.3701171875
94.29931640625
73.2421875
53.1005859375
47.607421875
41.19873046875
43.02978515625
33.87451171875
29.296875
30.21240234375
27.4658203125
11.90185546875
24.71923828125
9.1552734375
-3.662109375
-17.39501953125
-17.39501953125
-24.71923828125
-32.958984375
-21.05712890625
-13.73291015625
-21.97265625
-32.958984375
-39.36767578125
-43.02978515625
-40.283203125
-44.86083984375
-31.1279296875
-17.39501953125
-24.71923828125
-29.296875
-33.87451171875
-34.7900390625
-32.958984375
-40.283203125
-36.62109375
-32.04345703125
-28.38134765625
-34.7900390625
-27.4658203125
-29.296875
-27.4658203125
-32.04345703125
-23.8037109375
-30.21240234375
-29.296875
-29.296875
-26.55029296875
-21.05712890625
-20.1416015625
-29.296875
-34.7900390625
-19.22607421875
-14.6484375
-30.21240234375
-33.87451171875
-23.8037109375
-11.90185546875
-16.4794921875
-14.6484375
-15.56396484375
-17.39501953125
-19.22607421875
-17.39501953125
-27.4658203125
-30.21240234375
-31.1279296875
-28.38134765625
-20.1416015625
-8.23974609375
-21.97265625
-25.634765625
-15.56396484375
-12.8173828125
-13.73291015625
-13.73291015625
-10.07080078125
-12.8173828125
-11.90185546875
-9.1552734375
-11.90185546875
-14.6484375
-20.1416015625
-22.88818359375
-27.4658203125
-24.71923828125
-21.97265625
-16.4794921875
-13.73291015625
-15.56396484375
-24.71923828125
-22.88818359375
-21.05712890625
-27.4658203125
-32.958984375
-34.7900390625
-27.4658203125
-25.634765625
-35.70556640625
-32.04345703125
-28.38134765625
-33.87451171875
-36.62109375
-24.71923828125
-21.05712890625
-38.4521484375
-50.35400390625
-45.7763671875
-43.9453125
-42.1142578125
-32.958984375
-46.69189453125
-46.69189453125
-50.35400390625
-54.931640625
-43.9453125
-47.607421875
-52.18505859375
-43.02978515625
-47.607421875
-46.69189453125
-53.1005859375
-45.7763671875
-51.26953125
-54.931640625
-53.1005859375
-53.1005859375
-53.1005859375
-41.19873046875
-44.86083984375
-55.84716796875
-61.34033203125
-53.1005859375
-53.1005859375
-65.00244140625
-59.50927734375
-60.4248046875
-60.4248046875
-55.84716796875
-46.69189453125
-47.607421875
-59.50927734375
-46.69189453125
-52.18505859375
-61.34033203125
-57.67822265625
-57.67822265625
-58.59375
-60.4248046875
-68.66455078125
-71.4111328125
-71.4111328125
-64.0869140625
-63.17138671875
-74.15771484375
-67.7490234375
-64.0869140625
-62.255859375
-55.84716796875
-64.0869140625
-65.00244140625
-69.580078125
-72.32666015625
-71.4111328125
-85.14404296875
-84.228515625
-70.49560546875
-67.7490234375
-58.59375
-44.86083984375
-53.1005859375
-61.34033203125
-74.15771484375
-74.15771484375
-80.56640625
-80.56640625
-68.66455078125
-72.32666015625
-74.15771484375
-62.255859375
-62.255859375
-76.904296875
-75.98876953125
-83.31298828125
-77.81982421875
-75.98876953125
-75.0732421875
-76.904296875
-74.15771484375
-75.0732421875
-71.4111328125
-71.4111328125
-56.7626953125
-66.83349609375
-66.83349609375
-75.0732421875
-80.56640625
-85.14404296875
-76.904296875
-70.49560546875
-69.580078125
-74.15771484375
-71.4111328125
-75.98876953125
-87.890625
-79.65087890625
-71.4111328125
-66.83349609375
-69.580078125
-65.00244140625
-69.580078125
-71.4111328125
-68.66455078125
-71.4111328125
-75.0732421875
-69.580078125
-72.32666015625
-65.00244140625
-37.53662109375
-39.36767578125
-38.4521484375
-26.55029296875
-28.38134765625
-25.634765625
-28.38134765625
-35.70556640625
-28.38134765625
-11.90185546875
-0.91552734375
0
20.1416015625
18.310546875
22.88818359375
1.8310546875
-4.57763671875
2.74658203125
6.40869140625
7.32421875
10.986328125
12.8173828125
9.1552734375
0
-17.39501953125
-18.310546875
-14.6484375
-23.8037109375
-25.634765625
-19.22607421875
-31.1279296875
-40.283203125
-62.255859375
-68.66455078125
-61.34033203125
-80.56640625
-89.7216796875
-92.46826171875
-91.552734375
-96.13037109375
-86.0595703125
-78.7353515625
-83.31298828125
-94.29931640625
-95.21484375
-95.21484375
-98.876953125
-100.7080078125
-89.7216796875
-91.552734375
-81.48193359375
-82.3974609375
-87.890625
-91.552734375
-96.13037109375
-107.11669921875
-106.201171875
-98.876953125
-94.29931640625
-97.0458984375
-106.201171875
-112.60986328125
-106.201171875
-82.3974609375
-57.67822265625
-30.21240234375
28.38134765625
108.0322265625
164.794921875
232.5439453125
345.15380859375
436.70654296875
517.27294921875
620.7275390625
725.09765625
798.33984375
865.17333984375
886.23046875
831.298828125
711.36474609375
546.56982421875
320.4345703125
95.21484375
-76.904296875
-192.2607421875
-246.27685546875
-302.1240234375
-326.84326171875
-311.279296875
-272.8271484375
-220.64208984375
-173.03466796875
-130.92041015625
-100.7080078125
-91.552734375
-86.97509765625
-75.0732421875
-73.2421875
-59.50927734375
-45.7763671875
-62.255859375
-65.91796875
-71.4111328125
-80.56640625
-65.00244140625
-69.580078125
-70.49560546875
-67.7490234375
-60.4248046875
-62.255859375
-59.50927734375
-52.18505859375
-57.67822265625
-56.7626953125
-66.83349609375
-57.67822265625
-62.255859375
-48.52294921875
-47.607421875
-48.52294921875
-47.607421875
-48.52294921875
-48.52294921875
-46.69189453125
-47.607421875
-51.26953125
-54.01611328125
-41.19873046875
-28.38134765625
-31.1279296875
-26.55029296875
-27.4658203125
-33.87451171875
-31.1279296875
-22.88818359375
-12.8173828125
-16.4794921875
-8.23974609375
-4.57763671875
-15.56396484375
-23.8037109375
-9.1552734375
0
1.8310546875
10.986328125
-0.91552734375
-11.90185546875
1.8310546875
11.90185546875
21.05712890625
23.8037109375
34.7900390625
31.1279296875
35.70556640625
29.296875
43.02978515625
38.4521484375
56.7626953125
62.255859375
62.255859375
76.904296875
73.2421875
83.31298828125
83.31298828125
79.65087890625
86.97509765625
92.46826171875
97.0458984375
108.0322265625
125.42724609375
132.75146484375
130.0048828125
141.90673828125
141.90673828125
151.9775390625
148.3154296875
161.1328125
175.78125
187.68310546875
195.9228515625
200.50048828125
208.740234375
218.81103515625
222.47314453125
221.5576171875
218.81103515625
219.7265625
249.93896484375
240.78369140625
250.8544921875
265.5029296875
268.24951171875
275.57373046875
264.58740234375
262.75634765625
268.24951171875
260.92529296875
259.09423828125
259.09423828125
256.34765625
252.685546875
242.61474609375
232.5439453125
216.064453125
199.5849609375
187.68310546875
174.86572265625
166.6259765625
161.1328125
141.90673828125
123.59619140625
109.86328125
91.552734375
76.904296875
52.18505859375
55.84716796875
36.62109375
19.22607421875
15.56396484375
9.1552734375
-2.74658203125
-6.40869140625
-19.22607421875
-23.8037109375
-31.1279296875
-36.62109375
-41.19873046875
-47.607421875
-39.36767578125
-45.7763671875
-64.0869140625
-60.4248046875
-69.580078125
-68.66455078125
-61.34033203125
-61.34033203125
-75.0732421875
-68.66455078125
-61.34033203125
-60.4248046875
-55.84716796875
-58.59375
-79.65087890625
-76.904296875
-68.66455078125
-71.4111328125
-76.904296875
-75.0732421875
-75.0732421875
-69.580078125
-67.7490234375
-60.4248046875
-61.34033203125
-75.0732421875
-70.49560546875
-73.2421875
-70.49560546875
-65.91796875
-58.59375
-60.4248046875
-61.34033203125
-50.35400390625
-52.18505859375
-58.59375
-49.4384765625
-64.0869140625
-66.83349609375
-64.0869140625
-52.18505859375
-58.59375
-44.86083984375
-44.86083984375
-51.26953125
-58.59375
-60.4248046875
-54.931640625
-59.50927734375
-54.931640625
-45.7763671875
-49.4384765625
-50.35400390625
-55.84716796875
-59.50927734375
-55.84716796875
-52.18505859375
-52.18505859375
-52.18505859375
-45.7763671875
-39.36767578125
-40.283203125
-42.1142578125
-40.283203125
-45.7763671875
-53.1005859375
-51.26953125
-46.69189453125
-43.02978515625
-41.19873046875
-37.53662109375
-36.62109375
-33.87451171875
-32.958984375
-50.35400390625
-44.86083984375
-57.67822265625
-54.01611328125
-53.1005859375
-41.19873046875
-39.36767578125
-54.931640625
-54.931640625
-46.69189453125
-43.02978515625
-54.931640625
-54.01611328125
-47.607421875
-67.7490234375
-44.86083984375
-49.4384765625
-62.255859375
-61.34033203125
-58.59375
-67.7490234375
-65.91796875
-48.52294921875
-54.931640625
-66.83349609375
-58.59375
-55.84716796875
-58.59375
-65.00244140625
-51.26953125
-55.84716796875
-55.84716796875
-64.0869140625
-69.580078125
-67.7490234375
-67.7490234375
-66.83349609375
-65.91796875
-73.2421875
-70.49560546875
-65.91796875
-74.15771484375
-71.4111328125
-80.56640625
-87.890625
-78.7353515625
-68.66455078125
-74.15771484375
-68.66455078125
-65.00244140625
-56.7626953125
-77.81982421875
-75.0732421875
-85.14404296875
-80.56640625
-89.7216796875
-74.15771484375
-71.4111328125
-83.31298828125
-67.7490234375
-73.2421875
-85.14404296875
-89.7216796875
-87.890625
-89.7216796875
-91.552734375
-79.65087890625
-81.48193359375
-77.81982421875
-76.904296875
-83.31298828125
-82.3974609375
-75.0732421875
-80.56640625
-91.552734375
-98.876953125
-93.3837890625
-91.552734375
-78.7353515625
-81.48193359375
-78.7353515625
-79.65087890625
-74.15771484375
-93.3837890625
-90.63720703125
-77.81982421875
-65.00244140625
-71.4111328125
-78.7353515625
-79.65087890625
-87.890625
-86.0595703125
-75.98876953125
-88.80615234375
-86.97509765625
-105.28564453125
-78.7353515625
-79.65087890625
-73.2421875
-81.48193359375
-72.32666015625
-58.59375
-56.7626953125
-54.931640625
-55.84716796875
-44.86083984375
-39.36767578125
-36.62109375
-35.70556640625
-37.53662109375
-42.1142578125
-31.1279296875
-19.22607421875
-21.97265625
-19.22607421875
-16.4794921875
-14.6484375
-17.39501953125
-21.97265625
-11.90185546875
-0.91552734375
-7.32421875
-17.39501953125
-23.8037109375
-24.71923828125
-38.4521484375
-49.4384765625
-41.19873046875
-24.71923828125
-21.05712890625
-31.1279296875
-39.36767578125
-44.86083984375
-55.84716796875
-69.580078125
-83.31298828125
-77.81982421875
-83.31298828125
-96.13037109375
-100.7080078125
-110.77880859375
-110.77880859375
-96.13037109375
-115.3564453125
-119.0185546875
-106.201171875
-110.77880859375
-116.27197265625
-109.86328125
-112.60986328125
-125.42724609375
-115.3564453125
-115.3564453125
-122.6806640625
-124.51171875
-121.76513671875
-118.10302734375
-118.10302734375
-121.76513671875
-115.3564453125
-120.849609375
-126.3427734375
-127.25830078125
-137.3291015625
-141.90673828125
-111.6943359375
-77.81982421875
-49.4384765625
15.56396484375
93.3837890625
151.06201171875
222.47314453125
334.16748046875
433.9599609375
512.6953125
615.234375
708.6181640625
783.69140625
816.650390625
835.87646484375
791.93115234375
673.828125
517.27294921875
299.37744140625
82.3974609375
-81.48193359375
-198.66943359375
-245.361328125
-294.7998046875
-326.84326171875
-338.7451171875
-292.05322265625
-233.45947265625
-202.33154296875
-158.38623046875
-130.92041015625
-119.0185546875
-108.0322265625
-91.552734375
-77.81982421875
-83.31298828125
-79.65087890625
-83.31298828125
-86.0595703125
-98.876953125
-94.29931640625
-94.29931640625
-82.3974609375
-70.49560546875
-66.83349609375
-73.2421875
-73.2421875
-72.32666015625
-75.0732421875
-80.56640625
-77.81982421875
-76.904296875
-68.66455078125
-54.931640625
-50.35400390625
-59.50927734375
-75.0732421875
-72.32666015625
-73.2421875
-75.0732421875
-72.32666015625
-67.7490234375
-61.34033203125
-55.84716796875
-48.52294921875
-57.67822265625
-62.255859375
-57.67822265625
-46.69189453125
-35.70556640625
-40.283203125
-45.7763671875
-43.02978515625
-32.958984375
-32.04345703125
-32.04345703125
-30.21240234375
-22.88818359375
-22.88818359375
-25.634765625
-17.39501953125
0.91552734375
6.40869140625
15.56396484375
19.22607421875
11.90185546875
18.310546875
18.310546875
11.90185546875
27.4658203125
33.87451171875
38.4521484375
29.296875
45.7763671875
51.26953125
50.35400390625
54.931640625
67.7490234375
82.3974609375
75.98876953125
82.3974609375
96.13037109375
94.29931640625
105.28564453125
116.27197265625
118.10302734375
117.1875
132.75146484375
140.07568359375
142.822265625
149.23095703125
161.1328125
162.9638671875
163.87939453125
183.10546875
181.2744140625
177.6123046875
199.5849609375
209.65576171875
215.14892578125
225.2197265625
239.8681640625
238.95263671875
248.10791015625
269.1650390625
264.58740234375
270.99609375
270.99609375
265.5029296875
269.1650390625
271.91162109375
277.40478515625
272.8271484375
263.671875
264.58740234375
264.58740234375
262.75634765625
254.5166015625
236.2060546875
220.64208984375
210.5712890625
207.82470703125
194.091796875
175.78125
155.6396484375
143.73779296875
123.59619140625
113.525390625
98.876953125
79.65087890625
71.4111328125
62.255859375
44.86083984375
39.36767578125
29.296875
21.97265625
10.07080078125
-2.74658203125
-10.986328125
-21.97265625
-17.39501953125
-22.88818359375
-26.55029296875
-26.55029296875
-33.87451171875
-35.70556640625
-46.69189453125
-50.35400390625
-55.84716796875
-52.18505859375
-53.1005859375
-52.18505859375
-49.4384765625
-47.607421875
-59.50927734375
-59.50927734375
-65.00244140625
-69.580078125
-65.00244140625
-67.7490234375
-65.00244140625
-55.84716796875
-60.4248046875
-68.66455078125
-49.4384765625
-57.67822265625
-63.17138671875
-55.84716796875
-55.84716796875
-60.4248046875
-48.52294921875
-58.59375
-67.7490234375
-63.17138671875
-62.255859375
-55.84716796875
-41.19873046875
-44.86083984375
-47.607421875
-48.52294921875
-54.01611328125
-51.26953125
-41.19873046875
-35.70556640625
-34.7900390625
-50.35400390625
-54.01611328125
-49.4384765625
-54.931640625
-49.4384765625
-35.70556640625
-35.70556640625
-42.1142578125
-49.4384765625
-38.4521484375
-47.607421875
-52.18505859375
-51.26953125
-50.35400390625
-54.931640625
-43.9453125
-40.283203125
-49.4384765625
-47.607421875
-43.02978515625
-39.36767578125
-43.02978515625
-40.283203125
-50.35400390625
-54.931640625
-46.69189453125
-47.607421875
-47.607421875
-46.69189453125
-46.69189453125
-53.1005859375
-54.01611328125
-57.67822265625
-67.7490234375
-54.931640625
-47.607421875
-36.62109375
-50.35400390625
-49.4384765625
-47.607421875
-62.255859375
-58.59375
-59.50927734375
-65.91796875
-70.49560546875
-75.98876953125
-61.34033203125
-67.7490234375
-59.50927734375
-53.1005859375
-59.50927734375
-65.00244140625
-63.17138671875
-75.0732421875
-69.580078125
-67.7490234375
-71.4111328125
-66.83349609375
-74.15771484375
-79.65087890625
-80.56640625
-72.32666015625
-76.904296875
-80.56640625
-81.48193359375
-73.2421875
-72.32666015625
-73.2421875
-73.2421875
-81.48193359375
-83.31298828125
-87.890625
-86.0595703125
-86.0595703125
-74.15771484375
-71.4111328125
-73.2421875
-72.32666015625
-79.65087890625
-85.14404296875
-86.97509765625
-84.228515625
-78.7353515625
-84.228515625
-90.63720703125
-89.7216796875
-75.0732421875
-84.228515625
-73.2421875
-75.0732421875
-81.48193359375
-79.65087890625
-78.7353515625
-93.3837890625
-94.29931640625
-92.46826171875
-81.48193359375
-77.81982421875
-67.7490234375
-64.0869140625
-72.32666015625
-88.80615234375
-91.552734375
-89.7216796875
-80.56640625
-75.98876953125
-79.65087890625
-75.0732421875
-81.48193359375
-77.81982421875
-81.48193359375
-83.31298828125
-82.3974609375
-96.13037109375
-101.62353515625
-89.7216796875
-86.0595703125
-84.228515625
-86.97509765625
-86.0595703125
-83.31298828125
-79.65087890625
-75.0732421875
-89.7216796875
-86.97509765625
-69.580078125
-61.34033203125
-55.84716796875
-44.86083984375
-32.04345703125
-35.70556640625
-34.7900390625
-34.7900390625
-32.958984375
-42.1142578125
-36.62109375
-20.1416015625
-16.4794921875
-9.1552734375
3.662109375
10.986328125
13.73291015625
1.8310546875
0.91552734375
0
1.8310546875
9.1552734375
3.662109375
5.4931640625
0
-16.4794921875
-16.4794921875
-10.986328125
-21.05712890625
-21.05712890625
-18.310546875
-27.4658203125
-31.1279296875
-36.62109375
-54.931640625
-61.34033203125
-63.17138671875
-76.904296875
-82.3974609375
-94.29931640625
-88.80615234375
-89.7216796875
-93.3837890625
-87.890625
-86.0595703125
-92.46826171875
-105.28564453125
-106.201171875
-108.94775390625
-101.62353515625
-104.3701171875
-108.94775390625
-104.3701171875
-104.3701171875
-94.29931640625
-89.7216796875
-97.0458984375
-97.0458984375
-100.7080078125
-100.7080078125
-98.876953125
-102.5390625
-97.96142578125
-101.62353515625
-109.86328125
-69.580078125
-47.607421875
-7.32421875
54.931640625
135.498046875
196.83837890625
284.72900390625
389.09912109375
480.65185546875
557.55615234375
660.09521484375
753.47900390625
812.07275390625
859.68017578125
856.93359375
782.77587890625
647.27783203125
449.52392578125
237.12158203125
22.88818359375
-136.41357421875
-220.64208984375
-255.43212890625
-294.7998046875
-315.85693359375
-303.03955078125
-253.60107421875
-194.091796875
-148.3154296875
-116.27197265625
-97.96142578125
-82.3974609375
-65.00244140625
-80.56640625
-68.66455078125
-60.4248046875
-52.18505859375
-60.4248046875
-57.67822265625
-54.01611328125
-59.50927734375
-54.931640625
-54.931640625
-66.83349609375
-69.580078125
-54.931640625
-54.931640625
-50.35400390625
-43.02978515625
-49.4384765625
-53.1005859375
-57.67822265625
-45.7763671875
-54.931640625
-56.7626953125
-48.52294921875
-37.53662109375
-36.62109375
-35.70556640625
-37.53662109375
-33.87451171875
-36.62109375
-36.62109375
-34.7900390625
-46.69189453125
-45.7763671875
-35.70556640625
-26.55029296875
-12.8173828125
-25.634765625
-22.88818359375
-8.23974609375
-11.90185546875
-9.1552734375
-10.07080078125
-15.56396484375
-3.662109375
-2.74658203125
5.4931640625
10.07080078125
4.57763671875
2.74658203125
13.73291015625
13.73291015625
15.56396484375
30.21240234375
34.7900390625
36.62109375
43.9453125
42.1142578125
49.4384765625
64.0869140625
69.580078125
52.18505859375
57.67822265625
74.15771484375
81.48193359375
77.81982421875
90.63720703125
99.79248046875
108.94775390625
104.3701171875
105.28564453125
109.86328125
129.08935546875
130.0048828125
130.0048828125
151.06201171875
157.470703125
156.55517578125
165.71044921875
178.52783203125
177.6123046875
175.78125
174.86572265625
185.85205078125
196.83837890625
203.2470703125
211.48681640625
213.31787109375
227.96630859375
227.05078125
233.45947265625
235.29052734375
241.69921875
247.1923828125
250.8544921875
257.26318359375
272.8271484375
266.41845703125
260.009765625
268.24951171875
276.4892578125
258.1787109375
251.77001953125
239.8681640625
241.69921875
245.361328125
236.2060546875
220.64208984375
210.5712890625
200.50048828125
185.85205078125
166.6259765625
148.3154296875
140.9912109375
127.25830078125
110.77880859375
102.5390625
87.890625
65.00244140625
53.1005859375
38.4521484375
36.62109375
25.634765625
8.23974609375
-3.662109375
4.57763671875
1.8310546875
-8.23974609375
-19.22607421875
-34.7900390625
-38.4521484375
-47.607421875
-36.62109375
-40.283203125
-43.02978515625
-44.86083984375
-43.02978515625
-48.52294921875
-52.18505859375
-43.9453125
-46.69189453125
-65.00244140625
-65.91796875
-65.00244140625
-54.01611328125
-52.18505859375
-49.4384765625
-49.4384765625
-57.67822265625
-54.931640625
-43.9453125
-60.4248046875
-71.4111328125
-61.34033203125
-70.49560546875
-65.91796875
-43.9453125
-49.4384765625
-60.4248046875
-60.4248046875
-56.7626953125
-55.84716796875
-65.00244140625
-54.01611328125
-46.69189453125
-54.01611328125
-46.69189453125
-45.7763671875
-43.02978515625
-46.69189453125
-48.52294921875
-43.9453125
-54.01611328125
-56.7626953125
-34.7900390625
-33.87451171875
-38.4521484375
-37.53662109375
-32.04345703125
-25.634765625
-32.958984375
-39.36767578125
-36.62109375
-40.283203125
-32.958984375
-30.21240234375
-26.55029296875
-32.958984375
-37.53662109375
-26.55029296875
-29.296875
-34.7900390625
-32.04345703125
-34.7900390625
-35.70556640625
-39.36767578125
-32.958984375
-32.04345703125
-36.62109375
-37.53662109375
-40.283203125
-49.4384765625
-31.1279296875
-36.62109375
-40.283203125
-36.62109375
-28.38134765625
-38.4521484375
-37.53662109375
-40.283203125
-39.36767578125
-45.7763671875
-55.84716796875
-55.84716796875
-49.4384765625
-35.70556640625
-28.38134765625
-33.87451171875
-39.36767578125
-42.1142578125
-49.4384765625
-55.84716796875
-44.86083984375
-47.607421875
-43.02978515625
-41.19873046875
-35.70556640625
-40.283203125
-39.36767578125
-40.283203125
-32.958984375
-47.607421875
-61.34033203125
-52.18505859375
-43.02978515625
-51.26953125
-44.86083984375
-43.02978515625
-54.931640625
-46.69189453125
-47.607421875
-54.931640625
-60.4248046875
-59.50927734375
-63.17138671875
-57.67822265625
-53.1005859375
-55.84716796875
-50.35400390625
-53.1005859375
-54.01611328125
-61.34033203125
-58.59375
-53.1005859375
-52.18505859375
-54.01611328125
-41.19873046875
-48.52294921875
-49.4384765625
-45.7763671875
-55.84716796875
-66.83349609375
-62.255859375
-54.01611328125
-54.931640625
-56.7626953125
-56.7626953125
-58.59375
-48.52294921875
-59.50927734375
-72.32666015625
-68.66455078125
-49.4384765625
-48.52294921875
-46.69189453125
-53.1005859375
-42.1142578125
-55.84716796875
-63.17138671875
-63.17138671875
-62.255859375
-65.91796875
-63.17138671875
-55.84716796875
-50.35400390625
-51.26953125
-43.9453125
-47.607421875
-51.26953125
-54.01611328125
-48.52294921875
-61.34033203125
-59.50927734375
-50.35400390625
-55.84716796875
-54.931640625
-60.4248046875
-60.4248046875
-70.49560546875
-57.67822265625
-48.52294921875
-64.0869140625
-63.17138671875
-52.18505859375
-50.35400390625
-42.1142578125
-36.62109375
-44.86083984375
-45.7763671875
-36.62109375
-24.71923828125
-17.39501953125
-16.4794921875
-22.88818359375
-17.39501953125
0.91552734375
0
-5.4931640625
-12.8173828125
-25.634765625
-14.6484375
3.662109375
24.71923828125
29.296875
32.958984375
33.87451171875
30.21240234375
25.634765625
39.36767578125
50.35400390625
42.1142578125
30.21240234375
24.71923828125
14.6484375
10.986328125
15.56396484375
8.23974609375
7.32421875
19.22607421875
8.23974609375
6.40869140625
4.57763671875
-11.90185546875
-26.55029296875
-40.283203125
-47.607421875
-51.26953125
-56.7626953125
-48.52294921875
-44.86083984375
-60.4248046875
-65.00244140625
-77.81982421875
-71.4111328125
-70.49560546875
-72.32666015625
-65.91796875
-60.4248046875
-64.0869140625
-58.59375
-59.50927734375
-72.32666015625
-68.66455078125
-64.0869140625
-68.66455078125
-78.7353515625
-65.91796875
-75.98876953125
-71.4111328125
-75.98876953125
-69.580078125
-79.65087890625
-81.48193359375
-77.81982421875
-54.931640625
-17.39501953125
21.05712890625
65.91796875
136.41357421875
189.51416015625
248.10791015625
341.49169921875
442.19970703125
519.10400390625
617.0654296875
719.6044921875
812.98828125
873.4130859375
908.203125
882.568359375
771.78955078125
608.82568359375
388.18359375
156.55517578125
-43.9453125
-170.2880859375
-242.61474609375
-283.8134765625
-302.1240234375
-292.05322265625
-263.671875
-218.81103515625
-153.80859375
-105.28564453125
-78.7353515625
-68.66455078125
-46.69189453125
-36.62109375
-34.7900390625
-39.36767578125
-40.283203125
-35.70556640625
-23.8037109375
-33.87451171875
-26.55029296875
-32.04345703125
-37.53662109375
-32.958984375
-40.283203125
-32.958984375
-32.04345703125
-32.958984375
-23.8037109375
-25.634765625
-27.4658203125
-25.634765625
-25.634765625
-18.310546875
-12.8173828125
-14.6484375
-21.05712890625
-32.958984375
-33.87451171875
-11.90185546875
-10.07080078125
-10.986328125
-11.90185546875
-10.986328125
-7.32421875
-9.1552734375
-10.07080078125
-5.4931640625
-3.662109375
-4.57763671875
7.32421875
12.8173828125
9.1552734375
10.986328125
15.56396484375
23.8037109375
28.38134765625
21.05712890625
28.38134765625
28.38134765625
36.62109375
34.7900390625
52.18505859375
46.69189453125
35.70556640625
47.607421875
50.35400390625
59.50927734375
66.83349609375
67.7490234375
72.32666015625
69.580078125
85.14404296875
95.21484375
87.890625
98.876953125
97.96142578125
101.62353515625
107.11669921875
116.27197265625
121.76513671875
122.6806640625
134.58251953125
145.56884765625
140.07568359375
141.90673828125
148.3154296875
154.72412109375
162.04833984375
176.69677734375
182.18994140625
187.68310546875
207.82470703125
220.64208984375
216.97998046875
225.2197265625
226.13525390625
238.95263671875
249.0234375
236.2060546875
246.27685546875
255.43212890625
263.671875
271.91162109375
277.40478515625
278.3203125
283.8134765625
283.8134765625
291.1376953125
284.72900390625
292.96875
291.1376953125
300.29296875
297.54638671875
294.7998046875
291.1376953125
280.1513671875
272.8271484375
263.671875
254.5166015625
249.0234375
231.62841796875
216.97998046875
208.740234375
191.34521484375
178.52783203125
168.45703125
138.24462890625
124.51171875
112.60986328125
101.62353515625
77.81982421875
71.4111328125
50.35400390625
52.18505859375
43.9453125
32.04345703125
2.74658203125
3.662109375
11.90185546875
1.8310546875
-1.8310546875
0
-12.8173828125
-12.8173828125
-13.73291015625
-28.38134765625
-35.70556640625
-32.958984375
-21.05712890625
-30.21240234375
-39.36767578125
-39.36767578125
-40.283203125
-43.9453125
-34.7900390625
-38.4521484375
-49.4384765625
-49.4384765625
-44.86083984375
-57.67822265625
-54.01611328125
-53.1005859375
-54.01611328125
-54.01611328125
-59.50927734375
-52.18505859375
-61.34033203125
-57.67822265625
-48.52294921875
-55.84716796875
-53.1005859375
-50.35400390625
-52.18505859375
-62.255859375
-43.9453125
-54.931640625
-58.59375
-61.34033203125
-65.00244140625
-49.4384765625
-39.36767578125
-29.296875
-34.7900390625
-46.69189453125
-48.52294921875
-44.86083984375
-53.1005859375
-44.86083984375
-36.62109375
-37.53662109375
-38.4521484375
-38.4521484375
-42.1142578125
-43.9453125
-44.86083984375
-44.86083984375
-52.18505859375
-53.1005859375
-53.1005859375
-49.4384765625
-52.18505859375
-47.607421875
-38.4521484375
-39.36767578125
-32.958984375
-42.1142578125
-47.607421875
-40.283203125
-42.1142578125
-52.18505859375
-59.50927734375
-46.69189453125
-45.7763671875
-41.19873046875
-53.1005859375
-53.1005859375
-55.84716796875
-57.67822265625
-50.35400390625
-49.4384765625
-55.84716796875
-58.59375
-54.931640625
-61.34033203125
-70.49560546875
-68.66455078125
-65.91796875
-65.91796875
-62.255859375
-74.15771484375
-68.66455078125
-43.02978515625
-57.67822265625
-62.255859375
-59.50927734375
-49.4384765625
-63.17138671875
-73.2421875
-71.4111328125
-72.32666015625
-75.0732421875
-73.2421875
-82.3974609375
-75.0732421875
-75.98876953125
-74.15771484375
-75.0732421875
-79.65087890625
-65.00244140625
-64.0869140625
-73.2421875
-69.580078125
-77.81982421875
-79.65087890625
-70.49560546875
-81.48193359375
-86.0595703125
-92.46826171875
-76.904296875
-74.15771484375
-73.2421875
-74.15771484375
-73.2421875
-71.4111328125
-75.0732421875
-81.48193359375
-85.14404296875
-80.56640625
-79.65087890625
-73.2421875
-80.56640625
-83.31298828125
-75.98876953125
-81.48193359375
-85.14404296875
-91.552734375
-91.552734375
-83.31298828125
-81.48193359375
-85.14404296875
-75.0732421875
-72.32666015625
-80.56640625
-93.3837890625
-85.14404296875
-88.80615234375
-101.62353515625
-91.552734375
-83.31298828125
-75.0732421875
-79.65087890625
-69.580078125
-73.2421875
-81.48193359375
-74.15771484375
-74.15771484375
-84.228515625
-88.80615234375
-86.0595703125
-82.3974609375
-85.14404296875
-75.98876953125
-93.3837890625
-104.3701171875
-96.13037109375
-100.7080078125
-107.11669921875
-88.80615234375
-68.66455078125
-78.7353515625
-86.97509765625
-97.0458984375
-101.62353515625
-86.0595703125
-88.80615234375
-90.63720703125
-93.3837890625
-94.29931640625
-89.7216796875
-73.2421875
-80.56640625
-92.46826171875
-86.97509765625
-83.31298828125
-84.228515625
-79.65087890625
-75.98876953125
-58.59375
-43.9453125
-39.36767578125
-36.62109375
-42.1142578125
-50.35400390625
-51.26953125
-40.283203125
-37.53662109375
-32.958984375
-19.22607421875
-7.32421875
-5.4931640625
-12.8173828125
1.8310546875
0
-14.6484375
-10.986328125
-16.4794921875
-24.71923828125
-28.38134765625
-27.4658203125
-37.53662109375
-31.1279296875
-21.97265625
-17.39501953125
-29.296875
-33.87451171875
-39.36767578125
-61.34033203125
-68.66455078125
-74.15771484375
-91.552734375
-91.552734375
-78.7353515625
-88.80615234375
-105.28564453125
-105.28564453125
-114.44091796875
-126.3427734375
-109.86328125
-108.0322265625
-110.77880859375
-98.876953125
-100.7080078125
-107.11669921875
-111.6943359375
-110.77880859375
-106.201171875
-113.525390625
-108.0322265625
-104.3701171875
-98.876953125
-109.86328125
-112.60986328125
-112.60986328125
-118.10302734375
-117.1875
-129.08935546875
-133.6669921875
-134.58251953125
-113.525390625
-76.904296875
-51.26953125
6.40869140625
63.17138671875
129.08935546875
200.50048828125
296.630859375
383.60595703125
466.00341796875
574.03564453125
680.23681640625
769.04296875
837.70751953125
857.84912109375
846.86279296875
756.2255859375
612.48779296875
390.93017578125
178.52783203125
-8.23974609375
-154.72412109375
-240.78369140625
-275.57373046875
-306.70166015625
-325.927734375
-295.71533203125
-254.5166015625
-214.2333984375
-162.9638671875
-130.0048828125
-120.849609375
-117.1875
-90.63720703125
-80.56640625
-90.63720703125
-93.3837890625
-94.29931640625
-99.79248046875
-88.80615234375
-86.0595703125
-85.14404296875
-92.46826171875
-75.0732421875
-81.48193359375
-86.97509765625
-89.7216796875
-86.0595703125
-91.552734375
-89.7216796875
-77.81982421875
-74.15771484375
-76.904296875
-84.228515625
-86.97509765625
-77.81982421875
-69.580078125
-67.7490234375
-76.904296875
-78.7353515625
-69.580078125
-68.66455078125
-73.2421875
-70.49560546875
-62.255859375
-56.7626953125
-64.0869140625
-58.59375
-55.84716796875
-51.26953125
-43.02978515625
-47.607421875
-39.36767578125
-33.87451171875
-26.55029296875
-41.19873046875
-44.86083984375
-48.52294921875
-40.283203125
-29.296875
-18.310546875
-22.88818359375
-11.90185546875
-17.39501953125
-21.05712890625
-13.73291015625
-1.8310546875
-1.8310546875
-16.4794921875
2.74658203125
8.23974609375
12.8173828125
19.22607421875
25.634765625
32.958984375
35.70556640625
31.1279296875
42.1142578125
55.84716796875
64.0869140625
75.0732421875
74.15771484375
75.0732421875
91.552734375
99.79248046875
89.7216796875
108.94775390625
113.525390625
124.51171875
134.58251953125
140.07568359375
139.16015625
150.146484375
165.71044921875
176.69677734375
170.2880859375
177.6123046875
177.6123046875
176.69677734375
199.5849609375
203.2470703125
208.740234375
227.96630859375
240.78369140625
242.61474609375
235.29052734375
234.375
252.685546875
252.685546875
255.43212890625
260.009765625
270.99609375
268.24951171875
262.75634765625
253.60107421875
251.77001953125
241.69921875
216.97998046875
208.740234375
216.064453125
205.99365234375
190.4296875
182.18994140625
177.6123046875
162.9638671875
125.42724609375
120.849609375
99.79248046875
75.98876953125
62.255859375
59.50927734375
52.18505859375
38.4521484375
31.1279296875
21.05712890625
8.23974609375
-1.8310546875
-18.310546875
-26.55029296875
-18.310546875
-19.22607421875
-25.634765625
-30.21240234375
-37.53662109375
-52.18505859375
-48.52294921875
-53.1005859375
-62.255859375
-67.7490234375
-66.83349609375
-65.91796875
-67.7490234375
-69.580078125
-68.66455078125
-75.0732421875
-82.3974609375
-72.32666015625
-77.81982421875
-90.63720703125
-81.48193359375
-86.0595703125
-87.890625
-77.81982421875
-71.4111328125
-64.0869140625
-73.2421875
-68.66455078125
-70.49560546875
-76.904296875
-83.31298828125
-83.31298828125
-80.56640625
-69.580078125
-66.83349609375
-66.83349609375
-74.15771484375
-70.49560546875
-75.0732421875
-80.56640625
-73.2421875
-62.255859375
-64.0869140625
-70.49560546875
-60.4248046875
-71.4111328125
-65.91796875
-75.98876953125
-81.48193359375
-86.97509765625
-74.15771484375
-75.0732421875
-76.904296875
-67.7490234375
-58.59375
-66.83349609375
-65.91796875
-62.255859375
-65.91796875
-66.83349609375
-75.0732421875
-75.98876953125
-72.32666015625
-54.01611328125
-56.7626953125
-57.67822265625
-60.4248046875
-66.83349609375
-65.00244140625
-61.34033203125
-63.17138671875
-71.4111328125
-54.931640625
-71.4111328125
-65.00244140625
-60.4248046875
-63.17138671875
-54.931640625
-63.17138671875
-66.83349609375
-67.7490234375
-75.0732421875
-71.4111328125
-73.2421875
-63.17138671875
-62.255859375
-72.32666015625
-66.83349609375
-68.66455078125
-75.98876953125
-68.66455078125
-77.81982421875
-76.904296875
-80.56640625
-76.904296875
-80.56640625
-71.4111328125
-73.2421875
-85.14404296875
-89.7216796875
-70.49560546875
-64.0869140625
-82.3974609375
-89.7216796875
-82.3974609375
-81.48193359375
-84.228515625
-84.228515625
-87.890625
-99.79248046875
-95.21484375
-86.97509765625
-88.80615234375
-91.552734375
-84.228515625
-91.552734375
-97.0458984375
-97.0458984375
-95.21484375
-90.63720703125
-91.552734375
-94.29931640625
-95.21484375
-89.7216796875
-109.86328125
-106.201171875
-96.13037109375
-100.7080078125
-113.525390625
-105.28564453125
-97.96142578125
-102.5390625
-101.62353515625
-98.876953125
-95.21484375
-100.7080078125
-97.0458984375
-98.876953125
-103.45458984375
-108.0322265625
-108.0322265625
-108.94775390625
-109.86328125
-102.5390625
-106.201171875
-106.201171875
-108.0322265625
-107.11669921875
-115.3564453125
-114.44091796875
-116.27197265625
-119.93408203125
-114.44091796875
-99.79248046875
-105.28564453125
-104.3701171875
-96.13037109375
-97.96142578125
-105.28564453125
-103.45458984375
-103.45458984375
-108.94775390625
-106.201171875
-103.45458984375
-105.28564453125
-106.201171875
-95.21484375
-89.7216796875
-72.32666015625
-75.98876953125
-78.7353515625
-66.83349609375
-59.50927734375
-61.34033203125
-58.59375
-59.50927734375
-58.59375
-67.7490234375
-60.4248046875
-51.26953125
-35.70556640625
-29.296875
-26.55029296875
-21.97265625
-27.4658203125
-37.53662109375
-34.7900390625
-40.283203125
-43.02978515625
-31.1279296875
