ECG
-32.04345703125
-30.21240234375
-28.38134765625
-26.55029296875
-32.04345703125
-31.1279296875
-30.21240234375
-33.87451171875
-34.7900390625
-30.21240234375
-27.4658203125
-25.634765625
-28.38134765625
-29.296875
-30.21240234375
-31.1279296875
-25.634765625
-26.55029296875
-34.7900390625
-43.02978515625
-36.62109375
-33.87451171875
-35.70556640625
-42.1142578125
-33.87451171875
-31.1279296875
-37.53662109375
-47.607421875
-43.02978515625
-40.283203125
-47.607421875
-44.86083984375
-32.958984375
-37.53662109375
-34.7900390625
-35.70556640625
-34.7900390625
-34.7900390625
-35.70556640625
-38.4521484375
-36.62109375
-32.958984375
-26.55029296875
-26.55029296875
-33.87451171875
-31.1279296875
-32.04345703125
-32.04345703125
-37.53662109375
-37.53662109375
-30.21240234375
-28.38134765625
-28.38134765625
-26.55029296875
-25.634765625
-24.71923828125
-32.04345703125
-32.04345703125
-30.21240234375
-32.958984375
-23.8037109375
-27.4658203125
-18.310546875
-1.8310546875
-4.57763671875
-1.8310546875
0
-1.8310546875
-3.662109375
-0.91552734375
4.57763671875
10.986328125
5.4931640625
0
-0.91552734375
6.40869140625
2.74658203125
8.23974609375
15.56396484375
20.1416015625
32.04345703125
41.19873046875
36.62109375
44.86083984375
46.69189453125
41.19873046875
37.53662109375
40.283203125
36.62109375
29.296875
25.634765625
21.97265625
17.39501953125
20.1416015625
20.1416015625
14.6484375
-2.74658203125
-9.1552734375
-13.73291015625
-12.8173828125
-16.4794921875
-30.21240234375
-29.296875
-27.4658203125
-29.296875
-26.55029296875
-23.8037109375
-34.7900390625
-46.69189453125
-53.1005859375
-43.02978515625
-41.19873046875
-42.1142578125
-50.35400390625
-48.52294921875
-43.9453125
-44.86083984375
-54.931640625
-48.52294921875
-43.9453125
-46.69189453125
-54.931640625
-56.7626953125
-53.1005859375
-47.607421875
-49.4384765625
-53.1005859375
-55.84716796875
-54.931640625
-50.35400390625
-53.1005859375
-57.67822265625
-55.84716796875
-49.4384765625
-49.4384765625
-67.7490234375
-80.56640625
-86.0595703125
-89.7216796875
-71.4111328125
-42.1142578125
-2.74658203125
46.69189453125
124.51171875
230.712890625
367.12646484375
502.62451171875
647.27783203125
807.4951171875
950.3173828125
1052.8564453125
1135.25390625
1191.10107421875
1205.74951171875
1168.212890625
964.05029296875
646.3623046875
377.197265625
148.3154296875
-13.73291015625
-104.3701171875
-162.04833984375
-198.66943359375
-198.66943359375
-181.2744140625
-160.21728515625
-115.3564453125
-71.4111328125
-50.35400390625
-20.1416015625
-0.91552734375
17.39501953125
28.38134765625
32.958984375
34.7900390625
34.7900390625
38.4521484375
36.62109375
34.7900390625
42.1142578125
46.69189453125
48.52294921875
42.1142578125
38.4521484375
41.19873046875
43.9453125
45.7763671875
44.86083984375
42.1142578125
40.283203125
44.86083984375
43.9453125
42.1142578125
49.4384765625
60.4248046875
65.91796875
62.255859375
55.84716796875
57.67822265625
63.17138671875
63.17138671875
58.59375
73.2421875
77.81982421875
79.65087890625
79.65087890625
84.228515625
88.80615234375
87.890625
88.80615234375
89.7216796875
88.80615234375
90.63720703125
102.5390625
110.77880859375
112.60986328125
113.525390625
114.44091796875
112.60986328125
117.1875
121.76513671875
121.76513671875
132.75146484375
135.498046875
138.24462890625
138.24462890625
145.56884765625
150.146484375
156.55517578125
157.470703125
160.21728515625
168.45703125
176.69677734375
186.767578125
188.5986328125
192.2607421875
196.83837890625
204.16259765625
208.740234375
214.2333984375
224.30419921875
225.2197265625
233.45947265625
240.78369140625
245.361328125
259.09423828125
265.5029296875
266.41845703125
266.41845703125
279.23583984375
291.1376953125
301.20849609375
309.4482421875
319.51904296875
330.50537109375
336.9140625
343.32275390625
347.900390625
357.0556640625
356.14013671875
355.224609375
366.2109375
368.95751953125
380.859375
383.60595703125
376.28173828125
378.11279296875
375.3662109375
379.0283203125
382.6904296875
378.11279296875
380.859375
377.197265625
368.0419921875
364.3798828125
355.224609375
341.49169921875
328.67431640625
317.68798828125
307.6171875
293.88427734375
275.57373046875
255.43212890625
236.2060546875
224.30419921875
205.99365234375
185.85205078125
180.35888671875
161.1328125
140.9912109375
123.59619140625
108.94775390625
100.7080078125
90.63720703125
80.56640625
61.34033203125
47.607421875
33.87451171875
32.04345703125
29.296875
21.97265625
0
-7.32421875
-11.90185546875
-14.6484375
-17.39501953125
-23.8037109375
-35.70556640625
-38.4521484375
-30.21240234375
-35.70556640625
-41.19873046875
-42.1142578125
-42.1142578125
-38.4521484375
-43.9453125
-44.86083984375
-47.607421875
-44.86083984375
-49.4384765625
-57.67822265625
-47.607421875
-43.02978515625
-41.19873046875
-43.9453125
-57.67822265625
-59.50927734375
-56.7626953125
-45.7763671875
-48.52294921875
-54.931640625
-57.67822265625
-59.50927734375
-47.607421875
-46.69189453125
-52.18505859375
-62.255859375
-58.59375
-54.931640625
-57.67822265625
-58.59375
-54.01611328125
-50.35400390625
-45.7763671875
-43.9453125
-40.283203125
-39.36767578125
-42.1142578125
-43.02978515625
-44.86083984375
-43.9453125
-36.62109375
-33.87451171875
-32.04345703125
-29.296875
-25.634765625
-19.22607421875
-31.1279296875
-32.958984375
-32.04345703125
-31.1279296875
-33.87451171875
-25.634765625
-21.05712890625
-22.88818359375
-17.39501953125
-17.39501953125
-15.56396484375
-19.22607421875
-17.39501953125
-11.90185546875
-9.1552734375
-10.07080078125
-10.07080078125
-2.74658203125
-8.23974609375
-10.07080078125
-5.4931640625
-14.6484375
-14.6484375
-15.56396484375
-3.662109375
0
-10.07080078125
-16.4794921875
-18.310546875
-14.6484375
-21.05712890625
-25.634765625
-18.310546875
-16.4794921875
-13.73291015625
-11.90185546875
-10.986328125
-10.07080078125
-19.22607421875
-26.55029296875
-28.38134765625
-22.88818359375
-25.634765625
-28.38134765625
-30.21240234375
-32.958984375
-28.38134765625
-29.296875
-31.1279296875
-26.55029296875
-31.1279296875
-31.1279296875
-32.04345703125
-39.36767578125
-29.296875
-21.97265625
-21.05712890625
-22.88818359375
-31.1279296875
-39.36767578125
-43.9453125
-35.70556640625
-31.1279296875
-32.958984375
-32.958984375
-34.7900390625
-36.62109375
-35.70556640625
-30.21240234375
-32.04345703125
-46.69189453125
-46.69189453125
-41.19873046875
-43.9453125
-36.62109375
-34.7900390625
-33.87451171875
-29.296875
-24.71923828125
-27.4658203125
-42.1142578125
-42.1142578125
-39.36767578125
-40.283203125
-45.7763671875
-44.86083984375
-38.4521484375
-35.70556640625
-39.36767578125
-49.4384765625
-47.607421875
-45.7763671875
-48.52294921875
-41.19873046875
-33.87451171875
-47.607421875
-45.7763671875
-36.62109375
-33.87451171875
-42.1142578125
-41.19873046875
-49.4384765625
-53.1005859375
-55.84716796875
-44.86083984375
-46.69189453125
-39.36767578125
-37.53662109375
-38.4521484375
-35.70556640625
-47.607421875
-46.69189453125
-46.69189453125
-46.69189453125
-43.9453125
-42.1142578125
-43.9453125
-51.26953125
-42.1142578125
-41.19873046875
-57.67822265625
-65.91796875
-57.67822265625
-45.7763671875
-57.67822265625
-53.1005859375
-53.1005859375
-42.1142578125
-40.283203125
-40.283203125
-36.62109375
-46.69189453125
-49.4384765625
-40.283203125
-56.7626953125
-51.26953125
-41.19873046875
-45.7763671875
-45.7763671875
-37.53662109375
-48.52294921875
-54.931640625
-45.7763671875
-44.86083984375
-49.4384765625
-49.4384765625
-49.4384765625
-59.50927734375
-47.607421875
-44.86083984375
-51.26953125
-55.84716796875
-58.59375
-45.7763671875
-51.26953125
-51.26953125
-50.35400390625
-45.7763671875
-43.9453125
-43.02978515625
-46.69189453125
-41.19873046875
-37.53662109375
-32.04345703125
-31.1279296875
-28.38134765625
-23.8037109375
-19.22607421875
-9.1552734375
-4.57763671875
-14.6484375
-11.90185546875
-19.22607421875
-28.38134765625
-31.1279296875
-30.21240234375
-21.97265625
-16.4794921875
-16.4794921875
-18.310546875
-19.22607421875
-6.40869140625
1.8310546875
0
8.23974609375
13.73291015625
10.986328125
12.8173828125
10.986328125
4.57763671875
-5.4931640625
-14.6484375
-23.8037109375
-14.6484375
0
-3.662109375
-12.8173828125
-20.1416015625
-24.71923828125
-34.7900390625
-41.19873046875
-40.283203125
-42.1142578125
-51.26953125
-58.59375
-63.17138671875
-52.18505859375
-50.35400390625
-59.50927734375
-67.7490234375
-76.904296875
-71.4111328125
-76.904296875
-68.66455078125
-63.17138671875
-67.7490234375
-58.59375
-56.7626953125
-66.83349609375
-68.66455078125
-67.7490234375
-65.91796875
-68.66455078125
-75.0732421875
-76.904296875
-72.32666015625
-73.2421875
-63.17138671875
-62.255859375
-55.84716796875
-62.255859375
-70.49560546875
-69.580078125
-65.91796875
-71.4111328125
-70.49560546875
-75.98876953125
-100.7080078125
-106.201171875
-109.86328125
-98.876953125
-60.4248046875
-19.22607421875
32.958984375
122.6806640625
249.0234375
377.197265625
499.8779296875
652.77099609375
815.73486328125
921.93603515625
1017.15087890625
1099.54833984375
1127.9296875
1117.85888671875
1048.27880859375
799.25537109375
492.5537109375
245.361328125
61.34033203125
-60.4248046875
-118.10302734375
-165.71044921875
-197.75390625
-207.82470703125
-204.16259765625
-163.87939453125
-116.27197265625
-80.56640625
-60.4248046875
-41.19873046875
-18.310546875
-12.8173828125
3.662109375
10.986328125
4.57763671875
10.986328125
12.8173828125
21.97265625
20.1416015625
23.8037109375
23.8037109375
28.38134765625
28.38134765625
26.55029296875
32.958984375
30.21240234375
27.4658203125
35.70556640625
34.7900390625
32.958984375
42.1142578125
39.36767578125
41.19873046875
44.86083984375
43.9453125
45.7763671875
46.69189453125
50.35400390625
57.67822265625
55.84716796875
54.01611328125
56.7626953125
65.91796875
68.66455078125
73.2421875
72.32666015625
75.0732421875
71.4111328125
74.15771484375
81.48193359375
78.7353515625
77.81982421875
86.97509765625
93.3837890625
102.5390625
105.28564453125
101.62353515625
99.79248046875
100.7080078125
101.62353515625
108.94775390625
115.3564453125
118.10302734375
121.76513671875
121.76513671875
130.92041015625
134.58251953125
137.3291015625
147.39990234375
149.23095703125
143.73779296875
151.06201171875
153.80859375
157.470703125
169.37255859375
179.443359375
184.02099609375
185.85205078125
192.2607421875
194.091796875
202.33154296875
214.2333984375
210.5712890625
216.064453125
228.8818359375
243.5302734375
254.5166015625
259.09423828125
264.58740234375
280.1513671875
278.3203125
289.306640625
298.4619140625
303.955078125
309.4482421875
323.18115234375
327.7587890625
331.4208984375
335.0830078125
336.9140625
341.49169921875
352.47802734375
354.30908203125
360.7177734375
373.53515625
377.197265625
378.11279296875
366.2109375
362.548828125
357.97119140625
350.64697265625
355.224609375
368.95751953125
359.80224609375
351.5625
338.7451171875
333.251953125
319.51904296875
304.87060546875
287.4755859375
274.658203125
257.26318359375
237.12158203125
221.5576171875
205.99365234375
192.2607421875
181.2744140625
160.21728515625
144.6533203125
129.08935546875
117.1875
99.79248046875
77.81982421875
65.91796875
60.4248046875
63.17138671875
49.4384765625
33.87451171875
24.71923828125
17.39501953125
11.90185546875
-0.91552734375
-9.1552734375
-13.73291015625
-18.310546875
-22.88818359375
-29.296875
-37.53662109375
-43.02978515625
-45.7763671875
-43.9453125
-48.52294921875
-51.26953125
-48.52294921875
-45.7763671875
-47.607421875
-45.7763671875
-54.01611328125
-61.34033203125
-62.255859375
-53.1005859375
-55.84716796875
-57.67822265625
-60.4248046875
-65.91796875
-61.34033203125
-58.59375
-63.17138671875
-63.17138671875
-62.255859375
-61.34033203125
-58.59375
-58.59375
-61.34033203125
-61.34033203125
-64.0869140625
-56.7626953125
-56.7626953125
-55.84716796875
-56.7626953125
-65.91796875
-64.0869140625
-64.0869140625
-51.26953125
-48.52294921875
-43.9453125
-43.02978515625
-46.69189453125
-51.26953125
-45.7763671875
-39.36767578125
-42.1142578125
-41.19873046875
-42.1142578125
-32.04345703125
-26.55029296875
-15.56396484375
-25.634765625
-33.87451171875
-32.04345703125
-32.04345703125
-32.04345703125
-23.8037109375
-27.4658203125
-26.55029296875
-12.8173828125
-12.8173828125
-18.310546875
-24.71923828125
-17.39501953125
-16.4794921875
-17.39501953125
-18.310546875
-17.39501953125
-19.22607421875
-14.6484375
-12.8173828125
-17.39501953125
-21.05712890625
-23.8037109375
-18.310546875
-18.310546875
-17.39501953125
-17.39501953125
-18.310546875
-14.6484375
-25.634765625
-30.21240234375
-30.21240234375
-26.55029296875
-19.22607421875
-16.4794921875
-32.04345703125
-40.283203125
-32.958984375
-31.1279296875
-29.296875
-30.21240234375
-30.21240234375
-32.958984375
-30.21240234375
-29.296875
-36.62109375
-35.70556640625
-30.21240234375
-23.8037109375
-27.4658203125
-32.04345703125
-32.958984375
-34.7900390625
-40.283203125
-42.1142578125
-44.86083984375
-43.02978515625
-34.7900390625
-33.87451171875
-38.4521484375
-41.19873046875
-44.86083984375
-32.04345703125
-39.36767578125
-44.86083984375
-43.9453125
-44.86083984375
-37.53662109375
-39.36767578125
-42.1142578125
-47.607421875
-45.7763671875
-47.607421875
-49.4384765625
-47.607421875
-54.931640625
-54.931640625
-57.67822265625
-58.59375
-43.02978515625
-54.01611328125
-62.255859375
-47.607421875
-56.7626953125
-53.1005859375
-54.01611328125
-50.35400390625
-44.86083984375
-43.02978515625
-48.52294921875
-58.59375
-59.50927734375
-55.84716796875
-59.50927734375
-59.50927734375
-53.1005859375
-44.86083984375
-43.02978515625
-49.4384765625
-49.4384765625
-54.01611328125
-54.931640625
-55.84716796875
-55.84716796875
-61.34033203125
-63.17138671875
-63.17138671875
-56.7626953125
-46.69189453125
-51.26953125
-51.26953125
-50.35400390625
-50.35400390625
-49.4384765625
-51.26953125
-59.50927734375
-59.50927734375
-57.67822265625
-60.4248046875
-55.84716796875
-53.1005859375
-60.4248046875
-63.17138671875
-57.67822265625
-56.7626953125
-58.59375
-54.931640625
-53.1005859375
-54.01611328125
-56.7626953125
-59.50927734375
-57.67822265625
-55.84716796875
-56.7626953125
-59.50927734375
-57.67822265625
-60.4248046875
-55.84716796875
-52.18505859375
-55.84716796875
-49.4384765625
-54.01611328125
-59.50927734375
-47.607421875
-48.52294921875
-57.67822265625
-51.26953125
-50.35400390625
-50.35400390625
-52.18505859375
-60.4248046875
-66.83349609375
-67.7490234375
-64.0869140625
-58.59375
-56.7626953125
-52.18505859375
-49.4384765625
-44.86083984375
-48.52294921875
-49.4384765625
-65.00244140625
-65.00244140625
-60.4248046875
-57.67822265625
-51.26953125
-48.52294921875
-53.1005859375
-62.255859375
-60.4248046875
-52.18505859375
-54.931640625
-49.4384765625
-48.52294921875
-43.02978515625
-46.69189453125
-38.4521484375
-34.7900390625
-28.38134765625
-19.22607421875
-24.71923828125
-23.8037109375
-13.73291015625
-10.07080078125
-6.40869140625
-10.07080078125
-10.986328125
-21.05712890625
-21.97265625
-14.6484375
-18.310546875
-27.4658203125
-25.634765625
-14.6484375
-14.6484375
-10.986328125
5.4931640625
15.56396484375
20.1416015625
19.22607421875
19.22607421875
18.310546875
17.39501953125
20.1416015625
11.90185546875
0.91552734375
3.662109375
5.4931640625
6.40869140625
2.74658203125
-1.8310546875
-12.8173828125
-12.8173828125
-15.56396484375
-25.634765625
-24.71923828125
-31.1279296875
-40.283203125
-44.86083984375
-45.7763671875
-53.1005859375
-50.35400390625
-52.18505859375
-52.18505859375
-53.1005859375
-62.255859375
-67.7490234375
-69.580078125
-64.0869140625
-64.0869140625
-60.4248046875
-57.67822265625
-63.17138671875
-66.83349609375
-70.49560546875
-70.49560546875
-65.00244140625
-66.83349609375
-67.7490234375
-62.255859375
-65.91796875
-64.0869140625
-68.66455078125
-65.91796875
-68.66455078125
-66.83349609375
-65.00244140625
-61.34033203125
-56.7626953125
-56.7626953125
-64.0869140625
-77.81982421875
-91.552734375
-97.96142578125
-98.876953125
-72.32666015625
-32.958984375
4.57763671875
72.32666015625
151.06201171875
275.57373046875
414.73388671875
549.31640625
698.54736328125
864.2578125
982.36083984375
1080.322265625
1147.15576171875
1180.11474609375
1189.27001953125
1103.21044921875
841.36962890625
532.8369140625
273.74267578125
64.0869140625
-75.0732421875
-151.06201171875
-184.9365234375
-201.416015625
-206.9091796875
-184.9365234375
-146.484375
-97.96142578125
-60.4248046875
-38.4521484375
-18.310546875
2.74658203125
14.6484375
23.8037109375
25.634765625
33.87451171875
31.1279296875
37.53662109375
32.958984375
32.958984375
32.04345703125
42.1142578125
40.283203125
43.02978515625
42.1142578125
37.53662109375
37.53662109375
38.4521484375
43.9453125
44.86083984375
44.86083984375
46.69189453125
50.35400390625
53.1005859375
50.35400390625
60.4248046875
56.7626953125
55.84716796875
62.255859375
57.67822265625
52.18505859375
61.34033203125
71.4111328125
77.81982421875
79.65087890625
76.904296875
75.98876953125
78.7353515625
79.65087890625
83.31298828125
88.80615234375
92.46826171875
93.3837890625
100.7080078125
90.63720703125
100.7080078125
96.13037109375
94.29931640625
105.28564453125
114.44091796875
111.6943359375
113.525390625
125.42724609375
131.8359375
137.3291015625
134.58251953125
136.41357421875
140.9912109375
140.07568359375
136.41357421875
147.39990234375
162.04833984375
165.71044921875
172.119140625
175.78125
181.2744140625
186.767578125
193.17626953125
198.66943359375
198.66943359375
207.82470703125
214.2333984375
222.47314453125
238.95263671875
239.8681640625
239.8681640625
245.361328125
260.92529296875
265.5029296875
275.57373046875
282.89794921875
297.54638671875
309.4482421875
308.53271484375
320.4345703125
323.18115234375
332.33642578125
338.7451171875
343.32275390625
346.98486328125
354.30908203125
363.46435546875
368.0419921875
369.873046875
373.53515625
377.197265625
384.521484375
387.26806640625
379.94384765625
373.53515625
374.45068359375
379.0283203125
375.3662109375
372.61962890625
371.7041015625
365.29541015625
359.80224609375
346.0693359375
336.9140625
326.84326171875
315.85693359375
304.87060546875
287.4755859375
273.74267578125
253.60107421875
235.29052734375
211.48681640625
195.9228515625
186.767578125
172.119140625
156.55517578125
143.73779296875
123.59619140625
112.60986328125
87.890625
78.7353515625
72.32666015625
58.59375
47.607421875
40.283203125
23.8037109375
17.39501953125
8.23974609375
-1.8310546875
-2.74658203125
-6.40869140625
-19.22607421875
-22.88818359375
-30.21240234375
-31.1279296875
-32.04345703125
-32.958984375
-35.70556640625
-41.19873046875
-47.607421875
-51.26953125
-52.18505859375
-57.67822265625
-54.01611328125
-56.7626953125
-52.18505859375
-54.01611328125
-58.59375
-60.4248046875
-62.255859375
-57.67822265625
-59.50927734375
-58.59375
-63.17138671875
-72.32666015625
-64.0869140625
-60.4248046875
-62.255859375
-65.91796875
-60.4248046875
-61.34033203125
-59.50927734375
-58.59375
-53.1005859375
-56.7626953125
-55.84716796875
-51.26953125
-54.931640625
-57.67822265625
-58.59375
-57.67822265625
-51.26953125
-54.01611328125
-47.607421875
-43.9453125
-49.4384765625
-43.9453125
-44.86083984375
-40.283203125
-41.19873046875
-38.4521484375
-34.7900390625
-39.36767578125
-34.7900390625
-34.7900390625
-28.38134765625
-21.97265625
-21.05712890625
-16.4794921875
-23.8037109375
-24.71923828125
-23.8037109375
-27.4658203125
-21.05712890625
-21.05712890625
-19.22607421875
-20.1416015625
-16.4794921875
-11.90185546875
-14.6484375
-17.39501953125
-22.88818359375
-17.39501953125
-19.22607421875
-17.39501953125
-13.73291015625
-16.4794921875
-13.73291015625
-8.23974609375
-9.1552734375
-11.90185546875
-25.634765625
-26.55029296875
-28.38134765625
-26.55029296875
-22.88818359375
-22.88818359375
-17.39501953125
-18.310546875
-22.88818359375
-29.296875
-26.55029296875
-27.4658203125
-25.634765625
-28.38134765625
-23.8037109375
-24.71923828125
-24.71923828125
-26.55029296875
-28.38134765625
-35.70556640625
-41.19873046875
-39.36767578125
-47.607421875
-37.53662109375
-36.62109375
-36.62109375
-32.04345703125
-32.04345703125
-37.53662109375
-34.7900390625
-36.62109375
-43.02978515625
-39.36767578125
-42.1142578125
-48.52294921875
-46.69189453125
-41.19873046875
-54.931640625
-54.931640625
-54.01611328125
-49.4384765625
-45.7763671875
-50.35400390625
-49.4384765625
-53.1005859375
-58.59375
-55.84716796875
-53.1005859375
-54.931640625
-54.01611328125
-65.91796875
-65.91796875
-54.931640625
-55.84716796875
-60.4248046875
-58.59375
-58.59375
-56.7626953125
-51.26953125
-53.1005859375
-55.84716796875
-60.4248046875
-64.0869140625
-63.17138671875
-61.34033203125
-60.4248046875
-61.34033203125
-54.931640625
-64.0869140625
-65.91796875
-65.00244140625
-66.83349609375
-66.83349609375
-61.34033203125
-64.0869140625
-70.49560546875
-57.67822265625
-51.26953125
-52.18505859375
-55.84716796875
-60.4248046875
-65.00244140625
-63.17138671875
-61.34033203125
-57.67822265625
-53.1005859375
-54.931640625
-52.18505859375
-54.931640625
-57.67822265625
-65.00244140625
-56.7626953125
-57.67822265625
-67.7490234375
-62.255859375
-53.1005859375
-54.931640625
-61.34033203125
-62.255859375
-56.7626953125
-59.50927734375
-50.35400390625
-59.50927734375
-65.00244140625
-60.4248046875
-54.01611328125
-53.1005859375
-50.35400390625
-48.52294921875
-56.7626953125
-56.7626953125
-49.4384765625
-58.59375
-56.7626953125
-52.18505859375
-49.4384765625
-55.84716796875
-57.67822265625
-51.26953125
-52.18505859375
-54.01611328125
-58.59375
-65.00244140625
-60.4248046875
-45.7763671875
-51.26953125
-54.01611328125
-52.18505859375
-56.7626953125
-50.35400390625
-55.84716796875
-58.59375
-59.50927734375
-57.67822265625
-56.7626953125
-49.4384765625
-54.01611328125
-46.69189453125
-48.52294921875
-52.18505859375
-54.01611328125
-47.607421875
-48.52294921875
-45.7763671875
-48.52294921875
-44.86083984375
-47.607421875
-47.607421875
-45.7763671875
-40.283203125
-41.19873046875
-48.52294921875
-52.18505859375
-49.4384765625
-52.18505859375
-52.18505859375
-41.19873046875
-42.1142578125
-37.53662109375
-39.36767578125
-49.4384765625
-51.26953125
-43.9453125
-40.283203125
-37.53662109375
-28.38134765625
-22.88818359375
-28.38134765625
-29.296875
-25.634765625
-25.634765625
-20.1416015625
-24.71923828125
-31.1279296875
-27.4658203125
-22.88818359375
-33.87451171875
-24.71923828125
-26.55029296875
-33.87451171875
-31.1279296875
-21.05712890625
-11.90185546875
-7.32421875
-3.662109375
-4.57763671875
-2.74658203125
-3.662109375
5.4931640625
7.32421875
-7.32421875
-14.6484375
-12.8173828125
-9.1552734375
-6.40869140625
-10.986328125
-11.90185546875
-12.8173828125
-11.90185546875
-15.56396484375
-32.958984375
-47.607421875
-53.1005859375
-57.67822265625
-54.931640625
-49.4384765625
-48.52294921875
-47.607421875
-43.9453125
-43.02978515625
-46.69189453125
-54.931640625
-54.01611328125
-43.9453125
-39.36767578125
-49.4384765625
-52.18505859375
-51.26953125
-45.7763671875
-54.931640625
-54.01611328125
-54.01611328125
-47.607421875
-46.69189453125
-54.931640625
-47.607421875
-45.7763671875
-44.86083984375
-43.02978515625
-42.1142578125
-44.86083984375
-59.50927734375
-71.4111328125
-77.81982421875
-82.3974609375
-78.7353515625
-49.4384765625
-6.40869140625
38.4521484375
103.45458984375
202.33154296875
334.16748046875
465.087890625
606.99462890625
764.46533203125
918.27392578125
1016.2353515625
1102.294921875
1157.2265625
1176.45263671875
1170.0439453125
1026.30615234375
726.01318359375
443.115234375
211.48681640625
39.36767578125
-79.65087890625
-129.08935546875
-160.21728515625
-174.86572265625
-184.9365234375
-166.6259765625
-119.0185546875
-74.15771484375
-40.283203125
-25.634765625
-21.97265625
8.23974609375
20.1416015625
28.38134765625
32.958984375
39.36767578125
45.7763671875
49.4384765625
48.52294921875
38.4521484375
42.1142578125
45.7763671875
41.19873046875
54.01611328125
61.34033203125
58.59375
60.4248046875
60.4248046875
62.255859375
67.7490234375
72.32666015625
74.15771484375
73.2421875
64.0869140625
73.2421875
73.2421875
66.83349609375
70.49560546875
77.81982421875
79.65087890625
80.56640625
82.3974609375
92.46826171875
90.63720703125
89.7216796875
89.7216796875
94.29931640625
96.13037109375
102.5390625
97.0458984375
100.7080078125
112.60986328125
110.77880859375
112.60986328125
115.3564453125
111.6943359375
110.77880859375
115.3564453125
122.6806640625
127.25830078125
136.41357421875
138.24462890625
139.16015625
144.6533203125
141.90673828125
139.16015625
140.9912109375
153.80859375
162.9638671875
169.37255859375
176.69677734375
174.86572265625
173.9501953125
181.2744140625
177.6123046875
188.5986328125
199.5849609375
199.5849609375
204.16259765625
217.8955078125
226.13525390625
234.375
235.29052734375
238.95263671875
253.60107421875
260.009765625
265.5029296875
270.99609375
279.23583984375
287.4755859375
299.37744140625
314.02587890625
314.02587890625
316.7724609375
326.84326171875
321.35009765625
333.251953125
344.23828125
346.0693359375
355.224609375
367.12646484375
372.61962890625
369.873046875
378.11279296875
378.11279296875
376.28173828125
382.6904296875
380.859375
382.6904296875
385.43701171875
390.0146484375
389.09912109375
389.09912109375
381.77490234375
375.3662109375
366.2109375
357.0556640625
349.7314453125
344.23828125
340.576171875
321.35009765625
307.6171875
295.71533203125
281.982421875
262.75634765625
240.78369140625
221.5576171875
205.078125
195.9228515625
180.35888671875
163.87939453125
151.06201171875
132.75146484375
111.6943359375
94.29931640625
79.65087890625
70.49560546875
62.255859375
55.84716796875
46.69189453125
37.53662109375
27.4658203125
20.1416015625
10.986328125
2.74658203125
-0.91552734375
-15.56396484375
-16.4794921875
-14.6484375
-16.4794921875
-21.05712890625
-27.4658203125
-29.296875
-34.7900390625
-43.9453125
-36.62109375
-38.4521484375
-49.4384765625
-45.7763671875
-42.1142578125
-50.35400390625
-43.02978515625
-39.36767578125
-43.02978515625
-45.7763671875
-36.62109375
-43.02978515625
-52.18505859375
-46.69189453125
-50.35400390625
-50.35400390625
-45.7763671875
-49.4384765625
-48.52294921875
-49.4384765625
-48.52294921875
-55.84716796875
-57.67822265625
-49.4384765625
-43.9453125
-40.283203125
-32.958984375
-37.53662109375
-33.87451171875
-42.1142578125
-36.62109375
-33.87451171875
-29.296875
-30.21240234375
-33.87451171875
-23.8037109375
-25.634765625
-30.21240234375
-36.62109375
-32.04345703125
-24.71923828125
-25.634765625
-27.4658203125
-24.71923828125
-18.310546875
-10.07080078125
-10.986328125
-13.73291015625
-12.8173828125
-7.32421875
-14.6484375
-18.310546875
-8.23974609375
-7.32421875
-1.8310546875
5.4931640625
7.32421875
-5.4931640625
-6.40869140625
-12.8173828125
-7.32421875
-7.32421875
-6.40869140625
-1.8310546875
0
3.662109375
7.32421875
-3.662109375
-0.91552734375
-2.74658203125
-6.40869140625
-4.57763671875
-21.05712890625
-7.32421875
-3.662109375
-6.40869140625
-12.8173828125
-12.8173828125
-17.39501953125
-17.39501953125
-16.4794921875
-25.634765625
-30.21240234375
-25.634765625
-23.8037109375
-18.310546875
-19.22607421875
-25.634765625
-30.21240234375
-30.21240234375
-28.38134765625
-26.55029296875
-24.71923828125
-29.296875
-23.8037109375
-26.55029296875
-22.88818359375
-33.87451171875
-38.4521484375
-45.7763671875
-39.36767578125
-31.1279296875
-31.1279296875
-31.1279296875
-30.21240234375
-32.04345703125
-33.87451171875
-40.283203125
-39.36767578125
-40.283203125
-40.283203125
-36.62109375
-33.87451171875
-32.04345703125
-37.53662109375
-37.53662109375
-42.1142578125
-42.1142578125
-41.19873046875
-49.4384765625
-54.01611328125
-49.4384765625
-59.50927734375
-59.50927734375
-57.67822265625
-59.50927734375
-58.59375
-53.1005859375
-58.59375
-62.255859375
-51.26953125
-50.35400390625
-46.69189453125
-49.4384765625
-50.35400390625
-46.69189453125
-46.69189453125
-53.1005859375
-49.4384765625
-54.931640625
-50.35400390625
-47.607421875
-49.4384765625
-52.18505859375
-56.7626953125
-41.19873046875
-38.4521484375
-46.69189453125
-52.18505859375
-51.26953125
-48.52294921875
-52.18505859375
-54.931640625
-51.26953125
-50.35400390625
-44.86083984375
-54.01611328125
-54.01611328125
-53.1005859375
-62.255859375
-62.255859375
-54.01611328125
-58.59375
-53.1005859375
-51.26953125
-50.35400390625
-57.67822265625
-63.17138671875
-59.50927734375
-64.0869140625
-59.50927734375
-59.50927734375
-60.4248046875
-56.7626953125
-53.1005859375
-53.1005859375
-45.7763671875
-48.52294921875
-47.607421875
-54.931640625
-59.50927734375
-54.931640625
-55.84716796875
-51.26953125
-51.26953125
-51.26953125
-53.1005859375
-55.84716796875
-61.34033203125
-56.7626953125
-60.4248046875
-64.0869140625
-64.0869140625
-54.931640625
-54.931640625
-56.7626953125
-52.18505859375
-54.931640625
-57.67822265625
-47.607421875
-56.7626953125
-58.59375
-54.931640625
-55.84716796875
-54.931640625
-49.4384765625
-51.26953125
-58.59375
-56.7626953125
-54.931640625
-53.1005859375
-51.26953125
-52.18505859375
-53.1005859375
-47.607421875
-41.19873046875
-50.35400390625
-46.69189453125
-49.4384765625
-47.607421875
-40.283203125
-38.4521484375
-41.19873046875
-41.19873046875
-45.7763671875
-51.26953125
-49.4384765625
-56.7626953125
-57.67822265625
-51.26953125
-48.52294921875
-43.02978515625
-35.70556640625
-31.1279296875
-29.296875
-30.21240234375
-28.38134765625
-27.4658203125
-29.296875
-28.38134765625
-29.296875
-32.958984375
-27.4658203125
-24.71923828125
-23.8037109375
-28.38134765625
-26.55029296875
-8.23974609375
-5.4931640625
-1.8310546875
-6.40869140625
-12.8173828125
-5.4931640625
0
0
-6.40869140625
-12.8173828125
-16.4794921875
-13.73291015625
-13.73291015625
-11.90185546875
-22.88818359375
-22.88818359375
-19.22607421875
-21.05712890625
-33.87451171875
-35.70556640625
-47.607421875
-61.34033203125
-56.7626953125
-61.34033203125
-62.255859375
-54.931640625
-47.607421875
-44.86083984375
-44.86083984375
-50.35400390625
-58.59375
-72.32666015625
-62.255859375
-55.84716796875
-59.50927734375
-53.1005859375
-48.52294921875
-48.52294921875
-44.86083984375
-54.931640625
-54.01611328125
-54.01611328125
-52.18505859375
-43.9453125
-50.35400390625
-59.50927734375
-55.84716796875
-49.4384765625
-47.607421875
-59.50927734375
-66.83349609375
-77.81982421875
-82.3974609375
-77.81982421875
-45.7763671875
-8.23974609375
43.9453125
105.28564453125
201.416015625
339.66064453125
470.5810546875
603.33251953125
769.04296875
901.79443359375
993.34716796875
1083.06884765625
1137.0849609375
1151.7333984375
1134.33837890625
986.02294921875
693.05419921875
411.9873046875
184.9365234375
22.88818359375
-75.0732421875
-125.42724609375
-161.1328125
-168.45703125
-179.443359375
-160.21728515625
-120.849609375
-77.81982421875
-39.36767578125
-24.71923828125
-4.57763671875
16.4794921875
28.38134765625
30.21240234375
36.62109375
32.04345703125
40.283203125
43.9453125
44.86083984375
45.7763671875
50.35400390625
44.86083984375
46.69189453125
44.86083984375
49.4384765625
48.52294921875
54.01611328125
65.91796875
55.84716796875
51.26953125
54.01611328125
66.83349609375
62.255859375
63.17138671875
68.66455078125
68.66455078125
71.4111328125
72.32666015625
65.91796875
73.2421875
75.0732421875
73.2421875
75.0732421875
82.3974609375
80.56640625
85.14404296875
86.97509765625
85.14404296875
84.228515625
89.7216796875
93.3837890625
96.13037109375
97.96142578125
102.5390625
108.94775390625
115.3564453125
113.525390625
108.0322265625
114.44091796875
115.3564453125
120.849609375
119.0185546875
122.6806640625
130.92041015625
141.90673828125
142.822265625
149.23095703125
151.06201171875
146.484375
150.146484375
157.470703125
158.38623046875
165.71044921875
171.20361328125
181.2744140625
184.9365234375
195.9228515625
189.51416015625
195.9228515625
198.66943359375
205.078125
215.14892578125
222.47314453125
240.78369140625
249.0234375
249.0234375
253.60107421875
261.8408203125
271.91162109375
278.3203125
288.39111328125
303.03955078125
308.53271484375
313.1103515625
319.51904296875
328.67431640625
335.99853515625
340.576171875
346.98486328125
348.81591796875
349.7314453125
355.224609375
363.46435546875
368.0419921875
375.3662109375
374.45068359375
380.859375
377.197265625
374.45068359375
378.11279296875
370.78857421875
368.95751953125
380.859375
379.0283203125
379.0283203125
365.29541015625
359.80224609375
347.900390625
335.0830078125
331.4208984375
321.35009765625
302.1240234375
280.1513671875
269.1650390625
254.5166015625
238.95263671875
219.7265625
206.9091796875
180.35888671875
163.87939453125
157.470703125
140.07568359375
124.51171875
118.10302734375
104.3701171875
86.0595703125
75.0732421875
61.34033203125
43.9453125
40.283203125
32.958984375
22.88818359375
13.73291015625
7.32421875
12.8173828125
3.662109375
1.8310546875
-7.32421875
-16.4794921875
-18.310546875
-29.296875
-29.296875
-30.21240234375
-30.21240234375
-25.634765625
-34.7900390625
-34.7900390625
-33.87451171875
-44.86083984375
-48.52294921875
-48.52294921875
-44.86083984375
-42.1142578125
-50.35400390625
-45.7763671875
-39.36767578125
-45.7763671875
-52.18505859375
-51.26953125
-51.26953125
-50.35400390625
-56.7626953125
-59.50927734375
-53.1005859375
-50.35400390625
-52.18505859375
-49.4384765625
-52.18505859375
-45.7763671875
-51.26953125
-52.18505859375
-48.52294921875
-44.86083984375
-50.35400390625
-47.607421875
-39.36767578125
-39.36767578125
-44.86083984375
-37.53662109375
-30.21240234375
-32.958984375
-30.21240234375
-30.21240234375
-27.4658203125
-29.296875
-29.296875
-29.296875
-25.634765625
-32.04345703125
-25.634765625
-23.8037109375
-30.21240234375
-15.56396484375
-15.56396484375
-15.56396484375
-18.310546875
-13.73291015625
-17.39501953125
-11.90185546875
-10.986328125
-13.73291015625
-14.6484375
-14.6484375
-11.90185546875
-5.4931640625
-9.1552734375
-15.56396484375
-8.23974609375
-8.23974609375
-10.07080078125
-6.40869140625
-5.4931640625
-4.57763671875
-7.32421875
-1.8310546875
-9.1552734375
-15.56396484375
-10.07080078125
-10.986328125
-13.73291015625
-19.22607421875
-20.1416015625
-12.8173828125
-12.8173828125
-15.56396484375
-10.986328125
-14.6484375
-17.39501953125
-12.8173828125
-12.8173828125
-15.56396484375
-15.56396484375
-15.56396484375
-26.55029296875
-22.88818359375
-21.97265625
-28.38134765625
-27.4658203125
-29.296875
-30.21240234375
-29.296875
-28.38134765625
-26.55029296875
-32.04345703125
-26.55029296875
-28.38134765625
-36.62109375
-31.1279296875
-32.958984375
-30.21240234375
-32.04345703125
-35.70556640625
-30.21240234375
-30.21240234375
-26.55029296875
-32.04345703125
-40.283203125
-38.4521484375
-38.4521484375
-35.70556640625
-39.36767578125
-43.02978515625
-36.62109375
-33.87451171875
-37.53662109375
-43.9453125
-45.7763671875
-46.69189453125
-49.4384765625
-39.36767578125
-41.19873046875
-39.36767578125
-42.1142578125
-41.19873046875
-42.1142578125
-43.02978515625
-42.1142578125
-43.9453125
-47.607421875
-43.02978515625
-35.70556640625
-37.53662109375
-40.283203125
-32.04345703125
-38.4521484375
-46.69189453125
-42.1142578125
-48.52294921875
-51.26953125
-46.69189453125
-39.36767578125
-42.1142578125
-38.4521484375
-44.86083984375
-43.02978515625
-48.52294921875
-46.69189453125
-50.35400390625
-48.52294921875
-43.02978515625
-42.1142578125
-41.19873046875
-46.69189453125
-52.18505859375
-39.36767578125
-37.53662109375
-45.7763671875
-53.1005859375
-51.26953125
-49.4384765625
-43.02978515625
-43.9453125
-47.607421875
-46.69189453125
-47.607421875
-49.4384765625
-50.35400390625
-49.4384765625
-44.86083984375
-47.607421875
-52.18505859375
-44.86083984375
-44.86083984375
-58.59375
-51.26953125
-51.26953125
-50.35400390625
-52.18505859375
-48.52294921875
-46.69189453125
-46.69189453125
-48.52294921875
-50.35400390625
-50.35400390625
-45.7763671875
-44.86083984375
-49.4384765625
-46.69189453125
-46.69189453125
-45.7763671875
-45.7763671875
-44.86083984375
-43.9453125
-45.7763671875
-41.19873046875
-47.607421875
-44.86083984375
-48.52294921875
-46.69189453125
-43.02978515625
-43.02978515625
-43.9453125
-43.9453125
-47.607421875
-48.52294921875
-46.69189453125
-38.4521484375
-37.53662109375
-45.7763671875
-41.19873046875
-42.1142578125
-50.35400390625
-48.52294921875
-41.19873046875
-47.607421875
-48.52294921875
-47.607421875
-46.69189453125
-45.7763671875
-45.7763671875
-45.7763671875
-40.283203125
-31.1279296875
-34.7900390625
-43.02978515625
-45.7763671875
-43.02978515625
-48.52294921875
-46.69189453125
-48.52294921875
-43.02978515625
-43.02978515625
-47.607421875
-43.02978515625
-43.02978515625
-39.36767578125
-37.53662109375
-41.19873046875
-43.9453125
-46.69189453125
-43.9453125
-42.1142578125
-34.7900390625
-35.70556640625
-29.296875
-27.4658203125
-23.8037109375
-26.55029296875
-24.71923828125
-25.634765625
-26.55029296875
-18.310546875
-16.4794921875
-18.310546875
-27.4658203125
-26.55029296875
-24.71923828125
-21.05712890625
-9.1552734375
1.8310546875
2.74658203125
2.74658203125
6.40869140625
16.4794921875
8.23974609375
-2.74658203125
1.8310546875
6.40869140625
2.74658203125
-7.32421875
-12.8173828125
-4.57763671875
0.91552734375
-2.74658203125
-7.32421875
-10.07080078125
-14.6484375
-23.8037109375
-28.38134765625
-32.04345703125
-39.36767578125
-43.9453125
-48.52294921875
-43.9453125
-44.86083984375
-41.19873046875
-42.1142578125
-41.19873046875
-45.7763671875
-48.52294921875
-45.7763671875
-46.69189453125
-45.7763671875
-46.69189453125
-46.69189453125
-41.19873046875
-43.9453125
-43.9453125
-42.1142578125
-44.86083984375
-43.02978515625
-40.283203125
-36.62109375
-36.62109375
-47.607421875
-53.1005859375
-46.69189453125
-43.02978515625
-57.67822265625
-70.49560546875
-71.4111328125
-75.98876953125
-70.49560546875
-45.7763671875
-15.56396484375
31.1279296875
89.7216796875
175.78125
311.279296875
451.35498046875
585.9375
744.32373046875
897.216796875
1005.2490234375
1098.6328125
1159.0576171875
1180.11474609375
1187.43896484375
1104.1259765625
837.70751953125
534.66796875
279.23583984375
82.3974609375
-61.34033203125
-123.59619140625
-155.6396484375
-179.443359375
-187.68310546875
-171.20361328125
-131.8359375
-83.31298828125
-44.86083984375
-21.97265625
-1.8310546875
16.4794921875
32.958984375
38.4521484375
38.4521484375
43.9453125
49.4384765625
50.35400390625
50.35400390625
52.18505859375
54.01611328125
47.607421875
47.607421875
45.7763671875
52.18505859375
52.18505859375
54.01611328125
53.1005859375
56.7626953125
57.67822265625
64.0869140625
60.4248046875
65.91796875
63.17138671875
65.00244140625
72.32666015625
73.2421875
81.48193359375
82.3974609375
83.31298828125
79.65087890625
83.31298828125
86.97509765625
92.46826171875
95.21484375
92.46826171875
93.3837890625
91.552734375
94.29931640625
104.3701171875
106.201171875
101.62353515625
107.11669921875
113.525390625
110.77880859375
117.1875
116.27197265625
116.27197265625
117.1875
120.849609375
125.42724609375
130.0048828125
136.41357421875
141.90673828125
136.41357421875
139.16015625
142.822265625
143.73779296875
151.06201171875
155.6396484375
161.1328125
166.6259765625
172.119140625
174.86572265625
186.767578125
188.5986328125
198.66943359375
199.5849609375
210.5712890625
215.14892578125
219.7265625
222.47314453125
227.05078125
239.8681640625
247.1923828125
251.77001953125
256.34765625
263.671875
276.4892578125
276.4892578125
291.1376953125
298.4619140625
303.955078125
309.4482421875
315.85693359375
323.18115234375
332.33642578125
336.9140625
341.49169921875
346.98486328125
350.64697265625
362.548828125
369.873046875
371.7041015625
370.78857421875
375.3662109375
377.197265625
383.60595703125
386.3525390625
387.26806640625
389.09912109375
382.6904296875
384.521484375
381.77490234375
376.28173828125
371.7041015625
371.7041015625
357.97119140625
345.15380859375
348.81591796875
342.4072265625
322.265625
310.36376953125
303.955078125
284.72900390625
266.41845703125
243.5302734375
230.712890625
220.64208984375
204.16259765625
192.2607421875
172.119140625
154.72412109375
142.822265625
124.51171875
112.60986328125
99.79248046875
83.31298828125
77.81982421875
67.7490234375
59.50927734375
52.18505859375
40.283203125
27.4658203125
11.90185546875
8.23974609375
8.23974609375
2.74658203125
-6.40869140625
-11.90185546875
-12.8173828125
-13.73291015625
-15.56396484375
-21.97265625
-17.39501953125
-17.39501953125
-25.634765625
-30.21240234375
-28.38134765625
-32.04345703125
-30.21240234375
-33.87451171875
-34.7900390625
-30.21240234375
-35.70556640625
-39.36767578125
-46.69189453125
-44.86083984375
-40.283203125
-39.36767578125
-32.958984375
-32.958984375
-32.04345703125
-33.87451171875
-36.62109375
-38.4521484375
-41.19873046875
-34.7900390625
-35.70556640625
-33.87451171875
-36.62109375
-33.87451171875
-34.7900390625
-36.62109375
-32.04345703125
-31.1279296875
-33.87451171875
-23.8037109375
-14.6484375
-14.6484375
-14.6484375
-25.634765625
-21.97265625
-16.4794921875
-11.90185546875
-15.56396484375
-8.23974609375
-16.4794921875
-19.22607421875
-12.8173828125
-12.8173828125
-13.73291015625
-7.32421875
-4.57763671875
-9.1552734375
-8.23974609375
-8.23974609375
-0.91552734375
3.662109375
3.662109375
0.91552734375
0.91552734375
3.662109375
-1.8310546875
-1.8310546875
6.40869140625
0.91552734375
-2.74658203125
5.4931640625
10.986328125
7.32421875
6.40869140625
5.4931640625
-3.662109375
-10.986328125
-3.662109375
-4.57763671875
-10.986328125
-6.40869140625
-2.74658203125
0.91552734375
-5.4931640625
-5.4931640625
-7.32421875
-7.32421875
-12.8173828125
-8.23974609375
-5.4931640625
-7.32421875
-10.07080078125
-14.6484375
-6.40869140625
-13.73291015625
-17.39501953125
-14.6484375
-16.4794921875
-15.56396484375
-12.8173828125
-6.40869140625
-16.4794921875
-17.39501953125
-19.22607421875
-13.73291015625
-17.39501953125
-12.8173828125
-16.4794921875
-21.97265625
-18.310546875
-12.8173828125
-18.310546875
-23.8037109375
-32.04345703125
-27.4658203125
-24.71923828125
-19.22607421875
-27.4658203125
-21.97265625
-23.8037109375
-28.38134765625
-26.55029296875
-25.634765625
-29.296875
-34.7900390625
-27.4658203125
-24.71923828125
-27.4658203125
-32.958984375
-33.87451171875
-25.634765625
-27.4658203125
-29.296875
-29.296875
-34.7900390625
-36.62109375
-43.02978515625
-35.70556640625
-37.53662109375
-38.4521484375
-36.62109375
-39.36767578125
-31.1279296875
-39.36767578125
-40.283203125
-40.283203125
-38.4521484375
-43.02978515625
-50.35400390625
-46.69189453125
-37.53662109375
-36.62109375
-36.62109375
-43.02978515625
-43.9453125
-44.86083984375
-48.52294921875
-46.69189453125
-43.02978515625
-45.7763671875
-37.53662109375
-43.9453125
-42.1142578125
-41.19873046875
-44.86083984375
-44.86083984375
-43.02978515625
-43.9453125
-40.283203125
-45.7763671875
-45.7763671875
-43.9453125
-38.4521484375
-43.02978515625
-37.53662109375
-42.1142578125
-43.02978515625
-43.9453125
-39.36767578125
-45.7763671875
-51.26953125
-46.69189453125
-40.283203125
-43.02978515625
-45.7763671875
-43.9453125
-43.9453125
-41.19873046875
-45.7763671875
-46.69189453125
-41.19873046875
-36.62109375
-38.4521484375
-40.283203125
-49.4384765625
-43.9453125
-37.53662109375
-38.4521484375
-42.1142578125
-39.36767578125
-42.1142578125
-37.53662109375
-25.634765625
-32.958984375
-45.7763671875
-52.18505859375
-47.607421875
-37.53662109375
-41.19873046875
-38.4521484375
-36.62109375
-45.7763671875
-43.02978515625
-44.86083984375
-45.7763671875
-48.52294921875
-43.9453125
-38.4521484375
-40.283203125
-44.86083984375
-41.19873046875
-33.87451171875
-41.19873046875
-37.53662109375
-32.04345703125
-29.296875
-46.69189453125
-45.7763671875
-41.19873046875
-42.1142578125
-48.52294921875
-47.607421875
-38.4521484375
-42.1142578125
-43.9453125
-40.283203125
-45.7763671875
-43.02978515625
-51.26953125
-48.52294921875
-34.7900390625
-33.87451171875
-33.87451171875
-29.296875
-46.69189453125
-38.4521484375
-42.1142578125
-37.53662109375
-32.958984375
-32.958984375
-29.296875
-31.1279296875
-29.296875
-33.87451171875
-34.7900390625
-36.62109375
-35.70556640625
-33.87451171875
-34.7900390625
-43.02978515625
-32.04345703125
-32.04345703125
-33.87451171875
-40.283203125
-38.4521484375
-32.958984375
-34.7900390625
-32.958984375
-35.70556640625
-38.4521484375
-42.1142578125
-26.55029296875
-23.8037109375
-20.1416015625
-21.97265625
-23.8037109375
-20.1416015625
-18.310546875
-15.56396484375
-26.55029296875
-20.1416015625
-11.90185546875
-17.39501953125
-28.38134765625
-26.55029296875
-20.1416015625
-15.56396484375
-18.310546875
-0.91552734375
0
3.662109375
2.74658203125
10.07080078125
5.4931640625
-1.8310546875
0
3.662109375
9.1552734375
-0.91552734375
0
6.40869140625
3.662109375
7.32421875
9.1552734375
-2.74658203125
-7.32421875
-18.310546875
-20.1416015625
-21.05712890625
-36.62109375
-46.69189453125
-48.52294921875
-37.53662109375
-33.87451171875
-34.7900390625
-41.19873046875
-43.02978515625
-36.62109375
-43.02978515625
-48.52294921875
-43.9453125
-46.69189453125
-43.02978515625
-40.283203125
-43.02978515625
-42.1142578125
-42.1142578125
-41.19873046875
-48.52294921875
-46.69189453125
-40.283203125
-41.19873046875
-43.02978515625
-46.69189453125
-41.19873046875
-39.36767578125
-43.9453125
-54.931640625
-67.7490234375
-75.0732421875
-79.65087890625
-70.49560546875
-49.4384765625
-7.32421875
39.36767578125
84.228515625
177.6123046875
302.1240234375
433.04443359375
568.54248046875
726.9287109375
876.15966796875
991.51611328125
1089.4775390625
1158.14208984375
1183.77685546875
1189.27001953125
1117.85888671875
867.00439453125
558.4716796875
303.03955078125
102.5390625
-20.1416015625
-88.80615234375
-130.0048828125
-157.470703125
-169.37255859375
-167.54150390625
-133.6669921875
-79.65087890625
-43.9453125
-25.634765625
-6.40869140625
15.56396484375
30.21240234375
34.7900390625
43.02978515625
43.9453125
40.283203125
39.36767578125
47.607421875
59.50927734375
59.50927734375
62.255859375
65.91796875
64.0869140625
62.255859375
62.255859375
57.67822265625
58.59375
62.255859375
60.4248046875
63.17138671875
73.2421875
70.49560546875
73.2421875
66.83349609375
75.0732421875
69.580078125
66.83349609375
72.32666015625
86.97509765625
89.7216796875
84.228515625
86.97509765625
93.3837890625
93.3837890625
96.13037109375
95.21484375
101.62353515625
102.5390625
108.0322265625
105.28564453125
103.45458984375
108.0322265625
117.1875
122.6806640625
124.51171875
124.51171875
120.849609375
128.173828125
134.58251953125
135.498046875
133.6669921875
137.3291015625
145.56884765625
146.484375
151.9775390625
156.55517578125
156.55517578125
155.6396484375
155.6396484375
172.119140625
176.69677734375
177.6123046875
183.10546875
185.85205078125
194.091796875
204.16259765625
195.9228515625
204.16259765625
206.9091796875
221.5576171875
229.79736328125
236.2060546875
233.45947265625
238.037109375
246.27685546875
249.0234375
259.09423828125
270.99609375
280.1513671875
284.72900390625
291.1376953125
296.630859375
300.29296875
307.6171875
322.265625
327.7587890625
334.16748046875
340.576171875
348.81591796875
360.7177734375
359.80224609375
355.224609375
366.2109375
368.95751953125
368.95751953125
371.7041015625
379.0283203125
380.859375
387.26806640625
385.43701171875
382.6904296875
390.93017578125
386.3525390625
370.78857421875
356.14013671875
355.224609375
363.46435546875
352.47802734375
338.7451171875
334.16748046875
325.01220703125
313.1103515625
299.37744140625
271.91162109375
261.8408203125
254.5166015625
236.2060546875
217.8955078125
210.5712890625
189.51416015625
171.20361328125
161.1328125
147.39990234375
130.0048828125
116.27197265625
102.5390625
89.7216796875
83.31298828125
67.7490234375
61.34033203125
59.50927734375
43.02978515625
30.21240234375
26.55029296875
12.8173828125
4.57763671875
3.662109375
-3.662109375
-3.662109375
-7.32421875
-10.07080078125
-10.07080078125
-21.97265625
-32.958984375
-22.88818359375
-27.4658203125
-27.4658203125
-29.296875
-37.53662109375
-47.607421875
-52.18505859375
-47.607421875
-47.607421875
-48.52294921875
-56.7626953125
-57.67822265625
-63.17138671875
-55.84716796875
-51.26953125
-54.931640625
-56.7626953125
-54.931640625
-59.50927734375
-54.931640625
-60.4248046875
-53.1005859375
-47.607421875
-46.69189453125
-52.18505859375
-51.26953125
-61.34033203125
-57.67822265625
-47.607421875
-43.02978515625
-52.18505859375
-58.59375
-53.1005859375
-44.86083984375
-34.7900390625
-34.7900390625
-36.62109375
-35.70556640625
-35.70556640625
-33.87451171875
-36.62109375
-39.36767578125
-27.4658203125
-19.22607421875
-16.4794921875
-15.56396484375
-21.05712890625
-15.56396484375
-19.22607421875
-18.310546875
-18.310546875
-23.8037109375
-18.310546875
-7.32421875
-8.23974609375
-6.40869140625
-13.73291015625
-10.07080078125
-4.57763671875
-6.40869140625
-9.1552734375
-4.57763671875
-7.32421875
1.8310546875
-1.8310546875
-6.40869140625
-3.662109375
-2.74658203125
-8.23974609375
-13.73291015625
-14.6484375
-10.07080078125
-9.1552734375
-10.986328125
-11.90185546875
-9.1552734375
-9.1552734375
-7.32421875
-9.1552734375
-17.39501953125
-18.310546875
-15.56396484375
-10.07080078125
-10.986328125
-14.6484375
-18.310546875
-19.22607421875
-21.97265625
-13.73291015625
-21.05712890625
-19.22607421875
-20.1416015625
-15.56396484375
-17.39501953125
-20.1416015625
-15.56396484375
-18.310546875
-16.4794921875
-17.39501953125
-27.4658203125
-26.55029296875
-32.958984375
-30.21240234375
-34.7900390625
-32.04345703125
-37.53662109375
-32.04345703125
-30.21240234375
-22.88818359375
-26.55029296875
-26.55029296875
-27.4658203125
-28.38134765625
-37.53662109375
-33.87451171875
-23.8037109375
-24.71923828125
-26.55029296875
-36.62109375
-38.4521484375
-30.21240234375
-31.1279296875
-30.21240234375
-27.4658203125
-37.53662109375
-39.36767578125
-36.62109375
-39.36767578125
-42.1142578125
-41.19873046875
-42.1142578125
-43.02978515625
-42.1142578125
-39.36767578125
-40.283203125
-32.958984375
-37.53662109375
-41.19873046875
-40.283203125
-41.19873046875
-47.607421875
-38.4521484375
-39.36767578125
-40.283203125
-40.283203125
-38.4521484375
-35.70556640625
-40.283203125
-48.52294921875
-44.86083984375
-48.52294921875
-50.35400390625
-41.19873046875
-41.19873046875
-38.4521484375
-45.7763671875
-49.4384765625
-48.52294921875
-43.9453125
-37.53662109375
-43.9453125
-45.7763671875
-52.18505859375
-52.18505859375
-41.19873046875
-43.02978515625
-44.86083984375
-39.36767578125
-40.283203125
-43.02978515625
-44.86083984375
-43.9453125
-40.283203125
-43.02978515625
-44.86083984375
-47.607421875
-46.69189453125
-39.36767578125
-40.283203125
-43.9453125
-47.607421875
-54.931640625
-43.02978515625
-38.4521484375
-43.9453125
-39.36767578125
-35.70556640625
-41.19873046875
-50.35400390625
-44.86083984375
-43.9453125
-49.4384765625
-43.9453125
-44.86083984375
-38.4521484375
-39.36767578125
-41.19873046875
-48.52294921875
-57.67822265625
-54.01611328125
-41.19873046875
-46.69189453125
-50.35400390625
-50.35400390625
-39.36767578125
-36.62109375
-43.02978515625
-38.4521484375
-46.69189453125
-44.86083984375
-47.607421875
-48.52294921875
-50.35400390625
-41.19873046875
-34.7900390625
-41.19873046875
-50.35400390625
-47.607421875
-53.1005859375
-43.9453125
-34.7900390625
-42.1142578125
-40.283203125
-42.1142578125
-44.86083984375
-39.36767578125
-41.19873046875
-42.1142578125
-42.1142578125
-43.02978515625
-36.62109375
-32.958984375
-35.70556640625
-28.38134765625
-26.55029296875
-24.71923828125
-25.634765625
-26.55029296875
-16.4794921875
-23.8037109375
-27.4658203125
-28.38134765625
-32.958984375
-19.22607421875
-21.97265625
-10.986328125
-5.4931640625
-7.32421875
1.8310546875
9.1552734375
0
-9.1552734375
-6.40869140625
-1.8310546875
-3.662109375
-3.662109375
-3.662109375
-10.07080078125
-14.6484375
-14.6484375
-21.05712890625
-27.4658203125
-27.4658203125
-33.87451171875
-42.1142578125
-45.7763671875
-54.931640625
-54.01611328125
-57.67822265625
-64.0869140625
-55.84716796875
-56.7626953125
-55.84716796875
-54.931640625
-48.52294921875
-53.1005859375
-59.50927734375
-62.255859375
-56.7626953125
-49.4384765625
-61.34033203125
-68.66455078125
-63.17138671875
-51.26953125
-52.18505859375
-53.1005859375
-53.1005859375
-51.26953125
-59.50927734375
-62.255859375
-56.7626953125
-56.7626953125
-52.18505859375
-48.52294921875
-67.7490234375
-79.65087890625
-85.14404296875
-86.97509765625
-83.31298828125
-61.34033203125
-20.1416015625
19.22607421875
81.48193359375
170.2880859375
303.03955078125
432.12890625
553.89404296875
713.19580078125
861.51123046875
967.71240234375
1056.5185546875
1119.68994140625
1139.83154296875
1133.4228515625
1040.0390625
786.43798828125
492.5537109375
248.10791015625
62.255859375
-49.4384765625
-109.86328125
-155.6396484375
-185.85205078125
-197.75390625
-181.2744140625
-155.6396484375
-112.60986328125
-71.4111328125
-40.283203125
-23.8037109375
-6.40869140625
7.32421875
16.4794921875
21.05712890625
32.04345703125
32.958984375
32.04345703125
33.87451171875
43.9453125
42.1142578125
36.62109375
33.87451171875
32.04345703125
30.21240234375
43.02978515625
42.1142578125
37.53662109375
46.69189453125
42.1142578125
49.4384765625
47.607421875
48.52294921875
52.18505859375
59.50927734375
66.83349609375
59.50927734375
54.931640625
61.34033203125
65.91796875
73.2421875
73.2421875
65.00244140625
75.0732421875
73.2421875
81.48193359375
77.81982421875
76.904296875
81.48193359375
85.14404296875
92.46826171875
91.552734375
89.7216796875
100.7080078125
102.5390625
107.11669921875
107.11669921875
104.3701171875
104.3701171875
110.77880859375
121.76513671875
123.59619140625
125.42724609375
121.76513671875
126.3427734375
133.6669921875
140.9912109375
140.9912109375
140.07568359375
140.9912109375
149.23095703125
148.3154296875
155.6396484375
165.71044921875
173.9501953125
174.86572265625
183.10546875
190.4296875
194.091796875
203.2470703125
207.82470703125
213.31787109375
219.7265625
219.7265625
222.47314453125
239.8681640625
245.361328125
244.44580078125
256.34765625
261.8408203125
267.333984375
278.3203125
287.4755859375
295.71533203125
299.37744140625
307.6171875
316.7724609375
323.18115234375
329.58984375
335.0830078125
336.9140625
348.81591796875
357.0556640625
357.0556640625
365.29541015625
368.95751953125
373.53515625
377.197265625
371.7041015625
370.78857421875
367.12646484375
374.45068359375
374.45068359375
369.873046875
364.3798828125
357.0556640625
351.5625
346.0693359375
334.16748046875
325.01220703125
317.68798828125
301.20849609375
292.96875
275.57373046875
266.41845703125
253.60107421875
237.12158203125
222.47314453125
204.16259765625
183.10546875
173.9501953125
155.6396484375
135.498046875
126.3427734375
110.77880859375
107.11669921875
85.14404296875
65.91796875
58.59375
51.26953125
36.62109375
26.55029296875
14.6484375
8.23974609375
4.57763671875
2.74658203125
0.91552734375
-14.6484375
-17.39501953125
-18.310546875
-28.38134765625
-30.21240234375
-31.1279296875
-31.1279296875
-32.958984375
-32.04345703125
-40.283203125
-45.7763671875
-48.52294921875
-48.52294921875
-52.18505859375
-55.84716796875
-55.84716796875
-48.52294921875
-55.84716796875
-58.59375
-57.67822265625
-61.34033203125
-58.59375
-63.17138671875
-60.4248046875
-59.50927734375
-53.1005859375
-54.01611328125
-46.69189453125
-46.69189453125
-53.1005859375
-56.7626953125
-59.50927734375
-54.931640625
-52.18505859375
-54.01611328125
-59.50927734375
-54.01611328125
-49.4384765625
-47.607421875
-51.26953125
-50.35400390625
-46.69189453125
-44.86083984375
-48.52294921875
-46.69189453125
-43.9453125
-41.19873046875
-34.7900390625
-32.958984375
-35.70556640625
-33.87451171875
-30.21240234375
-25.634765625
-30.21240234375
-31.1279296875
-32.04345703125
-41.19873046875
-33.87451171875
-28.38134765625
-22.88818359375
-21.97265625
-22.88818359375
-20.1416015625
-23.8037109375
-21.05712890625
-20.1416015625
-19.22607421875
-21.05712890625
-19.22607421875
-18.310546875
-22.88818359375
-24.71923828125
-20.1416015625
-19.22607421875
-15.56396484375
-17.39501953125
-16.4794921875
-14.6484375
-13.73291015625
-12.8173828125
-20.1416015625
-30.21240234375
-26.55029296875
-20.1416015625
-25.634765625
-29.296875
-29.296875
-23.8037109375
-21.05712890625
-19.22607421875
-26.55029296875
-25.634765625
-32.958984375
-30.21240234375
-30.21240234375
-32.04345703125
-32.958984375
-27.4658203125
-22.88818359375
-24.71923828125
-33.87451171875
-37.53662109375
-40.283203125
-36.62109375
-33.87451171875
-29.296875
-25.634765625
-28.38134765625
-40.283203125
-32.04345703125
-32.04345703125
-33.87451171875
-38.4521484375
-32.958984375
-32.04345703125
-31.1279296875
-31.1279296875
-39.36767578125
-45.7763671875
-45.7763671875
-39.36767578125
-34.7900390625
-41.19873046875
-39.36767578125
-39.36767578125
-48.52294921875
-50.35400390625
-50.35400390625
-43.9453125
-39.36767578125
-36.62109375
-40.283203125
-38.4521484375
-44.86083984375
-50.35400390625
-42.1142578125
-49.4384765625
-50.35400390625
-45.7763671875
-45.7763671875
-47.607421875
-49.4384765625
-46.69189453125
-45.7763671875
-47.607421875
-44.86083984375
-43.02978515625
-45.7763671875
-46.69189453125
-47.607421875
-44.86083984375
-43.02978515625
-43.02978515625
-38.4521484375
-44.86083984375
-45.7763671875
-40.283203125
-40.283203125
-38.4521484375
-38.4521484375
-43.9453125
-45.7763671875
-43.02978515625
-44.86083984375
-49.4384765625
-43.9453125
-42.1142578125
-42.1142578125
-44.86083984375
-41.19873046875
-42.1142578125
-51.26953125
-46.69189453125
-43.9453125
-46.69189453125
-48.52294921875
-53.1005859375
-49.4384765625
-47.607421875
-44.86083984375
-48.52294921875
-46.69189453125
-48.52294921875
-43.9453125
-51.26953125
-49.4384765625
-40.283203125
-43.9453125
-44.86083984375
-43.02978515625
-46.69189453125
-54.931640625
-48.52294921875
-47.607421875
-46.69189453125
-40.283203125
-38.4521484375
-34.7900390625
-38.4521484375
-39.36767578125
-33.87451171875
-42.1142578125
-44.86083984375
-49.4384765625
-55.84716796875
-48.52294921875
-49.4384765625
-41.19873046875
-42.1142578125
-50.35400390625
-49.4384765625
-51.26953125
-49.4384765625
-43.02978515625
-43.02978515625
-42.1142578125
-38.4521484375
-42.1142578125
-41.19873046875
-42.1142578125
-49.4384765625
-44.86083984375
-51.26953125
-43.02978515625
-47.607421875
-49.4384765625
-50.35400390625
-43.02978515625
-40.283203125
-51.26953125
-50.35400390625
-45.7763671875
-47.607421875
-43.9453125
-43.02978515625
-40.283203125
-35.70556640625
-38.4521484375
-40.283203125
-36.62109375
-24.71923828125
-24.71923828125
-29.296875
-27.4658203125
-24.71923828125
-21.05712890625
-18.310546875
-10.986328125
-10.07080078125
-12.8173828125
-19.22607421875
-26.55029296875
-25.634765625
-33.87451171875
-34.7900390625
-27.4658203125
-15.56396484375
-2.74658203125
4.57763671875
-1.8310546875
0
2.74658203125
2.74658203125
0
-0.91552734375
5.4931640625
0.91552734375
1.8310546875
0.91552734375
-5.4931640625
-8.23974609375
-15.56396484375
-21.97265625
-21.05712890625
-19.22607421875
-28.38134765625
-29.296875
-37.53662109375
-50.35400390625
-57.67822265625
-60.4248046875
-61.34033203125
-53.1005859375
-53.1005859375
-51.26953125
-56.7626953125
-54.01611328125
-53.1005859375
-57.67822265625
-62.255859375
-55.84716796875
-59.50927734375
-56.7626953125
-56.7626953125
-64.0869140625
-63.17138671875
-61.34033203125
-53.1005859375
-44.86083984375
-49.4384765625
-48.52294921875
-54.931640625
-56.7626953125
-54.931640625
-56.7626953125
-64.0869140625
-69.580078125
-69.580078125
-77.81982421875
-86.0595703125
-84.228515625
-61.34033203125
-20.1416015625
30.21240234375
99.79248046875
193.17626953125
327.7587890625
464.17236328125
613.4033203125
768.12744140625
919.189453125
1012.5732421875
1101.37939453125
1159.97314453125
1181.0302734375
1171.875
1047.36328125
758.056640625
469.66552734375
228.8818359375
46.69189453125
-75.98876953125
-130.0048828125
-175.78125
-183.10546875
-187.68310546875
-173.03466796875
-127.25830078125
-71.4111328125
-42.1142578125
-31.1279296875
-17.39501953125
6.40869140625
21.05712890625
18.310546875
23.8037109375
28.38134765625
37.53662109375
38.4521484375
40.283203125
37.53662109375
37.53662109375
41.19873046875
35.70556640625
32.958984375
45.7763671875
49.4384765625
44.86083984375
45.7763671875
43.02978515625
43.02978515625
42.1142578125
53.1005859375
47.607421875
45.7763671875
46.69189453125
55.84716796875
59.50927734375
65.91796875
65.00244140625
71.4111328125
72.32666015625
69.580078125
66.83349609375
73.2421875
80.56640625
82.3974609375
86.97509765625
79.65087890625
81.48193359375
84.228515625
87.890625
87.890625
95.21484375
94.29931640625
95.21484375
104.3701171875
102.5390625
110.77880859375
112.60986328125
115.3564453125
114.44091796875
118.10302734375
130.92041015625
130.92041015625
131.8359375
135.498046875
138.24462890625
142.822265625
141.90673828125
146.484375
149.23095703125
153.80859375
162.9638671875
169.37255859375
173.9501953125
179.443359375
182.18994140625
190.4296875
199.5849609375
205.078125
212.40234375
216.064453125
220.64208984375
220.64208984375
224.30419921875
237.12158203125
248.10791015625
254.5166015625
263.671875
271.91162109375
276.4892578125
278.3203125
280.1513671875
286.56005859375
303.03955078125
311.279296875
314.94140625
325.01220703125
333.251953125
337.82958984375
351.5625
358.88671875
357.0556640625
365.29541015625
362.548828125
368.0419921875
377.197265625
376.28173828125
369.873046875
373.53515625
377.197265625
377.197265625
377.197265625
366.2109375
364.3798828125
367.12646484375
358.88671875
352.47802734375
343.32275390625
333.251953125
318.603515625
309.4482421875
288.39111328125
276.4892578125
270.99609375
254.5166015625
239.8681640625
222.47314453125
217.8955078125
198.66943359375
179.443359375
159.3017578125
141.90673828125
128.173828125
119.0185546875
105.28564453125
101.62353515625
89.7216796875
75.0732421875
63.17138671875
51.26953125
53.1005859375
43.02978515625
33.87451171875
23.8037109375
10.986328125
6.40869140625
7.32421875
4.57763671875
-5.4931640625
-13.73291015625
-15.56396484375
-20.1416015625
-15.56396484375
-17.39501953125
-23.8037109375
-24.71923828125
-21.05712890625
-17.39501953125
-24.71923828125
-30.21240234375
-38.4521484375
-39.36767578125
-33.87451171875
-36.62109375
-32.958984375
-36.62109375
-40.283203125
-38.4521484375
-36.62109375
-34.7900390625
-36.62109375
-42.1142578125
-52.18505859375
-36.62109375
-28.38134765625
-33.87451171875
-24.71923828125
-22.88818359375
-35.70556640625
-38.4521484375
-33.87451171875
-33.87451171875
-37.53662109375
-32.958984375
-21.05712890625
-14.6484375
-14.6484375
-20.1416015625
-29.296875
-33.87451171875
-27.4658203125
-25.634765625
-15.56396484375
-10.07080078125
-17.39501953125
-17.39501953125
-18.310546875
-8.23974609375
-10.07080078125
-14.6484375
-14.6484375
-8.23974609375
0
-13.73291015625
-4.57763671875
-1.8310546875
0
-4.57763671875
10.986328125
11.90185546875
5.4931640625
3.662109375
-6.40869140625
-12.8173828125
-1.8310546875
-4.57763671875
5.4931640625
18.310546875
9.1552734375
4.57763671875
0.91552734375
-3.662109375
-9.1552734375
3.662109375
5.4931640625
1.8310546875
4.57763671875
10.07080078125
5.4931640625
0.91552734375
-5.4931640625
-4.57763671875
-8.23974609375
-9.1552734375
-3.662109375
0.91552734375
-3.662109375
-7.32421875
-7.32421875
-11.90185546875
-13.73291015625
-10.07080078125
-10.07080078125
-17.39501953125
-15.56396484375
-20.1416015625
-12.8173828125
-7.32421875
-25.634765625
-25.634765625
-13.73291015625
-21.05712890625
-22.88818359375
-24.71923828125
-18.310546875
-14.6484375
-21.05712890625
-24.71923828125
-25.634765625
-27.4658203125
-31.1279296875
-24.71923828125
-28.38134765625
-27.4658203125
-23.8037109375
-25.634765625
-18.310546875
-14.6484375
-19.22607421875
-23.8037109375
-21.97265625
-17.39501953125
-25.634765625
-31.1279296875
-20.1416015625
-13.73291015625
-27.4658203125
-37.53662109375
-30.21240234375
-26.55029296875
-30.21240234375
-29.296875
-24.71923828125
-24.71923828125
-21.97265625
-19.22607421875
-13.73291015625
-21.05712890625
-31.1279296875
-35.70556640625
-32.04345703125
-26.55029296875
-34.7900390625
-30.21240234375
-33.87451171875
-32.04345703125
-25.634765625
-30.21240234375
-34.7900390625
-46.69189453125
-48.52294921875
-35.70556640625
-27.4658203125
-32.958984375
-27.4658203125
-21.97265625
-23.8037109375
-20.1416015625
-26.55029296875
-28.38134765625
-30.21240234375
-30.21240234375
-30.21240234375
-31.1279296875
-31.1279296875
-37.53662109375
-39.36767578125
-33.87451171875
-32.958984375
-30.21240234375
-43.02978515625
-37.53662109375
-36.62109375
-35.70556640625
-35.70556640625
-26.55029296875
-26.55029296875
-29.296875
-32.04345703125
-28.38134765625
-33.87451171875
-45.7763671875
-36.62109375
-32.04345703125
-30.21240234375
-32.958984375
-27.4658203125
-37.53662109375
-42.1142578125
-41.19873046875
-43.02978515625
-34.7900390625
-42.1142578125
-49.4384765625
-42.1142578125
-30.21240234375
-20.1416015625
-24.71923828125
-32.958984375
-33.87451171875
-34.7900390625
-35.70556640625
-31.1279296875
-31.1279296875
-36.62109375
-37.53662109375
-29.296875
-25.634765625
-26.55029296875
-27.4658203125
-34.7900390625
-34.7900390625
-31.1279296875
-30.21240234375
-21.05712890625
-25.634765625
-25.634765625
-28.38134765625
-32.04345703125
-37.53662109375
-30.21240234375
-31.1279296875
-32.04345703125
-36.62109375
-35.70556640625
-30.21240234375
-34.7900390625
-31.1279296875
-32.958984375
-30.21240234375
-32.958984375
-32.958984375
-30.21240234375
-27.4658203125
-33.87451171875
-29.296875
-19.22607421875
-26.55029296875
-27.4658203125
-23.8037109375
-27.4658203125
-21.05712890625
-16.4794921875
-9.1552734375
-9.1552734375
-6.40869140625
-7.32421875
-9.1552734375
-2.74658203125
-0.91552734375
-3.662109375
-8.23974609375
-12.8173828125
-6.40869140625
-9.1552734375
-5.4931640625
11.90185546875
17.39501953125
3.662109375
15.56396484375
17.39501953125
27.4658203125
17.39501953125
13.73291015625
21.05712890625
18.310546875
13.73291015625
-3.662109375
-2.74658203125
4.57763671875
5.4931640625
-1.8310546875
-2.74658203125
-8.23974609375
-8.23974609375
-1.8310546875
-17.39501953125
-41.19873046875
-45.7763671875
-43.9453125
-47.607421875
-49.4384765625
-50.35400390625
-44.86083984375
-40.283203125
-32.04345703125
-32.04345703125
-41.19873046875
-43.9453125
-47.607421875
-41.19873046875
-43.02978515625
-43.9453125
-48.52294921875
-43.9453125
-40.283203125
-43.9453125
-39.36767578125
-49.4384765625
-47.607421875
-52.18505859375
-49.4384765625
-49.4384765625
-55.84716796875
-55.84716796875
-62.255859375
-65.91796875
-73.2421875
-84.228515625
-105.28564453125
-77.81982421875
-32.04345703125
4.57763671875
62.255859375
140.07568359375
262.75634765625
393.6767578125
519.10400390625
662.841796875
829.4677734375
950.3173828125
1038.2080078125
1119.68994140625
1156.31103515625
1159.97314453125
1115.1123046875
896.30126953125
593.26171875
323.18115234375
107.11669921875
-32.04345703125
-109.86328125
-152.89306640625
-188.5986328125
-200.50048828125
-191.34521484375
-165.71044921875
-120.849609375
-80.56640625
-57.67822265625
-37.53662109375
-18.310546875
4.57763671875
12.8173828125
19.22607421875
21.97265625
27.4658203125
30.21240234375
32.958984375
35.70556640625
34.7900390625
34.7900390625
36.62109375
32.958984375
40.283203125
43.02978515625
39.36767578125
34.7900390625
34.7900390625
38.4521484375
41.19873046875
41.19873046875
43.9453125
48.52294921875
48.52294921875
52.18505859375
54.931640625
47.607421875
54.931640625
64.0869140625
68.66455078125
64.0869140625
63.17138671875
68.66455078125
74.15771484375
72.32666015625
77.81982421875
69.580078125
68.66455078125
74.15771484375
85.14404296875
92.46826171875
93.3837890625
96.13037109375
88.80615234375
97.96142578125
94.29931640625
96.13037109375
103.45458984375
106.201171875
108.94775390625
110.77880859375
104.3701171875
108.94775390625
124.51171875
129.08935546875
129.08935546875
130.92041015625
130.92041015625
133.6669921875
143.73779296875
139.16015625
157.470703125
161.1328125
161.1328125
165.71044921875
172.119140625
184.9365234375
185.85205078125
185.85205078125
195.9228515625
203.2470703125
215.14892578125
214.2333984375
215.14892578125
229.79736328125
245.361328125
256.34765625
248.10791015625
252.685546875
263.671875
258.1787109375
271.91162109375
284.72900390625
300.29296875
307.6171875
311.279296875
317.68798828125
316.7724609375
325.01220703125
336.9140625
342.4072265625
339.66064453125
355.224609375
354.30908203125
359.80224609375
362.548828125
359.80224609375
355.224609375
357.97119140625
354.30908203125
359.80224609375
357.0556640625
351.5625
357.97119140625
357.0556640625
346.98486328125
341.49169921875
330.50537109375
316.7724609375
319.51904296875
308.53271484375
298.4619140625
284.72900390625
276.4892578125
259.09423828125
251.77001953125
222.47314453125
207.82470703125
195.9228515625
177.6123046875
163.87939453125
151.9775390625
140.07568359375
128.173828125
108.94775390625
94.29931640625
86.0595703125
72.32666015625
64.0869140625
48.52294921875
29.296875
24.71923828125
23.8037109375
16.4794921875
0.91552734375
-8.23974609375
-5.4931640625
-8.23974609375
-24.71923828125
-30.21240234375
-30.21240234375
-30.21240234375
-41.19873046875
-46.69189453125
-46.69189453125
-46.69189453125
-43.02978515625
-45.7763671875
-52.18505859375
-45.7763671875
-44.86083984375
-57.67822265625
-57.67822265625
-51.26953125
-60.4248046875
-72.32666015625
-50.35400390625
-41.19873046875
-45.7763671875
-50.35400390625
-54.931640625
-59.50927734375
-65.91796875
-55.84716796875
-53.1005859375
-49.4384765625
-49.4384765625
-48.52294921875
-53.1005859375
-44.86083984375
-48.52294921875
-47.607421875
-33.87451171875
-38.4521484375
-35.70556640625
-44.86083984375
-39.36767578125
-44.86083984375
-34.7900390625
-27.4658203125
-25.634765625
-34.7900390625
-33.87451171875
-32.958984375
-32.958984375
-25.634765625
-22.88818359375
-26.55029296875
-25.634765625
-26.55029296875
-25.634765625
-22.88818359375
-39.36767578125
-40.283203125
-26.55029296875
-21.97265625
-27.4658203125
-30.21240234375
-43.9453125
-43.9453125
-59.50927734375
-52.18505859375
-30.21240234375
-16.4794921875
-24.71923828125
-28.38134765625
-36.62109375
-37.53662109375
-38.4521484375
-36.62109375
-35.70556640625
-32.958984375
-33.87451171875
-31.1279296875
-26.55029296875
-14.6484375
-7.32421875
-10.986328125
-21.05712890625
-17.39501953125
-29.296875
-24.71923828125
-15.56396484375
-16.4794921875
-15.56396484375
-12.8173828125
-15.56396484375
-26.55029296875
-29.296875
-27.4658203125
-29.296875
-26.55029296875
-32.958984375
-51.26953125
-51.26953125
-47.607421875
-50.35400390625
-43.9453125
-41.19873046875
-43.02978515625
-42.1142578125
-55.84716796875
-61.34033203125
-50.35400390625
-34.7900390625
-40.283203125
-43.9453125
-42.1142578125
-42.1142578125
-39.36767578125
-40.283203125
-44.86083984375
-36.62109375
-43.9453125
-36.62109375
-47.607421875
-46.69189453125
-43.02978515625
-49.4384765625
-45.7763671875
-40.283203125
-39.36767578125
-46.69189453125
-40.283203125
-35.70556640625
-45.7763671875
-48.52294921875
-45.7763671875
-48.52294921875
-55.84716796875
-49.4384765625
-57.67822265625
-58.59375
-55.84716796875
-58.59375
-54.01611328125
-48.52294921875
-48.52294921875
-39.36767578125
-43.9453125
-43.9453125
-39.36767578125
-47.607421875
-48.52294921875
-43.9453125
-52.18505859375
-51.26953125
-43.9453125
-47.607421875
-52.18505859375
-57.67822265625
-63.17138671875
-43.9453125
-44.86083984375
-48.52294921875
-51.26953125
-57.67822265625
-57.67822265625
-51.26953125
-56.7626953125
-54.931640625
-60.4248046875
-66.83349609375
-57.67822265625
-52.18505859375
-60.4248046875
-41.19873046875
-74.15771484375
-81.48193359375
-62.255859375
-44.86083984375
-57.67822265625
-74.15771484375
-71.4111328125
-70.49560546875
-65.00244140625
-56.7626953125
-68.66455078125
-68.66455078125
-54.01611328125
-59.50927734375
-57.67822265625
-54.931640625
-82.3974609375
-74.15771484375
-63.17138671875
-46.69189453125
-52.18505859375
-67.7490234375
-68.66455078125
-76.904296875
-79.65087890625
-76.904296875
-65.91796875
-55.84716796875
-49.4384765625
-49.4384765625
-44.86083984375
-53.1005859375
-58.59375
-48.52294921875
-47.607421875
-45.7763671875
-52.18505859375
-43.9453125
-44.86083984375
-47.607421875
-47.607421875
-45.7763671875
-41.19873046875
-44.86083984375
-60.4248046875
-59.50927734375
-47.607421875
-36.62109375
-34.7900390625
-50.35400390625
-71.4111328125
-72.32666015625
-53.1005859375
-35.70556640625
-21.97265625
-5.4931640625
11.90185546875
1.8310546875
-6.40869140625
2.74658203125
-9.1552734375
-27.4658203125
-38.4521484375
-33.87451171875
-47.607421875
-42.1142578125
-33.87451171875
-43.9453125
-48.52294921875
-73.2421875
-54.931640625
-61.34033203125
-76.904296875
-84.228515625
-91.552734375
-83.31298828125
-76.904296875
-75.98876953125
-77.81982421875
-74.15771484375
-76.904296875
-93.3837890625
-108.94775390625
-105.28564453125
-91.552734375
-96.13037109375
-91.552734375
-79.65087890625
-69.580078125
-66.83349609375
-88.80615234375
-101.62353515625
-94.29931640625
-85.14404296875
-81.48193359375
-94.29931640625
-93.3837890625
-89.7216796875
-96.13037109375
-86.97509765625
-81.48193359375
-78.7353515625
-78.7353515625
-100.7080078125
-113.525390625
-108.94775390625
-82.3974609375
-42.1142578125
10.07080078125
84.228515625
203.2470703125
345.15380859375
465.087890625
593.26171875
752.5634765625
881.65283203125
987.85400390625
1069.3359375
1105.95703125
1116.943359375
1074.8291015625
903.62548828125
621.64306640625
355.224609375
125.42724609375
-15.56396484375
-97.0458984375
-143.73779296875
-189.51416015625
-210.5712890625
-220.64208984375
-206.9091796875
-172.119140625
-136.41357421875
-112.60986328125
-69.580078125
-37.53662109375
-21.97265625
-9.1552734375
-11.90185546875
-5.4931640625
-3.662109375
0.91552734375
-1.8310546875
6.40869140625
14.6484375
12.8173828125
24.71923828125
28.38134765625
21.05712890625
21.05712890625
23.8037109375
30.21240234375
31.1279296875
21.97265625
21.97265625
32.04345703125
35.70556640625
38.4521484375
38.4521484375
41.19873046875
34.7900390625
40.283203125
47.607421875
40.283203125
44.86083984375
42.1142578125
40.283203125
45.7763671875
36.62109375
41.19873046875
55.84716796875
57.67822265625
60.4248046875
70.49560546875
77.81982421875
71.4111328125
74.15771484375
75.98876953125
72.32666015625
75.98876953125
75.98876953125
77.81982421875
76.904296875
78.7353515625
96.13037109375
92.46826171875
96.13037109375
93.3837890625
97.96142578125
98.876953125
109.86328125
114.44091796875
112.60986328125
122.6806640625
126.3427734375
136.41357421875
130.92041015625
135.498046875
139.16015625
146.484375
138.24462890625
148.3154296875
158.38623046875
169.37255859375
182.18994140625
178.52783203125
187.68310546875
197.75390625
210.5712890625
203.2470703125
206.9091796875
214.2333984375
226.13525390625
233.45947265625
238.95263671875
251.77001953125
258.1787109375
280.1513671875
277.40478515625
280.1513671875
295.71533203125
302.1240234375
295.71533203125
294.7998046875
303.955078125
309.4482421875
328.67431640625
333.251953125
330.50537109375
325.927734375
337.82958984375
343.32275390625
347.900390625
345.15380859375
344.23828125
342.4072265625
341.49169921875
346.98486328125
344.23828125
330.50537109375
331.4208984375
321.35009765625
305.7861328125
302.1240234375
301.20849609375
288.39111328125
272.8271484375
260.009765625
238.95263671875
224.30419921875
218.81103515625
198.66943359375
190.4296875
169.37255859375
147.39990234375
130.92041015625
114.44091796875
98.876953125
76.904296875
57.67822265625
60.4248046875
37.53662109375
18.310546875
20.1416015625
17.39501953125
13.73291015625
-10.986328125
-29.296875
-43.9453125
-52.18505859375
-35.70556640625
-47.607421875
-52.18505859375
-41.19873046875
-56.7626953125
-64.0869140625
-67.7490234375
-83.31298828125
-82.3974609375
-69.580078125
-67.7490234375
-77.81982421875
-69.580078125
-85.14404296875
-84.228515625
-69.580078125
-64.0869140625
-75.98876953125
-96.13037109375
-93.3837890625
-96.13037109375
-97.96142578125
-99.79248046875
-97.96142578125
-96.13037109375
-88.80615234375
-86.0595703125
-78.7353515625
-88.80615234375
-93.3837890625
-86.97509765625
-83.31298828125
-86.97509765625
-85.14404296875
-77.81982421875
-77.81982421875
-77.81982421875
-71.4111328125
-76.904296875
-83.31298828125
-84.228515625
-83.31298828125
-83.31298828125
-78.7353515625
-77.81982421875
-75.0732421875
-67.7490234375
-75.0732421875
-68.66455078125
-65.00244140625
-58.59375
-73.2421875
-77.81982421875
-70.49560546875
-83.31298828125
-76.904296875
-69.580078125
-71.4111328125
-67.7490234375
-56.7626953125
-48.52294921875
-44.86083984375
-40.283203125
-51.26953125
-53.1005859375
-55.84716796875
-54.01611328125
-69.580078125
-53.1005859375
-46.69189453125
-46.69189453125
-49.4384765625
-54.931640625
-57.67822265625
-46.69189453125
-56.7626953125
-56.7626953125
-58.59375
-49.4384765625
-46.69189453125
-49.4384765625
-50.35400390625
-59.50927734375
-51.26953125
-51.26953125
-55.84716796875
-54.01611328125
-57.67822265625
-49.4384765625
-44.86083984375
-54.01611328125
-52.18505859375
-53.1005859375
-57.67822265625
-61.34033203125
-57.67822265625
-58.59375
-56.7626953125
-52.18505859375
-59.50927734375
-67.7490234375
-65.91796875
-77.81982421875
-78.7353515625
-71.4111328125
-62.255859375
-64.0869140625
-67.7490234375
-62.255859375
-61.34033203125
-63.17138671875
-77.81982421875
-65.91796875
-65.91796875
-71.4111328125
-68.66455078125
-77.81982421875
-77.81982421875
-78.7353515625
-80.56640625
-82.3974609375
-75.0732421875
-73.2421875
-73.2421875
-68.66455078125
-70.49560546875
-77.81982421875
-75.98876953125
-75.98876953125
-80.56640625
-86.0595703125
-88.80615234375
-94.29931640625
-86.97509765625
-81.48193359375
-80.56640625
-82.3974609375
-83.31298828125
-86.97509765625
-86.97509765625
-82.3974609375
-86.97509765625
-80.56640625
-87.890625
-104.3701171875
-90.63720703125
-77.81982421875
-89.7216796875
-90.63720703125
-71.4111328125
-75.0732421875
-76.904296875
-90.63720703125
-87.890625
-83.31298828125
-79.65087890625
-80.56640625
-86.0595703125
-87.890625
-85.14404296875
-89.7216796875
-85.14404296875
-78.7353515625
-81.48193359375
-79.65087890625
-86.0595703125
-85.14404296875
-87.890625
-85.14404296875
-90.63720703125
-86.0595703125
-85.14404296875
-85.14404296875
-80.56640625
-80.56640625
-82.3974609375
-92.46826171875
-82.3974609375
-79.65087890625
-85.14404296875
-78.7353515625
-74.15771484375
-68.66455078125
-66.83349609375
-61.34033203125
-55.84716796875
-53.1005859375
-61.34033203125
-56.7626953125
-55.84716796875
-51.26953125
-58.59375
-61.34033203125
-57.67822265625
-50.35400390625
-42.1142578125
-39.36767578125
-37.53662109375
-37.53662109375
-40.283203125
-31.1279296875
-16.4794921875
-8.23974609375
-14.6484375
-17.39501953125
-16.4794921875
-18.310546875
-21.05712890625
-22.88818359375
-29.296875
-39.36767578125
-35.70556640625
-34.7900390625
-37.53662109375
-33.87451171875
-41.19873046875
-40.283203125
-59.50927734375
-60.4248046875
-71.4111328125
-80.56640625
-85.14404296875
-84.228515625
-77.81982421875
-87.890625
-92.46826171875
-86.97509765625
-95.21484375
-98.876953125
-99.79248046875
-99.79248046875
-96.13037109375
-95.21484375
-97.96142578125
-100.7080078125
-91.552734375
-83.31298828125
-87.890625
-96.13037109375
-94.29931640625
-98.876953125
-104.3701171875
-114.44091796875
-113.525390625
-104.3701171875
-92.46826171875
-80.56640625
-98.876953125
-103.45458984375
-89.7216796875
-75.0732421875
-102.5390625
-111.6943359375
-128.173828125
-130.92041015625
-128.173828125
-102.5390625
-69.580078125
-24.71923828125
35.70556640625
124.51171875
252.685546875
380.859375
513.61083984375
676.57470703125
846.86279296875
964.9658203125
1048.27880859375
1126.0986328125
1151.7333984375
1138.00048828125
1054.6875
796.5087890625
498.96240234375
241.69921875
40.283203125
-85.14404296875
-154.72412109375
-196.83837890625
-224.30419921875
-231.62841796875
-224.30419921875
-208.740234375
-151.9775390625
-97.96142578125
-65.91796875
-54.01611328125
-32.04345703125
-21.97265625
-11.90185546875
-11.90185546875
-14.6484375
-22.88818359375
-9.1552734375
9.1552734375
10.07080078125
10.986328125
10.07080078125
-9.1552734375
-6.40869140625
-9.1552734375
-9.1552734375
-11.90185546875
-6.40869140625
3.662109375
11.90185546875
16.4794921875
15.56396484375
22.88818359375
11.90185546875
11.90185546875
14.6484375
3.662109375
17.39501953125
37.53662109375
39.36767578125
33.87451171875
36.62109375
38.4521484375
37.53662109375
36.62109375
35.70556640625
35.70556640625
35.70556640625
44.86083984375
55.84716796875
53.1005859375
52.18505859375
54.01611328125
58.59375
58.59375
65.91796875
59.50927734375
55.84716796875
54.01611328125
61.34033203125
85.14404296875
82.3974609375
73.2421875
87.890625
87.890625
90.63720703125
95.21484375
98.876953125
102.5390625
109.86328125
129.08935546875
124.51171875
123.59619140625
128.173828125
129.08935546875
136.41357421875
139.16015625
146.484375
162.9638671875
162.9638671875
163.87939453125
163.87939453125
184.9365234375
204.16259765625
203.2470703125
203.2470703125
201.416015625
221.5576171875
230.712890625
231.62841796875
240.78369140625
248.10791015625
258.1787109375
261.8408203125
267.333984375
273.74267578125
283.8134765625
288.39111328125
293.88427734375
295.71533203125
303.03955078125
312.19482421875
320.4345703125
325.927734375
320.4345703125
329.58984375
332.33642578125
325.927734375
326.84326171875
338.7451171875
336.9140625
341.49169921875
351.5625
335.99853515625
325.01220703125
326.84326171875
318.603515625
313.1103515625
305.7861328125
296.630859375
286.56005859375
273.74267578125
266.41845703125
239.8681640625
216.97998046875
206.9091796875
193.17626953125
170.2880859375
153.80859375
142.822265625
126.3427734375
118.10302734375
88.80615234375
73.2421875
57.67822265625
51.26953125
33.87451171875
24.71923828125
10.07080078125
2.74658203125
-9.1552734375
-15.56396484375
-23.8037109375
-34.7900390625
-44.86083984375
-54.931640625
-53.1005859375
-67.7490234375
-64.0869140625
-59.50927734375
-68.66455078125
-75.0732421875
-74.15771484375
-78.7353515625
-78.7353515625
-85.14404296875
-86.0595703125
-86.0595703125
-85.14404296875
-90.63720703125
-103.45458984375
-103.45458984375
-92.46826171875
-104.3701171875
-111.6943359375
-106.201171875
-99.79248046875
-104.3701171875
-106.201171875
-96.13037109375
-83.31298828125
-91.552734375
-98.876953125
-88.80615234375
-94.29931640625
-100.7080078125
-98.876953125
-105.28564453125
-95.21484375
-86.0595703125
-97.0458984375
-83.31298828125
-91.552734375
-93.3837890625
-88.80615234375
-87.890625
-90.63720703125
-88.80615234375
-81.48193359375
-81.48193359375
-65.00244140625
-63.17138671875
-65.00244140625
-69.580078125
-73.2421875
-72.32666015625
-63.17138671875
-64.0869140625
-63.17138671875
-64.0869140625
-65.00244140625
-66.83349609375
-70.49560546875
-68.66455078125
-65.00244140625
-68.66455078125
-60.4248046875
-51.26953125
-57.67822265625
-54.01611328125
-54.931640625
-59.50927734375
-58.59375
-62.255859375
-62.255859375
-66.83349609375
-59.50927734375
-51.26953125
-43.9453125
-52.18505859375
-49.4384765625
-43.9453125
-43.9453125
-56.7626953125
-58.59375
-56.7626953125
-58.59375
-54.01611328125
-53.1005859375
-44.86083984375
-52.18505859375
-49.4384765625
-43.9453125
-53.1005859375
-60.4248046875
-54.01611328125
-49.4384765625
-55.84716796875
-54.01611328125
-54.931640625
-67.7490234375
-58.59375
-64.0869140625
-65.00244140625
-76.904296875
-77.81982421875
-70.49560546875
-65.91796875
-68.66455078125
-65.91796875
-62.255859375
-70.49560546875
-55.84716796875
-65.91796875
-62.255859375
-66.83349609375
-69.580078125
-74.15771484375
-70.49560546875
-72.32666015625
-69.580078125
-65.00244140625
-66.83349609375
-58.59375
-59.50927734375
-65.91796875
-75.0732421875
-68.66455078125
-75.98876953125
-77.81982421875
-64.0869140625
-67.7490234375
-68.66455078125
-71.4111328125
-75.0732421875
-76.904296875
-80.56640625
-76.904296875
-80.56640625
-72.32666015625
-71.4111328125
-75.98876953125
-69.580078125
-64.0869140625
-69.580078125
-83.31298828125
-82.3974609375
-75.98876953125
-74.15771484375
-62.255859375
-67.7490234375
-70.49560546875
-62.255859375
-69.580078125
-72.32666015625
-69.580078125
-68.66455078125
-59.50927734375
-57.67822265625
-52.18505859375
-43.02978515625
-43.9453125
-47.607421875
-50.35400390625
-42.1142578125
-43.9453125
-39.36767578125
-35.70556640625
-41.19873046875
-43.9453125
-37.53662109375
-39.36767578125
-37.53662109375
-32.04345703125
-24.71923828125
-21.97265625
-16.4794921875
-2.74658203125
4.57763671875
6.40869140625
6.40869140625
-6.40869140625
0
4.57763671875
-0.91552734375
-14.6484375
-21.05712890625
-10.986328125
-12.8173828125
-15.56396484375
-10.986328125
-27.4658203125
-28.38134765625
-37.53662109375
-46.69189453125
-57.67822265625
-63.17138671875
-60.4248046875
-74.15771484375
-68.66455078125
-77.81982421875
-77.81982421875
-83.31298828125
-81.48193359375
-75.0732421875
-82.3974609375
-96.13037109375
-97.96142578125
-81.48193359375
-84.228515625
-90.63720703125
-88.80615234375
-94.29931640625
-96.13037109375
-88.80615234375
-93.3837890625
-100.7080078125
-99.79248046875
-96.13037109375
-97.0458984375
-100.7080078125
-97.0458984375
-103.45458984375
-97.0458984375
-93.3837890625
-88.80615234375
-88.80615234375
-86.97509765625
-82.3974609375
-82.3974609375
-82.3974609375
-100.7080078125
-114.44091796875
-122.6806640625
-119.0185546875
-91.552734375
-55.84716796875
-11.90185546875
65.00244140625
146.484375
287.4755859375
410.15625
531.92138671875
685.72998046875
832.21435546875
931.09130859375
1016.2353515625
1072.998046875
1085.8154296875
1076.66015625
942.9931640625
682.06787109375
387.26806640625
164.794921875
-8.23974609375
-104.3701171875
-145.56884765625
-188.5986328125
-208.740234375
-216.97998046875
-219.7265625
-200.50048828125
-140.9912109375
-93.3837890625
-65.91796875
-58.59375
-43.02978515625
-30.21240234375
-10.07080078125
6.40869140625
2.74658203125
-5.4931640625
-10.07080078125
1.8310546875
10.986328125
18.310546875
20.1416015625
16.4794921875
18.310546875
11.90185546875
20.1416015625
24.71923828125
21.97265625
0.91552734375
-4.57763671875
12.8173828125
10.986328125
12.8173828125
20.1416015625
32.958984375
36.62109375
39.36767578125
33.87451171875
31.1279296875
28.38134765625
36.62109375
48.52294921875
49.4384765625
40.283203125
46.69189453125
59.50927734375
52.18505859375
51.26953125
54.01611328125
52.18505859375
57.67822265625
61.34033203125
63.17138671875
60.4248046875
67.7490234375
72.32666015625
76.904296875
93.3837890625
92.46826171875
83.31298828125
85.14404296875
98.876953125
97.96142578125
97.0458984375
98.876953125
105.28564453125
110.77880859375
115.3564453125
125.42724609375
126.3427734375
123.59619140625
133.6669921875
141.90673828125
148.3154296875
154.72412109375
159.3017578125
162.9638671875
168.45703125
174.86572265625
179.443359375
183.10546875
185.85205078125
188.5986328125
196.83837890625
200.50048828125
216.97998046875
227.05078125
232.5439453125
249.0234375
249.93896484375
255.43212890625
260.009765625
266.41845703125
266.41845703125
281.06689453125
298.4619140625
308.53271484375
305.7861328125
307.6171875
314.94140625
317.68798828125
333.251953125
330.50537109375
338.7451171875
353.3935546875
356.14013671875
355.224609375
338.7451171875
352.47802734375
353.3935546875
346.0693359375
345.15380859375
340.576171875
335.0830078125
330.50537109375
326.84326171875
324.0966796875
316.7724609375
296.630859375
286.56005859375
292.96875
269.1650390625
249.93896484375
231.62841796875
210.5712890625
196.83837890625
184.02099609375
174.86572265625
149.23095703125
136.41357421875
120.849609375
95.21484375
89.7216796875
78.7353515625
64.0869140625
55.84716796875
46.69189453125
34.7900390625
15.56396484375
11.90185546875
4.57763671875
2.74658203125
-16.4794921875
-24.71923828125
-29.296875
-31.1279296875
-35.70556640625
-37.53662109375
-46.69189453125
-57.67822265625
-54.01611328125
-60.4248046875
-62.255859375
-57.67822265625
-64.0869140625
-71.4111328125
-76.904296875
-74.15771484375
-68.66455078125
-74.15771484375
-81.48193359375
-81.48193359375
-82.3974609375
-76.904296875
-73.2421875
-57.67822265625
-69.580078125
-81.48193359375
-84.228515625
-77.81982421875
-77.81982421875
-86.0595703125
-82.3974609375
-70.49560546875
-65.00244140625
-59.50927734375
-69.580078125
-75.0732421875
-65.00244140625
-60.4248046875
-74.15771484375
-76.904296875
-73.2421875
-65.91796875
-64.0869140625
-63.17138671875
-63.17138671875
-71.4111328125
-68.66455078125
-65.00244140625
-56.7626953125
-54.01611328125
-63.17138671875
-60.4248046875
-54.931640625
-52.18505859375
-41.19873046875
-46.69189453125
-43.02978515625
-42.1142578125
-31.1279296875
-34.7900390625
-39.36767578125
-32.958984375
-40.283203125
-40.283203125
-41.19873046875
-40.283203125
-45.7763671875
-41.19873046875
-34.7900390625
-34.7900390625
-36.62109375
-35.70556640625
-28.38134765625
-38.4521484375
-38.4521484375
-38.4521484375
-47.607421875
-47.607421875
-40.283203125
-46.69189453125
-37.53662109375
-34.7900390625
-31.1279296875
-38.4521484375
-36.62109375
-32.958984375
-43.9453125
-48.52294921875
-43.02978515625
-44.86083984375
-47.607421875
-42.1142578125
-36.62109375
-45.7763671875
-46.69189453125
-42.1142578125
-40.283203125
-57.67822265625
-65.91796875
-60.4248046875
-57.67822265625
-58.59375
-50.35400390625
-47.607421875
-44.86083984375
-49.4384765625
-61.34033203125
-65.91796875
-62.255859375
-58.59375
-62.255859375
-58.59375
-60.4248046875
-57.67822265625
-68.66455078125
-69.580078125
-71.4111328125
-66.83349609375
-64.0869140625
-59.50927734375
-66.83349609375
-67.7490234375
-68.66455078125
-69.580078125
-73.2421875
-73.2421875
-72.32666015625
-75.0732421875
-73.2421875
-76.904296875
-76.904296875
-75.98876953125
-71.4111328125
-79.65087890625
-83.31298828125
-71.4111328125
-66.83349609375
-67.7490234375
-81.48193359375
-80.56640625
-72.32666015625
-71.4111328125
-73.2421875
-74.15771484375
-87.890625
-91.552734375
-78.7353515625
-75.98876953125
-67.7490234375
-62.255859375
-62.255859375
-51.26953125
-43.9453125
-42.1142578125
-48.52294921875
-39.36767578125
-33.87451171875
-35.70556640625
-38.4521484375
-42.1142578125
-39.36767578125
-42.1142578125
-45.7763671875
-36.62109375
-44.86083984375
-49.4384765625
-50.35400390625
-43.9453125
-26.55029296875
-22.88818359375
-13.73291015625
1.8310546875
-6.40869140625
-1.8310546875
-2.74658203125
2.74658203125
-1.8310546875
-0.91552734375
-0.91552734375
-16.4794921875
-27.4658203125
-38.4521484375
-32.958984375
-31.1279296875
-21.05712890625
-38.4521484375
-13.73291015625
-26.55029296875
-61.34033203125
-76.904296875
-73.2421875
-60.4248046875
-57.67822265625
-68.66455078125
-65.91796875
-81.48193359375
-97.0458984375
-92.46826171875
-89.7216796875
-102.5390625
-111.6943359375
-115.3564453125
-108.94775390625
-111.6943359375
-108.94775390625
-114.44091796875
-118.10302734375
-113.525390625
-114.44091796875
-117.1875
-109.86328125
-119.0185546875
-112.60986328125
-108.94775390625
-115.3564453125
-109.86328125
-112.60986328125
-108.94775390625
-112.60986328125
-106.201171875
-108.0322265625
-111.6943359375
-119.93408203125
-124.51171875
-138.24462890625
-147.39990234375
-147.39990234375
-157.470703125
-141.90673828125
-107.11669921875
-54.931640625
8.23974609375
75.98876953125
191.34521484375
329.58984375
454.1015625
600.5859375
766.29638671875
899.0478515625
987.85400390625
1071.1669921875
1104.1259765625
1111.4501953125
1067.5048828125
847.7783203125
544.73876953125
281.982421875
64.0869140625
-81.48193359375
-169.37255859375
-220.64208984375
-255.43212890625
-265.5029296875
-254.5166015625
-222.47314453125
-165.71044921875
-116.27197265625
-86.97509765625
-74.15771484375
-53.1005859375
-41.19873046875
-34.7900390625
-21.97265625
-10.07080078125
-14.6484375
-2.74658203125
-9.1552734375
-10.986328125
-8.23974609375
-11.90185546875
-12.8173828125
-4.57763671875
-5.4931640625
-7.32421875
-9.1552734375
-5.4931640625
-5.4931640625
-2.74658203125
3.662109375
2.74658203125
15.56396484375
15.56396484375
11.90185546875
8.23974609375
5.4931640625
11.90185546875
17.39501953125
17.39501953125
13.73291015625
23.8037109375
22.88818359375
19.22607421875
35.70556640625
33.87451171875
34.7900390625
32.958984375
41.19873046875
42.1142578125
42.1142578125
43.02978515625
56.7626953125
67.7490234375
62.255859375
64.0869140625
53.1005859375
57.67822265625
67.7490234375
64.0869140625
67.7490234375
77.81982421875
80.56640625
88.80615234375
85.14404296875
86.0595703125
95.21484375
101.62353515625
105.28564453125
106.201171875
114.44091796875
123.59619140625
125.42724609375
130.92041015625
142.822265625
142.822265625
151.06201171875
147.39990234375
151.06201171875
159.3017578125
163.87939453125
170.2880859375
180.35888671875
188.5986328125
200.50048828125
203.2470703125
218.81103515625
217.8955078125
222.47314453125
237.12158203125
247.1923828125
251.77001953125
268.24951171875
277.40478515625
286.56005859375
282.89794921875
287.4755859375
292.05322265625
305.7861328125
314.02587890625
315.85693359375
329.58984375
332.33642578125
336.9140625
340.576171875
341.49169921875
350.64697265625
346.0693359375
341.49169921875
348.81591796875
343.32275390625
341.49169921875
345.15380859375
343.32275390625
328.67431640625
326.84326171875
318.603515625
315.85693359375
304.87060546875
289.306640625
271.91162109375
260.92529296875
250.8544921875
241.69921875
232.5439453125
209.65576171875
192.2607421875
179.443359375
163.87939453125
141.90673828125
126.3427734375
103.45458984375
98.876953125
86.97509765625
64.0869140625
54.01611328125
39.36767578125
30.21240234375
25.634765625
10.07080078125
1.8310546875
-5.4931640625
-10.986328125
-13.73291015625
-14.6484375
-16.4794921875
-27.4658203125
-42.1142578125
-45.7763671875
-47.607421875
-46.69189453125
-59.50927734375
-57.67822265625
-53.1005859375
-54.931640625
-65.00244140625
-66.83349609375
-64.0869140625
-61.34033203125
-56.7626953125
-69.580078125
-72.32666015625
-65.91796875
-65.91796875
-61.34033203125
-68.66455078125
-74.15771484375
-71.4111328125
-74.15771484375
-70.49560546875
-56.7626953125
-57.67822265625
-68.66455078125
-77.81982421875
-69.580078125
-66.83349609375
-69.580078125
-71.4111328125
-65.00244140625
-65.00244140625
-74.15771484375
-74.15771484375
-70.49560546875
-65.00244140625
-63.17138671875
-67.7490234375
-65.91796875
-63.17138671875
-59.50927734375
-61.34033203125
-59.50927734375
-62.255859375
-54.01611328125
-47.607421875
-46.69189453125
-50.35400390625
-53.1005859375
-49.4384765625
-42.1142578125
-46.69189453125
-44.86083984375
-41.19873046875
-36.62109375
-40.283203125
-37.53662109375
-34.7900390625
-38.4521484375
-44.86083984375
-30.21240234375
-32.958984375
-45.7763671875
-44.86083984375
-42.1142578125
-35.70556640625
-27.4658203125
-32.958984375
-37.53662109375
-41.19873046875
-38.4521484375
-29.296875
-33.87451171875
-41.19873046875
-47.607421875
-41.19873046875
-42.1142578125
-40.283203125
-36.62109375
-33.87451171875
-39.36767578125
-37.53662109375
-34.7900390625
-37.53662109375
-36.62109375
-44.86083984375
-43.9453125
-51.26953125
-45.7763671875
-40.283203125
-35.70556640625
-40.283203125
-44.86083984375
-48.52294921875
-43.9453125
-52.18505859375
-44.86083984375
-43.9453125
-52.18505859375
-64.0869140625
-59.50927734375
-58.59375
-54.931640625
-50.35400390625
-52.18505859375
-47.607421875
-40.283203125
-47.607421875
-52.18505859375
-52.18505859375
-43.02978515625
-45.7763671875
-54.931640625
-54.931640625
-52.18505859375
-43.02978515625
-41.19873046875
-48.52294921875
-51.26953125
-50.35400390625
-41.19873046875
-41.19873046875
-49.4384765625
-58.59375
-54.01611328125
-53.1005859375
-58.59375
-59.50927734375
-57.67822265625
-61.34033203125
-62.255859375
-55.84716796875
-60.4248046875
-54.931640625
-54.01611328125
-52.18505859375
-52.18505859375
-58.59375
-56.7626953125
-59.50927734375
-55.84716796875
-50.35400390625
-51.26953125
-58.59375
-65.00244140625
-66.83349609375
-61.34033203125
-60.4248046875
-57.67822265625
-55.84716796875
-48.52294921875
-49.4384765625
-43.9453125
-41.19873046875
-39.36767578125
-30.21240234375
-17.39501953125
-17.39501953125
-20.1416015625
-13.73291015625
-23.8037109375
-23.8037109375
-23.8037109375
-20.1416015625
-17.39501953125
-14.6484375
-19.22607421875
-16.4794921875
-8.23974609375
-5.4931640625
5.4931640625
18.310546875
15.56396484375
17.39501953125
19.22607421875
30.21240234375
35.70556640625
26.55029296875
8.23974609375
4.57763671875
-8.23974609375
-2.74658203125
-0.91552734375
-3.662109375
2.74658203125
0.91552734375
-13.73291015625
-21.97265625
-24.71923828125
-28.38134765625
-34.7900390625
-47.607421875
-43.9453125
-56.7626953125
-51.26953125
-56.7626953125
-60.4248046875
-74.15771484375
-74.15771484375
-67.7490234375
-61.34033203125
-70.49560546875
-73.2421875
-76.904296875
-68.66455078125
-68.66455078125
-67.7490234375
-66.83349609375
-67.7490234375
-71.4111328125
-86.0595703125
-85.14404296875
-76.904296875
-79.65087890625
-76.904296875
-81.48193359375
-84.228515625
-81.48193359375
-82.3974609375
-74.15771484375
-74.15771484375
-79.65087890625
-80.56640625
-84.228515625
-88.80615234375
-94.29931640625
-102.5390625
-115.3564453125
-127.25830078125
-104.3701171875
-63.17138671875
-30.21240234375
13.73291015625
87.890625
207.82470703125
352.47802734375
480.65185546875
627.13623046875
794.677734375
920.10498046875
1023.5595703125
1120.60546875
1166.3818359375
1173.7060546875
1132.50732421875
926.513671875
617.0654296875
342.4072265625
117.1875
-35.70556640625
-136.41357421875
-177.6123046875
-220.64208984375
-232.5439453125
-224.30419921875
-192.2607421875
-138.24462890625
-89.7216796875
-65.91796875
-48.52294921875
-25.634765625
-11.90185546875
1.8310546875
4.57763671875
10.986328125
12.8173828125
15.56396484375
25.634765625
11.90185546875
0.91552734375
6.40869140625
10.986328125
9.1552734375
11.90185546875
10.986328125
13.73291015625
21.05712890625
19.22607421875
16.4794921875
21.97265625
21.97265625
17.39501953125
25.634765625
32.958984375
39.36767578125
27.4658203125
29.296875
31.1279296875
31.1279296875
27.4658203125
31.1279296875
37.53662109375
41.19873046875
34.7900390625
49.4384765625
55.84716796875
58.59375
60.4248046875
61.34033203125
58.59375
63.17138671875
65.91796875
61.34033203125
69.580078125
65.00244140625
80.56640625
86.0595703125
77.81982421875
83.31298828125
85.14404296875
97.96142578125
108.0322265625
99.79248046875
100.7080078125
113.525390625
113.525390625
113.525390625
114.44091796875
120.849609375
125.42724609375
134.58251953125
145.56884765625
143.73779296875
145.56884765625
153.80859375
162.04833984375
165.71044921875
163.87939453125
172.119140625
179.443359375
178.52783203125
184.9365234375
204.16259765625
208.740234375
211.48681640625
224.30419921875
230.712890625
229.79736328125
242.61474609375
255.43212890625
267.333984375
275.57373046875
278.3203125
287.4755859375
294.7998046875
302.1240234375
307.6171875
312.19482421875
321.35009765625
326.84326171875
332.33642578125
341.49169921875
349.7314453125
346.0693359375
348.81591796875
357.0556640625
361.63330078125
364.3798828125
357.97119140625
363.46435546875
360.7177734375
361.63330078125
365.29541015625
359.80224609375
335.99853515625
326.84326171875
322.265625
313.1103515625
306.70166015625
292.96875
276.4892578125
268.24951171875
250.8544921875
223.388671875
208.740234375
190.4296875
186.767578125
167.54150390625
153.80859375
138.24462890625
114.44091796875
103.45458984375
77.81982421875
65.00244140625
65.91796875
52.18505859375
38.4521484375
26.55029296875
34.7900390625
5.4931640625
-10.07080078125
-12.8173828125
-12.8173828125
-26.55029296875
-30.21240234375
-27.4658203125
-32.04345703125
-33.87451171875
-37.53662109375
-44.86083984375
-49.4384765625
-52.18505859375
-60.4248046875
-61.34033203125
-58.59375
-56.7626953125
-56.7626953125
-65.00244140625
-62.255859375
-60.4248046875
-71.4111328125
-72.32666015625
-75.0732421875
-74.15771484375
-68.66455078125
-66.83349609375
-62.255859375
-71.4111328125
-65.91796875
-65.91796875
-72.32666015625
-71.4111328125
-85.14404296875
-79.65087890625
-72.32666015625
-69.580078125
-68.66455078125
-74.15771484375
-75.0732421875
-64.0869140625
-60.4248046875
-55.84716796875
-50.35400390625
-53.1005859375
-59.50927734375
-61.34033203125
-60.4248046875
-44.86083984375
-51.26953125
-54.931640625
-47.607421875
-42.1142578125
-38.4521484375
-46.69189453125
-43.9453125
-39.36767578125
-34.7900390625
-39.36767578125
-43.9453125
-39.36767578125
-39.36767578125
-35.70556640625
-32.04345703125
-31.1279296875
-24.71923828125
-26.55029296875
-19.22607421875
-30.21240234375
-32.958984375
-30.21240234375
-23.8037109375
-29.296875
-26.55029296875
-25.634765625
-27.4658203125
-29.296875
-25.634765625
-35.70556640625
-29.296875
-24.71923828125
-23.8037109375
-16.4794921875
-23.8037109375
-18.310546875
-15.56396484375
-12.8173828125
-7.32421875
-17.39501953125
-22.88818359375
-21.97265625
-25.634765625
-24.71923828125
-29.296875
-24.71923828125
-29.296875
-32.04345703125
-32.958984375
-35.70556640625
-33.87451171875
-36.62109375
-39.36767578125
-36.62109375
-35.70556640625
-44.86083984375
-46.69189453125
-41.19873046875
-33.87451171875
-33.87451171875
-35.70556640625
-37.53662109375
-43.9453125
-48.52294921875
-45.7763671875
-50.35400390625
-44.86083984375
-36.62109375
-48.52294921875
-55.84716796875
-50.35400390625
-50.35400390625
-64.0869140625
-54.931640625
-56.7626953125
-53.1005859375
-42.1142578125
-53.1005859375
-48.52294921875
-40.283203125
-37.53662109375
-43.02978515625
-48.52294921875
-43.02978515625
-55.84716796875
-63.17138671875
-68.66455078125
-63.17138671875
-71.4111328125
-68.66455078125
-64.0869140625
-70.49560546875
-75.0732421875
-75.0732421875
-74.15771484375
-65.00244140625
-64.0869140625
-64.0869140625
-65.00244140625
-75.0732421875
-74.15771484375
-65.91796875
-68.66455078125
-72.32666015625
-74.15771484375
-65.91796875
-63.17138671875
-63.17138671875
-60.4248046875
-54.01611328125
-45.7763671875
-44.86083984375
-42.1142578125
-32.958984375
-24.71923828125
-32.04345703125
-34.7900390625
-31.1279296875
-39.36767578125
-49.4384765625
-45.7763671875
-45.7763671875
-37.53662109375
-38.4521484375
-33.87451171875
-20.1416015625
-15.56396484375
0.91552734375
5.4931640625
7.32421875
3.662109375
6.40869140625
4.57763671875
0.91552734375
6.40869140625
5.4931640625
0.91552734375
-10.986328125
-13.73291015625
-18.310546875
-17.39501953125
-24.71923828125
-26.55029296875
-25.634765625
-35.70556640625
-30.21240234375
-45.7763671875
-52.18505859375
-54.931640625
-58.59375
-61.34033203125
-65.91796875
-57.67822265625
-67.7490234375
-78.7353515625
-83.31298828125
-83.31298828125
-81.48193359375
-70.49560546875
-78.7353515625
-77.81982421875
-78.7353515625
-83.31298828125
-84.228515625
-79.65087890625
-82.3974609375
-80.56640625
-81.48193359375
-91.552734375
-96.13037109375
-92.46826171875
-82.3974609375
-82.3974609375
-87.890625
-77.81982421875
-78.7353515625
-85.14404296875
-71.4111328125
-70.49560546875
-74.15771484375
-69.580078125
-72.32666015625
-86.0595703125
-88.80615234375
-99.79248046875
-107.11669921875
-93.3837890625
-62.255859375
-18.310546875
31.1279296875
102.5390625
216.064453125
343.32275390625
459.5947265625
601.50146484375
758.97216796875
884.3994140625
978.69873046875
1059.26513671875
1102.294921875
1097.71728515625
1032.71484375
840.4541015625
569.4580078125
309.4482421875
103.45458984375
-20.1416015625
-88.80615234375
-139.16015625
-171.20361328125
-189.51416015625
-189.51416015625
-169.37255859375
-139.16015625
-97.96142578125
-70.49560546875
-42.1142578125
-21.97265625
-7.32421875
3.662109375
11.90185546875
9.1552734375
18.310546875
25.634765625
23.8037109375
18.310546875
30.21240234375
29.296875
25.634765625
25.634765625
42.1142578125
43.02978515625
37.53662109375
36.62109375
31.1279296875
39.36767578125
43.9453125
47.607421875
43.02978515625
39.36767578125
45.7763671875
47.607421875
52.18505859375
54.931640625
54.931640625
57.67822265625
61.34033203125
58.59375
65.00244140625
66.83349609375
70.49560546875
61.34033203125
69.580078125
82.3974609375
75.0732421875
75.98876953125
75.98876953125
77.81982421875
85.14404296875
86.0595703125
81.48193359375
84.228515625
90.63720703125
101.62353515625
99.79248046875
105.28564453125
110.77880859375
119.93408203125
117.1875
109.86328125
118.10302734375
123.59619140625
133.6669921875
134.58251953125
136.41357421875
143.73779296875
153.80859375
161.1328125
156.55517578125
158.38623046875
167.54150390625
177.6123046875
175.78125
173.9501953125
184.9365234375
191.34521484375
198.66943359375
209.65576171875
215.14892578125
223.388671875
227.96630859375
229.79736328125
240.78369140625
253.60107421875
256.34765625
265.5029296875
267.333984375
279.23583984375
287.4755859375
292.96875
298.4619140625
310.36376953125
319.51904296875
326.84326171875
326.84326171875
333.251953125
338.7451171875
346.0693359375
349.7314453125
345.15380859375
356.14013671875
365.29541015625
361.63330078125
362.548828125
366.2109375
365.29541015625
357.0556640625
359.80224609375
360.7177734375
355.224609375
357.97119140625
353.3935546875
334.16748046875
330.50537109375
320.4345703125
302.1240234375
294.7998046875
284.72900390625
268.24951171875
251.77001953125
231.62841796875
214.2333984375
204.16259765625
180.35888671875
164.794921875
155.6396484375
149.23095703125
137.3291015625
118.10302734375
102.5390625
90.63720703125
75.98876953125
57.67822265625
55.84716796875
47.607421875
32.958984375
26.55029296875
16.4794921875
4.57763671875
-3.662109375
-10.07080078125
-11.90185546875
-24.71923828125
-26.55029296875
-44.86083984375
-45.7763671875
-33.87451171875
-33.87451171875
-38.4521484375
-44.86083984375
-48.52294921875
-46.69189453125
-48.52294921875
-52.18505859375
-55.84716796875
-56.7626953125
-52.18505859375
-58.59375
-65.00244140625
-64.0869140625
-56.7626953125
-62.255859375
-66.83349609375
-66.83349609375
-66.83349609375
-62.255859375
-65.00244140625
-69.580078125
-73.2421875
-71.4111328125
-63.17138671875
-67.7490234375
-71.4111328125
-59.50927734375
-56.7626953125
-56.7626953125
-50.35400390625
-54.01611328125
-57.67822265625
-62.255859375
-61.34033203125
-60.4248046875
-38.4521484375
-41.19873046875
-46.69189453125
-45.7763671875
-53.1005859375
-43.9453125
-37.53662109375
-43.9453125
-34.7900390625
-33.87451171875
-35.70556640625
-44.86083984375
-39.36767578125
-34.7900390625
-33.87451171875
-29.296875
-23.8037109375
-32.958984375
-36.62109375
-35.70556640625
-29.296875
-27.4658203125
-29.296875
-31.1279296875
-35.70556640625
-33.87451171875
-27.4658203125
-32.04345703125
-33.87451171875
-32.958984375
-32.958984375
-28.38134765625
-35.70556640625
-40.283203125
-34.7900390625
-43.02978515625
-43.02978515625
-42.1142578125
-48.52294921875
-46.69189453125
-47.607421875
-50.35400390625
-46.69189453125
-47.607421875
-36.62109375
-39.36767578125
-45.7763671875
-48.52294921875
-57.67822265625
-55.84716796875
-46.69189453125
-41.19873046875
-47.607421875
-48.52294921875
-52.18505859375
-54.931640625
-54.931640625
-59.50927734375
-62.255859375
-67.7490234375
-55.84716796875
-49.4384765625
-54.931640625
-59.50927734375
-60.4248046875
-60.4248046875
-61.34033203125
-61.34033203125
-62.255859375
-65.00244140625
-63.17138671875
-64.0869140625
-58.59375
-63.17138671875
-69.580078125
-61.34033203125
-73.2421875
-71.4111328125
-65.91796875
-65.00244140625
-65.00244140625
-61.34033203125
-59.50927734375
-70.49560546875
-66.83349609375
-65.91796875
-68.66455078125
-65.91796875
-75.98876953125
-79.65087890625
-72.32666015625
-67.7490234375
-67.7490234375
-67.7490234375
-72.32666015625
-75.0732421875
-72.32666015625
-84.228515625
-82.3974609375
-73.2421875
-77.81982421875
-69.580078125
-79.65087890625
-77.81982421875
-69.580078125
-60.4248046875
-67.7490234375
-77.81982421875
-79.65087890625
-79.65087890625
-74.15771484375
-66.83349609375
-65.00244140625
-68.66455078125
-78.7353515625
-78.7353515625
-73.2421875
-72.32666015625
-67.7490234375
-75.0732421875
-75.98876953125
-70.49560546875
-66.83349609375
-73.2421875
-71.4111328125
-65.00244140625
-65.00244140625
-61.34033203125
-57.67822265625
-46.69189453125
-45.7763671875
-44.86083984375
-44.86083984375
-40.283203125
-35.70556640625
-29.296875
-34.7900390625
-38.4521484375
-50.35400390625
-48.52294921875
-48.52294921875
-43.9453125
-44.86083984375
-37.53662109375
-33.87451171875
-23.8037109375
-26.55029296875
-15.56396484375
-9.1552734375
-7.32421875
0.91552734375
0.91552734375
-2.74658203125
-9.1552734375
-7.32421875
-6.40869140625
-10.07080078125
-16.4794921875
-21.05712890625
-20.1416015625
-18.310546875
-24.71923828125
-33.87451171875
-35.70556640625
-40.283203125
-42.1142578125
-50.35400390625
-58.59375
-61.34033203125
-63.17138671875
-70.49560546875
-79.65087890625
-67.7490234375
-75.0732421875
-78.7353515625
-88.80615234375
-93.3837890625
-92.46826171875
-90.63720703125
-91.552734375
-86.0595703125
-88.80615234375
-91.552734375
-93.3837890625
-95.21484375
-88.80615234375
-82.3974609375
-86.97509765625
-84.228515625
-89.7216796875
-92.46826171875
-92.46826171875
-89.7216796875
-84.228515625
-83.31298828125
-89.7216796875
-86.0595703125
-90.63720703125
-90.63720703125
-90.63720703125
-95.21484375
-96.13037109375
-106.201171875
-121.76513671875
-133.6669921875
-125.42724609375
-105.28564453125
-66.83349609375
-20.1416015625
35.70556640625
138.24462890625
260.92529296875
390.93017578125
528.25927734375
682.9833984375
845.947265625
968.6279296875
1060.1806640625
1126.0986328125
1146.240234375
1139.83154296875
1050.10986328125
795.59326171875
496.2158203125
242.61474609375
40.283203125
-97.96142578125
-178.52783203125
-216.064453125
-238.037109375
-235.29052734375
-212.40234375
-170.2880859375
-127.25830078125
-98.876953125
-60.4248046875
-42.1142578125
-27.4658203125
-17.39501953125
-6.40869140625
-1.8310546875
-5.4931640625
1.8310546875
6.40869140625
8.23974609375
7.32421875
8.23974609375
4.57763671875
9.1552734375
13.73291015625
13.73291015625
16.4794921875
10.07080078125
11.90185546875
19.22607421875
19.22607421875
19.22607421875
16.4794921875
28.38134765625
24.71923828125
21.05712890625
28.38134765625
29.296875
40.283203125
41.19873046875
31.1279296875
34.7900390625
25.634765625
39.36767578125
47.607421875
46.69189453125
50.35400390625
54.01611328125
52.18505859375
54.931640625
54.931640625
59.50927734375
60.4248046875
63.17138671875
63.17138671875
75.0732421875
76.904296875
75.0732421875
71.4111328125
73.2421875
82.3974609375
79.65087890625
86.0595703125
90.63720703125
96.13037109375
97.0458984375
107.11669921875
114.44091796875
116.27197265625
114.44091796875
119.93408203125
115.3564453125
125.42724609375
133.6669921875
140.9912109375
144.6533203125
151.06201171875
151.06201171875
162.04833984375
170.2880859375
177.6123046875
181.2744140625
185.85205078125
192.2607421875
198.66943359375
213.31787109375
220.64208984375
220.64208984375
225.2197265625
230.712890625
250.8544921875
260.009765625
266.41845703125
281.06689453125
283.8134765625
287.4755859375
292.96875
306.70166015625
317.68798828125
321.35009765625
321.35009765625
326.84326171875
335.0830078125
339.66064453125
342.4072265625
343.32275390625
347.900390625
345.15380859375
353.3935546875
356.14013671875
352.47802734375
356.14013671875
352.47802734375
345.15380859375
335.99853515625
336.9140625
332.33642578125
329.58984375
327.7587890625
311.279296875
306.70166015625
295.71533203125
275.57373046875
252.685546875
246.27685546875
228.8818359375
210.5712890625
185.85205078125
168.45703125
154.72412109375
146.484375
129.08935546875
107.11669921875
88.80615234375
78.7353515625
63.17138671875
57.67822265625
49.4384765625
32.04345703125
20.1416015625
12.8173828125
4.57763671875
-3.662109375
-8.23974609375
-9.1552734375
-13.73291015625
-17.39501953125
-28.38134765625
-29.296875
-43.02978515625
-41.19873046875
-29.296875
-43.9453125
-50.35400390625
-58.59375
-56.7626953125
-48.52294921875
-47.607421875
-47.607421875
-52.18505859375
-51.26953125
-54.01611328125
-67.7490234375
-72.32666015625
-69.580078125
-61.34033203125
-67.7490234375
-67.7490234375
-65.91796875
-55.84716796875
-62.255859375
-67.7490234375
-65.91796875
-62.255859375
-65.00244140625
-67.7490234375
-71.4111328125
-66.83349609375
-59.50927734375
-57.67822265625
-54.931640625
-53.1005859375
-54.01611328125
-54.931640625
-52.18505859375
-53.1005859375
-57.67822265625
-56.7626953125
-51.26953125
-43.9453125
-58.59375
-53.1005859375
-39.36767578125
-44.86083984375
-47.607421875
-51.26953125
-44.86083984375
-49.4384765625
-44.86083984375
-43.02978515625
-40.283203125
-34.7900390625
-32.958984375
-34.7900390625
-38.4521484375
-33.87451171875
-36.62109375
-31.1279296875
-22.88818359375
-19.22607421875
-26.55029296875
-29.296875
-32.04345703125
-30.21240234375
-36.62109375
-34.7900390625
-30.21240234375
-30.21240234375
-26.55029296875
-24.71923828125
-21.05712890625
-22.88818359375
-19.22607421875
-13.73291015625
-22.88818359375
-21.97265625
-29.296875
-30.21240234375
-21.97265625
-18.310546875
-15.56396484375
-22.88818359375
-27.4658203125
-31.1279296875
-39.36767578125
-33.87451171875
-29.296875
-27.4658203125
-31.1279296875
-33.87451171875
-36.62109375
-33.87451171875
-37.53662109375
-37.53662109375
-39.36767578125
-44.86083984375
-44.86083984375
-43.9453125
-44.86083984375
-42.1142578125
-38.4521484375
-33.87451171875
-37.53662109375
-40.283203125
-35.70556640625
-34.7900390625
-43.02978515625
-50.35400390625
-44.86083984375
-54.931640625
-46.69189453125
-40.283203125
-50.35400390625
-49.4384765625
-51.26953125
-51.26953125
-52.18505859375
-57.67822265625
-52.18505859375
-46.69189453125
-41.19873046875
-48.52294921875
-54.01611328125
-55.84716796875
-54.931640625
-60.4248046875
-48.52294921875
-46.69189453125
-47.607421875
-51.26953125
-47.607421875
-45.7763671875
-43.02978515625
-42.1142578125
-47.607421875
-42.1142578125
-54.931640625
-54.01611328125
-54.01611328125
-54.01611328125
-52.18505859375
-53.1005859375
-60.4248046875
-54.01611328125
-54.931640625
-52.18505859375
-54.01611328125
-58.59375
-56.7626953125
-52.18505859375
-43.02978515625
-46.69189453125
-55.84716796875
-54.01611328125
-55.84716796875
-52.18505859375
-54.01611328125
-65.91796875
-64.0869140625
-57.67822265625
-51.26953125
-55.84716796875
-65.00244140625
-75.98876953125
-65.00244140625
-56.7626953125
-56.7626953125
-54.931640625
-47.607421875
-60.4248046875
-62.255859375
-54.01611328125
-57.67822265625
-58.59375
-66.83349609375
-66.83349609375
-66.83349609375
-56.7626953125
-59.50927734375
-56.7626953125
-53.1005859375
-50.35400390625
-53.1005859375
-61.34033203125
-57.67822265625
-53.1005859375
-43.9453125
-52.18505859375
-53.1005859375
-51.26953125
-48.52294921875
-43.9453125
-39.36767578125
-47.607421875
-46.69189453125
-39.36767578125
-25.634765625
-28.38134765625
-27.4658203125
-27.4658203125
-23.8037109375
-11.90185546875
-15.56396484375
-10.986328125
-16.4794921875
-23.8037109375
-30.21240234375
-27.4658203125
-21.05712890625
-16.4794921875
-10.986328125
-14.6484375
-6.40869140625
-2.74658203125
7.32421875
13.73291015625
16.4794921875
17.39501953125
13.73291015625
22.88818359375
24.71923828125
9.1552734375
5.4931640625
0
-12.8173828125
-9.1552734375
-12.8173828125
-11.90185546875
-12.8173828125
-20.1416015625
-12.8173828125
-26.55029296875
-33.87451171875
-29.296875
-41.19873046875
-48.52294921875
-52.18505859375
-50.35400390625
-50.35400390625
-54.01611328125
-56.7626953125
-63.17138671875
-62.255859375
-59.50927734375
-65.91796875
-67.7490234375
-69.580078125
-77.81982421875
-76.904296875
-73.2421875
-78.7353515625
-72.32666015625
-70.49560546875
-73.2421875
-78.7353515625
-75.98876953125
-77.81982421875
-81.48193359375
-79.65087890625
-69.580078125
-74.15771484375
-72.32666015625
-80.56640625
-82.3974609375
-81.48193359375
-77.81982421875
-78.7353515625
-73.2421875
-80.56640625
-96.13037109375
-100.7080078125
-108.94775390625
-97.96142578125
-68.66455078125
-27.4658203125
16.4794921875
88.80615234375
198.66943359375
336.9140625
471.49658203125
625.30517578125
781.8603515625
920.10498046875
1027.2216796875
1122.4365234375
1162.7197265625
1182.861328125
1159.97314453125
976.86767578125
665.58837890625
390.93017578125
159.3017578125
-8.23974609375
-112.60986328125
-163.87939453125
-197.75390625
-208.740234375
-206.9091796875
-179.443359375
-123.59619140625
-82.3974609375
-56.7626953125
-36.62109375
-30.21240234375
-5.4931640625
7.32421875
4.57763671875
3.662109375
11.90185546875
19.22607421875
24.71923828125
33.87451171875
27.4658203125
25.634765625
21.05712890625
19.22607421875
30.21240234375
29.296875
23.8037109375
24.71923828125
21.05712890625
32.958984375
37.53662109375
37.53662109375
33.87451171875
32.958984375
32.958984375
43.9453125
38.4521484375
39.36767578125
44.86083984375
40.283203125
48.52294921875
58.59375
45.7763671875
49.4384765625
62.255859375
56.7626953125
55.84716796875
67.7490234375
68.66455078125
75.0732421875
75.98876953125
67.7490234375
83.31298828125
85.14404296875
84.228515625
92.46826171875
97.0458984375
93.3837890625
102.5390625
100.7080078125
103.45458984375
105.28564453125
106.201171875
115.3564453125
117.1875
119.93408203125
129.08935546875
137.3291015625
140.07568359375
148.3154296875
148.3154296875
143.73779296875
156.55517578125
153.80859375
144.6533203125
158.38623046875
173.9501953125
185.85205078125
178.52783203125
185.85205078125
188.5986328125
200.50048828125
203.2470703125
212.40234375
234.375
236.2060546875
234.375
243.5302734375
256.34765625
266.41845703125
258.1787109375
267.333984375
289.306640625
299.37744140625
292.05322265625
302.1240234375
318.603515625
327.7587890625
335.0830078125
337.82958984375
347.900390625
346.98486328125
358.88671875
358.88671875
354.30908203125
359.80224609375
369.873046875
366.2109375
370.78857421875
379.94384765625
368.95751953125
363.46435546875
361.63330078125
367.12646484375
369.873046875
359.80224609375
357.97119140625
353.3935546875
335.0830078125
315.85693359375
311.279296875
303.955078125
289.306640625
269.1650390625
259.09423828125
238.037109375
219.7265625
206.9091796875
197.75390625
183.10546875
167.54150390625
145.56884765625
131.8359375
122.6806640625
108.94775390625
101.62353515625
81.48193359375
64.0869140625
61.34033203125
45.7763671875
36.62109375
28.38134765625
24.71923828125
10.07080078125
-2.74658203125
-5.4931640625
-2.74658203125
-4.57763671875
-7.32421875
-13.73291015625
-18.310546875
-26.55029296875
-28.38134765625
-33.87451171875
-32.04345703125
-27.4658203125
-23.8037109375
-27.4658203125
-25.634765625
-38.4521484375
-38.4521484375
-45.7763671875
-52.18505859375
-47.607421875
-41.19873046875
-36.62109375
-40.283203125
-44.86083984375
-43.02978515625
-48.52294921875
-50.35400390625
-51.26953125
-43.9453125
-40.283203125
-46.69189453125
-49.4384765625
-47.607421875
-44.86083984375
-42.1142578125
-42.1142578125
-38.4521484375
-42.1142578125
-36.62109375
-34.7900390625
-42.1142578125
-39.36767578125
-29.296875
-25.634765625
-32.04345703125
-31.1279296875
-26.55029296875
-27.4658203125
-21.97265625
-13.73291015625
-21.97265625
-26.55029296875
-21.97265625
-9.1552734375
-10.986328125
-17.39501953125
-15.56396484375
-22.88818359375
-23.8037109375
-22.88818359375
-17.39501953125
-17.39501953125
-18.310546875
-15.56396484375
-23.8037109375
-32.04345703125
-20.1416015625
-7.32421875
0
-9.1552734375
-13.73291015625
-10.986328125
-5.4931640625
-8.23974609375
-7.32421875
0.91552734375
-3.662109375
-10.07080078125
-6.40869140625
-12.8173828125
-10.986328125
-5.4931640625
4.57763671875
6.40869140625
-5.4931640625
-10.07080078125
-11.90185546875
-6.40869140625
-7.32421875
-11.90185546875
-11.90185546875
-12.8173828125
-9.1552734375
-11.90185546875
-11.90185546875
-13.73291015625
-10.986328125
-11.90185546875
-12.8173828125
-7.32421875
-11.90185546875
-26.55029296875
-21.97265625
-20.1416015625
-19.22607421875
-16.4794921875
-25.634765625
-25.634765625
-16.4794921875
-28.38134765625
-28.38134765625
-38.4521484375
-21.97265625
-20.1416015625
-15.56396484375
-19.22607421875
-15.56396484375
-13.73291015625
-20.1416015625
-24.71923828125
-31.1279296875
-31.1279296875
-24.71923828125
-30.21240234375
-31.1279296875
-36.62109375
-31.1279296875
-28.38134765625
-23.8037109375
-18.310546875
-20.1416015625
-20.1416015625
-24.71923828125
-24.71923828125
-28.38134765625
-30.21240234375
-28.38134765625
-31.1279296875
-37.53662109375
-30.21240234375
-28.38134765625
-32.958984375
-31.1279296875
-24.71923828125
-24.71923828125
-37.53662109375
-37.53662109375
-36.62109375
-38.4521484375
-26.55029296875
-29.296875
-32.958984375
-36.62109375
-32.958984375
-35.70556640625
-32.958984375
-32.04345703125
-33.87451171875
-29.296875
-30.21240234375
-29.296875
-41.19873046875
-34.7900390625
-27.4658203125
-28.38134765625
-38.4521484375
-35.70556640625
