ECG
26.55029296875
22.88818359375
29.296875
34.7900390625
32.04345703125
29.296875
21.05712890625
19.22607421875
29.296875
36.62109375
37.53662109375
32.958984375
37.53662109375
33.87451171875
28.38134765625
20.1416015625
26.55029296875
26.55029296875
27.4658203125
30.21240234375
29.296875
32.958984375
41.19873046875
27.4658203125
24.71923828125
24.71923828125
20.1416015625
23.8037109375
21.05712890625
26.55029296875
23.8037109375
24.71923828125
14.6484375
12.8173828125
14.6484375
14.6484375
23.8037109375
23.8037109375
16.4794921875
13.73291015625
22.88818359375
20.1416015625
22.88818359375
22.88818359375
23.8037109375
20.1416015625
5.4931640625
6.40869140625
17.39501953125
12.8173828125
15.56396484375
28.38134765625
28.38134765625
27.4658203125
20.1416015625
20.1416015625
25.634765625
20.1416015625
22.88818359375
23.8037109375
27.4658203125
32.958984375
29.296875
23.8037109375
21.05712890625
21.05712890625
25.634765625
24.71923828125
24.71923828125
36.62109375
27.4658203125
29.296875
32.958984375
25.634765625
17.39501953125
10.986328125
10.986328125
13.73291015625
16.4794921875
14.6484375
19.22607421875
26.55029296875
19.22607421875
19.22607421875
16.4794921875
11.90185546875
13.73291015625
21.05712890625
32.958984375
44.86083984375
40.283203125
43.9453125
46.69189453125
42.1142578125
31.1279296875
33.87451171875
37.53662109375
49.4384765625
72.32666015625
85.14404296875
84.228515625
77.81982421875
75.98876953125
73.2421875
56.7626953125
70.49560546875
72.32666015625
75.0732421875
72.32666015625
67.7490234375
68.66455078125
68.66455078125
67.7490234375
59.50927734375
52.18505859375
41.19873046875
31.1279296875
37.53662109375
33.87451171875
32.958984375
21.05712890625
18.310546875
18.310546875
19.22607421875
23.8037109375
12.8173828125
13.73291015625
13.73291015625
12.8173828125
12.8173828125
12.8173828125
19.22607421875
19.22607421875
16.4794921875
14.6484375
10.986328125
19.22607421875
13.73291015625
13.73291015625
19.22607421875
22.88818359375
26.55029296875
24.71923828125
18.310546875
14.6484375
18.310546875
14.6484375
12.8173828125
1.8310546875
-6.40869140625
-8.23974609375
-13.73291015625
10.07080078125
45.7763671875
81.48193359375
135.498046875
216.064453125
343.32275390625
464.17236328125
576.7822265625
724.18212890625
878.90625
966.796875
1057.43408203125
1119.68994140625
1138.00048828125
1127.9296875
1040.95458984375
809.326171875
530.09033203125
297.54638671875
122.6806640625
2.74658203125
-64.0869140625
-114.44091796875
-145.56884765625
-148.3154296875
-133.6669921875
-85.14404296875
-21.05712890625
20.1416015625
44.86083984375
65.00244140625
91.552734375
92.46826171875
108.0322265625
114.44091796875
109.86328125
116.27197265625
119.93408203125
119.0185546875
122.6806640625
124.51171875
130.0048828125
119.0185546875
114.44091796875
116.27197265625
116.27197265625
116.27197265625
127.25830078125
135.498046875
133.6669921875
127.25830078125
127.25830078125
134.58251953125
130.0048828125
130.92041015625
134.58251953125
132.75146484375
140.9912109375
142.822265625
139.16015625
148.3154296875
150.146484375
143.73779296875
140.9912109375
145.56884765625
150.146484375
153.80859375
159.3017578125
163.87939453125
173.9501953125
168.45703125
163.87939453125
172.119140625
164.794921875
170.2880859375
162.9638671875
165.71044921875
180.35888671875
191.34521484375
197.75390625
205.078125
204.16259765625
198.66943359375
196.83837890625
205.078125
214.2333984375
224.30419921875
216.064453125
226.13525390625
228.8818359375
226.13525390625
228.8818359375
233.45947265625
238.95263671875
241.69921875
249.93896484375
253.60107421875
271.91162109375
273.74267578125
278.3203125
285.64453125
292.96875
295.71533203125
318.603515625
315.85693359375
308.53271484375
325.01220703125
329.58984375
335.99853515625
338.7451171875
348.81591796875
357.0556640625
366.2109375
374.45068359375
378.11279296875
388.18359375
396.42333984375
399.169921875
398.25439453125
411.07177734375
406.494140625
412.90283203125
410.15625
410.15625
412.90283203125
410.15625
424.8046875
432.12890625
439.453125
430.2978515625
430.2978515625
428.466796875
424.8046875
415.6494140625
407.40966796875
395.5078125
399.169921875
392.76123046875
387.26806640625
376.28173828125
356.14013671875
352.47802734375
339.66064453125
325.927734375
311.279296875
292.05322265625
278.3203125
262.75634765625
250.8544921875
243.5302734375
218.81103515625
208.740234375
185.85205078125
171.20361328125
161.1328125
153.80859375
160.21728515625
144.6533203125
130.92041015625
119.0185546875
116.27197265625
104.3701171875
91.552734375
84.228515625
78.7353515625
72.32666015625
67.7490234375
71.4111328125
75.0732421875
73.2421875
64.0869140625
51.26953125
62.255859375
57.67822265625
48.52294921875
45.7763671875
52.18505859375
49.4384765625
54.931640625
47.607421875
43.02978515625
32.958984375
31.1279296875
33.87451171875
34.7900390625
30.21240234375
44.86083984375
45.7763671875
44.86083984375
53.1005859375
52.18505859375
40.283203125
43.02978515625
41.19873046875
35.70556640625
41.19873046875
52.18505859375
46.69189453125
54.931640625
57.67822265625
54.01611328125
47.607421875
49.4384765625
52.18505859375
47.607421875
47.607421875
55.84716796875
64.0869140625
68.66455078125
63.17138671875
68.66455078125
62.255859375
56.7626953125
50.35400390625
54.931640625
64.0869140625
58.59375
67.7490234375
68.66455078125
71.4111328125
73.2421875
65.91796875
61.34033203125
62.255859375
62.255859375
68.66455078125
64.0869140625
74.15771484375
71.4111328125
75.98876953125
71.4111328125
63.17138671875
68.66455078125
58.59375
62.255859375
78.7353515625
70.49560546875
65.91796875
76.904296875
75.0732421875
72.32666015625
70.49560546875
68.66455078125
72.32666015625
68.66455078125
57.67822265625
66.83349609375
71.4111328125
70.49560546875
73.2421875
68.66455078125
71.4111328125
57.67822265625
56.7626953125
52.18505859375
54.01611328125
50.35400390625
54.01611328125
61.34033203125
67.7490234375
58.59375
49.4384765625
43.02978515625
46.69189453125
43.02978515625
43.9453125
54.931640625
59.50927734375
61.34033203125
60.4248046875
53.1005859375
50.35400390625
42.1142578125
39.36767578125
35.70556640625
40.283203125
48.52294921875
43.02978515625
45.7763671875
44.86083984375
36.62109375
41.19873046875
35.70556640625
37.53662109375
34.7900390625
39.36767578125
47.607421875
56.7626953125
48.52294921875
52.18505859375
46.69189453125
44.86083984375
37.53662109375
22.88818359375
25.634765625
40.283203125
30.21240234375
30.21240234375
42.1142578125
43.9453125
42.1142578125
39.36767578125
36.62109375
35.70556640625
33.87451171875
30.21240234375
40.283203125
38.4521484375
39.36767578125
36.62109375
37.53662109375
33.87451171875
29.296875
36.62109375
30.21240234375
26.55029296875
40.283203125
35.70556640625
30.21240234375
34.7900390625
37.53662109375
31.1279296875
22.88818359375
25.634765625
29.296875
33.87451171875
28.38134765625
36.62109375
32.958984375
27.4658203125
34.7900390625
44.86083984375
37.53662109375
26.55029296875
27.4658203125
40.283203125
42.1142578125
43.02978515625
38.4521484375
38.4521484375
34.7900390625
25.634765625
27.4658203125
19.22607421875
18.310546875
31.1279296875
33.87451171875
33.87451171875
32.04345703125
34.7900390625
32.04345703125
32.04345703125
36.62109375
43.9453125
43.02978515625
53.1005859375
50.35400390625
48.52294921875
43.02978515625
44.86083984375
60.4248046875
59.50927734375
68.66455078125
75.0732421875
77.81982421875
70.49560546875
84.228515625
88.80615234375
80.56640625
89.7216796875
80.56640625
73.2421875
73.2421875
73.2421875
64.0869140625
67.7490234375
75.0732421875
55.84716796875
65.91796875
59.50927734375
47.607421875
43.02978515625
39.36767578125
23.8037109375
18.310546875
17.39501953125
24.71923828125
18.310546875
23.8037109375
25.634765625
20.1416015625
25.634765625
21.05712890625
16.4794921875
20.1416015625
21.97265625
25.634765625
21.05712890625
19.22607421875
22.88818359375
28.38134765625
23.8037109375
21.05712890625
17.39501953125
14.6484375
22.88818359375
18.310546875
21.05712890625
23.8037109375
24.71923828125
30.21240234375
11.90185546875
-3.662109375
-5.4931640625
-7.32421875
-6.40869140625
17.39501953125
45.7763671875
85.14404296875
139.16015625
226.13525390625
343.32275390625
464.17236328125
574.03564453125
705.87158203125
850.52490234375
950.3173828125
1029.96826171875
1093.1396484375
1109.619140625
1094.05517578125
985.107421875
769.04296875
509.033203125
285.64453125
120.849609375
32.958984375
-14.6484375
-67.7490234375
-104.3701171875
-136.41357421875
-131.8359375
-100.7080078125
-54.931640625
0
31.1279296875
46.69189453125
75.0732421875
90.63720703125
96.13037109375
97.0458984375
95.21484375
98.876953125
106.201171875
104.3701171875
103.45458984375
109.86328125
113.525390625
113.525390625
116.27197265625
114.44091796875
114.44091796875
110.77880859375
112.60986328125
109.86328125
109.86328125
114.44091796875
113.525390625
113.525390625
124.51171875
130.0048828125
126.3427734375
125.42724609375
120.849609375
126.3427734375
125.42724609375
125.42724609375
131.8359375
132.75146484375
137.3291015625
141.90673828125
151.06201171875
141.90673828125
133.6669921875
134.58251953125
143.73779296875
155.6396484375
154.72412109375
149.23095703125
169.37255859375
171.20361328125
170.2880859375
172.119140625
175.78125
174.86572265625
174.86572265625
181.2744140625
184.9365234375
195.00732421875
201.416015625
200.50048828125
199.5849609375
200.50048828125
205.078125
203.2470703125
219.7265625
231.62841796875
230.712890625
240.78369140625
246.27685546875
239.8681640625
247.1923828125
246.27685546875
249.93896484375
264.58740234375
269.1650390625
267.333984375
277.40478515625
284.72900390625
291.1376953125
288.39111328125
303.03955078125
309.4482421875
311.279296875
325.927734375
333.251953125
335.99853515625
351.5625
367.12646484375
361.63330078125
369.873046875
384.521484375
380.859375
379.0283203125
380.859375
386.3525390625
390.93017578125
394.59228515625
401.91650390625
401.0009765625
400.08544921875
403.74755859375
405.57861328125
401.0009765625
398.25439453125
404.6630859375
404.6630859375
411.9873046875
416.56494140625
404.6630859375
395.5078125
390.93017578125
379.94384765625
368.95751953125
357.0556640625
345.15380859375
335.0830078125
321.35009765625
318.603515625
303.955078125
280.1513671875
268.24951171875
252.685546875
235.29052734375
216.064453125
203.2470703125
197.75390625
195.00732421875
173.03466796875
163.87939453125
148.3154296875
133.6669921875
122.6806640625
110.77880859375
106.201171875
102.5390625
93.3837890625
85.14404296875
74.15771484375
65.00244140625
63.17138671875
57.67822265625
48.52294921875
38.4521484375
36.62109375
39.36767578125
39.36767578125
38.4521484375
35.70556640625
30.21240234375
34.7900390625
30.21240234375
26.55029296875
22.88818359375
18.310546875
31.1279296875
33.87451171875
39.36767578125
35.70556640625
30.21240234375
27.4658203125
21.97265625
21.05712890625
25.634765625
22.88818359375
19.22607421875
19.22607421875
29.296875
36.62109375
32.958984375
33.87451171875
35.70556640625
30.21240234375
23.8037109375
25.634765625
32.04345703125
41.19873046875
41.19873046875
31.1279296875
39.36767578125
43.9453125
45.7763671875
38.4521484375
36.62109375
39.36767578125
37.53662109375
35.70556640625
43.02978515625
56.7626953125
50.35400390625
41.19873046875
37.53662109375
36.62109375
45.7763671875
40.283203125
37.53662109375
38.4521484375
52.18505859375
53.1005859375
60.4248046875
52.18505859375
51.26953125
52.18505859375
60.4248046875
51.26953125
54.01611328125
49.4384765625
48.52294921875
55.84716796875
56.7626953125
45.7763671875
46.69189453125
48.52294921875
43.02978515625
46.69189453125
52.18505859375
52.18505859375
48.52294921875
49.4384765625
46.69189453125
47.607421875
40.283203125
39.36767578125
30.21240234375
34.7900390625
40.283203125
43.02978515625
49.4384765625
49.4384765625
50.35400390625
43.9453125
40.283203125
32.958984375
25.634765625
29.296875
29.296875
35.70556640625
40.283203125
32.04345703125
33.87451171875
23.8037109375
26.55029296875
31.1279296875
25.634765625
16.4794921875
21.05712890625
28.38134765625
36.62109375
29.296875
26.55029296875
24.71923828125
23.8037109375
19.22607421875
22.88818359375
21.05712890625
23.8037109375
31.1279296875
34.7900390625
24.71923828125
29.296875
29.296875
32.04345703125
18.310546875
15.56396484375
17.39501953125
18.310546875
21.97265625
28.38134765625
35.70556640625
31.1279296875
24.71923828125
24.71923828125
26.55029296875
23.8037109375
21.97265625
21.05712890625
32.04345703125
32.958984375
32.04345703125
25.634765625
30.21240234375
16.4794921875
12.8173828125
21.05712890625
23.8037109375
23.8037109375
27.4658203125
22.88818359375
27.4658203125
29.296875
21.97265625
26.55029296875
22.88818359375
15.56396484375
16.4794921875
23.8037109375
25.634765625
38.4521484375
25.634765625
26.55029296875
29.296875
25.634765625
21.05712890625
18.310546875
23.8037109375
19.22607421875
14.6484375
13.73291015625
23.8037109375
27.4658203125
23.8037109375
20.1416015625
21.05712890625
18.310546875
13.73291015625
14.6484375
19.22607421875
17.39501953125
20.1416015625
19.22607421875
20.1416015625
17.39501953125
14.6484375
19.22607421875
23.8037109375
17.39501953125
23.8037109375
29.296875
31.1279296875
31.1279296875
22.88818359375
28.38134765625
21.05712890625
5.4931640625
11.90185546875
7.32421875
10.07080078125
14.6484375
23.8037109375
23.8037109375
21.97265625
20.1416015625
27.4658203125
35.70556640625
42.1142578125
40.283203125
43.9453125
41.19873046875
38.4521484375
29.296875
35.70556640625
51.26953125
61.34033203125
68.66455078125
64.0869140625
66.83349609375
75.98876953125
83.31298828125
74.15771484375
68.66455078125
70.49560546875
61.34033203125
54.931640625
57.67822265625
59.50927734375
61.34033203125
57.67822265625
56.7626953125
51.26953125
61.34033203125
52.18505859375
37.53662109375
27.4658203125
29.296875
13.73291015625
2.74658203125
7.32421875
17.39501953125
19.22607421875
17.39501953125
11.90185546875
17.39501953125
0
4.57763671875
12.8173828125
14.6484375
11.90185546875
10.07080078125
12.8173828125
9.1552734375
11.90185546875
9.1552734375
7.32421875
6.40869140625
8.23974609375
11.90185546875
20.1416015625
16.4794921875
12.8173828125
18.310546875
10.07080078125
7.32421875
-9.1552734375
-17.39501953125
-32.04345703125
-34.7900390625
-13.73291015625
23.8037109375
68.66455078125
118.10302734375
178.52783203125
277.40478515625
417.48046875
540.1611328125
682.9833984375
834.04541015625
949.40185546875
1037.29248046875
1120.60546875
1155.3955078125
1153.564453125
1105.04150390625
910.0341796875
620.7275390625
373.53515625
165.71044921875
28.38134765625
-56.7626953125
-100.7080078125
-143.73779296875
-161.1328125
-145.56884765625
-116.27197265625
-55.84716796875
9.1552734375
45.7763671875
59.50927734375
82.3974609375
103.45458984375
109.86328125
112.60986328125
112.60986328125
101.62353515625
106.201171875
107.11669921875
106.201171875
116.27197265625
114.44091796875
114.44091796875
119.93408203125
122.6806640625
120.849609375
118.10302734375
120.849609375
108.94775390625
111.6943359375
123.59619140625
120.849609375
123.59619140625
132.75146484375
138.24462890625
132.75146484375
129.08935546875
129.08935546875
125.42724609375
125.42724609375
135.498046875
134.58251953125
144.6533203125
153.80859375
156.55517578125
151.06201171875
146.484375
145.56884765625
149.23095703125
157.470703125
157.470703125
161.1328125
172.119140625
175.78125
171.20361328125
163.87939453125
165.71044921875
173.03466796875
182.18994140625
183.10546875
188.5986328125
191.34521484375
185.85205078125
191.34521484375
202.33154296875
205.99365234375
208.740234375
204.16259765625
215.14892578125
224.30419921875
225.2197265625
218.81103515625
231.62841796875
241.69921875
248.10791015625
252.685546875
249.93896484375
254.5166015625
260.009765625
268.24951171875
276.4892578125
276.4892578125
284.72900390625
304.87060546875
300.29296875
310.36376953125
314.02587890625
321.35009765625
325.01220703125
333.251953125
344.23828125
348.81591796875
346.0693359375
347.900390625
368.95751953125
372.61962890625
379.94384765625
385.43701171875
391.845703125
391.845703125
390.93017578125
401.0009765625
413.818359375
406.494140625
414.73388671875
411.9873046875
416.56494140625
405.57861328125
419.3115234375
419.3115234375
420.22705078125
430.2978515625
420.22705078125
407.40966796875
394.59228515625
396.42333984375
389.09912109375
390.0146484375
374.45068359375
365.29541015625
363.46435546875
343.32275390625
332.33642578125
324.0966796875
303.955078125
297.54638671875
282.89794921875
261.8408203125
249.0234375
239.8681640625
228.8818359375
216.97998046875
199.5849609375
184.9365234375
172.119140625
160.21728515625
145.56884765625
131.8359375
121.76513671875
113.525390625
98.876953125
102.5390625
96.13037109375
86.0595703125
77.81982421875
75.0732421875
58.59375
59.50927734375
56.7626953125
45.7763671875
45.7763671875
46.69189453125
42.1142578125
39.36767578125
35.70556640625
36.62109375
35.70556640625
32.958984375
32.958984375
20.1416015625
27.4658203125
34.7900390625
41.19873046875
36.62109375
40.283203125
32.04345703125
28.38134765625
14.6484375
24.71923828125
41.19873046875
43.9453125
47.607421875
40.283203125
45.7763671875
37.53662109375
41.19873046875
41.19873046875
36.62109375
43.9453125
43.02978515625
44.86083984375
44.86083984375
48.52294921875
42.1142578125
46.69189453125
46.69189453125
56.7626953125
49.4384765625
43.02978515625
46.69189453125
57.67822265625
65.91796875
56.7626953125
54.931640625
50.35400390625
45.7763671875
43.9453125
51.26953125
50.35400390625
44.86083984375
52.18505859375
53.1005859375
52.18505859375
60.4248046875
65.91796875
65.91796875
63.17138671875
63.17138671875
59.50927734375
65.00244140625
67.7490234375
71.4111328125
74.15771484375
73.2421875
65.91796875
65.00244140625
61.34033203125
58.59375
52.18505859375
60.4248046875
64.0869140625
59.50927734375
64.0869140625
57.67822265625
53.1005859375
55.84716796875
45.7763671875
63.17138671875
63.17138671875
57.67822265625
50.35400390625
55.84716796875
44.86083984375
40.283203125
38.4521484375
32.958984375
35.70556640625
42.1142578125
40.283203125
54.01611328125
47.607421875
45.7763671875
46.69189453125
48.52294921875
38.4521484375
38.4521484375
39.36767578125
40.283203125
40.283203125
42.1142578125
44.86083984375
38.4521484375
35.70556640625
32.04345703125
34.7900390625
40.283203125
38.4521484375
34.7900390625
39.36767578125
39.36767578125
37.53662109375
40.283203125
49.4384765625
44.86083984375
41.19873046875
32.958984375
32.04345703125
30.21240234375
35.70556640625
30.21240234375
30.21240234375
27.4658203125
31.1279296875
33.87451171875
21.97265625
24.71923828125
33.87451171875
28.38134765625
24.71923828125
21.05712890625
22.88818359375
16.4794921875
16.4794921875
14.6484375
15.56396484375
18.310546875
22.88818359375
25.634765625
14.6484375
14.6484375
15.56396484375
21.97265625
24.71923828125
19.22607421875
29.296875
35.70556640625
36.62109375
30.21240234375
28.38134765625
30.21240234375
29.296875
21.97265625
19.22607421875
24.71923828125
29.296875
36.62109375
32.04345703125
20.1416015625
27.4658203125
26.55029296875
21.97265625
22.88818359375
21.05712890625
24.71923828125
22.88818359375
6.40869140625
-725.09765625
-1427.30712890625
-1710.205078125
-1951.904296875
-2148.74267578125
-2260.43701171875
-2331.84814453125
-2262.26806640625
-1847.5341796875
-1300.96435546875
-834.9609375
-614.31884765625
-663.75732421875
-843.20068359375
-1138.00048828125
-1393.4326171875
-1599.42626953125
-1680.908203125
-1386.1083984375
-925.59814453125
-526.42822265625
-346.0693359375
-416.56494140625
-611.572265625
-894.47021484375
-1151.7333984375
-1364.1357421875
-1441.95556640625
-1184.6923828125
-768.12744140625
-400.08544921875
-227.96630859375
-294.7998046875
-497.13134765625
-779.11376953125
-1016.2353515625
-1215.8203125
-1287.2314453125
-1044.61669921875
-655.517578125
-319.51904296875
-180.35888671875
-260.92529296875
-442.19970703125
-679.3212890625
-891.7236328125
-1068.42041015625
-1160.888671875
-999.755859375
-704.9560546875
-401.91650390625
-248.10791015625
-277.40478515625
-415.6494140625
-629.8828125
-747.98583984375
-718.68896484375
-628.0517578125
-403.74755859375
-245.361328125
-141.90673828125
-99.79248046875
-74.15771484375
-65.91796875
-63.17138671875
-54.01611328125
-46.69189453125
-47.607421875
-53.1005859375
-55.84716796875
-55.84716796875
-65.91796875
-68.66455078125
-66.83349609375
-75.0732421875
-84.228515625
-84.228515625
-86.0595703125
-87.890625
-91.552734375
-87.890625
-92.46826171875
-99.79248046875
-105.28564453125
-97.0458984375
-89.7216796875
-92.46826171875
-99.79248046875
-94.29931640625
-90.63720703125
-84.228515625
-86.0595703125
-86.0595703125
-92.46826171875
-86.0595703125
-74.15771484375
-90.63720703125
-97.0458984375
-97.96142578125
-99.79248046875
-107.11669921875
-113.525390625
-124.51171875
-140.07568359375
-151.9775390625
-169.37255859375
-172.119140625
-157.470703125
-120.849609375
-80.56640625
-32.04345703125
49.4384765625
165.71044921875
294.7998046875
417.48046875
556.640625
707.70263671875
816.650390625
919.189453125
1090.39306640625
1315.61279296875
1518.85986328125
1512.451171875
1272.5830078125
963.134765625
616.14990234375
196.83837890625
-94.29931640625
0
325.927734375
686.6455078125
918.27392578125
923.76708984375
831.298828125
628.0517578125
318.603515625
36.62109375
-114.44091796875
114.44091796875
560.302734375
1009.82666015625
1294.5556640625
1257.9345703125
1053.77197265625
648.193359375
148.3154296875
-256.34765625
-460.51025390625
-128.173828125
393.6767578125
917.3583984375
1223.14453125
1097.71728515625
841.36962890625
435.791015625
16.4794921875
-325.927734375
-482.48291015625
-177.6123046875
404.6630859375
1016.2353515625
1419.0673828125
1520.69091796875
1318.359375
790.10009765625
240.78369140625
-234.375
-488.8916015625
-185.85205078125
468.75
1111.4501953125
1492.3095703125
1469.42138671875
1196.59423828125
703.125
211.48681640625
-241.69921875
-476.98974609375
-112.60986328125
583.19091796875
1256.103515625
1618.65234375
1570.12939453125
1249.69482421875
709.53369140625
195.00732421875
-258.1787109375
-478.82080078125
-121.76513671875
596.00830078125
1272.5830078125
1619.56787109375
1583.8623046875
1223.14453125
646.3623046875
82.3974609375
-428.466796875
-680.23681640625
-249.93896484375
562.1337890625
1286.31591796875
1628.72314453125
1508.7890625
1106.87255859375
456.84814453125
-143.73779296875
-671.9970703125
-889.892578125
-405.57861328125
453.18603515625
1231.38427734375
1603.08837890625
1468.505859375
1039.12353515625
375.3662109375
-213.31787109375
-736.99951171875
-972.2900390625
-492.5537109375
355.224609375
1143.49365234375
1529.84619140625
1394.34814453125
957.6416015625
285.64453125
-335.0830078125
-875.244140625
-1099.54833984375
-599.67041015625
264.58740234375
1051.025390625
1419.0673828125
1278.076171875
823.05908203125
131.8359375
-504.45556640625
-1062.92724609375
-1302.79541015625
-805.6640625
83.31298828125
894.47021484375
1270.751953125
1118.7744140625
656.43310546875
-56.7626953125
-666.50390625
-1209.41162109375
-1453.857421875
-944.82421875
-41.19873046875
771.78955078125
1148.0712890625
990.6005859375
498.046875
-213.31787109375
-880.7373046875
-1466.6748046875
-1712.95166015625
-1234.130859375
-354.30908203125
434.87548828125
758.056640625
564.88037109375
82.3974609375
-629.8828125
-1284.48486328125
-1878.662109375
-2104.79736328125
-1593.017578125
-696.71630859375
139.16015625
503.5400390625
342.4072265625
-114.44091796875
-762.63427734375
-1361.38916015625
-1926.26953125
-2164.306640625
-1647.94921875
-777.28271484375
-3.662109375
325.927734375
128.173828125
-391.845703125
-1162.7197265625
-1917.1142578125
-2574.462890625
-2875.67138671875
-2436.21826171875
-1531.67724609375
-685.72998046875
-306.70166015625
-473.32763671875
-987.85400390625
-1754.150390625
-2506.7138671875
-3198.8525390625
-3488.1591796875
-2993.7744140625
-2096.5576171875
-1295.47119140625
-979.6142578125
-1215.8203125
-1793.51806640625
-2590.9423828125
-3297.7294921875
-3919.37255859375
-4183.9599609375
-3664.85595703125
-2739.2578125
-1914.36767578125
-1625.06103515625
-1886.90185546875
-2487.48779296875
-3310.546875
-4025.57373046875
-4629.82177734375
-4848.6328125
-4295.654296875
-3342.59033203125
-2508.544921875
-2157.89794921875
-2390.44189453125
-2948.91357421875
-3743.59130859375
-4420.166015625
-4989.6240234375
-5173.64501953125
-4565.73486328125
-3580.62744140625
-2755.7373046875
-2447.20458984375
-2675.1708984375
-3189.697265625
-3918.45703125
-4572.1435546875
-5120.54443359375
-5263.36669921875
-4643.5546875
-3641.05224609375
-2791.44287109375
-2465.51513671875
-2658.69140625
-3172.30224609375
-3916.6259765625
-4544.677734375
-5113.22021484375
-5265.19775390625
-4639.892578125
-3669.43359375
-2845.458984375
-2515.869140625
-2726.4404296875
-3248.291015625
-3998.10791015625
-4642.63916015625
-5202.0263671875
-5354.00390625
-4729.6142578125
-3750
-2914.12353515625
-2610.16845703125
-2808.837890625
-3325.1953125
-4083.251953125
-4731.4453125
-5300.9033203125
-5450.13427734375
-4841.30859375
-3859.86328125
-3035.888671875
-2721.86279296875
-2937.92724609375
-3463.43994140625
-4227.9052734375
-4877.9296875
-5439.14794921875
-5572.81494140625
-4966.73583984375
-3988.037109375
-3168.64013671875
-2861.9384765625
-3074.3408203125
-3593.44482421875
-4341.4306640625
-4996.03271484375
-5546.2646484375
-5685.4248046875
-5088.5009765625
-4104.30908203125
-3284.912109375
-2980.95703125
-3189.697265625
-3714.29443359375
-4438.4765625
-5086.669921875
-5629.57763671875
-5763.24462890625
-5145.263671875
-4168.39599609375
-3352.6611328125
-3060.60791015625
-3282.16552734375
-3818.66455078125
-4562.07275390625
-5226.74560546875
-5798.9501953125
-5939.02587890625
-5310.97412109375
-4302.06298828125
-3464.35546875
-3185.11962890625
-3463.43994140625
-4093.32275390625
-4951.171875
-5667.1142578125
-6262.20703125
-6373.9013671875
-5689.0869140625
-4647.216796875
-3803.1005859375
-3544.00634765625
-3831.48193359375
-4416.50390625
-5221.25244140625
-5894.1650390625
-6466.36962890625
-6612.85400390625
-6004.0283203125
-5088.5009765625
-4389.0380859375
-4206.84814453125
-4541.93115234375
-5220.3369140625
-6134.94873046875
-6897.5830078125
-7528.38134765625
-7725.2197265625
-7076.11083984375
-6031.494140625
-5182.80029296875
-4953.0029296875
-5255.126953125
-5833.740234375
-6737.36572265625
-7463.37890625
-8020.01953125
-7753.60107421875
-6513.97705078125
-5289.9169921875
-4173.88916015625
-3740.8447265625
-4157.40966796875
-4766.2353515625
-5698.2421875
-6549.6826171875
-7194.2138671875
-7103.57666015625
-6132.2021484375
-4868.7744140625
-3957.82470703125
-3826.904296875
-4101.5625
-4646.30126953125
-5535.2783203125
-6340.9423828125
-7037.65869140625
-7139.2822265625
-6317.138671875
-5038.14697265625
-4105.224609375
-3833.31298828125
-4123.53515625
-4762.5732421875
-5656.1279296875
-6438.90380859375
-6989.1357421875
-7026.67236328125
-6235.65673828125
-5122.37548828125
-4250.79345703125
-4033.8134765625
-4347.83935546875
-4927.3681640625
-5736.6943359375
-6387.63427734375
-6951.59912109375
-7011.1083984375
-6251.220703125
-5155.33447265625
-4291.07666015625
-4065.85693359375
-4366.14990234375
-4951.171875
-5732.11669921875
-6323.54736328125
-6843.56689453125
-6894.83642578125
-6194.4580078125
-5159.912109375
-4343.26171875
-4131.77490234375
-4423.828125
-5014.34326171875
-5781.55517578125
-6387.63427734375
-6932.373046875
-6965.33203125
-6253.96728515625
-5261.53564453125
-4486.99951171875
-4287.41455078125
-4555.6640625
-5097.65625
-5847.47314453125
-6436.1572265625
-6929.62646484375
-6968.994140625
-6286.92626953125
-5328.369140625
-4584.9609375
-4395.44677734375
-4669.189453125
-5192.87109375
-5894.1650390625
-6504.82177734375
-7023.92578125
-7063.29345703125
-6401.3671875
-5480.3466796875
-4758.9111328125
-4570.3125
-4826.66015625
-5370.4833984375
-6099.2431640625
-6666.8701171875
-7135.6201171875
-7157.5927734375
-6507.568359375
-5594.78759765625
-4858.70361328125
-4667.3583984375
-4956.6650390625
-5488.58642578125
-6188.04931640625
-6759.33837890625
-7250.9765625
-7281.18896484375
-6626.5869140625
-5720.21484375
-5022.5830078125
-4843.1396484375
-5067.44384765625
-5556.33544921875
-6230.16357421875
-6755.67626953125
-7177.734375
-6980.89599609375
-6175.23193359375
-5197.44873046875
-4314.88037109375
-3936.767578125
-4064.94140625
-4418.3349609375
-4917.29736328125
-5375.06103515625
-5720.21484375
-5686.34033203125
-5119.62890625
-4373.47412109375
-3901.06201171875
-4001.77001953125
-4500.732421875
-5175.47607421875
-5932.6171875
-6511.23046875
-6974.4873046875
-7051.3916015625
-6574.40185546875
-5769.6533203125
-5117.7978515625
-4928.28369140625
-5071.10595703125
-5469.3603515625
-6051.6357421875
-6533.203125
-6874.69482421875
-6858.21533203125
-6260.3759765625
-5450.13427734375
-4785.46142578125
-4609.68017578125
-4833.984375
-5259.70458984375
-5859.375
-6369.32373046875
-6781.31103515625
-6775.81787109375
-6210.9375
-5390.625
-4727.783203125
-4551.08642578125
-4756.16455078125
-5199.27978515625
-5819.091796875
-6307.9833984375
-6726.37939453125
-6755.67626953125
-6184.38720703125
-5349.42626953125
-4689.3310546875
-4517.2119140625
-4728.69873046875
-5189.208984375
-5803.52783203125
-6297.91259765625
-6685.1806640625
-6687.01171875
-6118.46923828125
-5318.29833984375
-4708.55712890625
-4530.94482421875
-4705.810546875
-5154.4189453125
-5757.75146484375
-6259.46044921875
-6660.46142578125
-6652.2216796875
-6101.98974609375
-5318.29833984375
-4684.75341796875
-4527.28271484375
-4750.67138671875
-5193.78662109375
-5787.04833984375
-6270.44677734375
-6662.29248046875
-6668.701171875
-6123.96240234375
-5351.25732421875
-4730.52978515625
-4590.4541015625
-4793.701171875
-5216.6748046875
-5811.767578125
-6280.517578125
-6657.71484375
-6653.13720703125
-6083.67919921875
-5312.80517578125
-4736.9384765625
-4591.36962890625
-4760.7421875
-5183.7158203125
-5755.92041015625
-6248.47412109375
-6620.17822265625
-6599.12109375
-6057.12890625
-5288.0859375
-4679.26025390625
-4521.78955078125
-4724.12109375
-5121.4599609375
-5681.7626953125
-6159.66796875
-6531.3720703125
-6522.216796875
-5974.7314453125
-5220.3369140625
-4625.244140625
-4484.2529296875
-4662.78076171875
-5065.61279296875
-5627.74658203125
-6091.00341796875
-6472.7783203125
-6459.04541015625
-5917.05322265625
-5173.64501953125
-4581.298828125
-4445.80078125
-4627.0751953125
-5028.99169921875
-5592.95654296875
-6071.77734375
-6470.03173828125
-6448.974609375
-5932.6171875
-5180.0537109375
-4615.17333984375
-4483.33740234375
-4677.42919921875
-5095.8251953125
-5660.70556640625
-6138.61083984375
-6534.11865234375
-6557.0068359375
-6053.466796875
-5315.5517578125
-4730.52978515625
-4615.17333984375
-4853.21044921875
-5305.48095703125
-5889.58740234375
-6365.66162109375
-6783.14208984375
-6806.0302734375
-6269.53125
-5527.03857421875
-4972.22900390625
-4895.32470703125
-5150.7568359375
-5627.74658203125
-6253.0517578125
-6754.7607421875
-7171.32568359375
-7153.01513671875
-6579.89501953125
-5784.3017578125
-5196.533203125
-5068.359375
-5318.29833984375
-5760.498046875
-6364.74609375
-6864.6240234375
-7260.1318359375
-7236.328125
-6636.65771484375
-5838.31787109375
-5243.22509765625
-5114.1357421875
-5328.369140625
-5785.21728515625
-6396.78955078125
-6878.35693359375
-7280.2734375
-7255.55419921875
-6665.0390625
-5880.43212890625
-5260.6201171875
-5136.1083984375
-5373.22998046875
-5828.2470703125
-6419.677734375
-6905.82275390625
-7305.908203125
-7254.638671875
-6665.0390625
-5860.29052734375
-5239.56298828125
-5133.36181640625
-5373.22998046875
-5824.5849609375
-6448.974609375
-6926.8798828125
-7307.7392578125
-7252.8076171875
-6654.052734375
-5844.7265625
-5239.56298828125
-5132.4462890625
-5380.55419921875
-5835.5712890625
-6431.57958984375
-6919.5556640625
-7329.7119140625
-7273.86474609375
-6679.6875
-5873.10791015625
-5252.38037109375
-5144.34814453125
-5411.68212890625
-5867.61474609375
-6456.298828125
-6950.68359375
-7360.83984375
-7279.35791015625
-6671.44775390625
-5853.8818359375
-5250.54931640625
-5152.587890625
-5402.52685546875
-5841.97998046875
-6437.98828125
-6904.9072265625
-7275.69580078125
-7233.58154296875
-6649.47509765625
-5877.685546875
-5321.96044921875
-5212.09716796875
-5462.0361328125
-5926.20849609375
-6511.23046875
-6986.38916015625
-7389.22119140625
-7311.4013671875
-6710.8154296875
-5953.67431640625
-5380.55419921875
-5302.734375
-5565.49072265625
-6016.845703125
-6587.21923828125
-7072.44873046875
-7457.8857421875
-7385.55908203125
-6800.537109375
-6062.6220703125
-5509.6435546875
-5426.33056640625
-5673.52294921875
-6123.046875
-6704.40673828125
-7168.5791015625
-7543.02978515625
-7473.44970703125
-6901.2451171875
-6152.34375
-5593.8720703125
-5507.8125
-5769.6533203125
-6218.26171875
-6806.94580078125
-7258.30078125
-7621.76513671875
-7524.71923828125
-6960.75439453125
-6221.923828125
-5676.26953125
-5603.94287109375
-5840.14892578125
-6305.23681640625
-6863.70849609375
-7316.89453125
-7694.091796875
-7597.0458984375
-7033.99658203125
-6308.89892578125
-5762.3291015625
-5711.0595703125
-5936.279296875
-6386.71875
-6958.0078125
-7393.798828125
-7753.60107421875
-7668.45703125
-7099.91455078125
-6373.9013671875
-5826.416015625
-5785.21728515625
-6028.74755859375
-6464.53857421875
-7038.57421875
-7456.97021484375
-7822.265625
-7741.69921875
-7171.32568359375
-6454.4677734375
-5931.70166015625
-5892.333984375
-6137.6953125
-6572.57080078125
-7117.3095703125
-7555.84716796875
-7891.845703125
-7805.7861328125
-7246.39892578125
-6538.6962890625
-6021.42333984375
-5968.32275390625
-6224.67041015625
-6628.41796875
-7174.072265625
-7618.10302734375
-7963.2568359375
-7851.5625
-7268.37158203125
-6561.58447265625
-6063.53759765625
-6018.6767578125
-6253.0517578125
-6666.8701171875
-7210.693359375
-7631.8359375
-7966.9189453125
-7855.224609375
-7287.59765625
-6580.810546875
-6058.9599609375
-6027.83203125
-6264.95361328125
-6698.91357421875
-7251.89208984375
-7662.04833984375
-7988.8916015625
-7870.78857421875
-7300.4150390625
-6593.6279296875
-6091.9189453125
-6048.88916015625
-6300.6591796875
-6732.7880859375
-7247.314453125
-7662.9638671875
-7997.13134765625
-7881.77490234375
-7327.880859375
-6621.09375
-6110.2294921875
-6075.439453125
-6321.71630859375
-6750.18310546875
-7291.259765625
-7692.2607421875
-8009.94873046875
-7882.6904296875
-7342.529296875
-6630.2490234375
-6113.8916015625
-6067.19970703125
-6311.6455078125
-6741.02783203125
-7269.287109375
-7683.10546875
-8028.25927734375
-7906.494140625
-7324.21875
-6620.17822265625
-6123.96240234375
-6083.67919921875
-6331.787109375
-6754.7607421875
-7290.34423828125
-7703.2470703125
-8020.01953125
-7895.5078125
-7322.3876953125
-6619.2626953125
-6118.46923828125
-6080.01708984375
-6318.9697265625
-6730.04150390625
-7250.9765625
-7656.55517578125
-7972.412109375
-7845.15380859375
-7300.4150390625
-6622.9248046875
-6126.708984375
-6081.84814453125
-6309.814453125
-6719.970703125
-7233.58154296875
-7628.173828125
-7938.53759765625
-7799.37744140625
-7242.73681640625
-6581.72607421875
-6114.80712890625
-6092.83447265625
-6315.3076171875
-6743.7744140625
-7261.04736328125
-7673.03466796875
-7989.80712890625
-7839.66064453125
-7286.68212890625
-6639.404296875
-6171.56982421875
-6145.01953125
-6381.2255859375
-6807.861328125
-7319.64111328125
-7708.740234375
-8010.8642578125
-7867.12646484375
-7330.62744140625
-6664.12353515625
-6189.88037109375
-6177.06298828125
-6419.677734375
-6833.49609375
-7318.7255859375
-7712.40234375
-8011.77978515625
-7872.61962890625
-7350.76904296875
-6683.349609375
-6217.34619140625
-6203.61328125
-6424.25537109375
-6829.833984375
-7329.7119140625
-7716.064453125
-8000.79345703125
-7866.2109375
-7337.0361328125
-6691.58935546875
-6234.7412109375
-6215.51513671875
-6472.7783203125
-6860.9619140625
-7376.40380859375
-7764.58740234375
-8087.7685546875
-7930.2978515625
-7337.95166015625
-6664.12353515625
-6163.330078125
-6068.115234375
-6199.951171875
-6479.18701171875
-6846.3134765625
-7098.08349609375
-7221.6796875
-6927.79541015625
-6301.57470703125
-5586.5478515625
-5079.345703125
-5033.5693359375
-5328.369140625
-5950.927734375
-6719.05517578125
-7336.12060546875
-7825.927734375
-7806.70166015625
-7371.826171875
-6793.212890625
-6398.62060546875
-6390.380859375
-6611.02294921875
-6955.26123046875
-7362.6708984375
-7690.4296875
-7952.2705078125
-7779.23583984375
-7229.91943359375
-6607.36083984375
-6157.8369140625
-6158.75244140625
-6410.5224609375
-6805.11474609375
-7259.21630859375
-7634.58251953125
-7913.818359375
-7776.4892578125
-7238.1591796875
-6652.2216796875
-6238.4033203125
-6230.16357421875
-6469.1162109375
-6857.2998046875
-7316.89453125
-7695.9228515625
-7966.9189453125
-7809.4482421875
-7315.97900390625
-6717.22412109375
-6305.23681640625
-6300.6591796875
-6531.3720703125
-6911.31591796875
-7377.3193359375
-7717.8955078125
-7996.2158203125
-7860.7177734375
-7348.93798828125
-6732.7880859375
-6340.02685546875
-6341.85791015625
-6567.9931640625
-6936.95068359375
-7394.71435546875
-7742.61474609375
-8009.033203125
-7866.2109375
-7359.0087890625
-6746.52099609375
-6339.111328125
-6343.68896484375
-6566.162109375
-6928.7109375
-7349.853515625
-7700.50048828125
-7976.07421875
-7820.4345703125
-7294.921875
-6708.06884765625
-6293.3349609375
-6296.08154296875
-6527.7099609375
-6909.48486328125
-7343.44482421875
-7682.18994140625
-7948.6083984375
-7799.37744140625
-7272.03369140625
-6683.349609375
-6286.92626953125
-6299.74365234375
-6502.99072265625
-6867.37060546875
-7295.83740234375
-7631.8359375
-7898.25439453125
-7732.5439453125
-7214.35546875
-6628.41796875
-6216.4306640625
-6194.4580078125
-6418.76220703125
-6818.84765625
-7252.8076171875
-7608.94775390625
-7883.60595703125
-7742.61474609375
-7223.5107421875
-6608.2763671875
-6215.51513671875
-6214.599609375
-6443.4814453125
-6830.74951171875
-7273.86474609375
-7637.3291015625
-7906.494140625
-7734.375
-7190.5517578125
-6559.75341796875
-6148.681640625
-6167.90771484375
-6419.677734375
-6806.94580078125
-7265.625
-7610.77880859375
-7864.3798828125
-7684.02099609375
-7143.85986328125
-6546.0205078125
-6142.27294921875
-6161.4990234375
-6424.25537109375
-6826.171875
-7271.1181640625
-7631.8359375
-7922.05810546875
-7746.27685546875
-7216.1865234375
-6653.13720703125
-6257.62939453125
-6288.75732421875
-6542.3583984375
-6946.10595703125
-7410.2783203125
-7774.658203125
-8044.73876953125
-7868.0419921875
-7370.91064453125
-6794.12841796875
-6402.28271484375
-6434.326171875
-6671.44775390625
-7060.546875
-7515.56396484375
-7877.197265625
-8126.220703125
-7933.04443359375
-7438.65966796875
-6876.52587890625
-6477.35595703125
-6504.82177734375
-6751.0986328125
-7139.2822265625
-7570.49560546875
-7921.142578125
-8189.39208984375
-8011.77978515625
-7493.59130859375
-6898.49853515625
-6500.244140625
-6504.82177734375
-6765.7470703125
-7163.0859375
-7597.96142578125
-7944.03076171875
-8200.37841796875
-8011.77978515625
-7498.1689453125
-6901.2451171875
-6492.00439453125
-6524.0478515625
-6771.240234375
-7160.33935546875
-7601.62353515625
-7940.36865234375
-8192.138671875
-7992.5537109375
-7470.703125
-6880.18798828125
-6487.4267578125
-6523.13232421875
-6755.67626953125
-7138.36669921875
-7575.98876953125
-7921.142578125
-8182.9833984375
-7992.5537109375
-7455.13916015625
-6864.6240234375
-6454.4677734375
-6504.82177734375
-6751.0986328125
-7118.22509765625
-7545.7763671875
-7880.859375
-8145.44677734375
-7939.453125
-7415.771484375
-6843.56689453125
-6448.974609375
-6477.35595703125
-6726.37939453125
-7118.22509765625
-7544.86083984375
-7886.3525390625
-8129.8828125
-7925.72021484375
-7392.88330078125
-6816.10107421875
-6448.05908203125
-6472.7783203125
-6714.4775390625
-7080.6884765625
-7526.55029296875
-7866.2109375
-8115.234375
-7933.9599609375
-7392.88330078125
-6806.0302734375
-6414.1845703125
-6447.1435546875
-6685.1806640625
-7054.13818359375
-7475.28076171875
-7811.279296875
-8069.4580078125
-7880.859375
-7334.28955078125
-6745.60546875
-6351.9287109375
-6381.2255859375
-6622.00927734375
-6993.71337890625
-7439.5751953125
-7781.06689453125
-8033.75244140625
-7819.51904296875
-7288.51318359375
-6700.74462890625
-6311.6455078125
-6342.7734375
-6574.40185546875
-6942.44384765625
-7362.6708984375
-7709.65576171875
-7952.2705078125
-7721.5576171875
-7137.451171875
-6526.79443359375
-6120.30029296875
-6122.13134765625
-6324.462890625
-6655.8837890625
-7091.6748046875
-7402.03857421875
-7632.75146484375
-7412.109375
-6874.69482421875
-6260.3759765625
-5864.8681640625
-5883.1787109375
-6118.46923828125
-6459.04541015625
-6854.55322265625
-7163.0859375
-7377.3193359375
-7165.83251953125
-6607.36083984375
-6003.11279296875
-5578.30810546875
-5527.03857421875
-5706.48193359375
-6043.39599609375
-6416.015625
-6716.30859375
-6910.400390625
-6609.19189453125
-5984.80224609375
-5310.05859375
-4785.46142578125
-4685.6689453125
-4854.1259765625
-5163.57421875
-5517.88330078125
-5799.86572265625
-5969.23828125
-5687.255859375
-5014.34326171875
-4261.77978515625
-3744.5068359375
-3683.16650390625
-3882.75146484375
-4238.8916015625
-4638.97705078125
-4996.03271484375
-5256.9580078125
-4982.2998046875
-4313.96484375
-3540.34423828125
-2957.1533203125
-2872.00927734375
-3095.39794921875
-3511.962890625
-3974.30419921875
-4335.9375
-4602.35595703125
-4324.951171875
-3614.501953125
-2807.92236328125
-2204.58984375
-2114.8681640625
-2321.77734375
-2734.68017578125
-3216.24755859375
-3621.826171875
-3930.35888671875
-3658.447265625
-2917.78564453125
-2054.443359375
-1429.13818359375
-1330.26123046875
-1545.41015625
-2043.45703125
-2622.0703125
-3098.14453125
-3441.46728515625
-3176.8798828125
-2430.72509765625
-1564.63623046875
-937.5
-893.5546875
-1188.3544921875
-1704.7119140625
-2291.56494140625
-2774.96337890625
-3143.9208984375
-2941.58935546875
-2293.39599609375
-1447.44873046875
-795.59326171875
-695.80078125
-888.0615234375
-1410.82763671875
-2015.07568359375
-2375.79345703125
-2842.71240234375
-2736.51123046875
-2358.3984375
-2575.37841796875
-2725.52490234375
-2740.17333984375
-2742.00439453125
-2742.00439453125
-2738.34228515625
-2728.271484375
-2714.53857421875
-2704.4677734375
-2688.90380859375
-2669.677734375
-2663.26904296875
-2661.43798828125
-2647.705078125
-2635.80322265625
-2638.5498046875
-2619.32373046875
-2611.083984375
-2601.9287109375
-2595.52001953125
-2590.9423828125
-2578.125
-2568.9697265625
-2568.05419921875
-2557.9833984375
-2559.814453125
-2546.08154296875
-2527.77099609375
-2512.20703125
-2508.544921875
-2503.0517578125
-2488.4033203125
-2477.4169921875
-2464.599609375
-2451.7822265625
-2454.52880859375
-2452.69775390625
-2443.54248046875
-2423.40087890625
-2390.44189453125
-2378.5400390625
-2374.8779296875
-2373.96240234375
-2373.96240234375
-2354.736328125
-2358.3984375
-2352.9052734375
-2351.07421875
-2332.763671875
-2312.6220703125
-2292.48046875
-2286.9873046875
-2285.15625
-2276.91650390625
-2254.0283203125
-2239.3798828125
-2246.7041015625
-2250.3662109375
-2243.0419921875
-2239.3798828125
-2243.0419921875
-2254.0283203125
-2250.3662109375
-2245.78857421875
-2240.29541015625
-2231.14013671875
-2220.15380859375
-2212.82958984375
-2209.16748046875
-2203.67431640625
-2209.16748046875
-2221.98486328125
-2220.15380859375
-2212.82958984375
-2210.0830078125
-2204.58984375
-2185.36376953125
-2186.279296875
-2188.1103515625
-2176.20849609375
-2173.4619140625
-2174.37744140625
-2160.64453125
-2167.96875
-2160.64453125
-2148.74267578125
-2136.8408203125
-2135.92529296875
-2139.58740234375
-2136.8408203125
-2133.1787109375
-2130.43212890625
-2117.61474609375
-2114.8681640625
-2119.44580078125
-2122.1923828125
-2108.45947265625
-2100.2197265625
-2098.388671875
-2102.05078125
-2107.5439453125
-2115.78369140625
-2112.12158203125
-2103.8818359375
-2084.65576171875
-2048.03466796875
-1978.45458984375
-1911.62109375
-1833.80126953125
-1723.0224609375
-1593.93310546875
-1460.26611328125
-1325.68359375
-1181.0302734375
-1078.4912109375
-990.6005859375
-904.541015625
-877.99072265625
-894.47021484375
-986.02294921875
-1219.482421875
-1495.05615234375
-1733.09326171875
-1894.22607421875
-1988.525390625
-2045.2880859375
-2092.8955078125
-2120.361328125
-2129.5166015625
-2123.10791015625
-2094.7265625
-2042.54150390625
-1989.44091796875
-1950.98876953125
-1926.26953125
-1892.39501953125
-1874.08447265625
-1871.337890625
-1874.08447265625
-1867.67578125
-1864.92919921875
-1851.1962890625
-1839.29443359375
-1826.47705078125
-1820.068359375
-1816.40625
-1821.8994140625
-1815.49072265625
-1808.16650390625
-1812.744140625
-1810.9130859375
-1806.33544921875
-1799.01123046875
-1787.109375
-1784.36279296875
-1777.03857421875
-1769.71435546875
-1763.3056640625
-1764.22119140625
-1761.474609375
-1758.72802734375
-1761.474609375
-1756.89697265625
-1756.89697265625
-1750.48828125
-1743.1640625
-1742.24853515625
-1728.515625
-1725.76904296875
-1713.8671875
-1712.0361328125
-1707.45849609375
-1695.556640625
-1687.31689453125
-1683.65478515625
-1681.82373046875
-1671.7529296875
-1664.4287109375
-1665.34423828125
-1658.935546875
-1660.7666015625
-1657.1044921875
-1644.287109375
-1640.625
-1625.9765625
-1620.4833984375
-1612.24365234375
-1609.4970703125
-1602.1728515625
-1593.93310546875
-1591.1865234375
-1587.5244140625
-1578.369140625
-1572.8759765625
-1572.8759765625
-1560.97412109375
-1539.9169921875
-1533.50830078125
-1534.423828125
-1538.0859375
-1520.69091796875
-1521.6064453125
-1514.2822265625
-1507.87353515625
-1488.6474609375
-1483.154296875
-1463.92822265625
-1456.60400390625
-1451.11083984375
-1442.87109375
-1436.46240234375
-1417.236328125
-1411.7431640625
-1402.587890625
-1398.92578125
-1387.02392578125
-1376.953125
-1362.3046875
-1353.1494140625
-1350.40283203125
-1344.90966796875
-1339.41650390625
-1338.5009765625
-1329.345703125
-1311.03515625
-1301.8798828125
-1288.14697265625
-1284.48486328125
-1280.82275390625
-1275.32958984375
-1272.5830078125
-1280.82275390625
-1278.076171875
-1268.9208984375
-1268.00537109375
-1256.103515625
-1258.85009765625
-1261.5966796875
-1272.5830078125
-1269.83642578125
-1274.4140625
-1282.65380859375
-1289.97802734375
-1296.38671875
-1299.13330078125
-1304.62646484375
-1304.62646484375
-1322.93701171875
-1343.07861328125
-1350.40283203125
-1354.98046875
-1372.37548828125
-1391.6015625
-1408.0810546875
-1416.32080078125
-1416.32080078125
-1421.81396484375
-1441.0400390625
-1456.60400390625
-1467.59033203125
-1471.25244140625
-1484.06982421875
-1495.9716796875
-1495.05615234375
-1497.802734375
-1508.7890625
-1514.2822265625
-1513.36669921875
-1517.02880859375
-1525.2685546875
-1539.9169921875
-1549.072265625
-1551.81884765625
-1539.00146484375
-1529.84619140625
-1535.33935546875
-1528.9306640625
-1547.2412109375
-1549.072265625
-1547.2412109375
-1555.48095703125
-1549.072265625
-1548.15673828125
-1548.15673828125
-1543.5791015625
-1544.49462890625
-1549.072265625
-1544.49462890625
-1532.5927734375
-1523.4375
-1530.76171875
-1535.33935546875
-1529.84619140625
-1511.53564453125
-1515.19775390625
-1526.18408203125
-1519.775390625
-1496.88720703125
-1506.9580078125
-1507.87353515625
-1498.71826171875
-1498.71826171875
-1492.3095703125
-1497.802734375
-1497.802734375
-1495.05615234375
-1487.73193359375
-1480.40771484375
-1484.9853515625
-1483.154296875
-1481.3232421875
-1474.91455078125
-1480.40771484375
-1479.4921875
-1461.181640625
-1461.181640625
-1458.43505859375
-1462.09716796875
-1453.857421875
-1458.43505859375
-1450.1953125
-1445.61767578125
-1446.533203125
-1442.87109375
-1443.78662109375
-1438.29345703125
-1430.96923828125
-1438.29345703125
-1429.13818359375
-1424.560546875
-1420.8984375
-1427.30712890625
-1430.96923828125
-1431.884765625
-1415.4052734375
-1424.560546875
-1432.80029296875
-1413.57421875
-1406.25
-1407.16552734375
-1402.587890625
-1412.65869140625
-1398.92578125
-1397.0947265625
-1396.17919921875
-1391.6015625
-1390.68603515625
-1392.51708984375
-1388.85498046875
-1384.27734375
-1393.4326171875
-1398.92578125
-1402.587890625
-1395.263671875
-1390.68603515625
-1387.939453125
-1389.7705078125
-1384.27734375
-1379.69970703125
-1387.02392578125
-1394.34814453125
-1396.17919921875
-1385.19287109375
-1383.36181640625
-1382.4462890625
-1370.54443359375
-1370.54443359375
-1376.03759765625
-1376.03759765625
-1382.4462890625
-1376.953125
-1382.4462890625
-1379.69970703125
-1372.37548828125
-1371.4599609375
-1367.7978515625
-1365.05126953125
-1367.7978515625
-1370.54443359375
-1374.20654296875
-1376.03759765625
-1373.291015625
-1367.7978515625
-1364.1357421875
-1370.54443359375
-1354.98046875
-1347.65625
-1351.318359375
-1344.90966796875
-1354.98046875
-1355.89599609375
-1352.23388671875
-1350.40283203125
-1353.1494140625
-1358.642578125
-1352.23388671875
-1346.74072265625
-1354.06494140625
-1347.65625
-1345.8251953125
-1347.65625
-1360.4736328125
-1339.41650390625
-1336.669921875
-1330.26123046875
-1324.76806640625
-1329.345703125
-1326.59912109375
-1327.5146484375
-1326.59912109375
-1333.92333984375
-1335.75439453125
-1330.26123046875
-1336.669921875
-1325.68359375
-1322.021484375
-1318.359375
-1319.27490234375
-1327.5146484375
-1333.92333984375
-1323.8525390625
-1320.1904296875
-1323.8525390625
-1319.27490234375
-1315.61279296875
-1320.1904296875
-1311.95068359375
-1308.28857421875
-1303.7109375
-1303.7109375
-1309.2041015625
-1305.5419921875
-1300.048828125
-1301.8798828125
-1308.28857421875
-1300.048828125
-1288.14697265625
-1277.16064453125
-1284.48486328125
-1294.5556640625
-1291.80908203125
-1296.38671875
-1289.0625
-1288.14697265625
-1286.31591796875
-1284.48486328125
-1286.31591796875
-1279.9072265625
-1283.5693359375
-1277.16064453125
-1289.0625
-1293.64013671875
-1280.82275390625
-1276.2451171875
-1272.5830078125
-1273.49853515625
-1268.00537109375
-1270.751953125
-1263.427734375
-1263.427734375
-1259.765625
-1264.34326171875
-1264.34326171875
-1264.34326171875
-1267.08984375
-1263.427734375
-1261.5966796875
-1251.52587890625
-1254.2724609375
-1255.18798828125
-1260.68115234375
-1255.18798828125
-1259.765625
-1260.68115234375
-1252.44140625
-1253.35693359375
-1241.455078125
-1242.37060546875
-1241.455078125
-1243.2861328125
-1246.03271484375
-1249.69482421875
-1240.53955078125
-1247.86376953125
-1245.1171875
-1235.04638671875
-1229.55322265625
-1234.130859375
-1230.46875
-1216.73583984375
-1221.3134765625
-1224.9755859375
-1227.72216796875
-1232.2998046875
-1228.6376953125
-1219.482421875
-1211.24267578125
-1206.6650390625
-1211.24267578125
-1211.24267578125
-1216.73583984375
-1219.482421875
-1210.3271484375
-1209.41162109375
-1209.41162109375
-1194.76318359375
-1192.0166015625
-1199.3408203125
-1194.76318359375
-1198.42529296875
-1196.59423828125
-1195.6787109375
-1174.62158203125
-1165.46630859375
-1153.564453125
-1146.240234375
-1134.33837890625
-1147.15576171875
-1159.97314453125
-1156.31103515625
-1145.32470703125
-1151.7333984375
-1166.3818359375
-1165.46630859375
-1167.29736328125
-1160.888671875
-1140.7470703125
-1152.64892578125
-1166.3818359375
-1171.875
-1162.7197265625
-1169.12841796875
-1185.60791015625
-1199.3408203125
-1189.27001953125
-1180.11474609375
-1186.5234375
-1190.185546875
-1196.59423828125
-1187.43896484375
-1188.3544921875
-1194.76318359375
-1186.5234375
-1198.42529296875
-1187.43896484375
-1186.5234375
-1180.11474609375
-1169.12841796875
-1175.537109375
-1176.45263671875
-1183.77685546875
-1182.861328125
-1181.94580078125
-1177.3681640625
-1157.2265625
-1164.55078125
-1170.0439453125
-1166.3818359375
-1166.3818359375
-1169.12841796875
-1164.55078125
-1174.62158203125
-1188.3544921875
-1196.59423828125
-1187.43896484375
-1184.6923828125
-1154.47998046875
-1118.7744140625
-1073.91357421875
-1012.5732421875
-942.9931640625
-816.650390625
-690.3076171875
-556.640625
-413.818359375
-274.658203125
-173.9501953125
-87.890625
-27.4658203125
-13.73291015625
-27.4658203125
-121.76513671875
-358.88671875
-643.61572265625
-869.7509765625
-1051.94091796875
-1159.97314453125
-1201.171875
-1253.35693359375
-1288.14697265625
-1306.45751953125
-1271.66748046875
-1226.806640625
-1168.212890625
-1119.68994140625
-1088.56201171875
-1069.3359375
-1044.61669921875
-1043.701171875
-1049.1943359375
-1031.79931640625
-1027.2216796875
-1018.06640625
-1011.65771484375
-1004.33349609375
-1004.33349609375
-995.17822265625
-997.00927734375
-1003.41796875
-1005.2490234375
-1007.080078125
-1010.7421875
-1000.67138671875
-1003.41796875
-997.9248046875
-988.76953125
-981.4453125
-979.6142578125
-975.9521484375
-981.4453125
-973.20556640625
-978.69873046875
-977.783203125
-977.783203125
-967.71240234375
-963.134765625
-951.23291015625
-953.9794921875
-949.40185546875
-949.40185546875
-952.1484375
-944.82421875
-942.9931640625
-932.0068359375
-932.92236328125
-927.42919921875
-924.6826171875
-917.3583984375
-914.61181640625
-910.94970703125
-919.189453125
-929.26025390625
-904.541015625
-901.79443359375
-898.13232421875
-890.80810546875
-878.90625
-871.58203125
-872.49755859375
-872.49755859375
-860.595703125
-859.68017578125
-852.35595703125
-843.20068359375
-837.70751953125
-832.21435546875
-827.63671875
-823.974609375
-815.73486328125
-815.73486328125
-819.39697265625
-804.74853515625
-792.8466796875
-784.60693359375
-775.45166015625
-772.705078125
-766.29638671875
-751.64794921875
-748.9013671875
-745.2392578125
-743.408203125
-746.15478515625
-729.67529296875
-720.52001953125
-710.44921875
-694.88525390625
-689.39208984375
-682.06787109375
-673.828125
-670.166015625
-667.41943359375
-662.841796875
-655.517578125
-654.60205078125
-624.3896484375
-617.98095703125
-623.47412109375
-607.91015625
-604.248046875
-617.0654296875
-617.0654296875
-598.7548828125
-596.00830078125
-604.248046875
-597.83935546875
-591.4306640625
-592.34619140625
-596.00830078125
-587.7685546875
-595.0927734375
-598.7548828125
-608.82568359375
-612.48779296875
-618.896484375
-622.55859375
-638.12255859375
-647.27783203125
-650.93994140625
-665.58837890625
-660.09521484375
-682.9833984375
-697.6318359375
-726.01318359375
-737.9150390625
-741.5771484375
-749.81689453125
-760.80322265625
-766.29638671875
-788.26904296875
-811.1572265625
-815.73486328125
-835.87646484375
-845.03173828125
-850.52490234375
-861.51123046875
-864.2578125
-880.7373046875
-871.58203125
-878.90625
-889.892578125
-903.62548828125
-905.45654296875
-906.3720703125
-913.6962890625
-920.10498046875
-912.78076171875
-912.78076171875
-921.93603515625
-922.8515625
-929.26025390625
-937.5
-935.6689453125
-926.513671875
-921.93603515625
-925.59814453125
-929.26025390625
-931.09130859375
-934.75341796875
-935.6689453125
-932.0068359375
-938.41552734375
-940.24658203125
-932.92236328125
-925.59814453125
-937.5
-917.3583984375
-917.3583984375
-919.189453125
-915.52734375
-916.44287109375
-920.10498046875
-921.0205078125
-923.76708984375
-927.42919921875
-926.513671875
-907.28759765625
-908.203125
-902.7099609375
-902.7099609375
-906.3720703125
-914.61181640625
-913.6962890625
-904.541015625
-894.47021484375
-887.14599609375
-881.65283203125
-888.0615234375
-867.00439453125
-870.66650390625
-876.15966796875
-879.82177734375
-886.23046875
-879.82177734375
-875.244140625
-871.58203125
-874.32861328125
-865.17333984375
-861.51123046875
-865.17333984375
-867.919921875
-865.17333984375
-864.2578125
-856.01806640625
-848.69384765625
-849.609375
-846.86279296875
-845.03173828125
-847.7783203125
-846.86279296875
-846.86279296875
-851.4404296875
-858.7646484375
-861.51123046875
-841.36962890625
-834.9609375
-835.87646484375
-840.4541015625
-841.36962890625
-845.947265625
-845.947265625
-845.947265625
-841.36962890625
-842.28515625
-845.03173828125
-840.4541015625
-836.7919921875
-843.20068359375
-841.36962890625
-838.623046875
-846.86279296875
-854.18701171875
-845.947265625
-843.20068359375
-848.69384765625
-843.20068359375
-836.7919921875
-831.298828125
-830.38330078125
-830.38330078125
-839.53857421875
-850.52490234375
-852.35595703125
-837.70751953125
-834.9609375
-827.63671875
-820.3125
-823.05908203125
-823.974609375
-823.974609375
-831.298828125
-838.623046875
-835.87646484375
-838.623046875
-836.7919921875
-836.7919921875
-840.4541015625
-822.1435546875
-815.73486328125
-823.974609375
-829.4677734375
-832.21435546875
-829.4677734375
-830.38330078125
-823.974609375
-821.22802734375
-827.63671875
-811.1572265625
-803.8330078125
-807.4951171875
-816.650390625
-831.298828125
-823.05908203125
-813.90380859375
-819.39697265625
-814.8193359375
-816.650390625
-806.57958984375
-802.91748046875
-806.57958984375
-809.326171875
-824.89013671875
-827.63671875
-812.07275390625
-807.4951171875
-805.6640625
-809.326171875
-799.25537109375
-796.5087890625
-798.33984375
-798.33984375
-797.42431640625
-797.42431640625
-798.33984375
-799.25537109375
-804.74853515625
-806.57958984375
-789.1845703125
-781.8603515625
-789.1845703125
-789.1845703125
-791.93115234375
-788.26904296875
-787.353515625
-782.77587890625
-779.11376953125
-785.5224609375
-791.015625
-780.029296875
-777.28271484375
-784.60693359375
-788.26904296875
-785.5224609375
-790.10009765625
-779.11376953125
-781.8603515625
-779.11376953125
-781.8603515625
-780.94482421875
-777.28271484375
-776.3671875
-775.45166015625
-776.3671875
-777.28271484375
-780.94482421875
-775.45166015625
-781.8603515625
-766.29638671875
-758.97216796875
-768.12744140625
-768.12744140625
-765.380859375
-779.11376953125
-777.28271484375
-779.11376953125
-772.705078125
-763.5498046875
-758.97216796875
-759.8876953125
-764.46533203125
-766.29638671875
-759.8876953125
-757.14111328125
-758.056640625
-752.5634765625
-758.056640625
-758.056640625
-753.47900390625
-747.98583984375
-742.49267578125
-740.66162109375
-742.49267578125
-751.64794921875
-744.32373046875
-747.98583984375
-751.64794921875
-752.5634765625
-741.5771484375
-735.16845703125
-739.74609375
-743.408203125
-736.083984375
-736.083984375
-745.2392578125
-738.83056640625
-725.09765625
-728.759765625
-726.01318359375
-730.5908203125
-732.421875
-733.33740234375
-736.99951171875
-736.99951171875
-728.759765625
-734.2529296875
-724.18212890625
-714.111328125
-703.125
-709.53369140625
-708.6181640625
-716.85791015625
-724.18212890625
-715.02685546875
-700.37841796875
-693.05419921875
-667.41943359375
-649.10888671875
-660.09521484375
-662.841796875
-668.3349609375
-660.09521484375
-668.3349609375
-674.74365234375
-671.9970703125
-665.58837890625
-661.92626953125
-667.41943359375
-659.1796875
-664.6728515625
-671.9970703125
-674.74365234375
-671.08154296875
-683.89892578125
-687.56103515625
-688.4765625
-693.9697265625
-698.54736328125
-706.787109375
-707.70263671875
-701.2939453125
-701.2939453125
-703.125
-705.87158203125
-706.787109375
-710.44921875
-703.125
-699.462890625
-695.80078125
-691.22314453125
-692.138671875
-693.05419921875
-694.88525390625
-691.22314453125
-692.138671875
-690.3076171875
-693.05419921875
-700.37841796875
-700.37841796875
-693.9697265625
-685.72998046875
-683.89892578125
-692.138671875
-680.23681640625
-683.89892578125
-693.9697265625
-711.36474609375
-715.02685546875
-712.2802734375
-700.37841796875
-674.74365234375
-623.47412109375
-577.69775390625
-524.59716796875
-417.48046875
-278.3203125
-155.6396484375
-31.1279296875
120.849609375
250.8544921875
335.99853515625
416.56494140625
465.087890625
463.2568359375
444.03076171875
297.54638671875
28.38134765625
-229.79736328125
-448.6083984375
-618.896484375
-726.01318359375
-774.5361328125
-811.1572265625
-824.89013671875
-818.4814453125
-781.8603515625
-730.5908203125
-672.91259765625
-635.3759765625
-605.16357421875
-583.19091796875
-574.951171875
-565.7958984375
-561.21826171875
-565.7958984375
-565.7958984375
-551.1474609375
-539.24560546875
-540.1611328125
-544.73876953125
-552.978515625
-550.23193359375
-543.8232421875
-540.1611328125
-539.24560546875
-541.07666015625
-542.90771484375
-537.41455078125
-535.58349609375
-534.66796875
-549.31640625
-552.06298828125
-543.8232421875
-532.8369140625
-522.76611328125
-515.44189453125
-502.62451171875
-502.62451171875
-501.708984375
-504.45556640625
-497.13134765625
-500.79345703125
-489.80712890625
-496.2158203125
-498.96240234375
-497.13134765625
-486.14501953125
-476.98974609375
-475.15869140625
-470.5810546875
-471.49658203125
-473.32763671875
-468.75
-467.83447265625
-463.2568359375
-455.9326171875
-457.763671875
-451.35498046875
-431.21337890625
-433.9599609375
-432.12890625
-439.453125
-427.55126953125
-430.2978515625
-427.55126953125
-427.55126953125
-409.24072265625
-405.57861328125
-400.08544921875
-390.0146484375
-391.845703125
-392.76123046875
-385.43701171875
-378.11279296875
-373.53515625
-371.7041015625
-365.29541015625
-346.98486328125
-340.576171875
-339.66064453125
-335.99853515625
-336.9140625
-327.7587890625
-312.19482421875
-306.70166015625
-292.05322265625
-283.8134765625
-272.8271484375
-260.92529296875
-260.009765625
-257.26318359375
-244.44580078125
-242.61474609375
-235.29052734375
-234.375
-222.47314453125
-213.31787109375
-205.078125
-193.17626953125
-190.4296875
-180.35888671875
-179.443359375
-174.86572265625
-167.54150390625
-166.6259765625
-158.38623046875
-157.470703125
-157.470703125
-157.470703125
-148.3154296875
-157.470703125
-158.38623046875
-160.21728515625
-170.2880859375
-173.03466796875
-173.9501953125
-180.35888671875
-195.00732421875
-184.9365234375
-193.17626953125
-201.416015625
-216.97998046875
-240.78369140625
-244.44580078125
-244.44580078125
-258.1787109375
-281.06689453125
-290.22216796875
-296.630859375
-312.19482421875
-329.58984375
-349.7314453125
-356.14013671875
-366.2109375
-394.59228515625
-399.169921875
-412.90283203125
-418.39599609375
-424.8046875
-434.87548828125
-455.9326171875
-466.00341796875
-470.5810546875
-475.15869140625
-481.5673828125
-483.3984375
-487.97607421875
-486.14501953125
-483.3984375
-494.384765625
-502.62451171875
-498.96240234375
-514.5263671875
-512.6953125
-505.37109375
-507.2021484375
-509.94873046875
-507.2021484375
-508.11767578125
-510.8642578125
-515.44189453125
-514.5263671875
-522.76611328125
-524.59716796875
-511.77978515625
-496.2158203125
-508.11767578125
-511.77978515625
-514.5263671875
-519.10400390625
-509.033203125
-495.30029296875
-496.2158203125
-498.046875
-500.79345703125
-494.384765625
-489.80712890625
-487.97607421875
-479.736328125
-468.75
-478.82080078125
-489.80712890625
-484.31396484375
-484.31396484375
-481.5673828125
-476.98974609375
-475.15869140625
-469.66552734375
-466.9189453125
-466.00341796875
-472.412109375
-466.9189453125
-471.49658203125
-467.83447265625
-457.763671875
-457.763671875
-455.01708984375
-453.18603515625
-461.42578125
-465.087890625
-459.5947265625
-460.51025390625
-468.75
-460.51025390625
-456.84814453125
-450.439453125
-448.6083984375
-450.439453125
-439.453125
-442.19970703125
-443.115234375
-443.115234375
-455.01708984375
-454.1015625
-455.9326171875
-448.6083984375
-446.77734375
-433.04443359375
-433.9599609375
-433.9599609375
-440.36865234375
-442.19970703125
-432.12890625
-433.9599609375
-436.70654296875
-433.9599609375
-437.6220703125
-427.55126953125
-425.72021484375
-422.05810546875
-421.142578125
-429.38232421875
-437.6220703125
-436.70654296875
-436.70654296875
-433.04443359375
-433.9599609375
-430.2978515625
-426.6357421875
-424.8046875
-419.3115234375
-436.70654296875
-437.6220703125
-433.9599609375
-430.2978515625
-426.6357421875
-433.04443359375
-430.2978515625
-433.9599609375
-428.466796875
-424.8046875
-428.466796875
-424.8046875
-437.6220703125
-436.70654296875
-432.12890625
-425.72021484375
-414.73388671875
-418.39599609375
-421.142578125
-429.38232421875
-432.12890625
-428.466796875
-433.9599609375
-432.12890625
-431.21337890625
-423.88916015625
-405.57861328125
-410.15625
-414.73388671875
-418.39599609375
-417.48046875
-419.3115234375
-413.818359375
-406.494140625
-407.40966796875
-418.39599609375
-408.3251953125
-401.91650390625
-411.07177734375
-418.39599609375
-411.9873046875
-413.818359375
-422.9736328125
-406.494140625
-404.6630859375
-403.74755859375
-408.3251953125
-402.83203125
-392.76123046875
-404.6630859375
-406.494140625
-412.90283203125
-406.494140625
-413.818359375
-410.15625
-404.6630859375
-397.3388671875
-391.845703125
-395.5078125
-390.93017578125
-393.6767578125
-393.6767578125
-402.83203125
-401.91650390625
-395.5078125
-390.0146484375
-391.845703125
-393.6767578125
-390.93017578125
-386.3525390625
-390.93017578125
-390.0146484375
-385.43701171875
-381.77490234375
-379.0283203125
-371.7041015625
-372.61962890625
-381.77490234375
-379.0283203125
-382.6904296875
-385.43701171875
-394.59228515625
-382.6904296875
-381.77490234375
-381.77490234375
-371.7041015625
-368.0419921875
-369.873046875
-368.95751953125
-379.94384765625
-385.43701171875
-387.26806640625
-385.43701171875
-377.197265625
-370.78857421875
-374.45068359375
-362.548828125
-367.12646484375
-369.873046875
-379.94384765625
-380.859375
-373.53515625
-373.53515625
-359.80224609375
-357.97119140625
-358.88671875
-357.0556640625
-358.88671875
-360.7177734375
-356.14013671875
-350.64697265625
-352.47802734375
-355.224609375
-356.14013671875
-346.0693359375
-341.49169921875
-344.23828125
-350.64697265625
-345.15380859375
-347.900390625
-352.47802734375
-355.224609375
-351.5625
-350.64697265625
-353.3935546875
-345.15380859375
-338.7451171875
-336.9140625
-343.32275390625
-345.15380859375
-343.32275390625
-346.98486328125
-346.0693359375
-338.7451171875
-331.4208984375
-335.0830078125
-335.0830078125
-328.67431640625
-315.85693359375
-314.02587890625
-325.01220703125
-335.99853515625
-327.7587890625
-324.0966796875
-321.35009765625
-326.84326171875
-319.51904296875
-308.53271484375
-312.19482421875
-296.630859375
-286.56005859375
-285.64453125
-288.39111328125
-272.8271484375
-285.64453125
-278.3203125
-284.72900390625
-289.306640625
-281.06689453125
-272.8271484375
-265.5029296875
-268.24951171875
-281.06689453125
-297.54638671875
-297.54638671875
-274.658203125
-285.64453125
-295.71533203125
-306.70166015625
-310.36376953125
-317.68798828125
-315.85693359375
-315.85693359375
-318.603515625
-314.02587890625
-320.4345703125
-314.02587890625
-307.6171875
-313.1103515625
-311.279296875
-314.02587890625
-309.4482421875
-307.6171875
-306.70166015625
-309.4482421875
-309.4482421875
-301.20849609375
-292.05322265625
-292.96875
-299.37744140625
-299.37744140625
-303.03955078125
-300.29296875
-304.87060546875
-303.955078125
-301.20849609375
-292.05322265625
-293.88427734375
-295.71533203125
-308.53271484375
-316.7724609375
-322.265625
-316.7724609375
-289.306640625
-243.5302734375
-205.078125
-130.92041015625
-46.69189453125
81.48193359375
201.416015625
318.603515625
464.17236328125
598.7548828125
694.88525390625
778.1982421875
837.70751953125
847.7783203125
828.55224609375
696.71630859375
441.2841796875
173.03466796875
-51.26953125
-196.83837890625
-289.306640625
-340.576171875
-383.60595703125
-400.08544921875
-398.25439453125
-392.76123046875
-363.46435546875
-314.02587890625
-263.671875
-247.1923828125
-232.5439453125
-196.83837890625
-175.78125
-171.20361328125
-170.2880859375
-162.9638671875
-162.9638671875
-163.87939453125
-166.6259765625
-167.54150390625
-162.9638671875
-159.3017578125
-153.80859375
-148.3154296875
-147.39990234375
-139.16015625
-138.24462890625
-140.9912109375
-154.72412109375
-152.89306640625
-150.146484375
-142.822265625
-128.173828125
-132.75146484375
-125.42724609375
-135.498046875
-127.25830078125
-118.10302734375
-123.59619140625
-119.0185546875
-113.525390625
-104.3701171875
-104.3701171875
-101.62353515625
-100.7080078125
-88.80615234375
-87.890625
-99.79248046875
-103.45458984375
-88.80615234375
-80.56640625
-75.98876953125
-68.66455078125
-60.4248046875
-58.59375
-57.67822265625
-58.59375
-57.67822265625
-45.7763671875
-53.1005859375
-44.86083984375
-32.958984375
-33.87451171875
-21.05712890625
-12.8173828125
-23.8037109375
-17.39501953125
-14.6484375
-15.56396484375
-16.4794921875
-12.8173828125
-1.8310546875
20.1416015625
29.296875
38.4521484375
40.283203125
39.36767578125
43.02978515625
47.607421875
54.01611328125
63.17138671875
75.0732421875
80.56640625
89.7216796875
99.79248046875
103.45458984375
108.94775390625
112.60986328125
115.3564453125
125.42724609375
130.0048828125
142.822265625
155.6396484375
161.1328125
161.1328125
178.52783203125
180.35888671875
182.18994140625
183.10546875
190.4296875
204.16259765625
205.078125
218.81103515625
218.81103515625
232.5439453125
228.8818359375
233.45947265625
234.375
227.05078125
220.64208984375
221.5576171875
240.78369140625
242.61474609375
233.45947265625
236.2060546875
225.2197265625
220.64208984375
212.40234375
192.2607421875
176.69677734375
179.443359375
179.443359375
163.87939453125
156.55517578125
140.9912109375
136.41357421875
121.76513671875
103.45458984375
89.7216796875
80.56640625
51.26953125
40.283203125
32.04345703125
32.04345703125
21.97265625
-3.662109375
-17.39501953125
-21.05712890625
-36.62109375
-53.1005859375
-61.34033203125
-73.2421875
-69.580078125
-80.56640625
-86.0595703125
-75.0732421875
-82.3974609375
-94.29931640625
-103.45458984375
-107.11669921875
-112.60986328125
-106.201171875
-97.96142578125
-102.5390625
-107.11669921875
-106.201171875
-111.6943359375
-117.1875
-116.27197265625
-118.10302734375
-124.51171875
-115.3564453125
-114.44091796875
-105.28564453125
-108.0322265625
-112.60986328125
-110.77880859375
-114.44091796875
-117.1875
-113.525390625
-108.94775390625
-106.201171875
-103.45458984375
-100.7080078125
-103.45458984375
-97.0458984375
-101.62353515625
-106.201171875
-111.6943359375
-99.79248046875
-97.0458984375
-88.80615234375
-87.890625
-95.21484375
-80.56640625
-75.0732421875
-94.29931640625
-97.0458984375
-97.0458984375
-84.228515625
-80.56640625
-79.65087890625
-68.66455078125
-67.7490234375
-64.0869140625
-60.4248046875
-66.83349609375
-71.4111328125
-76.904296875
-74.15771484375
-72.32666015625
-65.91796875
-57.67822265625
-63.17138671875
-52.18505859375
-50.35400390625
-55.84716796875
-63.17138671875
-64.0869140625
-59.50927734375
-60.4248046875
-54.01611328125
-53.1005859375
-47.607421875
-43.02978515625
-45.7763671875
-50.35400390625
-47.607421875
-47.607421875
-43.02978515625
-49.4384765625
-50.35400390625
-46.69189453125
-42.1142578125
-43.02978515625
-40.283203125
-44.86083984375
-46.69189453125
-49.4384765625
-59.50927734375
-51.26953125
-43.02978515625
-47.607421875
-55.84716796875
-31.1279296875
-34.7900390625
-45.7763671875
-47.607421875
-45.7763671875
-44.86083984375
-50.35400390625
-40.283203125
-46.69189453125
-42.1142578125
-52.18505859375
-49.4384765625
-51.26953125
-53.1005859375
-55.84716796875
-51.26953125
-50.35400390625
-45.7763671875
-43.9453125
-40.283203125
-34.7900390625
-35.70556640625
-40.283203125
-49.4384765625
-49.4384765625
-41.19873046875
-44.86083984375
-49.4384765625
-48.52294921875
-38.4521484375
-21.97265625
-27.4658203125
-36.62109375
-46.69189453125
-46.69189453125
-40.283203125
-40.283203125
-40.283203125
-41.19873046875
-34.7900390625
-34.7900390625
-32.04345703125
-32.958984375
-44.86083984375
-33.87451171875
-39.36767578125
-42.1142578125
-31.1279296875
-25.634765625
-21.97265625
-27.4658203125
-37.53662109375
-41.19873046875
-38.4521484375
-43.9453125
-40.283203125
-45.7763671875
-44.86083984375
-27.4658203125
-17.39501953125
-28.38134765625
-31.1279296875
-32.958984375
-34.7900390625
-31.1279296875
-31.1279296875
-43.02978515625
-29.296875
-25.634765625
-21.05712890625
-16.4794921875
-22.88818359375
-24.71923828125
-24.71923828125
-28.38134765625
-28.38134765625
-26.55029296875
-23.8037109375
-26.55029296875
-17.39501953125
-17.39501953125
-12.8173828125
-10.986328125
-10.07080078125
-16.4794921875
-12.8173828125
-17.39501953125
-12.8173828125
-10.986328125
-2.74658203125
-8.23974609375
-7.32421875
-11.90185546875
-26.55029296875
-20.1416015625
-10.07080078125
-11.90185546875
-3.662109375
-3.662109375
4.57763671875
7.32421875
6.40869140625
-5.4931640625
-13.73291015625
-20.1416015625
-5.4931640625
-9.1552734375
-15.56396484375
-3.662109375
4.57763671875
13.73291015625
21.05712890625
22.88818359375
12.8173828125
5.4931640625
0.91552734375
15.56396484375
8.23974609375
19.22607421875
28.38134765625
43.9453125
51.26953125
45.7763671875
59.50927734375
52.18505859375
59.50927734375
57.67822265625
49.4384765625
54.01611328125
65.91796875
55.84716796875
58.59375
58.59375
47.607421875
53.1005859375
45.7763671875
43.9453125
38.4521484375
32.04345703125
32.04345703125
35.70556640625
22.88818359375
10.986328125
14.6484375
10.986328125
13.73291015625
20.1416015625
14.6484375
17.39501953125
14.6484375
10.986328125
13.73291015625
20.1416015625
10.07080078125
7.32421875
13.73291015625
20.1416015625
25.634765625
25.634765625
21.97265625
23.8037109375
26.55029296875
21.05712890625
29.296875
19.22607421875
24.71923828125
25.634765625
24.71923828125
27.4658203125
32.04345703125
25.634765625
6.40869140625
-5.4931640625
-10.986328125
7.32421875
36.62109375
80.56640625
132.75146484375
214.2333984375
312.19482421875
446.77734375
550.23193359375
676.57470703125
829.4677734375
956.72607421875
1042.78564453125
1131.591796875
1169.12841796875
1161.80419921875
1113.28125
932.0068359375
655.517578125
405.57861328125
203.2470703125
79.65087890625
-9.1552734375
-39.36767578125
-75.0732421875
-90.63720703125
-101.62353515625
-75.98876953125
-26.55029296875
32.04345703125
65.00244140625
80.56640625
110.77880859375
123.59619140625
135.498046875
136.41357421875
145.56884765625
145.56884765625
149.23095703125
151.9775390625
159.3017578125
154.72412109375
156.55517578125
159.3017578125
164.794921875
162.9638671875
162.04833984375
172.119140625
165.71044921875
159.3017578125
159.3017578125
169.37255859375
181.2744140625
184.02099609375
176.69677734375
179.443359375
178.52783203125
195.9228515625
194.091796875
185.85205078125
184.9365234375
182.18994140625
188.5986328125
196.83837890625
203.2470703125
211.48681640625
216.97998046875
212.40234375
215.14892578125
214.2333984375
211.48681640625
227.05078125
235.29052734375
233.45947265625
228.8818359375
238.95263671875
238.037109375
237.12158203125
242.61474609375
243.5302734375
243.5302734375
257.26318359375
255.43212890625
251.77001953125
269.1650390625
270.99609375
274.658203125
280.1513671875
287.4755859375
292.05322265625
294.7998046875
295.71533203125
299.37744140625
308.53271484375
313.1103515625
314.02587890625
318.603515625
326.84326171875
335.0830078125
335.0830078125
347.900390625
357.0556640625
361.63330078125
368.95751953125
374.45068359375
378.11279296875
394.59228515625
402.83203125
410.15625
418.39599609375
430.2978515625
439.453125
442.19970703125
447.69287109375
457.763671875
466.00341796875
476.07421875
481.5673828125
488.8916015625
498.96240234375
499.8779296875
499.8779296875
499.8779296875
503.5400390625
513.61083984375
514.5263671875
520.01953125
524.59716796875
517.27294921875
520.01953125
527.34375
524.59716796875
523.681640625
520.01953125
509.033203125
507.2021484375
509.033203125
513.61083984375
505.37109375
485.2294921875
482.48291015625
472.412109375
466.00341796875
459.5947265625
444.03076171875
417.48046875
409.24072265625
397.3388671875
375.3662109375
360.7177734375
353.3935546875
338.7451171875
322.265625
307.6171875
301.20849609375
289.306640625
274.658203125
260.92529296875
248.10791015625
244.44580078125
238.037109375
229.79736328125
216.064453125
208.740234375
200.50048828125
196.83837890625
197.75390625
193.17626953125
190.4296875
182.18994140625
171.20361328125
163.87939453125
163.87939453125
169.37255859375
171.20361328125
156.55517578125
154.72412109375
155.6396484375
158.38623046875
150.146484375
147.39990234375
148.3154296875
146.484375
151.9775390625
159.3017578125
150.146484375
154.72412109375
150.146484375
147.39990234375
154.72412109375
147.39990234375
148.3154296875
144.6533203125
151.06201171875
151.06201171875
154.72412109375
156.55517578125
151.9775390625
160.21728515625
167.54150390625
170.2880859375
162.9638671875
163.87939453125
173.03466796875
172.119140625
160.21728515625
156.55517578125
164.794921875
173.03466796875
173.9501953125
170.2880859375
169.37255859375
172.119140625
178.52783203125
175.78125
170.2880859375
174.86572265625
179.443359375
175.78125
178.52783203125
173.03466796875
177.6123046875
184.9365234375
186.767578125
186.767578125
175.78125
186.767578125
189.51416015625
184.02099609375
185.85205078125
175.78125
181.2744140625
181.2744140625
184.9365234375
193.17626953125
190.4296875
193.17626953125
197.75390625
195.00732421875
191.34521484375
182.18994140625
181.2744140625
183.10546875
183.10546875
204.16259765625
193.17626953125
185.85205078125
190.4296875
185.85205078125
179.443359375
200.50048828125
204.16259765625
196.83837890625
184.9365234375
187.68310546875
183.10546875
182.18994140625
194.091796875
195.9228515625
187.68310546875
186.767578125
186.767578125
174.86572265625
181.2744140625
190.4296875
181.2744140625
185.85205078125
182.18994140625
182.18994140625
173.9501953125
174.86572265625
173.9501953125
173.9501953125
179.443359375
181.2744140625
174.86572265625
180.35888671875
182.18994140625
181.2744140625
184.02099609375
185.85205078125
179.443359375
181.2744140625
184.02099609375
179.443359375
178.52783203125
175.78125
171.20361328125
168.45703125
179.443359375
177.6123046875
175.78125
176.69677734375
180.35888671875
180.35888671875
176.69677734375
180.35888671875
178.52783203125
174.86572265625
177.6123046875
168.45703125
173.03466796875
176.69677734375
178.52783203125
177.6123046875
178.52783203125
180.35888671875
173.03466796875
174.86572265625
175.78125
170.2880859375
170.2880859375
177.6123046875
173.9501953125
170.2880859375
161.1328125
158.38623046875
165.71044921875
167.54150390625
167.54150390625
171.20361328125
170.2880859375
174.86572265625
171.20361328125
166.6259765625
162.04833984375
160.21728515625
159.3017578125
164.794921875
156.55517578125
170.2880859375
157.470703125
162.04833984375
160.21728515625
163.87939453125
170.2880859375
163.87939453125
167.54150390625
166.6259765625
174.86572265625
178.52783203125
180.35888671875
173.03466796875
176.69677734375
180.35888671875
175.78125
172.119140625
185.85205078125
182.18994140625
174.86572265625
172.119140625
170.2880859375
168.45703125
170.2880859375
184.02099609375
183.10546875
181.2744140625
178.52783203125
180.35888671875
181.2744140625
178.52783203125
187.68310546875
180.35888671875
174.86572265625
175.78125
183.10546875
176.69677734375
184.9365234375
182.18994140625
180.35888671875
192.2607421875
189.51416015625
184.02099609375
192.2607421875
203.2470703125
212.40234375
208.740234375
206.9091796875
213.31787109375
213.31787109375
205.078125
203.2470703125
211.48681640625
224.30419921875
231.62841796875
238.037109375
249.0234375
254.5166015625
256.34765625
260.009765625
261.8408203125
251.77001953125
250.8544921875
248.10791015625
240.78369140625
252.685546875
247.1923828125
243.5302734375
243.5302734375
238.95263671875
238.037109375
242.61474609375
237.12158203125
235.29052734375
227.05078125
218.81103515625
209.65576171875
209.65576171875
208.740234375
206.9091796875
208.740234375
205.99365234375
203.2470703125
195.9228515625
207.82470703125
207.82470703125
216.064453125
216.97998046875
203.2470703125
207.82470703125
212.40234375
216.064453125
208.740234375
216.064453125
209.65576171875
214.2333984375
216.97998046875
208.740234375
205.078125
208.740234375
214.2333984375
208.740234375
219.7265625
215.14892578125
213.31787109375
195.00732421875
197.75390625
196.83837890625
195.00732421875
221.5576171875
261.8408203125
305.7861328125
362.548828125
458.67919921875
576.7822265625
703.125
822.1435546875
970.458984375
1111.4501953125
1201.171875
1294.5556640625
1352.23388671875
1356.8115234375
1350.40283203125
1237.79296875
986.02294921875
706.787109375
480.65185546875
301.20849609375
183.10546875
129.08935546875
95.21484375
68.66455078125
66.83349609375
91.552734375
143.73779296875
216.97998046875
253.60107421875
276.4892578125
302.1240234375
314.94140625
333.251953125
328.67431640625
335.0830078125
336.9140625
346.98486328125
348.81591796875
341.49169921875
336.9140625
331.4208984375
333.251953125
341.49169921875
349.7314453125
345.15380859375
350.64697265625
357.97119140625
356.14013671875
353.3935546875
362.548828125
354.30908203125
355.224609375
369.873046875
363.46435546875
379.0283203125
368.95751953125
380.859375
376.28173828125
377.197265625
379.0283203125
380.859375
388.18359375
393.6767578125
392.76123046875
394.59228515625
401.91650390625
401.0009765625
401.91650390625
398.25439453125
414.73388671875
417.48046875
403.74755859375
409.24072265625
417.48046875
438.53759765625
442.19970703125
445.86181640625
433.04443359375
427.55126953125
433.04443359375
445.86181640625
448.6083984375
460.51025390625
460.51025390625
459.5947265625
466.00341796875
468.75
483.3984375
462.34130859375
457.763671875
477.9052734375
487.97607421875
492.5537109375
500.79345703125
504.45556640625
516.357421875
516.357421875
509.94873046875
518.1884765625
525.5126953125
537.41455078125
540.1611328125
542.90771484375
553.89404296875
557.55615234375
566.71142578125
588.68408203125
591.4306640625
596.00830078125
600.5859375
613.4033203125
628.96728515625
639.95361328125
650.93994140625
648.193359375
653.6865234375
650.93994140625
650.93994140625
660.09521484375
666.50390625
677.490234375
679.3212890625
683.89892578125
687.56103515625
693.05419921875
695.80078125
692.138671875
694.88525390625
684.814453125
696.71630859375
701.2939453125
707.70263671875
697.6318359375
690.3076171875
683.89892578125
691.22314453125
682.06787109375
671.08154296875
663.75732421875
654.60205078125
639.0380859375
626.220703125
624.3896484375
611.572265625
589.599609375
581.35986328125
564.88037109375
547.4853515625
524.59716796875
516.357421875
508.11767578125
487.060546875
484.31396484375
462.34130859375
452.2705078125
447.69287109375
435.791015625
424.8046875
410.15625
393.6767578125
392.76123046875
379.94384765625
376.28173828125
367.12646484375
362.548828125
355.224609375
353.3935546875
354.30908203125
346.98486328125
335.99853515625
337.82958984375
335.99853515625
333.251953125
325.927734375
327.7587890625
324.0966796875
320.4345703125
321.35009765625
315.85693359375
310.36376953125
312.19482421875
318.603515625
315.85693359375
312.19482421875
309.4482421875
309.4482421875
316.7724609375
328.67431640625
325.01220703125
312.19482421875
310.36376953125
314.02587890625
324.0966796875
314.02587890625
313.1103515625
325.927734375
316.7724609375
317.68798828125
330.50537109375
328.67431640625
329.58984375
335.0830078125
338.7451171875
333.251953125
339.66064453125
343.32275390625
347.900390625
348.81591796875
350.64697265625
347.900390625
349.7314453125
346.98486328125
352.47802734375
355.224609375
350.64697265625
355.224609375
359.80224609375
354.30908203125
346.98486328125
352.47802734375
359.80224609375
363.46435546875
366.2109375
366.2109375
368.0419921875
362.548828125
357.97119140625
357.97119140625
358.88671875
362.548828125
363.46435546875
376.28173828125
379.94384765625
369.873046875
361.63330078125
359.80224609375
362.548828125
374.45068359375
374.45068359375
363.46435546875
357.97119140625
367.12646484375
365.29541015625
368.95751953125
372.61962890625
363.46435546875
367.12646484375
371.7041015625
369.873046875
365.29541015625
375.3662109375
378.11279296875
378.11279296875
363.46435546875
370.78857421875
374.45068359375
374.45068359375
367.12646484375
372.61962890625
377.197265625
384.521484375
384.521484375
379.0283203125
379.94384765625
380.859375
381.77490234375
379.0283203125
381.77490234375
386.3525390625
377.197265625
375.3662109375
387.26806640625
386.3525390625
383.60595703125
382.6904296875
382.6904296875
384.521484375
375.3662109375
380.859375
375.3662109375
376.28173828125
368.95751953125
379.94384765625
379.0283203125
373.53515625
379.0283203125
373.53515625
372.61962890625
374.45068359375
371.7041015625
370.78857421875
377.197265625
381.77490234375
373.53515625
372.61962890625
371.7041015625
376.28173828125
379.0283203125
383.60595703125
378.11279296875
367.12646484375
371.7041015625
375.3662109375
374.45068359375
373.53515625
371.7041015625
373.53515625
383.60595703125
371.7041015625
376.28173828125
377.197265625
374.45068359375
387.26806640625
390.93017578125
380.859375
380.859375
384.521484375
387.26806640625
382.6904296875
384.521484375
379.0283203125
390.93017578125
387.26806640625
383.60595703125
383.60595703125
373.53515625
378.11279296875
379.94384765625
386.3525390625
379.94384765625
377.197265625
384.521484375
387.26806640625
382.6904296875
386.3525390625
391.845703125
390.93017578125
386.3525390625
393.6767578125
392.76123046875
390.93017578125
393.6767578125
386.3525390625
387.26806640625
389.09912109375
388.18359375
382.6904296875
394.59228515625
381.77490234375
389.09912109375
384.521484375
375.3662109375
382.6904296875
391.845703125
395.5078125
395.5078125
402.83203125
400.08544921875
395.5078125
393.6767578125
405.57861328125
401.0009765625
396.42333984375
395.5078125
397.3388671875
404.6630859375
399.169921875
409.24072265625
401.91650390625
401.0009765625
401.91650390625
411.9873046875
425.72021484375
433.04443359375
420.22705078125
430.2978515625
417.48046875
417.48046875
420.22705078125
424.8046875
433.04443359375
445.86181640625
456.84814453125
460.51025390625
458.67919921875
458.67919921875
467.83447265625
459.5947265625
463.2568359375
459.5947265625
446.77734375
439.453125
444.03076171875
449.52392578125
455.9326171875
459.5947265625
446.77734375
444.03076171875
443.115234375
442.19970703125
443.115234375
423.88916015625
413.818359375
399.169921875
395.5078125
408.3251953125
407.40966796875
411.07177734375
421.142578125
419.3115234375
408.3251953125
421.142578125
418.39599609375
418.39599609375
417.48046875
426.6357421875
423.88916015625
422.9736328125
418.39599609375
414.73388671875
419.3115234375
408.3251953125
426.6357421875
422.05810546875
420.22705078125
422.9736328125
422.9736328125
419.3115234375
427.55126953125
434.87548828125
422.9736328125
419.3115234375
407.40966796875
401.91650390625
401.0009765625
404.6630859375
438.53759765625
476.98974609375
517.27294921875
595.0927734375
686.6455078125
820.3125
935.6689453125
1063.8427734375
1211.24267578125
1331.1767578125
1412.65869140625
1480.40771484375
1529.84619140625
1538.0859375
1473.9990234375
1301.8798828125
1042.78564453125
793.76220703125
586.85302734375
460.51025390625
397.3388671875
360.7177734375
321.35009765625
292.05322265625
290.22216796875
307.6171875
348.81591796875
393.6767578125
434.87548828125
466.00341796875
480.65185546875
488.8916015625
509.94873046875
507.2021484375
515.44189453125
515.44189453125
520.93505859375
524.59716796875
529.1748046875
530.09033203125
529.1748046875
540.1611328125
542.90771484375
542.90771484375
544.73876953125
537.41455078125
542.90771484375
538.330078125
538.330078125
537.41455078125
546.56982421875
559.38720703125
554.8095703125
552.978515625
551.1474609375
552.06298828125
557.55615234375
561.21826171875
559.38720703125
557.55615234375
552.978515625
557.55615234375
561.21826171875
562.1337890625
569.4580078125
575.86669921875
575.86669921875
585.9375
575.86669921875
582.275390625
589.599609375
593.26171875
593.26171875
588.68408203125
585.02197265625
593.26171875
598.7548828125
604.248046875
606.99462890625
610.65673828125
618.896484375
628.0517578125
631.7138671875
631.7138671875
636.29150390625
638.12255859375
635.3759765625
645.44677734375
654.60205078125
660.09521484375
665.58837890625
667.41943359375
678.40576171875
681.15234375
676.57470703125
689.39208984375
693.9697265625
696.71630859375
707.70263671875
716.85791015625
717.7734375
731.50634765625
736.083984375
738.83056640625
736.99951171875
747.0703125
752.5634765625
759.8876953125
764.46533203125
769.95849609375
785.5224609375
788.26904296875
793.76220703125
792.8466796875
809.326171875
811.1572265625
816.650390625
815.73486328125
823.974609375
833.1298828125
845.03173828125
855.1025390625
852.35595703125
857.84912109375
864.2578125
862.4267578125
862.4267578125
861.51123046875
865.17333984375
865.17333984375
861.51123046875
861.51123046875
865.17333984375
841.36962890625
834.9609375
842.28515625
838.623046875
828.55224609375
819.39697265625
813.90380859375
804.74853515625
796.5087890625
781.8603515625
760.80322265625
748.9013671875
737.9150390625
719.6044921875
716.85791015625
698.54736328125
683.89892578125
665.58837890625
650.93994140625
633.544921875
622.55859375
610.65673828125
595.0927734375
584.1064453125
572.20458984375
570.37353515625
558.4716796875
544.73876953125
554.8095703125
543.8232421875
531.005859375
520.01953125
510.8642578125
507.2021484375
501.708984375
501.708984375
503.5400390625
493.46923828125
493.46923828125
493.46923828125
477.9052734375
483.3984375
476.07421875
477.9052734375
476.07421875
476.07421875
491.63818359375
495.30029296875
487.97607421875
496.2158203125
490.72265625
497.13134765625
492.5537109375
489.80712890625
488.8916015625
485.2294921875
477.9052734375
486.14501953125
491.63818359375
495.30029296875
487.97607421875
490.72265625
493.46923828125
495.30029296875
491.63818359375
489.80712890625
485.2294921875
487.97607421875
492.5537109375
492.5537109375
490.72265625
492.5537109375
487.060546875
487.060546875
497.13134765625
496.2158203125
492.5537109375
493.46923828125
498.046875
485.2294921875
487.97607421875
507.2021484375
499.8779296875
496.2158203125
502.62451171875
504.45556640625
505.37109375
511.77978515625
512.6953125
516.357421875
513.61083984375
516.357421875
513.61083984375
515.44189453125
511.77978515625
519.10400390625
520.01953125
509.033203125
514.5263671875
509.033203125
501.708984375
505.37109375
508.11767578125
528.25927734375
520.01953125
518.1884765625
515.44189453125
509.033203125
509.94873046875
508.11767578125
504.45556640625
504.45556640625
512.6953125
508.11767578125
508.11767578125
521.8505859375
516.357421875
515.44189453125
514.5263671875
512.6953125
506.28662109375
503.5400390625
508.11767578125
498.046875
493.46923828125
503.5400390625
498.96240234375
500.79345703125
508.11767578125
504.45556640625
498.96240234375
504.45556640625
503.5400390625
499.8779296875
496.2158203125
504.45556640625
498.046875
489.80712890625
498.046875
496.2158203125
498.046875
498.046875
497.13134765625
496.2158203125
493.46923828125
485.2294921875
504.45556640625
507.2021484375
503.5400390625
499.8779296875
498.96240234375
497.13134765625
497.13134765625
491.63818359375
492.5537109375
496.2158203125
497.13134765625
495.30029296875
498.96240234375
500.79345703125
493.46923828125
486.14501953125
482.48291015625
485.2294921875
485.2294921875
488.8916015625
495.30029296875
502.62451171875
495.30029296875
496.2158203125
504.45556640625
496.2158203125
484.31396484375
490.72265625
498.96240234375
493.46923828125
486.14501953125
496.2158203125
503.5400390625
508.11767578125
494.384765625
489.80712890625
481.5673828125
494.384765625
491.63818359375
489.80712890625
484.31396484375
487.97607421875
500.79345703125
497.13134765625
489.80712890625
492.5537109375
498.046875
494.384765625
492.5537109375
494.384765625
487.97607421875
491.63818359375
492.5537109375
497.13134765625
491.63818359375
486.14501953125
489.80712890625
477.9052734375
486.14501953125
496.2158203125
486.14501953125
485.2294921875
481.5673828125
487.97607421875
486.14501953125
477.9052734375
481.5673828125
482.48291015625
482.48291015625
487.97607421875
498.96240234375
498.96240234375
504.45556640625
498.96240234375
508.11767578125
507.2021484375
499.8779296875
498.046875
506.28662109375
518.1884765625
531.005859375
545.654296875
540.1611328125
541.9921875
546.56982421875
557.55615234375
547.4853515625
547.4853515625
547.4853515625
549.31640625
541.07666015625
541.9921875
548.40087890625
541.9921875
541.07666015625
532.8369140625
531.92138671875
531.005859375
523.681640625
521.8505859375
516.357421875
509.94873046875
503.5400390625
500.79345703125
498.046875
496.2158203125
492.5537109375
489.80712890625
489.80712890625
498.046875
497.13134765625
499.8779296875
498.96240234375
487.060546875
490.72265625
498.046875
493.46923828125
491.63818359375
493.46923828125
501.708984375
489.80712890625
491.63818359375
496.2158203125
503.5400390625
497.13134765625
481.5673828125
486.14501953125
486.14501953125
494.384765625
501.708984375
492.5537109375
497.13134765625
482.48291015625
461.42578125
462.34130859375
474.2431640625
518.1884765625
562.1337890625
615.234375
697.6318359375
811.1572265625
941.162109375
1061.09619140625
1192.0166015625
1343.07861328125
1445.61767578125
1531.67724609375
1607.666015625
1630.55419921875
1625.06103515625
1542.66357421875
1341.24755859375
1059.26513671875
815.73486328125
630.79833984375
505.37109375
441.2841796875
401.0009765625
360.7177734375
342.4072265625
357.97119140625
391.845703125
435.791015625
494.384765625
522.76611328125
547.4853515625
569.4580078125
584.1064453125
592.34619140625
602.4169921875
600.5859375
605.16357421875
604.248046875
601.50146484375
595.0927734375
597.83935546875
601.50146484375
598.7548828125
592.34619140625
598.7548828125
598.7548828125
597.83935546875
617.0654296875
616.14990234375
617.0654296875
617.0654296875
613.4033203125
617.98095703125
624.3896484375
625.30517578125
629.8828125
628.0517578125
636.29150390625
640.869140625
640.869140625
636.29150390625
638.12255859375
635.3759765625
637.20703125
636.29150390625
639.95361328125
639.0380859375
658.26416015625
652.77099609375
651.85546875
655.517578125
660.09521484375
664.6728515625
668.3349609375
666.50390625
675.6591796875
672.91259765625
672.91259765625
668.3349609375
670.166015625
678.40576171875
678.40576171875
691.22314453125
695.80078125
697.6318359375
705.87158203125
710.44921875
713.19580078125
717.7734375
717.7734375
731.50634765625
728.759765625
733.33740234375
740.66162109375
745.2392578125
747.98583984375
751.64794921875
755.31005859375
766.29638671875
771.78955078125
780.029296875
786.43798828125
788.26904296875
796.5087890625
809.326171875
812.98828125
814.8193359375
815.73486328125
822.1435546875
836.7919921875
850.52490234375
841.36962890625
851.4404296875
862.4267578125
868.83544921875
871.58203125
880.7373046875
896.30126953125
893.5546875
901.79443359375
910.94970703125
908.203125
900.87890625
919.189453125
921.93603515625
931.09130859375
923.76708984375
931.09130859375
933.837890625
935.6689453125
925.59814453125
927.42919921875
909.11865234375
918.27392578125
919.189453125
911.865234375
912.78076171875
906.3720703125
889.892578125
883.48388671875
871.58203125
856.01806640625
845.947265625
834.04541015625
821.22802734375
802.91748046875
791.93115234375
771.78955078125
750.732421875
742.49267578125
732.421875
718.68896484375
696.71630859375
683.89892578125
674.74365234375
663.75732421875
644.53125
637.20703125
626.220703125
617.98095703125
610.65673828125
601.50146484375
587.7685546875
581.35986328125
582.275390625
579.52880859375
575.86669921875
582.275390625
559.38720703125
547.4853515625
541.9921875
546.56982421875
535.58349609375
518.1884765625
529.1748046875
541.07666015625
544.73876953125
540.1611328125
542.90771484375
542.90771484375
541.9921875
533.75244140625
534.66796875
542.90771484375
533.75244140625
533.75244140625
533.75244140625
535.58349609375
541.07666015625
538.330078125
538.330078125
532.8369140625
534.66796875
540.1611328125
542.90771484375
542.90771484375
541.9921875
543.8232421875
549.31640625
541.9921875
538.330078125
537.41455078125
538.330078125
541.9921875
541.07666015625
541.9921875
551.1474609375
552.978515625
563.96484375
556.640625
549.31640625
547.4853515625
548.40087890625
555.72509765625
558.4716796875
558.4716796875
559.38720703125
560.302734375
559.38720703125
561.21826171875
552.978515625
554.8095703125
555.72509765625
545.654296875
559.38720703125
568.54248046875
572.20458984375
560.302734375
565.7958984375
561.21826171875
560.302734375
564.88037109375
558.4716796875
552.978515625
551.1474609375
553.89404296875
555.72509765625
576.7822265625
572.20458984375
566.71142578125
561.21826171875
561.21826171875
561.21826171875
565.7958984375
563.04931640625
566.71142578125
566.71142578125
566.71142578125
564.88037109375
568.54248046875
562.1337890625
551.1474609375
552.978515625
546.56982421875
552.978515625
554.8095703125
553.89404296875
551.1474609375
556.640625
554.8095703125
553.89404296875
551.1474609375
546.56982421875
553.89404296875
551.1474609375
557.55615234375
559.38720703125
553.89404296875
557.55615234375
551.1474609375
542.90771484375
541.9921875
540.1611328125
541.9921875
528.25927734375
529.1748046875
542.90771484375
542.90771484375
539.24560546875
537.41455078125
531.005859375
535.58349609375
535.58349609375
537.41455078125
539.24560546875
536.4990234375
548.40087890625
555.72509765625
551.1474609375
549.31640625
545.654296875
541.9921875
547.4853515625
536.4990234375
539.24560546875
541.07666015625
538.330078125
544.73876953125
540.1611328125
533.75244140625
540.1611328125
539.24560546875
542.90771484375
540.1611328125
540.1611328125
541.07666015625
542.90771484375
541.07666015625
544.73876953125
541.07666015625
543.8232421875
533.75244140625
527.34375
531.92138671875
531.005859375
541.9921875
537.41455078125
540.1611328125
536.4990234375
534.66796875
529.1748046875
524.59716796875
532.8369140625
522.76611328125
531.92138671875
536.4990234375
539.24560546875
551.1474609375
534.66796875
530.09033203125
534.66796875
541.9921875
541.07666015625
530.09033203125
528.25927734375
541.9921875
541.9921875
541.07666015625
534.66796875
527.34375
531.92138671875
540.1611328125
531.92138671875
540.1611328125
542.90771484375
545.654296875
542.90771484375
548.40087890625
549.31640625
541.07666015625
541.07666015625
531.92138671875
538.330078125
527.34375
526.42822265625
534.66796875
542.90771484375
537.41455078125
540.1611328125
541.07666015625
536.4990234375
527.34375
529.1748046875
535.58349609375
531.005859375
532.8369140625
542.90771484375
541.9921875
536.4990234375
540.1611328125
531.005859375
525.5126953125
531.92138671875
549.31640625
552.06298828125
541.07666015625
546.56982421875
563.04931640625
554.8095703125
539.24560546875
539.24560546875
556.640625
568.54248046875
575.86669921875
577.69775390625
575.86669921875
582.275390625
597.83935546875
591.4306640625
586.85302734375
582.275390625
574.03564453125
576.7822265625
577.69775390625
576.7822265625
579.52880859375
579.52880859375
575.86669921875
564.88037109375
562.1337890625
563.96484375
559.38720703125
544.73876953125
533.75244140625
533.75244140625
531.005859375
531.005859375
531.92138671875
533.75244140625
533.75244140625
524.59716796875
526.42822265625
523.681640625
524.59716796875
525.5126953125
530.09033203125
539.24560546875
541.9921875
542.90771484375
537.41455078125
534.66796875
530.09033203125
524.59716796875
523.681640625
531.92138671875
534.66796875
533.75244140625
551.1474609375
552.06298828125
541.07666015625
535.58349609375
520.93505859375
517.27294921875
501.708984375
499.8779296875
507.2021484375
508.11767578125
534.66796875
577.69775390625
620.7275390625
687.56103515625
781.8603515625
910.94970703125
1022.64404296875
1154.47998046875
1313.78173828125
1453.857421875
1539.00146484375
1625.06103515625
1672.66845703125
1673.583984375
1651.611328125
1522.52197265625
1243.2861328125
973.20556640625
750.732421875
580.4443359375
467.83447265625
424.8046875
377.197265625
346.98486328125
360.7177734375
390.0146484375
446.77734375
509.94873046875
546.56982421875
574.03564453125
592.34619140625
617.0654296875
625.30517578125
631.7138671875
630.79833984375
619.81201171875
624.3896484375
625.30517578125
629.8828125
636.29150390625
637.20703125
638.12255859375
627.13623046875
625.30517578125
631.7138671875
626.220703125
629.8828125
629.8828125
630.79833984375
639.0380859375
645.44677734375
639.95361328125
631.7138671875
632.62939453125
637.20703125
643.61572265625
652.77099609375
655.517578125
660.09521484375
661.0107421875
655.517578125
651.85546875
658.26416015625
652.77099609375
652.77099609375
657.3486328125
661.92626953125
661.92626953125
671.9970703125
680.23681640625
683.89892578125
683.89892578125
679.3212890625
685.72998046875
681.15234375
679.3212890625
687.56103515625
691.22314453125
699.462890625
714.111328125
715.9423828125
713.19580078125
713.19580078125
706.787109375
707.70263671875
715.9423828125
719.6044921875
714.111328125
724.18212890625
736.083984375
740.66162109375
736.99951171875
741.5771484375
750.732421875
756.2255859375
763.5498046875
768.12744140625
782.77587890625
792.8466796875
793.76220703125
801.08642578125
811.1572265625
801.08642578125
804.74853515625
821.22802734375
824.89013671875
824.89013671875
833.1298828125
841.36962890625
857.84912109375
859.68017578125
871.58203125
884.3994140625
887.14599609375
882.568359375
895.3857421875
904.541015625
908.203125
913.6962890625
911.865234375
924.6826171875
926.513671875
929.26025390625
930.17578125
927.42919921875
939.3310546875
935.6689453125
937.5
941.162109375
942.9931640625
943.90869140625
947.57080078125
936.58447265625
929.26025390625
923.76708984375
910.0341796875
906.3720703125
906.3720703125
901.79443359375
890.80810546875
882.568359375
870.66650390625
858.7646484375
838.623046875
823.974609375
798.33984375
779.11376953125
764.46533203125
755.31005859375
741.5771484375
728.759765625
721.435546875
697.6318359375
671.9970703125
666.50390625
650.0244140625
634.46044921875
640.869140625
628.96728515625
626.220703125
617.0654296875
605.16357421875
591.4306640625
585.9375
570.37353515625
570.37353515625
573.1201171875
565.7958984375
570.37353515625
563.04931640625
563.04931640625
559.38720703125
547.4853515625
549.31640625
547.4853515625
543.8232421875
540.1611328125
542.90771484375
543.8232421875
541.9921875
536.4990234375
533.75244140625
534.66796875
526.42822265625
533.75244140625
535.58349609375
535.58349609375
534.66796875
538.330078125
540.1611328125
547.4853515625
539.24560546875
533.75244140625
533.75244140625
533.75244140625
535.58349609375
539.24560546875
541.9921875
537.41455078125
539.24560546875
544.73876953125
545.654296875
541.9921875
535.58349609375
533.75244140625
543.8232421875
541.07666015625
549.31640625
555.72509765625
552.978515625
554.8095703125
552.06298828125
540.1611328125
537.41455078125
546.56982421875
563.04931640625
560.302734375
560.302734375
553.89404296875
564.88037109375
563.96484375
560.302734375
552.06298828125
553.89404296875
550.23193359375
552.978515625
559.38720703125
564.88037109375
565.7958984375
570.37353515625
570.37353515625
564.88037109375
565.7958984375
568.54248046875
556.640625
561.21826171875
564.88037109375
579.52880859375
578.61328125
580.4443359375
570.37353515625
566.71142578125
563.96484375
551.1474609375
555.72509765625
557.55615234375
555.72509765625
554.8095703125
562.1337890625
570.37353515625
565.7958984375
563.96484375
562.1337890625
561.21826171875
561.21826171875
551.1474609375
544.73876953125
546.56982421875
542.90771484375
549.31640625
558.4716796875
552.978515625
546.56982421875
540.1611328125
546.56982421875
541.07666015625
547.4853515625
549.31640625
546.56982421875
551.1474609375
551.1474609375
544.73876953125
551.1474609375
547.4853515625
540.1611328125
548.40087890625
537.41455078125
540.1611328125
544.73876953125
550.23193359375
556.640625
564.88037109375
547.4853515625
530.09033203125
535.58349609375
537.41455078125
533.75244140625
537.41455078125
539.24560546875
544.73876953125
539.24560546875
543.8232421875
540.1611328125
530.09033203125
533.75244140625
526.42822265625
538.330078125
542.90771484375
538.330078125
531.005859375
550.23193359375
535.58349609375
530.09033203125
531.005859375
527.34375
532.8369140625
526.42822265625
522.76611328125
533.75244140625
538.330078125
530.09033203125
541.07666015625
533.75244140625
520.93505859375
520.93505859375
529.1748046875
534.66796875
533.75244140625
535.58349609375
532.8369140625
536.4990234375
539.24560546875
534.66796875
533.75244140625
531.92138671875
535.58349609375
535.58349609375
532.8369140625
530.09033203125
541.07666015625
540.1611328125
530.09033203125
531.92138671875
533.75244140625
528.25927734375
530.09033203125
531.005859375
533.75244140625
538.330078125
541.07666015625
535.58349609375
531.005859375
531.92138671875
527.34375
521.8505859375
520.01953125
514.5263671875
521.8505859375
529.1748046875
534.66796875
532.8369140625
532.8369140625
536.4990234375
527.34375
533.75244140625
537.41455078125
533.75244140625
527.34375
522.76611328125
526.42822265625
529.1748046875
534.66796875
531.92138671875
532.8369140625
530.09033203125
526.42822265625
528.25927734375
533.75244140625
535.58349609375
531.92138671875
541.9921875
547.4853515625
537.41455078125
526.42822265625
525.5126953125
529.1748046875
540.1611328125
541.07666015625
535.58349609375
536.4990234375
553.89404296875
549.31640625
546.56982421875
546.56982421875
539.24560546875
538.330078125
539.24560546875
537.41455078125
541.07666015625
547.4853515625
563.04931640625
570.37353515625
576.7822265625
580.4443359375
574.951171875
583.19091796875
582.275390625
580.4443359375
586.85302734375
590.51513671875
583.19091796875
568.54248046875
578.61328125
574.03564453125
570.37353515625
574.951171875
571.2890625
563.04931640625
561.21826171875
558.4716796875
552.06298828125
535.58349609375
523.681640625
517.27294921875
522.76611328125
524.59716796875
519.10400390625
521.8505859375
519.10400390625
536.4990234375
525.5126953125
526.42822265625
527.34375
521.8505859375
516.357421875
518.1884765625
520.93505859375
527.34375
533.75244140625
531.92138671875
527.34375
522.76611328125
526.42822265625
514.5263671875
515.44189453125
526.42822265625
526.42822265625
531.92138671875
529.1748046875
532.8369140625
528.25927734375
512.6953125
507.2021484375
492.5537109375
485.2294921875
499.8779296875
547.4853515625
591.4306640625
636.29150390625
716.85791015625
828.55224609375
956.72607421875
1063.8427734375
1190.185546875
1345.8251953125
1445.61767578125
1531.67724609375
1614.990234375
1645.20263671875
1639.70947265625
1563.720703125
1360.4736328125
1083.984375
834.9609375
648.193359375
541.07666015625
484.31396484375
446.77734375
408.3251953125
389.09912109375
387.26806640625
408.3251953125
452.2705078125
496.2158203125
524.59716796875
556.640625
570.37353515625
587.7685546875
599.67041015625
603.33251953125
603.33251953125
604.248046875
613.4033203125
619.81201171875
615.234375
622.55859375
626.220703125
627.13623046875
635.3759765625
628.96728515625
627.13623046875
627.13623046875
624.3896484375
620.7275390625
622.55859375
617.98095703125
624.3896484375
621.64306640625
638.12255859375
637.20703125
635.3759765625
631.7138671875
631.7138671875
626.220703125
637.20703125
650.93994140625
648.193359375
651.85546875
661.0107421875
661.92626953125
662.841796875
657.3486328125
661.92626953125
663.75732421875
664.6728515625
659.1796875
653.6865234375
664.6728515625
667.41943359375
680.23681640625
680.23681640625
676.57470703125
685.72998046875
683.89892578125
675.6591796875
683.89892578125
684.814453125
708.6181640625
706.787109375
705.87158203125
711.36474609375
709.53369140625
717.7734375
715.02685546875
718.68896484375
722.35107421875
724.18212890625
727.84423828125
736.083984375
748.9013671875
754.39453125
752.5634765625
753.47900390625
768.12744140625
772.705078125
777.28271484375
780.94482421875
791.015625
803.8330078125
806.57958984375
814.8193359375
823.05908203125
823.974609375
831.298828125
837.70751953125
842.28515625
844.1162109375
860.595703125
869.7509765625
878.90625
876.15966796875
882.568359375
883.48388671875
899.96337890625
896.30126953125
910.0341796875
915.52734375
916.44287109375
919.189453125
919.189453125
927.42919921875
925.59814453125
932.0068359375
928.3447265625
922.8515625
926.513671875
926.513671875
921.93603515625
927.42919921875
923.76708984375
923.76708984375
917.3583984375
890.80810546875
888.97705078125
882.568359375
867.919921875
853.271484375
842.28515625
834.9609375
830.38330078125
814.8193359375
797.42431640625
780.029296875
767.2119140625
748.9013671875
720.52001953125
705.87158203125
694.88525390625
688.4765625
681.15234375
672.91259765625
652.77099609375
647.27783203125
628.96728515625
610.65673828125
600.5859375
588.68408203125
585.02197265625
574.951171875
590.51513671875
583.19091796875
569.4580078125
564.88037109375
547.4853515625
547.4853515625
541.9921875
546.56982421875
549.31640625
550.23193359375
541.07666015625
541.07666015625
537.41455078125
525.5126953125
533.75244140625
528.25927734375
526.42822265625
521.8505859375
534.66796875
528.25927734375
531.92138671875
529.1748046875
531.92138671875
534.66796875
529.1748046875
527.34375
527.34375
529.1748046875
521.8505859375
531.005859375
530.09033203125
527.34375
524.59716796875
524.59716796875
524.59716796875
525.5126953125
521.8505859375
523.681640625
532.8369140625
542.90771484375
539.24560546875
539.24560546875
529.1748046875
549.31640625
546.56982421875
535.58349609375
535.58349609375
528.25927734375
545.654296875
546.56982421875
552.06298828125
547.4853515625
545.654296875
547.4853515625
546.56982421875
537.41455078125
538.330078125
544.73876953125
547.4853515625
559.38720703125
542.90771484375
546.56982421875
549.31640625
547.4853515625
541.9921875
538.330078125
540.1611328125
535.58349609375
544.73876953125
551.1474609375
544.73876953125
544.73876953125
544.73876953125
541.07666015625
550.23193359375
549.31640625
541.07666015625
545.654296875
545.654296875
539.24560546875
549.31640625
541.9921875
541.9921875
532.8369140625
538.330078125
542.90771484375
540.1611328125
536.4990234375
536.4990234375
534.66796875
534.66796875
534.66796875
540.1611328125
532.8369140625
532.8369140625
531.92138671875
525.5126953125
526.42822265625
523.681640625
523.681640625
528.25927734375
522.76611328125
519.10400390625
519.10400390625
513.61083984375
519.10400390625
520.01953125
511.77978515625
507.2021484375
529.1748046875
525.5126953125
526.42822265625
519.10400390625
516.357421875
516.357421875
513.61083984375
517.27294921875
516.357421875
516.357421875
518.1884765625
522.76611328125
521.8505859375
514.5263671875
506.28662109375
511.77978515625
511.77978515625
516.357421875
513.61083984375
517.27294921875
511.77978515625
505.37109375
503.5400390625
506.28662109375
512.6953125
505.37109375
510.8642578125
520.01953125
515.44189453125
513.61083984375
510.8642578125
509.94873046875
520.01953125
515.44189453125
500.79345703125
501.708984375
497.13134765625
497.13134765625
515.44189453125
517.27294921875
515.44189453125
506.28662109375
509.033203125
500.79345703125
498.046875
498.96240234375
509.033203125
504.45556640625
505.37109375
498.046875
493.46923828125
505.37109375
504.45556640625
500.79345703125
494.384765625
498.96240234375
500.79345703125
508.11767578125
506.28662109375
512.6953125
514.5263671875
509.033203125
505.37109375
509.033203125
498.046875
488.8916015625
489.80712890625
507.2021484375
507.2021484375
514.5263671875
508.11767578125
507.2021484375
505.37109375
508.11767578125
494.384765625
502.62451171875
491.63818359375
500.79345703125
500.79345703125
497.13134765625
504.45556640625
503.5400390625
504.45556640625
509.94873046875
497.13134765625
492.5537109375
493.46923828125
494.384765625
502.62451171875
511.77978515625
510.8642578125
503.5400390625
507.2021484375
517.27294921875
519.10400390625
513.61083984375
509.033203125
514.5263671875
520.01953125
514.5263671875
511.77978515625
513.61083984375
524.59716796875
531.92138671875
530.09033203125
538.330078125
543.8232421875
548.40087890625
552.978515625
545.654296875
545.654296875
545.654296875
541.9921875
544.73876953125
547.4853515625
538.330078125
525.5126953125
531.92138671875
531.005859375
535.58349609375
541.07666015625
533.75244140625
534.66796875
520.93505859375
515.44189453125
499.8779296875
492.5537109375
494.384765625
492.5537109375
494.384765625
498.046875
499.8779296875
504.45556640625
495.30029296875
494.384765625
478.82080078125
485.2294921875
484.31396484375
487.97607421875
497.13134765625
496.2158203125
497.13134765625
501.708984375
508.11767578125
496.2158203125
492.5537109375
487.97607421875
489.80712890625
486.14501953125
480.65185546875
487.97607421875
495.30029296875
492.5537109375
487.97607421875
476.98974609375
469.66552734375
467.83447265625
457.763671875
465.087890625
491.63818359375
526.42822265625
580.4443359375
646.3623046875
734.2529296875
858.7646484375
971.37451171875
1092.22412109375
1235.04638671875
1384.27734375
1478.57666015625
1560.97412109375
1610.41259765625
1612.24365234375
1588.43994140625
1460.26611328125
1207.58056640625
944.82421875
723.2666015625
566.71142578125
469.66552734375
430.2978515625
379.0283203125
356.14013671875
337.82958984375
355.224609375
395.5078125
450.439453125
496.2158203125
518.1884765625
530.09033203125
561.21826171875
567.626953125
582.275390625
585.02197265625
585.02197265625
573.1201171875
574.03564453125
571.2890625
579.52880859375
577.69775390625
581.35986328125
584.1064453125
584.1064453125
587.7685546875
580.4443359375
582.275390625
578.61328125
588.68408203125
584.1064453125
594.17724609375
598.7548828125
598.7548828125
599.67041015625
600.5859375
604.248046875
597.83935546875
598.7548828125
604.248046875
610.65673828125
601.50146484375
604.248046875
619.81201171875
623.47412109375
626.220703125
619.81201171875
621.64306640625
621.64306640625
617.0654296875
624.3896484375
633.544921875
636.29150390625
635.3759765625
639.95361328125
639.0380859375
639.95361328125
638.12255859375
641.78466796875
646.3623046875
647.27783203125
658.26416015625
663.75732421875
664.6728515625
672.91259765625
667.41943359375
658.26416015625
668.3349609375
680.23681640625
683.89892578125
689.39208984375
690.3076171875
697.6318359375
705.87158203125
716.85791015625
712.2802734375
710.44921875
717.7734375
721.435546875
728.759765625
735.16845703125
746.15478515625
758.97216796875
765.380859375
771.78955078125
775.45166015625
781.8603515625
785.5224609375
788.26904296875
798.33984375
804.74853515625
817.56591796875
834.04541015625
842.28515625
845.03173828125
839.53857421875
855.1025390625
855.1025390625
852.35595703125
865.17333984375
877.0751953125
883.48388671875
888.97705078125
898.13232421875
894.47021484375
888.0615234375
897.216796875
892.63916015625
887.14599609375
890.80810546875
888.97705078125
894.47021484375
888.97705078125
899.0478515625
887.14599609375
878.90625
867.919921875
846.86279296875
842.28515625
844.1162109375
834.04541015625
821.22802734375
810.24169921875
794.677734375
786.43798828125
770.8740234375
754.39453125
741.5771484375
727.84423828125
705.87158203125
696.71630859375
686.6455078125
669.25048828125
650.93994140625
639.95361328125
628.96728515625
621.64306640625
596.923828125
591.4306640625
570.37353515625
566.71142578125
569.4580078125
554.8095703125
550.23193359375
544.73876953125
533.75244140625
525.5126953125
518.1884765625
510.8642578125
509.94873046875
510.8642578125
510.8642578125
509.94873046875
509.033203125
503.5400390625
497.13134765625
490.72265625
493.46923828125
484.31396484375
482.48291015625
482.48291015625
481.5673828125
484.31396484375
490.72265625
489.80712890625
485.2294921875
482.48291015625
478.82080078125
484.31396484375
474.2431640625
475.15869140625
472.412109375
476.98974609375
476.98974609375
495.30029296875
494.384765625
486.14501953125
477.9052734375
479.736328125
489.80712890625
487.060546875
491.63818359375
487.97607421875
486.14501953125
499.8779296875
496.2158203125
492.5537109375
488.8916015625
495.30029296875
493.46923828125
505.37109375
498.046875
494.384765625
505.37109375
517.27294921875
500.79345703125
491.63818359375
497.13134765625
493.46923828125
486.14501953125
498.046875
500.79345703125
502.62451171875
515.44189453125
531.005859375
528.25927734375
517.27294921875
510.8642578125
502.62451171875
506.28662109375
513.61083984375
509.94873046875
511.77978515625
520.93505859375
520.93505859375
520.01953125
522.76611328125
510.8642578125
509.033203125
513.61083984375
524.59716796875
522.76611328125
526.42822265625
518.1884765625
512.6953125
515.44189453125
508.11767578125
499.8779296875
496.2158203125
496.2158203125
506.28662109375
508.11767578125
507.2021484375
504.45556640625
512.6953125
504.45556640625
499.8779296875
496.2158203125
495.30029296875
492.5537109375
498.046875
499.8779296875
499.8779296875
500.79345703125
497.13134765625
499.8779296875
500.79345703125
497.13134765625
474.2431640625
481.5673828125
485.2294921875
495.30029296875
505.37109375
502.62451171875
497.13134765625
492.5537109375
487.97607421875
483.3984375
478.82080078125
485.2294921875
492.5537109375
488.8916015625
487.97607421875
498.046875
490.72265625
483.3984375
494.384765625
491.63818359375
487.97607421875
476.07421875
483.3984375
478.82080078125
476.98974609375
479.736328125
487.97607421875
483.3984375
482.48291015625
481.5673828125
476.07421875
487.060546875
489.80712890625
487.060546875
482.48291015625
487.97607421875
479.736328125
480.65185546875
475.15869140625
476.98974609375
476.98974609375
485.2294921875
486.14501953125
487.060546875
481.5673828125
476.98974609375
477.9052734375
476.07421875
470.5810546875
476.07421875
482.48291015625
481.5673828125
474.2431640625
473.32763671875
473.32763671875
476.07421875
471.49658203125
458.67919921875
461.42578125
477.9052734375
466.00341796875
471.49658203125
474.2431640625
470.5810546875
471.49658203125
480.65185546875
473.32763671875
460.51025390625
471.49658203125
473.32763671875
477.9052734375
468.75
479.736328125
479.736328125
474.2431640625
470.5810546875
470.5810546875
465.087890625
464.17236328125
469.66552734375
472.412109375
476.07421875
475.15869140625
469.66552734375
475.15869140625
474.2431640625
475.15869140625
474.2431640625
472.412109375
472.412109375
470.5810546875
466.9189453125
465.087890625
470.5810546875
466.9189453125
472.412109375
468.75
464.17236328125
468.75
467.83447265625
467.83447265625
469.66552734375
469.66552734375
463.2568359375
466.9189453125
465.087890625
467.83447265625
459.5947265625
456.84814453125
458.67919921875
455.01708984375
463.2568359375
473.32763671875
451.35498046875
452.2705078125
453.18603515625
455.01708984375
446.77734375
458.67919921875
467.83447265625
462.34130859375
468.75
466.9189453125
475.15869140625
487.97607421875
486.14501953125
477.9052734375
484.31396484375
483.3984375
476.07421875
466.9189453125
476.98974609375
499.8779296875
514.5263671875
515.44189453125
509.94873046875
521.8505859375
520.01953125
520.01953125
512.6953125
518.1884765625
513.61083984375
505.37109375
520.01953125
509.033203125
501.708984375
507.2021484375
502.62451171875
495.30029296875
493.46923828125
487.97607421875
482.48291015625
486.14501953125
476.98974609375
465.087890625
467.83447265625
466.00341796875
470.5810546875
466.9189453125
465.087890625
470.5810546875
462.34130859375
454.1015625
454.1015625
448.6083984375
455.01708984375
467.83447265625
455.9326171875
450.439453125
450.439453125
445.86181640625
459.5947265625
456.84814453125
456.84814453125
470.5810546875
463.2568359375
464.17236328125
462.34130859375
464.17236328125
457.763671875
457.763671875
456.84814453125
460.51025390625
453.18603515625
444.03076171875
434.87548828125
424.8046875
442.19970703125
466.9189453125
503.5400390625
550.23193359375
616.14990234375
706.787109375
834.9609375
956.72607421875
1075.74462890625
1226.806640625
1367.7978515625
1463.92822265625
1556.396484375
1599.42626953125
1612.24365234375
1589.35546875
1468.505859375
1200.25634765625
917.3583984375
688.4765625
509.94873046875
400.08544921875
346.98486328125
309.4482421875
286.56005859375
283.8134765625
306.70166015625
363.46435546875
418.39599609375
461.42578125
491.63818359375
511.77978515625
527.34375
544.73876953125
546.56982421875
560.302734375
560.302734375
558.4716796875
554.8095703125
551.1474609375
558.4716796875
561.21826171875
565.7958984375
558.4716796875
565.7958984375
561.21826171875
551.1474609375
557.55615234375
559.38720703125
563.96484375
556.640625
564.88037109375
563.04931640625
565.7958984375
573.1201171875
576.7822265625
564.88037109375
581.35986328125
585.02197265625
587.7685546875
572.20458984375
571.2890625
567.626953125
577.69775390625
584.1064453125
588.68408203125
588.68408203125
591.4306640625
597.83935546875
605.16357421875
595.0927734375
594.17724609375
593.26171875
590.51513671875
595.0927734375
600.5859375
607.91015625
617.0654296875
609.7412109375
615.234375
619.81201171875
620.7275390625
633.544921875
632.62939453125
634.46044921875
631.7138671875
