ECG
-35.70556640625
-21.97265625
-22.88818359375
-22.88818359375
-19.22607421875
-20.1416015625
-13.73291015625
-1.8310546875
3.662109375
3.662109375
8.23974609375
0
-6.40869140625
-20.1416015625
-22.88818359375
-23.8037109375
-34.7900390625
-32.04345703125
-37.53662109375
-49.4384765625
-48.52294921875
-40.283203125
-52.18505859375
-56.7626953125
-60.4248046875
-68.66455078125
-65.00244140625
-60.4248046875
-60.4248046875
-65.91796875
-64.0869140625
-62.255859375
-59.50927734375
-67.7490234375
-64.0869140625
-65.91796875
-64.0869140625
-60.4248046875
-61.34033203125
-56.7626953125
-55.84716796875
-47.607421875
-56.7626953125
-48.52294921875
-53.1005859375
-44.86083984375
-48.52294921875
-51.26953125
-58.59375
-54.01611328125
-55.84716796875
-56.7626953125
-55.84716796875
-54.01611328125
-61.34033203125
-60.4248046875
-60.4248046875
-52.18505859375
-46.69189453125
-36.62109375
-17.39501953125
18.310546875
69.580078125
123.59619140625
180.35888671875
249.0234375
305.7861328125
378.11279296875
461.42578125
523.681640625
557.55615234375
559.38720703125
543.8232421875
458.67919921875
352.47802734375
214.2333984375
63.17138671875
-75.98876953125
-154.72412109375
-194.091796875
-200.50048828125
-196.83837890625
-180.35888671875
-169.37255859375
-159.3017578125
-165.71044921875
-179.443359375
-183.10546875
-159.3017578125
-131.8359375
-100.7080078125
-67.7490234375
-54.01611328125
-38.4521484375
-28.38134765625
-31.1279296875
-27.4658203125
-21.97265625
-22.88818359375
-22.88818359375
-19.22607421875
-10.986328125
-11.90185546875
-10.07080078125
-10.986328125
-14.6484375
-19.22607421875
-3.662109375
0.91552734375
0
0
2.74658203125
7.32421875
8.23974609375
5.4931640625
5.4931640625
2.74658203125
-4.57763671875
7.32421875
10.07080078125
7.32421875
19.22607421875
23.8037109375
26.55029296875
17.39501953125
23.8037109375
31.1279296875
28.38134765625
32.04345703125
31.1279296875
37.53662109375
39.36767578125
47.607421875
46.69189453125
48.52294921875
53.1005859375
56.7626953125
48.52294921875
55.84716796875
70.49560546875
74.15771484375
80.56640625
74.15771484375
59.50927734375
65.91796875
82.3974609375
73.2421875
76.904296875
87.890625
97.0458984375
99.79248046875
104.3701171875
105.28564453125
110.77880859375
121.76513671875
125.42724609375
127.25830078125
137.3291015625
149.23095703125
158.38623046875
166.6259765625
174.86572265625
175.78125
184.02099609375
196.83837890625
204.16259765625
210.5712890625
220.64208984375
229.79736328125
238.95263671875
252.685546875
259.09423828125
268.24951171875
279.23583984375
290.22216796875
299.37744140625
304.87060546875
309.4482421875
320.4345703125
333.251953125
337.82958984375
344.23828125
347.900390625
357.0556640625
365.29541015625
372.61962890625
378.11279296875
390.0146484375
391.845703125
390.0146484375
401.0009765625
409.24072265625
403.74755859375
401.91650390625
410.15625
405.57861328125
401.0009765625
403.74755859375
387.26806640625
368.0419921875
357.97119140625
346.98486328125
330.50537109375
314.94140625
288.39111328125
267.333984375
248.10791015625
231.62841796875
213.31787109375
196.83837890625
184.9365234375
167.54150390625
142.822265625
121.76513671875
107.11669921875
93.3837890625
71.4111328125
66.83349609375
54.01611328125
46.69189453125
41.19873046875
29.296875
21.05712890625
10.07080078125
8.23974609375
0.91552734375
-10.07080078125
-3.662109375
-5.4931640625
-12.8173828125
-17.39501953125
-20.1416015625
-18.310546875
-13.73291015625
-12.8173828125
-32.958984375
-46.69189453125
-43.02978515625
-29.296875
-25.634765625
-32.04345703125
-33.87451171875
-35.70556640625
-33.87451171875
-30.21240234375
-33.87451171875
-35.70556640625
-33.87451171875
-33.87451171875
-33.87451171875
-35.70556640625
-24.71923828125
-30.21240234375
-30.21240234375
-21.97265625
-37.53662109375
-38.4521484375
-38.4521484375
-30.21240234375
-40.283203125
-35.70556640625
-30.21240234375
-34.7900390625
-28.38134765625
-29.296875
-28.38134765625
-43.9453125
-41.19873046875
-34.7900390625
-36.62109375
-34.7900390625
-32.04345703125
-26.55029296875
-31.1279296875
-30.21240234375
-31.1279296875
-34.7900390625
-30.21240234375
-36.62109375
-35.70556640625
-36.62109375
-33.87451171875
-34.7900390625
-38.4521484375
-39.36767578125
-42.1142578125
-48.52294921875
-45.7763671875
-40.283203125
-38.4521484375
-43.9453125
-41.19873046875
-38.4521484375
-31.1279296875
-33.87451171875
-38.4521484375
-43.9453125
-40.283203125
-41.19873046875
-48.52294921875
-52.18505859375
-47.607421875
-43.02978515625
-45.7763671875
-46.69189453125
-42.1142578125
-50.35400390625
-45.7763671875
-49.4384765625
-42.1142578125
-46.69189453125
-44.86083984375
-47.607421875
-43.9453125
-53.1005859375
-52.18505859375
-56.7626953125
-54.931640625
-53.1005859375
-56.7626953125
-61.34033203125
-56.7626953125
-58.59375
-55.84716796875
-52.18505859375
-62.255859375
-66.83349609375
-65.91796875
-59.50927734375
-51.26953125
-54.01611328125
-54.931640625
-52.18505859375
-55.84716796875
-60.4248046875
-59.50927734375
-59.50927734375
-64.0869140625
-69.580078125
-57.67822265625
-54.931640625
-51.26953125
-53.1005859375
-57.67822265625
-52.18505859375
-53.1005859375
-60.4248046875
-60.4248046875
-54.931640625
-57.67822265625
-65.00244140625
-56.7626953125
-56.7626953125
-54.01611328125
-56.7626953125
-59.50927734375
-61.34033203125
-59.50927734375
-55.84716796875
-60.4248046875
-56.7626953125
-59.50927734375
-63.17138671875
-58.59375
-52.18505859375
-56.7626953125
-51.26953125
-43.02978515625
-49.4384765625
-47.607421875
-41.19873046875
-39.36767578125
-42.1142578125
-45.7763671875
-50.35400390625
-54.931640625
-67.7490234375
-65.00244140625
-65.91796875
-61.34033203125
-58.59375
-61.34033203125
-57.67822265625
-51.26953125
-37.53662109375
-34.7900390625
-32.04345703125
-24.71923828125
-27.4658203125
-22.88818359375
-15.56396484375
-1.8310546875
-8.23974609375
-14.6484375
-12.8173828125
-18.310546875
-30.21240234375
-35.70556640625
-33.87451171875
-43.02978515625
-46.69189453125
-48.52294921875
-53.1005859375
-59.50927734375
-56.7626953125
-63.17138671875
-71.4111328125
-74.15771484375
-72.32666015625
-76.904296875
-78.7353515625
-80.56640625
-79.65087890625
-86.97509765625
-84.228515625
-81.48193359375
-79.65087890625
-77.81982421875
-67.7490234375
-66.83349609375
-74.15771484375
-69.580078125
-78.7353515625
-84.228515625
-69.580078125
-68.66455078125
-72.32666015625
-76.904296875
-81.48193359375
-75.98876953125
-74.15771484375
-65.91796875
-75.98876953125
-78.7353515625
-74.15771484375
-64.0869140625
-75.0732421875
-74.15771484375
-65.91796875
-71.4111328125
-54.01611328125
-44.86083984375
-38.4521484375
-10.986328125
21.05712890625
59.50927734375
108.0322265625
163.87939453125
239.8681640625
306.70166015625
369.873046875
438.53759765625
509.033203125
562.1337890625
588.68408203125
604.248046875
512.6953125
387.26806640625
271.91162109375
132.75146484375
-19.22607421875
-130.92041015625
-189.51416015625
-221.5576171875
-219.7265625
-210.5712890625
-199.5849609375
-193.17626953125
-187.68310546875
-184.9365234375
-170.2880859375
-147.39990234375
-123.59619140625
-103.45458984375
-79.65087890625
-64.0869140625
-55.84716796875
-43.9453125
-42.1142578125
-37.53662109375
-36.62109375
-33.87451171875
-32.04345703125
-26.55029296875
-22.88818359375
-21.97265625
-20.1416015625
-27.4658203125
-32.04345703125
-32.04345703125
-22.88818359375
-12.8173828125
-15.56396484375
-15.56396484375
-17.39501953125
-15.56396484375
-13.73291015625
-10.07080078125
-10.07080078125
-8.23974609375
-0.91552734375
-0.91552734375
-2.74658203125
12.8173828125
6.40869140625
3.662109375
15.56396484375
8.23974609375
11.90185546875
14.6484375
19.22607421875
17.39501953125
12.8173828125
10.986328125
11.90185546875
19.22607421875
18.310546875
19.22607421875
34.7900390625
40.283203125
44.86083984375
50.35400390625
43.9453125
45.7763671875
53.1005859375
61.34033203125
59.50927734375
58.59375
59.50927734375
60.4248046875
70.49560546875
80.56640625
83.31298828125
85.14404296875
87.890625
94.29931640625
93.3837890625
101.62353515625
110.77880859375
109.86328125
125.42724609375
129.08935546875
141.90673828125
145.56884765625
157.470703125
157.470703125
162.04833984375
179.443359375
194.091796875
204.16259765625
212.40234375
223.388671875
230.712890625
235.29052734375
241.69921875
258.1787109375
270.08056640625
278.3203125
288.39111328125
292.96875
298.4619140625
307.6171875
305.7861328125
307.6171875
322.265625
332.33642578125
335.99853515625
341.49169921875
350.64697265625
362.548828125
364.3798828125
373.53515625
375.3662109375
379.0283203125
384.521484375
388.18359375
391.845703125
392.76123046875
387.26806640625
379.94384765625
370.78857421875
364.3798828125
357.97119140625
352.47802734375
344.23828125
318.603515625
299.37744140625
281.06689453125
270.99609375
256.34765625
238.037109375
216.97998046875
206.9091796875
187.68310546875
167.54150390625
145.56884765625
131.8359375
114.44091796875
97.0458984375
77.81982421875
67.7490234375
54.931640625
44.86083984375
32.04345703125
20.1416015625
10.986328125
1.8310546875
5.4931640625
-2.74658203125
-6.40869140625
-12.8173828125
-22.88818359375
-28.38134765625
-25.634765625
-32.04345703125
-39.36767578125
-40.283203125
-41.19873046875
-41.19873046875
-42.1142578125
-38.4521484375
-39.36767578125
-50.35400390625
-47.607421875
-41.19873046875
-42.1142578125
-38.4521484375
-35.70556640625
-32.04345703125
-38.4521484375
-33.87451171875
-29.296875
-33.87451171875
-33.87451171875
-32.958984375
-42.1142578125
-52.18505859375
-47.607421875
-43.02978515625
-40.283203125
-32.04345703125
-26.55029296875
-30.21240234375
-41.19873046875
-32.958984375
-36.62109375
-41.19873046875
-33.87451171875
-30.21240234375
-36.62109375
-31.1279296875
-29.296875
-40.283203125
-38.4521484375
-39.36767578125
-38.4521484375
-41.19873046875
-35.70556640625
-35.70556640625
-30.21240234375
-23.8037109375
-31.1279296875
-29.296875
-21.97265625
-30.21240234375
-37.53662109375
-36.62109375
-38.4521484375
-37.53662109375
-39.36767578125
-40.283203125
-33.87451171875
-36.62109375
-37.53662109375
-35.70556640625
-41.19873046875
-43.02978515625
-39.36767578125
-35.70556640625
-38.4521484375
-38.4521484375
-36.62109375
-39.36767578125
-33.87451171875
-36.62109375
-36.62109375
-49.4384765625
-52.18505859375
-44.86083984375
-47.607421875
-44.86083984375
-50.35400390625
-49.4384765625
-48.52294921875
-49.4384765625
-52.18505859375
-53.1005859375
-44.86083984375
-38.4521484375
-40.283203125
-43.9453125
-45.7763671875
-54.931640625
-55.84716796875
-55.84716796875
-54.01611328125
-60.4248046875
-51.26953125
-54.931640625
-61.34033203125
-61.34033203125
-56.7626953125
-58.59375
-53.1005859375
-56.7626953125
-61.34033203125
-62.255859375
-58.59375
-62.255859375
-61.34033203125
-62.255859375
-60.4248046875
-60.4248046875
-59.50927734375
-59.50927734375
-64.0869140625
-72.32666015625
-65.91796875
-61.34033203125
-57.67822265625
-61.34033203125
-72.32666015625
-75.0732421875
-63.17138671875
-61.34033203125
-75.0732421875
-75.0732421875
-81.48193359375
-75.98876953125
-78.7353515625
-77.81982421875
-74.15771484375
-75.0732421875
-74.15771484375
-77.81982421875
-77.81982421875
-77.81982421875
-73.2421875
-71.4111328125
-71.4111328125
-70.49560546875
-65.00244140625
-60.4248046875
-68.66455078125
-70.49560546875
-70.49560546875
-71.4111328125
-69.580078125
-65.91796875
-76.904296875
-65.91796875
-57.67822265625
-51.26953125
-59.50927734375
-59.50927734375
-52.18505859375
-53.1005859375
-44.86083984375
-36.62109375
-37.53662109375
-39.36767578125
-35.70556640625
-43.9453125
-47.607421875
-57.67822265625
-61.34033203125
-70.49560546875
-74.15771484375
-69.580078125
-60.4248046875
-44.86083984375
-42.1142578125
-43.9453125
-43.02978515625
-30.21240234375
-30.21240234375
-32.04345703125
-21.97265625
-9.1552734375
-9.1552734375
-9.1552734375
-6.40869140625
-22.88818359375
-30.21240234375
-40.283203125
-39.36767578125
-45.7763671875
-47.607421875
-48.52294921875
-50.35400390625
-61.34033203125
-57.67822265625
-66.83349609375
-59.50927734375
-65.00244140625
-72.32666015625
-75.98876953125
-73.2421875
-75.0732421875
-81.48193359375
-77.81982421875
-81.48193359375
-78.7353515625
-69.580078125
-68.66455078125
-75.0732421875
-79.65087890625
-76.904296875
-68.66455078125
-76.904296875
-75.98876953125
-75.0732421875
-71.4111328125
-78.7353515625
-79.65087890625
-75.0732421875
-68.66455078125
-54.01611328125
-58.59375
-63.17138671875
-65.91796875
-77.81982421875
-71.4111328125
-66.83349609375
-65.91796875
-69.580078125
-75.98876953125
-80.56640625
-66.83349609375
-55.84716796875
-32.04345703125
0.91552734375
32.958984375
74.15771484375
140.9912109375
184.9365234375
267.333984375
331.4208984375
382.6904296875
457.763671875
525.5126953125
564.88037109375
582.275390625
589.599609375
488.8916015625
361.63330078125
232.5439453125
97.96142578125
-42.1142578125
-144.6533203125
-205.078125
-216.97998046875
-216.064453125
-196.83837890625
-195.9228515625
-202.33154296875
-203.2470703125
-181.2744140625
-171.20361328125
-133.6669921875
-104.3701171875
-79.65087890625
-61.34033203125
-45.7763671875
-49.4384765625
-51.26953125
-45.7763671875
-49.4384765625
-40.283203125
-31.1279296875
-27.4658203125
-34.7900390625
-36.62109375
-32.958984375
-21.97265625
-21.05712890625
-17.39501953125
-19.22607421875
-29.296875
-32.958984375
-26.55029296875
-17.39501953125
-12.8173828125
-18.310546875
-8.23974609375
-9.1552734375
-15.56396484375
-9.1552734375
-8.23974609375
-7.32421875
-6.40869140625
-2.74658203125
-4.57763671875
0
1.8310546875
-0.91552734375
0.91552734375
9.1552734375
10.986328125
10.07080078125
15.56396484375
19.22607421875
19.22607421875
24.71923828125
29.296875
29.296875
28.38134765625
33.87451171875
33.87451171875
31.1279296875
33.87451171875
37.53662109375
48.52294921875
42.1142578125
45.7763671875
49.4384765625
53.1005859375
61.34033203125
71.4111328125
71.4111328125
77.81982421875
87.890625
86.97509765625
93.3837890625
98.876953125
99.79248046875
99.79248046875
105.28564453125
106.201171875
118.10302734375
133.6669921875
140.07568359375
146.484375
153.80859375
161.1328125
169.37255859375
174.86572265625
187.68310546875
194.091796875
206.9091796875
216.97998046875
226.13525390625
232.5439453125
235.29052734375
256.34765625
255.43212890625
253.60107421875
270.99609375
280.1513671875
290.22216796875
301.20849609375
310.36376953125
309.4482421875
317.68798828125
323.18115234375
326.84326171875
335.99853515625
340.576171875
354.30908203125
352.47802734375
357.0556640625
371.7041015625
376.28173828125
378.11279296875
378.11279296875
368.95751953125
361.63330078125
358.88671875
360.7177734375
355.224609375
346.98486328125
335.99853515625
328.67431640625
316.7724609375
297.54638671875
280.1513671875
259.09423828125
241.69921875
229.79736328125
212.40234375
194.091796875
175.78125
153.80859375
131.8359375
119.0185546875
94.29931640625
71.4111328125
52.18505859375
41.19873046875
30.21240234375
23.8037109375
6.40869140625
-5.4931640625
-9.1552734375
-14.6484375
-24.71923828125
-37.53662109375
-48.52294921875
-49.4384765625
-50.35400390625
-48.52294921875
-49.4384765625
-53.1005859375
-64.0869140625
-71.4111328125
-72.32666015625
-72.32666015625
-70.49560546875
-71.4111328125
-72.32666015625
-66.83349609375
-69.580078125
-83.31298828125
-81.48193359375
-71.4111328125
-78.7353515625
-79.65087890625
-80.56640625
-79.65087890625
-84.228515625
-86.0595703125
-84.228515625
-89.7216796875
-87.890625
-84.228515625
-91.552734375
-87.890625
-85.14404296875
-86.0595703125
-89.7216796875
-83.31298828125
-80.56640625
-81.48193359375
-83.31298828125
-85.14404296875
-83.31298828125
-83.31298828125
-82.3974609375
-73.2421875
-75.98876953125
-77.81982421875
-88.80615234375
-99.79248046875
-93.3837890625
-88.80615234375
-94.29931640625
-92.46826171875
-84.228515625
-87.890625
-86.97509765625
-87.890625
-87.890625
-90.63720703125
-90.63720703125
-99.79248046875
-105.28564453125
-92.46826171875
-97.96142578125
-101.62353515625
-92.46826171875
-91.552734375
-94.29931640625
-99.79248046875
-98.876953125
-92.46826171875
-100.7080078125
-105.28564453125
-109.86328125
-107.11669921875
-109.86328125
-102.5390625
-109.86328125
-114.44091796875
-108.94775390625
-109.86328125
-116.27197265625
-118.10302734375
-112.60986328125
-115.3564453125
-119.0185546875
-123.59619140625
-116.27197265625
-125.42724609375
-124.51171875
-115.3564453125
-117.1875
-118.10302734375
-119.93408203125
-122.6806640625
-126.3427734375
-133.6669921875
-130.92041015625
-136.41357421875
-132.75146484375
-132.75146484375
-140.9912109375
-143.73779296875
-142.822265625
-136.41357421875
-142.822265625
-142.822265625
-132.75146484375
-136.41357421875
-146.484375
-145.56884765625
-143.73779296875
-144.6533203125
-152.89306640625
-146.484375
-141.90673828125
-149.23095703125
-150.146484375
-137.3291015625
-146.484375
-144.6533203125
-151.06201171875
-156.55517578125
-147.39990234375
-156.55517578125
-154.72412109375
-153.80859375
-151.9775390625
-151.06201171875
-152.89306640625
-150.146484375
-151.06201171875
-156.55517578125
-155.6396484375
-160.21728515625
-154.72412109375
-150.146484375
-154.72412109375
-150.146484375
-149.23095703125
-149.23095703125
-162.04833984375
-163.87939453125
-159.3017578125
-147.39990234375
-152.89306640625
-159.3017578125
-161.1328125
-162.04833984375
-165.71044921875
-172.119140625
-176.69677734375
-171.20361328125
-171.20361328125
-172.119140625
-169.37255859375
-167.54150390625
-166.6259765625
-173.9501953125
-167.54150390625
-167.54150390625
-171.20361328125
-181.2744140625
-177.6123046875
-162.04833984375
-164.794921875
-156.55517578125
-150.146484375
-158.38623046875
-154.72412109375
-158.38623046875
-152.89306640625
-156.55517578125
-153.80859375
-162.04833984375
-177.6123046875
-165.71044921875
-161.1328125
-176.69677734375
-170.2880859375
-169.37255859375
-169.37255859375
-152.89306640625
-138.24462890625
-139.16015625
-141.90673828125
-135.498046875
-124.51171875
-129.08935546875
-128.173828125
-127.25830078125
-128.173828125
-128.173828125
-128.173828125
-141.90673828125
-143.73779296875
-158.38623046875
-162.04833984375
-163.87939453125
-179.443359375
-175.78125
-186.767578125
-188.5986328125
-181.2744140625
-189.51416015625
-199.5849609375
-199.5849609375
-198.66943359375
-200.50048828125
-204.16259765625
-201.416015625
-201.416015625
-197.75390625
-204.16259765625
-203.2470703125
-194.091796875
-198.66943359375
-202.33154296875
-198.66943359375
-201.416015625
-203.2470703125
-195.9228515625
-202.33154296875
-203.2470703125
-199.5849609375
-198.66943359375
-199.5849609375
-197.75390625
-188.5986328125
-194.091796875
-199.5849609375
-202.33154296875
-199.5849609375
-191.34521484375
-195.00732421875
-193.17626953125
-189.51416015625
-195.00732421875
-201.416015625
-192.2607421875
-174.86572265625
-172.119140625
-158.38623046875
-123.59619140625
-91.552734375
-43.9453125
21.97265625
85.14404296875
148.3154296875
208.740234375
284.72900390625
345.15380859375
394.59228515625
420.22705078125
439.453125
391.845703125
276.4892578125
156.55517578125
27.4658203125
-124.51171875
-253.60107421875
-331.4208984375
-363.46435546875
-369.873046875
-358.88671875
-346.0693359375
-336.9140625
-346.98486328125
-341.49169921875
-331.4208984375
-314.94140625
-280.1513671875
-245.361328125
-234.375
-218.81103515625
-214.2333984375
-203.2470703125
-203.2470703125
-195.9228515625
-195.00732421875
-192.2607421875
-184.9365234375
-191.34521484375
-193.17626953125
-190.4296875
-186.767578125
-185.85205078125
-186.767578125
-185.85205078125
-180.35888671875
-176.69677734375
-184.9365234375
-186.767578125
-176.69677734375
-184.02099609375
-182.18994140625
-173.03466796875
-177.6123046875
-177.6123046875
-178.52783203125
-177.6123046875
-183.10546875
-192.2607421875
-185.85205078125
-190.4296875
-183.10546875
-173.9501953125
-177.6123046875
-182.18994140625
-182.18994140625
-170.2880859375
-170.2880859375
-175.78125
-171.20361328125
-165.71044921875
-162.04833984375
-153.80859375
-154.72412109375
-160.21728515625
-158.38623046875
-156.55517578125
-151.06201171875
-150.146484375
-142.822265625
-138.24462890625
-136.41357421875
-126.3427734375
-129.08935546875
-131.8359375
-131.8359375
-119.0185546875
-114.44091796875
-114.44091796875
-107.11669921875
-101.62353515625
-94.29931640625
-90.63720703125
-86.97509765625
-77.81982421875
-67.7490234375
-60.4248046875
-54.931640625
-54.01611328125
-43.02978515625
-35.70556640625
-32.958984375
-20.1416015625
-20.1416015625
-16.4794921875
-1.8310546875
2.74658203125
11.90185546875
18.310546875
32.04345703125
48.52294921875
53.1005859375
57.67822265625
70.49560546875
72.32666015625
68.66455078125
88.80615234375
99.79248046875
100.7080078125
106.201171875
131.8359375
128.173828125
134.58251953125
137.3291015625
144.6533203125
142.822265625
150.146484375
153.80859375
169.37255859375
165.71044921875
174.86572265625
181.2744140625
181.2744140625
178.52783203125
180.35888671875
179.443359375
171.20361328125
160.21728515625
152.89306640625
138.24462890625
132.75146484375
116.27197265625
91.552734375
79.65087890625
64.0869140625
48.52294921875
25.634765625
-1.8310546875
-20.1416015625
-32.958984375
-49.4384765625
-67.7490234375
-82.3974609375
-99.79248046875
-121.76513671875
-149.23095703125
-157.470703125
-175.78125
-196.83837890625
-199.5849609375
-199.5849609375
-203.2470703125
-214.2333984375
-229.79736328125
-233.45947265625
-241.69921875
-242.61474609375
-249.93896484375
-250.8544921875
-257.26318359375
-261.8408203125
-262.75634765625
-269.1650390625
-274.658203125
-270.08056640625
-267.333984375
-270.08056640625
-277.40478515625
-277.40478515625
-278.3203125
-276.4892578125
-281.982421875
-281.06689453125
-276.4892578125
-275.57373046875
-279.23583984375
-277.40478515625
-279.23583984375
-281.06689453125
-279.23583984375
-285.64453125
-284.72900390625
-280.1513671875
-282.89794921875
-281.06689453125
-282.89794921875
-286.56005859375
-288.39111328125
-284.72900390625
-292.96875
-287.4755859375
-276.4892578125
-270.99609375
-278.3203125
-283.8134765625
-281.06689453125
-276.4892578125
-279.23583984375
-287.4755859375
-282.89794921875
-285.64453125
-293.88427734375
-287.4755859375
-292.05322265625
-297.54638671875
-298.4619140625
-296.630859375
-296.630859375
-291.1376953125
-283.8134765625
-282.89794921875
-286.56005859375
-286.56005859375
-285.64453125
-292.05322265625
-288.39111328125
-289.306640625
-292.96875
-297.54638671875
-297.54638671875
-298.4619140625
-297.54638671875
-292.05322265625
-293.88427734375
-311.279296875
-314.02587890625
-312.19482421875
-311.279296875
-314.02587890625
-307.6171875
-310.36376953125
-313.1103515625
-314.02587890625
-311.279296875
-314.02587890625
-314.02587890625
-315.85693359375
-323.18115234375
-315.85693359375
-308.53271484375
-321.35009765625
-319.51904296875
-312.19482421875
-317.68798828125
-322.265625
-313.1103515625
-315.85693359375
-312.19482421875
-320.4345703125
-321.35009765625
-322.265625
-314.94140625
-311.279296875
-315.85693359375
-321.35009765625
-326.84326171875
-336.9140625
-337.82958984375
-338.7451171875
-335.0830078125
-327.7587890625
-329.58984375
-330.50537109375
-334.16748046875
-333.251953125
-331.4208984375
-333.251953125
-329.58984375
-339.66064453125
-333.251953125
-337.82958984375
-338.7451171875
-333.251953125
-329.58984375
-328.67431640625
-333.251953125
-335.0830078125
-342.4072265625
-342.4072265625
-342.4072265625
-339.66064453125
-344.23828125
-340.576171875
-333.251953125
-339.66064453125
-339.66064453125
-339.66064453125
-338.7451171875
-342.4072265625
-344.23828125
-335.0830078125
-343.32275390625
-334.16748046875
-331.4208984375
-335.0830078125
-333.251953125
-326.84326171875
-328.67431640625
-325.927734375
-320.4345703125
-324.0966796875
-323.18115234375
-327.7587890625
-332.33642578125
-340.576171875
-336.9140625
-350.64697265625
-363.46435546875
-362.548828125
-359.80224609375
-340.576171875
-337.82958984375
-330.50537109375
-321.35009765625
-318.603515625
-319.51904296875
-317.68798828125
-310.36376953125
-314.94140625
-301.20849609375
-306.70166015625
-305.7861328125
-309.4482421875
-315.85693359375
-321.35009765625
-325.927734375
-335.99853515625
-342.4072265625
-348.81591796875
-355.224609375
-357.97119140625
-369.873046875
-361.63330078125
-361.63330078125
-364.3798828125
-368.95751953125
-370.78857421875
-367.12646484375
-372.61962890625
-379.0283203125
-376.28173828125
-376.28173828125
-374.45068359375
-379.94384765625
-378.11279296875
-376.28173828125
-384.521484375
-384.521484375
-380.859375
-379.94384765625
-375.3662109375
-379.0283203125
-367.12646484375
-368.95751953125
-368.0419921875
-369.873046875
-366.2109375
-369.873046875
-374.45068359375
-373.53515625
-371.7041015625
-377.197265625
-375.3662109375
-376.28173828125
-373.53515625
-369.873046875
-368.0419921875
-368.95751953125
-357.97119140625
-352.47802734375
-341.49169921875
-310.36376953125
-276.4892578125
-232.5439453125
-170.2880859375
-120.849609375
-49.4384765625
10.07080078125
83.31298828125
154.72412109375
206.9091796875
242.61474609375
258.1787109375
237.12158203125
130.0048828125
12.8173828125
-117.1875
-262.75634765625
-408.3251953125
-478.82080078125
-510.8642578125
-500.79345703125
-486.14501953125
-480.65185546875
-474.2431640625
-476.98974609375
-486.14501953125
-500.79345703125
-490.72265625
-467.83447265625
-433.04443359375
-404.6630859375
-384.521484375
-364.3798828125
-355.224609375
-356.14013671875
-347.900390625
-352.47802734375
-339.66064453125
-326.84326171875
-320.4345703125
-322.265625
-323.18115234375
-322.265625
-334.16748046875
-327.7587890625
-328.67431640625
-335.0830078125
-329.58984375
-325.01220703125
-317.68798828125
-314.94140625
-323.18115234375
-329.58984375
-322.265625
-316.7724609375
-312.19482421875
-316.7724609375
-316.7724609375
-309.4482421875
-307.6171875
-304.87060546875
-304.87060546875
-299.37744140625
-299.37744140625
-292.96875
-294.7998046875
-297.54638671875
-303.955078125
-293.88427734375
-281.982421875
-278.3203125
-277.40478515625
-276.4892578125
-271.91162109375
-270.08056640625
-270.99609375
-271.91162109375
-268.24951171875
-254.5166015625
-255.43212890625
-256.34765625
-251.77001953125
-250.8544921875
-256.34765625
-257.26318359375
-249.93896484375
-246.27685546875
-238.037109375
-222.47314453125
-221.5576171875
-225.2197265625
-214.2333984375
-205.99365234375
-208.740234375
-216.064453125
-208.740234375
-201.416015625
-190.4296875
-183.10546875
-174.86572265625
-168.45703125
-156.55517578125
-149.23095703125
-142.822265625
-132.75146484375
-115.3564453125
-110.77880859375
-109.86328125
-98.876953125
-81.48193359375
-72.32666015625
-66.83349609375
-49.4384765625
-45.7763671875
-38.4521484375
-27.4658203125
-18.310546875
-5.4931640625
-3.662109375
0
12.8173828125
21.97265625
36.62109375
38.4521484375
49.4384765625
52.18505859375
47.607421875
50.35400390625
65.91796875
67.7490234375
68.66455078125
73.2421875
76.904296875
71.4111328125
66.83349609375
67.7490234375
70.49560546875
59.50927734375
44.86083984375
47.607421875
32.958984375
15.56396484375
4.57763671875
-17.39501953125
-38.4521484375
-62.255859375
-86.0595703125
-99.79248046875
-116.27197265625
-140.07568359375
-158.38623046875
-166.6259765625
-191.34521484375
-205.99365234375
-217.8955078125
-230.712890625
-253.60107421875
-259.09423828125
-271.91162109375
-286.56005859375
-299.37744140625
-303.955078125
-311.279296875
-321.35009765625
-325.01220703125
-332.33642578125
-339.66064453125
-338.7451171875
-342.4072265625
-347.900390625
-348.81591796875
-351.5625
-355.224609375
-358.88671875
-358.88671875
-361.63330078125
-366.2109375
-369.873046875
-375.3662109375
-368.0419921875
-368.0419921875
-366.2109375
-365.29541015625
-369.873046875
-365.29541015625
-358.88671875
-358.88671875
-357.97119140625
-366.2109375
-361.63330078125
-359.80224609375
-353.3935546875
-362.548828125
-368.0419921875
-372.61962890625
-369.873046875
-364.3798828125
-359.80224609375
-357.97119140625
-368.0419921875
-368.0419921875
-364.3798828125
-364.3798828125
-358.88671875
-357.97119140625
-357.97119140625
-366.2109375
-368.0419921875
-364.3798828125
-361.63330078125
-361.63330078125
-358.88671875
-365.29541015625
-360.7177734375
-357.0556640625
-360.7177734375
-367.12646484375
-361.63330078125
-357.97119140625
-357.0556640625
-362.548828125
-358.88671875
-358.88671875
-362.548828125
-361.63330078125
-360.7177734375
-366.2109375
-361.63330078125
-357.97119140625
-359.80224609375
-359.80224609375
-367.12646484375
-370.78857421875
-367.12646484375
-360.7177734375
-363.46435546875
-369.873046875
-371.7041015625
-363.46435546875
-360.7177734375
-367.12646484375
-367.12646484375
-361.63330078125
-363.46435546875
-366.2109375
-375.3662109375
-377.197265625
-382.6904296875
-374.45068359375
-374.45068359375
-369.873046875
-364.3798828125
-367.12646484375
-373.53515625
-370.78857421875
-374.45068359375
-374.45068359375
-380.859375
-383.60595703125
-375.3662109375
-380.859375
-376.28173828125
-380.859375
-379.94384765625
-379.0283203125
-378.11279296875
-384.521484375
-388.18359375
-391.845703125
-387.26806640625
-386.3525390625
-385.43701171875
-381.77490234375
-379.0283203125
-379.94384765625
-375.3662109375
-379.94384765625
-381.77490234375
-387.26806640625
-382.6904296875
-380.859375
-380.859375
-378.11279296875
-386.3525390625
-375.3662109375
-376.28173828125
-383.60595703125
-381.77490234375
-383.60595703125
-379.0283203125
-380.859375
-376.28173828125
-385.43701171875
-384.521484375
-376.28173828125
-374.45068359375
-380.859375
-388.18359375
-383.60595703125
-385.43701171875
-377.197265625
-379.94384765625
-380.859375
-388.18359375
-387.26806640625
-383.60595703125
-381.77490234375
-385.43701171875
-384.521484375
-387.26806640625
-377.197265625
-375.3662109375
-379.0283203125
-379.94384765625
-379.94384765625
-369.873046875
-370.78857421875
-362.548828125
-365.29541015625
-357.97119140625
-361.63330078125
-354.30908203125
-365.29541015625
-369.873046875
-379.0283203125
-380.859375
-389.09912109375
-383.60595703125
-383.60595703125
-382.6904296875
-375.3662109375
-364.3798828125
-357.97119140625
-351.5625
-341.49169921875
-337.82958984375
-346.0693359375
-348.81591796875
-332.33642578125
-327.7587890625
-327.7587890625
-334.16748046875
-332.33642578125
-339.66064453125
-335.0830078125
-335.99853515625
-358.88671875
-362.548828125
-365.29541015625
-381.77490234375
-372.61962890625
-385.43701171875
-382.6904296875
-384.521484375
-383.60595703125
-386.3525390625
-396.42333984375
-403.74755859375
-398.25439453125
-393.6767578125
-393.6767578125
-396.42333984375
-394.59228515625
-393.6767578125
-403.74755859375
-401.0009765625
-400.08544921875
-394.59228515625
-396.42333984375
-399.169921875
-393.6767578125
-396.42333984375
-395.5078125
-394.59228515625
-392.76123046875
-388.18359375
-387.26806640625
-384.521484375
-383.60595703125
-387.26806640625
-381.77490234375
-384.521484375
-379.0283203125
-385.43701171875
-381.77490234375
-383.60595703125
-382.6904296875
-385.43701171875
-387.26806640625
-367.12646484375
-347.900390625
-325.927734375
-292.96875
-257.26318359375
-208.740234375
-150.146484375
-90.63720703125
-14.6484375
45.7763671875
113.525390625
184.9365234375
231.62841796875
267.333984375
288.39111328125
256.34765625
131.8359375
3.662109375
-119.0185546875
-255.43212890625
-395.5078125
-471.49658203125
-515.44189453125
-516.357421875
-509.033203125
-506.28662109375
-499.8779296875
-501.708984375
-489.80712890625
-472.412109375
-452.2705078125
-430.2978515625
-396.42333984375
-378.11279296875
-366.2109375
-353.3935546875
-344.23828125
-347.900390625
-338.7451171875
-336.9140625
-337.82958984375
-335.0830078125
-327.7587890625
-330.50537109375
-336.9140625
-327.7587890625
-326.84326171875
-331.4208984375
-326.84326171875
-323.18115234375
-320.4345703125
-317.68798828125
-319.51904296875
-319.51904296875
-311.279296875
-314.02587890625
-307.6171875
-311.279296875
-300.29296875
-306.70166015625
-301.20849609375
-306.70166015625
-290.22216796875
-284.72900390625
-292.05322265625
-283.8134765625
-291.1376953125
-294.7998046875
-300.29296875
-290.22216796875
-283.8134765625
-281.06689453125
-275.57373046875
-280.1513671875
-278.3203125
-273.74267578125
-270.08056640625
-271.91162109375
-268.24951171875
-262.75634765625
-254.5166015625
-257.26318359375
-253.60107421875
-250.8544921875
-254.5166015625
-247.1923828125
-244.44580078125
-238.037109375
-228.8818359375
-227.05078125
-218.81103515625
-220.64208984375
-216.064453125
-216.064453125
-215.14892578125
-204.16259765625
-188.5986328125
-193.17626953125
-188.5986328125
-170.2880859375
-170.2880859375
-160.21728515625
-151.06201171875
-149.23095703125
-140.07568359375
-120.849609375
-104.3701171875
-107.11669921875
-103.45458984375
-88.80615234375
-81.48193359375
-67.7490234375
-62.255859375
-49.4384765625
-50.35400390625
-43.9453125
-24.71923828125
-20.1416015625
-9.1552734375
4.57763671875
11.90185546875
21.05712890625
27.4658203125
35.70556640625
41.19873046875
49.4384765625
54.931640625
59.50927734375
65.00244140625
71.4111328125
76.904296875
84.228515625
103.45458984375
107.11669921875
103.45458984375
107.11669921875
115.3564453125
111.6943359375
96.13037109375
91.552734375
88.80615234375
84.228515625
77.81982421875
65.91796875
50.35400390625
31.1279296875
16.4794921875
-3.662109375
-28.38134765625
-49.4384765625
-65.00244140625
-82.3974609375
-89.7216796875
-114.44091796875
-138.24462890625
-155.6396484375
-163.87939453125
-183.10546875
-192.2607421875
-206.9091796875
-217.8955078125
-228.8818359375
-240.78369140625
-253.60107421875
-257.26318359375
-272.8271484375
-290.22216796875
-291.1376953125
-287.4755859375
-299.37744140625
-295.71533203125
-301.20849609375
-305.7861328125
-308.53271484375
-314.02587890625
-314.94140625
-314.02587890625
-317.68798828125
-306.70166015625
-314.02587890625
-320.4345703125
-315.85693359375
-312.19482421875
-314.02587890625
-314.02587890625
-319.51904296875
-318.603515625
-317.68798828125
-317.68798828125
-321.35009765625
-314.94140625
-318.603515625
-319.51904296875
-309.4482421875
-307.6171875
-304.87060546875
-313.1103515625
-311.279296875
-307.6171875
-314.94140625
-304.87060546875
-307.6171875
-306.70166015625
-306.70166015625
-313.1103515625
-310.36376953125
-308.53271484375
-305.7861328125
-304.87060546875
-308.53271484375
-308.53271484375
-314.02587890625
-300.29296875
-303.955078125
-308.53271484375
-306.70166015625
-302.1240234375
-311.279296875
-320.4345703125
-310.36376953125
-297.54638671875
-303.955078125
-308.53271484375
-299.37744140625
-303.955078125
-304.87060546875
-303.03955078125
-310.36376953125
-310.36376953125
-308.53271484375
-303.03955078125
-303.03955078125
-309.4482421875
-307.6171875
-304.87060546875
-308.53271484375
-313.1103515625
-312.19482421875
-305.7861328125
-305.7861328125
-310.36376953125
-307.6171875
-292.05322265625
-299.37744140625
-309.4482421875
-308.53271484375
-313.1103515625
-315.85693359375
-307.6171875
-309.4482421875
-307.6171875
-315.85693359375
-314.94140625
-303.03955078125
-312.19482421875
-307.6171875
-304.87060546875
-312.19482421875
-318.603515625
-308.53271484375
-310.36376953125
-317.68798828125
-303.03955078125
-303.955078125
-303.03955078125
-305.7861328125
-317.68798828125
-322.265625
-319.51904296875
-311.279296875
-309.4482421875
-309.4482421875
-317.68798828125
-325.927734375
-322.265625
-319.51904296875
-317.68798828125
-314.02587890625
-309.4482421875
-312.19482421875
-310.36376953125
-312.19482421875
-314.94140625
-309.4482421875
-303.955078125
-309.4482421875
-304.87060546875
-312.19482421875
-315.85693359375
-309.4482421875
-315.85693359375
-316.7724609375
-310.36376953125
-302.1240234375
-306.70166015625
-296.630859375
-297.54638671875
-314.02587890625
-311.279296875
-310.36376953125
-308.53271484375
-311.279296875
-302.1240234375
-305.7861328125
-303.955078125
-300.29296875
-307.6171875
-311.279296875
-304.87060546875
-303.03955078125
-306.70166015625
-303.03955078125
-294.7998046875
-294.7998046875
-300.29296875
-297.54638671875
-299.37744140625
-302.1240234375
-303.955078125
-299.37744140625
-290.22216796875
-284.72900390625
-281.982421875
-285.64453125
-283.8134765625
-276.4892578125
-271.91162109375
-284.72900390625
-292.96875
-300.29296875
-302.1240234375
-298.4619140625
-295.71533203125
-301.20849609375
-306.70166015625
-303.955078125
-298.4619140625
-287.4755859375
-278.3203125
-270.99609375
-264.58740234375
-264.58740234375
-253.60107421875
-257.26318359375
-263.671875
-253.60107421875
-250.8544921875
-255.43212890625
-252.685546875
-260.92529296875
-260.92529296875
-273.74267578125
-271.91162109375
-275.57373046875
-287.4755859375
-288.39111328125
-283.8134765625
-289.306640625
-304.87060546875
-301.20849609375
-308.53271484375
-310.36376953125
-303.955078125
-312.19482421875
-311.279296875
-304.87060546875
-308.53271484375
-305.7861328125
-311.279296875
-313.1103515625
-315.85693359375
-312.19482421875
-305.7861328125
-314.94140625
-311.279296875
-312.19482421875
-308.53271484375
-306.70166015625
-304.87060546875
-299.37744140625
-299.37744140625
-294.7998046875
-291.1376953125
-299.37744140625
-297.54638671875
-283.8134765625
-293.88427734375
-300.29296875
-289.306640625
-284.72900390625
-295.71533203125
-291.1376953125
-289.306640625
-293.88427734375
-292.05322265625
-279.23583984375
-267.333984375
-251.77001953125
-222.47314453125
-178.52783203125
-139.16015625
-84.228515625
-17.39501953125
47.607421875
107.11669921875
172.119140625
249.0234375
308.53271484375
349.7314453125
378.11279296875
357.97119140625
249.93896484375
128.173828125
14.6484375
-129.08935546875
-270.08056640625
-372.61962890625
-426.6357421875
-433.04443359375
-419.3115234375
-411.9873046875
-410.15625
-409.24072265625
-401.0009765625
-390.0146484375
-378.11279296875
-346.0693359375
-310.36376953125
-280.1513671875
-267.333984375
-271.91162109375
-262.75634765625
-258.1787109375
-246.27685546875
-246.27685546875
-248.10791015625
-239.8681640625
-249.0234375
-246.27685546875
-238.037109375
-244.44580078125
-244.44580078125
-229.79736328125
-229.79736328125
-234.375
-219.7265625
-224.30419921875
-238.037109375
-224.30419921875
-221.5576171875
-225.2197265625
-221.5576171875
-217.8955078125
-213.31787109375
-213.31787109375
-216.064453125
-216.97998046875
-216.064453125
-209.65576171875
-199.5849609375
-200.50048828125
-195.00732421875
-188.5986328125
-187.68310546875
-195.00732421875
-190.4296875
-190.4296875
-193.17626953125
-182.18994140625
-175.78125
-181.2744140625
-179.443359375
-163.87939453125
-155.6396484375
-155.6396484375
-153.80859375
-157.470703125
-149.23095703125
-144.6533203125
-140.9912109375
-138.24462890625
-140.07568359375
-128.173828125
-115.3564453125
-116.27197265625
-115.3564453125
-112.60986328125
-108.0322265625
-100.7080078125
-93.3837890625
-88.80615234375
-80.56640625
-69.580078125
-69.580078125
-70.49560546875
-61.34033203125
-47.607421875
-46.69189453125
-37.53662109375
-32.04345703125
-27.4658203125
-5.4931640625
4.57763671875
11.90185546875
21.97265625
31.1279296875
31.1279296875
29.296875
43.02978515625
57.67822265625
73.2421875
82.3974609375
94.29931640625
102.5390625
108.94775390625
115.3564453125
114.44091796875
131.8359375
131.8359375
148.3154296875
152.89306640625
165.71044921875
174.86572265625
184.02099609375
187.68310546875
194.091796875
200.50048828125
201.416015625
205.99365234375
208.740234375
210.5712890625
210.5712890625
216.97998046875
208.740234375
204.16259765625
210.5712890625
197.75390625
184.02099609375
173.03466796875
169.37255859375
162.04833984375
129.08935546875
111.6943359375
100.7080078125
89.7216796875
74.15771484375
46.69189453125
14.6484375
-0.91552734375
-14.6484375
-32.04345703125
-46.69189453125
-61.34033203125
-82.3974609375
-101.62353515625
-112.60986328125
-124.51171875
-139.16015625
-159.3017578125
-162.04833984375
-156.55517578125
-160.21728515625
-174.86572265625
-178.52783203125
-184.9365234375
-187.68310546875
-197.75390625
-200.50048828125
-200.50048828125
-205.99365234375
-201.416015625
-201.416015625
-203.2470703125
-202.33154296875
-206.9091796875
-202.33154296875
-199.5849609375
-202.33154296875
-216.064453125
-211.48681640625
-219.7265625
-215.14892578125
-213.31787109375
-202.33154296875
-208.740234375
-206.9091796875
-203.2470703125
-210.5712890625
-212.40234375
-201.416015625
-204.16259765625
-204.16259765625
-205.078125
-205.99365234375
-205.99365234375
-200.50048828125
-202.33154296875
-204.16259765625
-204.16259765625
-202.33154296875
-201.416015625
-207.82470703125
-195.00732421875
-188.5986328125
-195.9228515625
-190.4296875
-191.34521484375
-194.091796875
-196.83837890625
-201.416015625
-194.091796875
-189.51416015625
-192.2607421875
-193.17626953125
-189.51416015625
-194.091796875
-189.51416015625
-193.17626953125
-192.2607421875
-188.5986328125
-197.75390625
-195.9228515625
-193.17626953125
-195.00732421875
-201.416015625
-200.50048828125
-195.00732421875
-197.75390625
-196.83837890625
-182.18994140625
-195.00732421875
-200.50048828125
-193.17626953125
-200.50048828125
-198.66943359375
-185.85205078125
-195.9228515625
-203.2470703125
-200.50048828125
-197.75390625
-196.83837890625
-193.17626953125
-194.091796875
-195.9228515625
-194.091796875
-194.091796875
-197.75390625
-195.9228515625
-197.75390625
-200.50048828125
-201.416015625
-201.416015625
-198.66943359375
-205.99365234375
-214.2333984375
-210.5712890625
-208.740234375
-208.740234375
-205.078125
-209.65576171875
-205.078125
-200.50048828125
-197.75390625
-195.9228515625
-203.2470703125
-205.078125
-202.33154296875
-204.16259765625
-201.416015625
-196.83837890625
-204.16259765625
-211.48681640625
-205.99365234375
-205.078125
-202.33154296875
-209.65576171875
-205.99365234375
-213.31787109375
-212.40234375
-205.99365234375
-210.5712890625
-209.65576171875
-205.99365234375
-202.33154296875
-211.48681640625
-204.16259765625
-209.65576171875
-212.40234375
-209.65576171875
-213.31787109375
-208.740234375
-205.99365234375
-204.16259765625
-205.99365234375
-208.740234375
-209.65576171875
-209.65576171875
-205.078125
-199.5849609375
-195.00732421875
-196.83837890625
-201.416015625
-195.9228515625
-199.5849609375
-198.66943359375
-209.65576171875
-194.091796875
-195.00732421875
-194.091796875
-194.091796875
-187.68310546875
-191.34521484375
-188.5986328125
-181.2744140625
-184.9365234375
-184.9365234375
-184.9365234375
-189.51416015625
-193.17626953125
-199.5849609375
-204.16259765625
-198.66943359375
-200.50048828125
-195.00732421875
-188.5986328125
-181.2744140625
-169.37255859375
-164.794921875
-151.9775390625
-162.04833984375
-163.87939453125
-154.72412109375
-145.56884765625
-143.73779296875
-149.23095703125
-150.146484375
-162.04833984375
-170.2880859375
-163.87939453125
-167.54150390625
-174.86572265625
-185.85205078125
-184.02099609375
-184.9365234375
-195.00732421875
-199.5849609375
-194.091796875
-203.2470703125
-199.5849609375
-202.33154296875
-199.5849609375
-205.078125
-204.16259765625
-206.9091796875
-210.5712890625
-199.5849609375
-199.5849609375
-205.078125
-197.75390625
-193.17626953125
-195.9228515625
-195.9228515625
-206.9091796875
-208.740234375
-206.9091796875
-204.16259765625
-199.5849609375
-205.99365234375
-199.5849609375
-189.51416015625
-192.2607421875
-196.83837890625
-194.091796875
-200.50048828125
-195.00732421875
-187.68310546875
-190.4296875
-194.091796875
-192.2607421875
-193.17626953125
-197.75390625
-187.68310546875
-180.35888671875
-169.37255859375
-146.484375
-129.08935546875
-88.80615234375
-42.1142578125
21.05712890625
91.552734375
157.470703125
219.7265625
296.630859375
355.224609375
406.494140625
430.2978515625
441.2841796875
374.45068359375
262.75634765625
140.9912109375
8.23974609375
-141.90673828125
-249.0234375
-307.6171875
-328.67431640625
-325.927734375
-307.6171875
-292.96875
-281.982421875
-289.306640625
-300.29296875
-304.87060546875
-294.7998046875
-264.58740234375
-237.12158203125
-205.99365234375
-189.51416015625
-184.02099609375
-168.45703125
-151.9775390625
-145.56884765625
-151.06201171875
-151.06201171875
-149.23095703125
-148.3154296875
-143.73779296875
-132.75146484375
-136.41357421875
-134.58251953125
-135.498046875
-127.25830078125
-127.25830078125
-129.08935546875
-124.51171875
-121.76513671875
-116.27197265625
-107.11669921875
-113.525390625
-111.6943359375
-120.849609375
-111.6943359375
-103.45458984375
-104.3701171875
-107.11669921875
-99.79248046875
-92.46826171875
-84.228515625
-86.0595703125
-85.14404296875
-86.0595703125
-79.65087890625
-83.31298828125
-84.228515625
-78.7353515625
-83.31298828125
-86.0595703125
-84.228515625
-84.228515625
-73.2421875
-74.15771484375
-71.4111328125
-64.0869140625
-54.931640625
-52.18505859375
-55.84716796875
-47.607421875
-50.35400390625
-50.35400390625
-46.69189453125
-28.38134765625
-24.71923828125
-29.296875
-21.05712890625
-10.07080078125
-10.986328125
0.91552734375
-2.74658203125
3.662109375
14.6484375
22.88818359375
31.1279296875
32.958984375
43.9453125
46.69189453125
63.17138671875
72.32666015625
83.31298828125
84.228515625
98.876953125
97.0458984375
111.6943359375
117.1875
123.59619140625
137.3291015625
145.56884765625
160.21728515625
162.9638671875
169.37255859375
182.18994140625
190.4296875
195.9228515625
201.416015625
220.64208984375
229.79736328125
241.69921875
249.93896484375
254.5166015625
266.41845703125
270.99609375
275.57373046875
292.05322265625
290.22216796875
300.29296875
307.6171875
299.37744140625
298.4619140625
306.70166015625
303.955078125
299.37744140625
304.87060546875
311.279296875
306.70166015625
304.87060546875
295.71533203125
282.89794921875
270.99609375
255.43212890625
240.78369140625
216.97998046875
204.16259765625
179.443359375
164.794921875
155.6396484375
132.75146484375
110.77880859375
89.7216796875
70.49560546875
43.02978515625
30.21240234375
17.39501953125
3.662109375
-7.32421875
-24.71923828125
-34.7900390625
-37.53662109375
-50.35400390625
-60.4248046875
-77.81982421875
-81.48193359375
-84.228515625
-96.13037109375
-97.96142578125
-97.0458984375
-101.62353515625
-112.60986328125
-108.0322265625
-108.0322265625
-117.1875
-124.51171875
-119.0185546875
-110.77880859375
-104.3701171875
-108.94775390625
-116.27197265625
-119.0185546875
-118.10302734375
-115.3564453125
-130.0048828125
-129.08935546875
-128.173828125
-121.76513671875
-124.51171875
-121.76513671875
-124.51171875
-125.42724609375
-125.42724609375
-122.6806640625
-134.58251953125
-119.0185546875
-117.1875
-109.86328125
-117.1875
-108.0322265625
-116.27197265625
-117.1875
-117.1875
-120.849609375
-120.849609375
-120.849609375
-114.44091796875
-120.849609375
-125.42724609375
-120.849609375
-119.93408203125
-116.27197265625
-123.59619140625
-121.76513671875
-115.3564453125
-113.525390625
-119.0185546875
-122.6806640625
-120.849609375
-122.6806640625
-116.27197265625
-118.10302734375
-117.1875
-115.3564453125
-110.77880859375
-109.86328125
-109.86328125
-112.60986328125
-110.77880859375
-113.525390625
-115.3564453125
-111.6943359375
-128.173828125
-127.25830078125
-126.3427734375
-122.6806640625
-119.93408203125
-118.10302734375
-119.93408203125
-114.44091796875
-118.10302734375
-124.51171875
-120.849609375
-118.10302734375
-114.44091796875
-106.201171875
-119.0185546875
-131.8359375
-132.75146484375
-128.173828125
-126.3427734375
-130.92041015625
-130.0048828125
-132.75146484375
-140.07568359375
-145.56884765625
-138.24462890625
-140.07568359375
-141.90673828125
-140.07568359375
-132.75146484375
-140.9912109375
-132.75146484375
-123.59619140625
-138.24462890625
-139.16015625
-137.3291015625
-130.92041015625
-138.24462890625
-140.07568359375
-137.3291015625
-137.3291015625
-140.07568359375
-142.822265625
-148.3154296875
-143.73779296875
-147.39990234375
-145.56884765625
-144.6533203125
-137.3291015625
-139.16015625
-139.16015625
-143.73779296875
-143.73779296875
-144.6533203125
-140.07568359375
-137.3291015625
-139.16015625
-131.8359375
-129.08935546875
-120.849609375
-118.10302734375
-111.6943359375
-113.525390625
-118.10302734375
-116.27197265625
-123.59619140625
-122.6806640625
-125.42724609375
-130.92041015625
-136.41357421875
-135.498046875
-135.498046875
-141.90673828125
-148.3154296875
-145.56884765625
-130.0048828125
-117.1875
-109.86328125
-104.3701171875
-101.62353515625
-99.79248046875
-104.3701171875
-104.3701171875
-105.28564453125
-91.552734375
-86.0595703125
-92.46826171875
-89.7216796875
-87.890625
-100.7080078125
-108.0322265625
-112.60986328125
-118.10302734375
-134.58251953125
-140.9912109375
-138.24462890625
-141.90673828125
-133.6669921875
-137.3291015625
-141.90673828125
-146.484375
-150.146484375
-152.89306640625
-157.470703125
-152.89306640625
-158.38623046875
-151.06201171875
-145.56884765625
-153.80859375
-154.72412109375
-159.3017578125
-151.9775390625
-147.39990234375
-140.9912109375
-156.55517578125
-150.146484375
-147.39990234375
-151.06201171875
-150.146484375
-140.9912109375
-140.9912109375
-130.92041015625
-136.41357421875
-145.56884765625
-139.16015625
-140.9912109375
-140.9912109375
-140.9912109375
-137.3291015625
-138.24462890625
-136.41357421875
-138.24462890625
-139.16015625
-146.484375
-134.58251953125
-124.51171875
-92.46826171875
-68.66455078125
-25.634765625
27.4658203125
81.48193359375
143.73779296875
213.31787109375
274.658203125
358.88671875
413.818359375
457.763671875
482.48291015625
490.72265625
428.466796875
315.85693359375
198.66943359375
50.35400390625
-110.77880859375
-225.2197265625
-269.1650390625
-279.23583984375
-276.4892578125
-263.671875
-252.685546875
-242.61474609375
-245.361328125
-253.60107421875
-265.5029296875
-244.44580078125
-220.64208984375
-187.68310546875
-154.72412109375
-124.51171875
-119.0185546875
-107.11669921875
-103.45458984375
-99.79248046875
-103.45458984375
-96.13037109375
-94.29931640625
-86.97509765625
-91.552734375
-83.31298828125
-77.81982421875
-75.98876953125
-70.49560546875
-70.49560546875
-75.0732421875
-64.0869140625
-65.00244140625
-68.66455078125
-64.0869140625
-65.00244140625
-68.66455078125
-73.2421875
-71.4111328125
-74.15771484375
-70.49560546875
-60.4248046875
-55.84716796875
-55.84716796875
-49.4384765625
-43.9453125
-42.1142578125
-53.1005859375
-43.9453125
-42.1142578125
-40.283203125
-43.9453125
-43.02978515625
-40.283203125
-32.04345703125
-25.634765625
-25.634765625
-29.296875
-23.8037109375
-18.310546875
-15.56396484375
-10.986328125
-0.91552734375
-9.1552734375
1.8310546875
12.8173828125
7.32421875
15.56396484375
12.8173828125
17.39501953125
19.22607421875
22.88818359375
32.958984375
36.62109375
50.35400390625
54.931640625
56.7626953125
57.67822265625
69.580078125
73.2421875
81.48193359375
91.552734375
97.96142578125
108.0322265625
107.11669921875
107.11669921875
115.3564453125
123.59619140625
139.16015625
151.06201171875
162.04833984375
168.45703125
180.35888671875
189.51416015625
192.2607421875
207.82470703125
219.7265625
227.05078125
239.8681640625
253.60107421875
261.8408203125
264.58740234375
264.58740234375
280.1513671875
290.22216796875
295.71533203125
299.37744140625
306.70166015625
312.19482421875
314.02587890625
323.18115234375
332.33642578125
335.0830078125
342.4072265625
346.0693359375
347.900390625
352.47802734375
343.32275390625
342.4072265625
340.576171875
329.58984375
316.7724609375
306.70166015625
295.71533203125
280.1513671875
270.99609375
254.5166015625
234.375
216.97998046875
196.83837890625
181.2744140625
158.38623046875
151.9775390625
129.08935546875
108.0322265625
97.0458984375
75.0732421875
61.34033203125
45.7763671875
26.55029296875
14.6484375
3.662109375
-22.88818359375
-29.296875
-35.70556640625
-40.283203125
-44.86083984375
-50.35400390625
-48.52294921875
-56.7626953125
-58.59375
-70.49560546875
-71.4111328125
-76.904296875
-76.904296875
-80.56640625
-84.228515625
-86.97509765625
-86.97509765625
-81.48193359375
-84.228515625
-86.0595703125
-91.552734375
-87.890625
-86.0595703125
-91.552734375
-91.552734375
-88.80615234375
-91.552734375
-88.80615234375
-97.96142578125
-97.0458984375
-86.97509765625
-91.552734375
-88.80615234375
-88.80615234375
-87.890625
-84.228515625
-85.14404296875
-98.876953125
-97.96142578125
-97.0458984375
-90.63720703125
-87.890625
-83.31298828125
-85.14404296875
-83.31298828125
-88.80615234375
-82.3974609375
-88.80615234375
-86.97509765625
-93.3837890625
-90.63720703125
-77.81982421875
-83.31298828125
-89.7216796875
-93.3837890625
-87.890625
-89.7216796875
-89.7216796875
-96.13037109375
-88.80615234375
-86.0595703125
-85.14404296875
-88.80615234375
-94.29931640625
-95.21484375
-95.21484375
-92.46826171875
-87.890625
-87.890625
-98.876953125
-98.876953125
-95.21484375
-97.0458984375
-94.29931640625
-97.96142578125
-102.5390625
-97.96142578125
-101.62353515625
-109.86328125
-114.44091796875
-105.28564453125
-112.60986328125
-108.94775390625
-103.45458984375
-107.11669921875
-102.5390625
-103.45458984375
-108.94775390625
-108.94775390625
-108.94775390625
-117.1875
-111.6943359375
-117.1875
-117.1875
-119.93408203125
-116.27197265625
-115.3564453125
-119.93408203125
-118.10302734375
-115.3564453125
-114.44091796875
-119.93408203125
-117.1875
-114.44091796875
-113.525390625
-119.93408203125
-123.59619140625
-124.51171875
-123.59619140625
-129.08935546875
-129.08935546875
-129.08935546875
-126.3427734375
-116.27197265625
-121.76513671875
-132.75146484375
-123.59619140625
-128.173828125
-127.25830078125
-126.3427734375
-127.25830078125
-133.6669921875
-123.59619140625
-123.59619140625
-133.6669921875
-136.41357421875
-131.8359375
-132.75146484375
-130.92041015625
-125.42724609375
-127.25830078125
-127.25830078125
-124.51171875
-116.27197265625
-122.6806640625
-125.42724609375
-119.93408203125
-120.849609375
-124.51171875
-125.42724609375
-119.93408203125
-117.1875
-106.201171875
-102.5390625
-111.6943359375
-108.94775390625
-106.201171875
-108.0322265625
-116.27197265625
-115.3564453125
-112.60986328125
-112.60986328125
-115.3564453125
-111.6943359375
-122.6806640625
-128.173828125
-130.0048828125
-122.6806640625
-114.44091796875
-101.62353515625
-102.5390625
-98.876953125
-92.46826171875
-83.31298828125
-89.7216796875
-91.552734375
-86.97509765625
-82.3974609375
-80.56640625
-77.81982421875
-85.14404296875
-97.0458984375
-100.7080078125
-96.13037109375
-102.5390625
-108.94775390625
-119.93408203125
-126.3427734375
-133.6669921875
-141.90673828125
-140.9912109375
-140.07568359375
-137.3291015625
-135.498046875
-140.9912109375
-153.80859375
-149.23095703125
-149.23095703125
-152.89306640625
-153.80859375
-153.80859375
-153.80859375
-152.89306640625
-152.89306640625
-155.6396484375
-151.06201171875
-154.72412109375
-155.6396484375
-152.89306640625
-151.06201171875
-151.06201171875
-144.6533203125
-146.484375
-148.3154296875
-148.3154296875
-151.9775390625
-138.24462890625
-145.56884765625
-152.89306640625
-140.9912109375
-140.9912109375
-146.484375
-144.6533203125
-146.484375
-142.822265625
-137.3291015625
-130.0048828125
-123.59619140625
-96.13037109375
-57.67822265625
-23.8037109375
15.56396484375
76.904296875
138.24462890625
214.2333984375
278.3203125
338.7451171875
409.24072265625
456.84814453125
488.8916015625
523.681640625
496.2158203125
375.3662109375
249.93896484375
118.10302734375
-33.87451171875
-179.443359375
-252.685546875
-289.306640625
-296.630859375
-286.56005859375
-285.64453125
-272.8271484375
-270.08056640625
-260.92529296875
-249.0234375
-233.45947265625
-207.82470703125
-183.10546875
-155.6396484375
-138.24462890625
-130.92041015625
-130.0048828125
-119.0185546875
-117.1875
-119.93408203125
-110.77880859375
-103.45458984375
-103.45458984375
-106.201171875
-98.876953125
-95.21484375
-96.13037109375
-94.29931640625
-97.0458984375
-89.7216796875
-88.80615234375
-101.62353515625
-98.876953125
-97.96142578125
-93.3837890625
-89.7216796875
-87.890625
-81.48193359375
-82.3974609375
-82.3974609375
-79.65087890625
-79.65087890625
-80.56640625
-76.904296875
-68.66455078125
-76.904296875
-66.83349609375
-64.0869140625
-68.66455078125
-63.17138671875
-51.26953125
-56.7626953125
-58.59375
-51.26953125
-52.18505859375
-52.18505859375
-50.35400390625
-43.02978515625
-43.02978515625
-43.02978515625
-43.02978515625
-47.607421875
-47.607421875
-36.62109375
-31.1279296875
-28.38134765625
-26.55029296875
-21.97265625
-18.310546875
-12.8173828125
-9.1552734375
-8.23974609375
-7.32421875
-4.57763671875
7.32421875
15.56396484375
21.05712890625
32.04345703125
32.958984375
43.9453125
44.86083984375
53.1005859375
58.59375
67.7490234375
77.81982421875
94.29931640625
97.0458984375
103.45458984375
113.525390625
119.0185546875
121.76513671875
138.24462890625
140.07568359375
154.72412109375
159.3017578125
166.6259765625
178.52783203125
195.00732421875
194.091796875
204.16259765625
214.2333984375
225.2197265625
238.037109375
241.69921875
249.0234375
245.361328125
258.1787109375
261.8408203125
269.1650390625
274.658203125
286.56005859375
284.72900390625
297.54638671875
292.05322265625
303.03955078125
306.70166015625
315.85693359375
312.19482421875
302.1240234375
288.39111328125
282.89794921875
280.1513671875
270.99609375
249.0234375
227.05078125
212.40234375
197.75390625
188.5986328125
167.54150390625
146.484375
132.75146484375
106.201171875
86.97509765625
77.81982421875
57.67822265625
34.7900390625
28.38134765625
13.73291015625
-7.32421875
-21.05712890625
-25.634765625
-38.4521484375
-62.255859375
-76.904296875
-82.3974609375
-86.97509765625
-101.62353515625
-108.0322265625
-108.94775390625
-118.10302734375
-114.44091796875
-112.60986328125
-122.6806640625
-132.75146484375
-136.41357421875
-126.3427734375
-130.92041015625
-122.6806640625
-136.41357421875
-139.16015625
-152.89306640625
-154.72412109375
-141.90673828125
-140.07568359375
-141.90673828125
-140.07568359375
-140.9912109375
-146.484375
-144.6533203125
-143.73779296875
-132.75146484375
-139.16015625
-142.822265625
-139.16015625
-140.07568359375
-137.3291015625
-137.3291015625
-133.6669921875
-146.484375
-151.9775390625
-146.484375
-141.90673828125
-147.39990234375
-142.822265625
-138.24462890625
-143.73779296875
-146.484375
-148.3154296875
-148.3154296875
-145.56884765625
-143.73779296875
-145.56884765625
-147.39990234375
-149.23095703125
-144.6533203125
-146.484375
-148.3154296875
-141.90673828125
-135.498046875
-145.56884765625
-140.9912109375
-137.3291015625
-143.73779296875
-151.06201171875
-141.90673828125
-144.6533203125
-148.3154296875
-145.56884765625
-141.90673828125
-143.73779296875
-144.6533203125
-146.484375
-146.484375
-148.3154296875
-148.3154296875
-152.89306640625
-148.3154296875
-148.3154296875
-149.23095703125
-152.89306640625
-150.146484375
-150.146484375
-152.89306640625
-156.55517578125
-154.72412109375
-165.71044921875
-162.9638671875
-153.80859375
-159.3017578125
-158.38623046875
-147.39990234375
-155.6396484375
-161.1328125
-159.3017578125
-162.9638671875
-160.21728515625
-158.38623046875
-165.71044921875
-159.3017578125
-160.21728515625
-160.21728515625
-162.9638671875
-169.37255859375
-166.6259765625
-163.87939453125
-166.6259765625
-169.37255859375
-165.71044921875
-171.20361328125
-175.78125
-176.69677734375
-180.35888671875
-171.20361328125
-177.6123046875
-176.69677734375
-173.03466796875
-183.10546875
-182.18994140625
-179.443359375
-166.6259765625
-168.45703125
-164.794921875
-173.9501953125
-177.6123046875
-172.119140625
-165.71044921875
-166.6259765625
-173.9501953125
-184.02099609375
-169.37255859375
-166.6259765625
-170.2880859375
-184.02099609375
-174.86572265625
-175.78125
-176.69677734375
-167.54150390625
-170.2880859375
-174.86572265625
-170.2880859375
-166.6259765625
-173.03466796875
-176.69677734375
-182.18994140625
-165.71044921875
-167.54150390625
-157.470703125
-155.6396484375
-153.80859375
-160.21728515625
-142.822265625
-146.484375
-150.146484375
-151.9775390625
-158.38623046875
-167.54150390625
-172.119140625
-169.37255859375
-175.78125
-176.69677734375
-173.9501953125
-173.03466796875
-173.9501953125
-157.470703125
-151.06201171875
-143.73779296875
-130.0048828125
-131.8359375
-140.07568359375
-131.8359375
-129.08935546875
-134.58251953125
-130.92041015625
-133.6669921875
-135.498046875
-145.56884765625
-147.39990234375
-142.822265625
-149.23095703125
-162.9638671875
-160.21728515625
-163.87939453125
-174.86572265625
-179.443359375
-179.443359375
-183.10546875
-189.51416015625
-186.767578125
-188.5986328125
-192.2607421875
-191.34521484375
-199.5849609375
-202.33154296875
-197.75390625
-194.091796875
-203.2470703125
-198.66943359375
-194.091796875
-191.34521484375
-195.9228515625
-201.416015625
-196.83837890625
-192.2607421875
-191.34521484375
-192.2607421875
-192.2607421875
-188.5986328125
-184.9365234375
-184.02099609375
-185.85205078125
-181.2744140625
-178.52783203125
-184.9365234375
-184.02099609375
-181.2744140625
-182.18994140625
-186.767578125
-189.51416015625
-192.2607421875
-191.34521484375
-169.37255859375
-157.470703125
-144.6533203125
-105.28564453125
-69.580078125
-31.1279296875
32.958984375
97.0458984375
162.04833984375
225.2197265625
286.56005859375
353.3935546875
417.48046875
456.84814453125
480.65185546875
478.82080078125
381.77490234375
260.92529296875
142.822265625
0
-149.23095703125
-250.8544921875
-325.01220703125
-335.99853515625
-326.84326171875
-316.7724609375
-306.70166015625
-294.7998046875
-291.1376953125
-271.91162109375
-261.8408203125
-240.78369140625
-216.97998046875
-189.51416015625
-173.9501953125
-160.21728515625
-156.55517578125
-151.06201171875
-151.9775390625
-140.07568359375
-145.56884765625
-141.90673828125
-136.41357421875
-136.41357421875
-130.0048828125
-134.58251953125
-137.3291015625
-135.498046875
-140.9912109375
-136.41357421875
-135.498046875
-135.498046875
-139.16015625
-130.92041015625
-127.25830078125
-120.849609375
-121.76513671875
-119.0185546875
-119.93408203125
-114.44091796875
-113.525390625
-111.6943359375
-114.44091796875
-112.60986328125
-108.94775390625
-104.3701171875
-90.63720703125
-94.29931640625
-100.7080078125
-98.876953125
-100.7080078125
-94.29931640625
-86.97509765625
-87.890625
-86.97509765625
-91.552734375
-86.97509765625
-84.228515625
-84.228515625
-75.98876953125
-74.15771484375
-74.15771484375
-75.98876953125
-66.83349609375
-56.7626953125
-61.34033203125
-53.1005859375
-45.7763671875
-45.7763671875
-41.19873046875
-43.9453125
-35.70556640625
-30.21240234375
-23.8037109375
-16.4794921875
-14.6484375
-10.986328125
5.4931640625
10.986328125
20.1416015625
23.8037109375
30.21240234375
28.38134765625
38.4521484375
53.1005859375
60.4248046875
68.66455078125
79.65087890625
87.890625
87.890625
89.7216796875
96.13037109375
100.7080078125
119.0185546875
135.498046875
145.56884765625
155.6396484375
162.04833984375
173.9501953125
183.10546875
201.416015625
200.50048828125
204.16259765625
210.5712890625
216.97998046875
227.05078125
237.12158203125
247.1923828125
264.58740234375
262.75634765625
268.24951171875
272.8271484375
268.24951171875
276.4892578125
283.8134765625
288.39111328125
292.96875
290.22216796875
282.89794921875
276.4892578125
270.99609375
271.91162109375
258.1787109375
245.361328125
229.79736328125
213.31787109375
193.17626953125
170.2880859375
161.1328125
148.3154296875
129.08935546875
109.86328125
101.62353515625
71.4111328125
52.18505859375
29.296875
12.8173828125
0.91552734375
-8.23974609375
-31.1279296875
-40.283203125
-52.18505859375
-75.0732421875
-85.14404296875
-89.7216796875
-100.7080078125
-118.10302734375
-122.6806640625
-122.6806640625
-127.25830078125
-130.0048828125
-139.16015625
-146.484375
-138.24462890625
-137.3291015625
-141.90673828125
-135.498046875
-141.90673828125
-150.146484375
-154.72412109375
-136.41357421875
-135.498046875
-161.1328125
-157.470703125
-151.9775390625
-142.822265625
-143.73779296875
-151.06201171875
-149.23095703125
-146.484375
-144.6533203125
-146.484375
-160.21728515625
-155.6396484375
-153.80859375
-154.72412109375
-156.55517578125
-150.146484375
-153.80859375
-155.6396484375
-151.9775390625
-154.72412109375
-158.38623046875
-157.470703125
-150.146484375
-150.146484375
-152.89306640625
-150.146484375
-152.89306640625
-146.484375
-139.16015625
-142.822265625
-147.39990234375
-148.3154296875
-151.9775390625
-154.72412109375
-147.39990234375
-150.146484375
-148.3154296875
-147.39990234375
-151.06201171875
-150.146484375
-147.39990234375
-151.9775390625
-155.6396484375
-153.80859375
-154.72412109375
-153.80859375
-153.80859375
-156.55517578125
-157.470703125
-155.6396484375
-155.6396484375
-155.6396484375
-149.23095703125
-151.9775390625
-154.72412109375
-154.72412109375
-162.04833984375
-162.04833984375
-158.38623046875
-158.38623046875
-153.80859375
-154.72412109375
-156.55517578125
-155.6396484375
-159.3017578125
-151.9775390625
-151.9775390625
-157.470703125
-155.6396484375
-152.89306640625
-154.72412109375
-162.04833984375
-160.21728515625
-162.9638671875
-165.71044921875
-162.9638671875
-160.21728515625
-169.37255859375
-160.21728515625
-171.20361328125
-173.9501953125
-177.6123046875
-171.20361328125
-162.9638671875
-171.20361328125
-168.45703125
-162.04833984375
-169.37255859375
-162.9638671875
-173.9501953125
-174.86572265625
-178.52783203125
-167.54150390625
-168.45703125
-165.71044921875
-173.9501953125
-175.78125
-170.2880859375
-176.69677734375
-175.78125
-173.03466796875
-175.78125
-170.2880859375
-172.119140625
-168.45703125
-166.6259765625
-170.2880859375
-169.37255859375
-175.78125
-179.443359375
-175.78125
-170.2880859375
-169.37255859375
-164.794921875
-151.9775390625
-149.23095703125
-143.73779296875
-153.80859375
-157.470703125
-164.794921875
-170.2880859375
-161.1328125
-161.1328125
-167.54150390625
-171.20361328125
-179.443359375
-187.68310546875
-183.10546875
-177.6123046875
-172.119140625
-163.87939453125
-137.3291015625
-132.75146484375
-133.6669921875
-131.8359375
-132.75146484375
-129.08935546875
-134.58251953125
-120.849609375
-124.51171875
-127.25830078125
-139.16015625
-144.6533203125
-146.484375
-147.39990234375
-149.23095703125
-154.72412109375
-165.71044921875
-168.45703125
-173.03466796875
-178.52783203125
-179.443359375
-183.10546875
-184.02099609375
-187.68310546875
-185.85205078125
-190.4296875
-181.2744140625
-185.85205078125
-201.416015625
-203.2470703125
-205.99365234375
-202.33154296875
-195.00732421875
-199.5849609375
-194.091796875
-195.00732421875
-196.83837890625
-197.75390625
-202.33154296875
-195.9228515625
-198.66943359375
-200.50048828125
-199.5849609375
-191.34521484375
-183.10546875
-186.767578125
-190.4296875
-181.2744140625
-185.85205078125
-192.2607421875
-188.5986328125
-179.443359375
-183.10546875
-181.2744140625
-181.2744140625
-187.68310546875
-184.02099609375
-175.78125
-172.119140625
-149.23095703125
-128.173828125
-95.21484375
-38.4521484375
24.71923828125
91.552734375
151.9775390625
216.97998046875
288.39111328125
351.5625
400.08544921875
428.466796875
441.2841796875
386.3525390625
273.74267578125
155.6396484375
4.57763671875
-133.6669921875
-258.1787109375
-316.7724609375
-343.32275390625
-339.66064453125
-326.84326171875
-313.1103515625
-291.1376953125
-299.37744140625
-302.1240234375
-313.1103515625
-302.1240234375
-280.1513671875
-254.5166015625
-225.2197265625
-192.2607421875
-174.86572265625
-173.03466796875
-172.119140625
-166.6259765625
-164.794921875
-153.80859375
-157.470703125
-159.3017578125
-151.9775390625
-149.23095703125
-148.3154296875
-150.146484375
-148.3154296875
-144.6533203125
-140.07568359375
-126.3427734375
-125.42724609375
-130.92041015625
-127.25830078125
-117.1875
-122.6806640625
-130.0048828125
-126.3427734375
-128.173828125
-108.0322265625
-105.28564453125
-111.6943359375
-114.44091796875
-115.3564453125
-108.94775390625
-109.86328125
-99.79248046875
-92.46826171875
-93.3837890625
-97.96142578125
-93.3837890625
-97.96142578125
-97.0458984375
-89.7216796875
-94.29931640625
-89.7216796875
-78.7353515625
-79.65087890625
-75.98876953125
-70.49560546875
-69.580078125
-65.91796875
-64.0869140625
-53.1005859375
-47.607421875
-42.1142578125
-44.86083984375
-44.86083984375
-43.02978515625
-39.36767578125
-33.87451171875
-29.296875
-24.71923828125
-23.8037109375
-12.8173828125
-15.56396484375
-4.57763671875
8.23974609375
13.73291015625
21.97265625
32.04345703125
32.958984375
35.70556640625
34.7900390625
49.4384765625
68.66455078125
75.98876953125
71.4111328125
88.80615234375
112.60986328125
123.59619140625
128.173828125
128.173828125
141.90673828125
158.38623046875
164.794921875
168.45703125
177.6123046875
188.5986328125
199.5849609375
205.99365234375
214.2333984375
216.97998046875
228.8818359375
240.78369140625
247.1923828125
259.09423828125
269.1650390625
280.1513671875
287.4755859375
291.1376953125
292.05322265625
287.4755859375
289.306640625
290.22216796875
289.306640625
292.96875
290.22216796875
281.982421875
281.06689453125
269.1650390625
253.60107421875
246.27685546875
239.8681640625
219.7265625
200.50048828125
181.2744140625
172.119140625
155.6396484375
135.498046875
114.44091796875
90.63720703125
80.56640625
58.59375
35.70556640625
13.73291015625
5.4931640625
-8.23974609375
-27.4658203125
-40.283203125
-52.18505859375
-70.49560546875
-74.15771484375
-76.904296875
-87.890625
-104.3701171875
-108.94775390625
-108.0322265625
-114.44091796875
-119.93408203125
-117.1875
-118.10302734375
-126.3427734375
-122.6806640625
-123.59619140625
-130.0048828125
-131.8359375
-136.41357421875
-135.498046875
-139.16015625
-139.16015625
-140.07568359375
-146.484375
-143.73779296875
-139.16015625
-144.6533203125
-145.56884765625
-139.16015625
-132.75146484375
-133.6669921875
-135.498046875
-139.16015625
-141.90673828125
-141.90673828125
-139.16015625
-138.24462890625
-144.6533203125
-132.75146484375
-127.25830078125
-130.0048828125
-130.0048828125
-129.08935546875
-130.92041015625
-126.3427734375
-121.76513671875
-132.75146484375
-135.498046875
-130.92041015625
-131.8359375
-130.92041015625
-130.0048828125
-124.51171875
-135.498046875
-127.25830078125
-126.3427734375
-124.51171875
-128.173828125
-128.173828125
-125.42724609375
-135.498046875
-123.59619140625
-125.42724609375
-135.498046875
-137.3291015625
-142.822265625
-135.498046875
-133.6669921875
-132.75146484375
-131.8359375
-130.92041015625
-130.0048828125
-140.9912109375
-141.90673828125
-130.92041015625
-130.92041015625
-130.92041015625
-125.42724609375
-124.51171875
-124.51171875
-128.173828125
-128.173828125
-132.75146484375
-127.25830078125
-128.173828125
-137.3291015625
-136.41357421875
-132.75146484375
-132.75146484375
-138.24462890625
-136.41357421875
-140.07568359375
-142.822265625
-145.56884765625
-142.822265625
-140.9912109375
-142.822265625
-139.16015625
-140.9912109375
-145.56884765625
-145.56884765625
-143.73779296875
-139.16015625
-138.24462890625
-133.6669921875
-138.24462890625
-140.9912109375
-137.3291015625
-144.6533203125
-135.498046875
-127.25830078125
-145.56884765625
-139.16015625
-151.9775390625
-147.39990234375
-138.24462890625
-125.42724609375
-126.3427734375
-119.0185546875
-111.6943359375
-99.79248046875
-106.201171875
-107.11669921875
-110.77880859375
-111.6943359375
-106.201171875
-111.6943359375
-116.27197265625
-108.0322265625
-117.1875
-116.27197265625
-97.96142578125
-94.29931640625
-93.3837890625
-84.228515625
-76.904296875
-66.83349609375
-56.7626953125
-54.01611328125
-53.1005859375
-59.50927734375
-60.4248046875
-61.34033203125
-76.904296875
-81.48193359375
-86.0595703125
-71.4111328125
-73.2421875
-75.0732421875
-86.97509765625
-88.80615234375
-97.96142578125
-109.86328125
-126.3427734375
-121.76513671875
-130.92041015625
-147.39990234375
-151.9775390625
-146.484375
-148.3154296875
-149.23095703125
-151.06201171875
-156.55517578125
-153.80859375
-153.80859375
-156.55517578125
-154.72412109375
-148.3154296875
-152.89306640625
-158.38623046875
-152.89306640625
-148.3154296875
-152.89306640625
-153.80859375
-160.21728515625
-157.470703125
-151.06201171875
-152.89306640625
-151.06201171875
-144.6533203125
-140.9912109375
-145.56884765625
-141.90673828125
-148.3154296875
-148.3154296875
-140.9912109375
-131.8359375
-137.3291015625
-141.90673828125
-143.73779296875
-141.90673828125
-139.16015625
-135.498046875
-126.3427734375
-94.29931640625
-60.4248046875
-21.05712890625
28.38134765625
88.80615234375
149.23095703125
216.97998046875
279.23583984375
353.3935546875
416.56494140625
463.2568359375
491.63818359375
502.62451171875
466.9189453125
352.47802734375
233.45947265625
90.63720703125
-47.607421875
-186.767578125
-257.26318359375
-296.630859375
-296.630859375
-281.06689453125
-260.009765625
-247.1923828125
-256.34765625
-256.34765625
-258.1787109375
-246.27685546875
-221.5576171875
-184.02099609375
-159.3017578125
-135.498046875
-122.6806640625
-116.27197265625
-114.44091796875
-112.60986328125
-112.60986328125
-108.94775390625
-102.5390625
-97.96142578125
-94.29931640625
-86.0595703125
-91.552734375
-90.63720703125
-85.14404296875
-82.3974609375
-75.0732421875
-78.7353515625
-77.81982421875
-78.7353515625
-76.904296875
-75.98876953125
-65.91796875
-71.4111328125
-75.0732421875
-70.49560546875
-67.7490234375
-68.66455078125
-72.32666015625
-65.91796875
-62.255859375
-55.84716796875
-49.4384765625
-52.18505859375
-54.01611328125
-47.607421875
-49.4384765625
-51.26953125
-52.18505859375
-41.19873046875
-35.70556640625
-33.87451171875
-38.4521484375
-27.4658203125
-27.4658203125
-21.05712890625
-14.6484375
-19.22607421875
-10.07080078125
-2.74658203125
-3.662109375
-9.1552734375
-1.8310546875
6.40869140625
16.4794921875
22.88818359375
31.1279296875
29.296875
29.296875
34.7900390625
37.53662109375
47.607421875
57.67822265625
66.83349609375
70.49560546875
77.81982421875
84.228515625
84.228515625
87.890625
108.0322265625
110.77880859375
118.10302734375
127.25830078125
143.73779296875
148.3154296875
157.470703125
167.54150390625
180.35888671875
190.4296875
200.50048828125
210.5712890625
215.14892578125
228.8818359375
245.361328125
248.10791015625
262.75634765625
275.57373046875
273.74267578125
277.40478515625
293.88427734375
296.630859375
304.87060546875
312.19482421875
321.35009765625
331.4208984375
336.9140625
347.900390625
347.900390625
338.7451171875
335.99853515625
357.97119140625
356.14013671875
354.30908203125
354.30908203125
351.5625
339.66064453125
332.33642578125
326.84326171875
316.7724609375
310.36376953125
291.1376953125
269.1650390625
245.361328125
227.96630859375
205.99365234375
194.091796875
179.443359375
155.6396484375
140.07568359375
123.59619140625
103.45458984375
87.890625
67.7490234375
58.59375
36.62109375
26.55029296875
14.6484375
-2.74658203125
-7.32421875
-8.23974609375
-19.22607421875
-27.4658203125
-34.7900390625
-36.62109375
-44.86083984375
-54.01611328125
-60.4248046875
-64.0869140625
-61.34033203125
-63.17138671875
-67.7490234375
-69.580078125
-65.91796875
-61.34033203125
-60.4248046875
-62.255859375
-64.0869140625
-73.2421875
-83.31298828125
-80.56640625
-84.228515625
-86.97509765625
-75.98876953125
-75.0732421875
-83.31298828125
-75.98876953125
-74.15771484375
-79.65087890625
-84.228515625
-81.48193359375
-75.0732421875
-72.32666015625
-70.49560546875
-65.91796875
-71.4111328125
-79.65087890625
-75.98876953125
-77.81982421875
-71.4111328125
-74.15771484375
-66.83349609375
-74.15771484375
-75.0732421875
-75.98876953125
-74.15771484375
-66.83349609375
-66.83349609375
-69.580078125
-68.66455078125
-61.34033203125
-59.50927734375
-62.255859375
-63.17138671875
-62.255859375
-60.4248046875
-62.255859375
-55.84716796875
-58.59375
-54.01611328125
-60.4248046875
-51.26953125
-50.35400390625
-63.17138671875
-60.4248046875
-60.4248046875
-65.00244140625
-66.83349609375
-69.580078125
-74.15771484375
-72.32666015625
-72.32666015625
-69.580078125
-61.34033203125
-63.17138671875
-67.7490234375
-71.4111328125
-64.0869140625
-67.7490234375
-72.32666015625
-67.7490234375
-65.00244140625
-73.2421875
-69.580078125
-70.49560546875
-74.15771484375
-68.66455078125
-68.66455078125
-74.15771484375
-80.56640625
-75.0732421875
-70.49560546875
-68.66455078125
-64.0869140625
-67.7490234375
-72.32666015625
-78.7353515625
-72.32666015625
-78.7353515625
-79.65087890625
-73.2421875
-65.91796875
-75.98876953125
-73.2421875
-69.580078125
-68.66455078125
-68.66455078125
-70.49560546875
-69.580078125
-75.0732421875
-77.81982421875
-88.80615234375
-83.31298828125
-80.56640625
-75.0732421875
-80.56640625
-79.65087890625
-71.4111328125
-75.0732421875
-77.81982421875
-69.580078125
-59.50927734375
-56.7626953125
-54.931640625
-44.86083984375
-41.19873046875
-42.1142578125
-43.9453125
-39.36767578125
-43.9453125
-44.86083984375
-41.19873046875
-46.69189453125
-39.36767578125
-35.70556640625
-45.7763671875
-36.62109375
-30.21240234375
-30.21240234375
-18.310546875
-18.310546875
-4.57763671875
9.1552734375
13.73291015625
10.986328125
16.4794921875
10.07080078125
7.32421875
1.8310546875
-11.90185546875
-4.57763671875
-6.40869140625
-16.4794921875
-9.1552734375
-6.40869140625
-22.88818359375
-36.62109375
-46.69189453125
-51.26953125
-61.34033203125
-65.91796875
-76.904296875
-79.65087890625
-77.81982421875
-77.81982421875
-82.3974609375
-87.890625
-87.890625
-101.62353515625
-100.7080078125
-99.79248046875
-88.80615234375
-96.13037109375
-86.97509765625
-92.46826171875
-96.13037109375
-96.13037109375
-93.3837890625
-90.63720703125
-89.7216796875
-88.80615234375
-89.7216796875
-86.97509765625
-82.3974609375
-85.14404296875
-83.31298828125
-78.7353515625
-90.63720703125
-97.96142578125
-93.3837890625
-88.80615234375
-86.0595703125
-88.80615234375
-83.31298828125
-85.14404296875
-89.7216796875
-91.552734375
-75.98876953125
-65.00244140625
-51.26953125
-20.1416015625
21.97265625
57.67822265625
110.77880859375
176.69677734375
238.95263671875
296.630859375
355.224609375
421.142578125
488.8916015625
542.90771484375
571.2890625
576.7822265625
512.6953125
392.76123046875
270.99609375
131.8359375
-14.6484375
-134.58251953125
-207.82470703125
-243.5302734375
-245.361328125
-224.30419921875
-208.740234375
-202.33154296875
-200.50048828125
-194.091796875
-181.2744140625
-161.1328125
-130.0048828125
-97.96142578125
-84.228515625
-72.32666015625
-48.52294921875
-46.69189453125
-50.35400390625
-43.02978515625
-44.86083984375
-40.283203125
-36.62109375
-33.87451171875
-33.87451171875
-32.958984375
-32.04345703125
-29.296875
-29.296875
-24.71923828125
-24.71923828125
-33.87451171875
-31.1279296875
-25.634765625
-20.1416015625
-15.56396484375
-13.73291015625
-14.6484375
-17.39501953125
-14.6484375
-8.23974609375
-9.1552734375
-6.40869140625
-1.8310546875
-7.32421875
-8.23974609375
-3.662109375
1.8310546875
0
6.40869140625
6.40869140625
5.4931640625
10.07080078125
7.32421875
21.97265625
22.88818359375
27.4658203125
31.1279296875
33.87451171875
38.4521484375
35.70556640625
33.87451171875
33.87451171875
39.36767578125
44.86083984375
50.35400390625
49.4384765625
57.67822265625
61.34033203125
60.4248046875
62.255859375
65.00244140625
73.2421875
78.7353515625
87.890625
96.13037109375
103.45458984375
107.11669921875
108.0322265625
121.76513671875
125.42724609375
131.8359375
141.90673828125
150.146484375
159.3017578125
167.54150390625
180.35888671875
190.4296875
195.00732421875
202.33154296875
216.064453125
217.8955078125
230.712890625
248.10791015625
256.34765625
269.1650390625
274.658203125
280.1513671875
288.39111328125
305.7861328125
307.6171875
313.1103515625
325.01220703125
319.51904296875
335.0830078125
343.32275390625
354.30908203125
362.548828125
366.2109375
375.3662109375
375.3662109375
375.3662109375
385.43701171875
389.09912109375
393.6767578125
391.845703125
390.93017578125
390.93017578125
392.76123046875
381.77490234375
382.6904296875
371.7041015625
351.5625
334.16748046875
331.4208984375
309.4482421875
302.1240234375
283.8134765625
260.009765625
241.69921875
219.7265625
197.75390625
178.52783203125
159.3017578125
140.07568359375
127.25830078125
110.77880859375
102.5390625
82.3974609375
69.580078125
57.67822265625
51.26953125
43.9453125
29.296875
24.71923828125
21.97265625
11.90185546875
4.57763671875
-4.57763671875
-8.23974609375
-14.6484375
-15.56396484375
-21.97265625
-19.22607421875
-9.1552734375
-17.39501953125
-22.88818359375
-26.55029296875
-41.19873046875
-34.7900390625
-32.04345703125
-36.62109375
-35.70556640625
-38.4521484375
-37.53662109375
-33.87451171875
-32.958984375
-35.70556640625
-43.9453125
-39.36767578125
-32.04345703125
-35.70556640625
-40.283203125
-38.4521484375
-35.70556640625
-23.8037109375
-30.21240234375
-25.634765625
-30.21240234375
-31.1279296875
-30.21240234375
-30.21240234375
-29.296875
-32.04345703125
-22.88818359375
-24.71923828125
-19.22607421875
-18.310546875
-31.1279296875
-32.958984375
-34.7900390625
-22.88818359375
-23.8037109375
-27.4658203125
-27.4658203125
-24.71923828125
-27.4658203125
-30.21240234375
-36.62109375
-32.04345703125
-29.296875
-33.87451171875
-37.53662109375
-35.70556640625
-29.296875
-26.55029296875
-26.55029296875
-26.55029296875
-28.38134765625
-24.71923828125
-18.310546875
-22.88818359375
-32.958984375
-35.70556640625
-39.36767578125
-32.04345703125
-28.38134765625
-24.71923828125
-25.634765625
-35.70556640625
-36.62109375
-41.19873046875
-35.70556640625
-40.283203125
-43.9453125
-43.9453125
-40.283203125
-33.87451171875
-34.7900390625
-33.87451171875
-46.69189453125
-50.35400390625
-49.4384765625
-40.283203125
-43.02978515625
-46.69189453125
-44.86083984375
-45.7763671875
-43.02978515625
-45.7763671875
-44.86083984375
-44.86083984375
-52.18505859375
-48.52294921875
-47.607421875
-54.931640625
-55.84716796875
-54.01611328125
-51.26953125
-53.1005859375
-48.52294921875
-53.1005859375
-49.4384765625
-50.35400390625
-58.59375
-56.7626953125
-53.1005859375
-47.607421875
-49.4384765625
-54.01611328125
-53.1005859375
-54.931640625
-48.52294921875
-45.7763671875
-50.35400390625
-55.84716796875
-54.931640625
-43.9453125
-37.53662109375
-34.7900390625
-29.296875
-27.4658203125
-23.8037109375
-21.05712890625
-25.634765625
-26.55029296875
-26.55029296875
-21.97265625
-21.05712890625
-21.97265625
-27.4658203125
-31.1279296875
-22.88818359375
-11.90185546875
-1.8310546875
2.74658203125
12.8173828125
27.4658203125
32.04345703125
34.7900390625
36.62109375
36.62109375
32.04345703125
26.55029296875
20.1416015625
10.986328125
10.07080078125
10.07080078125
4.57763671875
6.40869140625
6.40869140625
-5.4931640625
-16.4794921875
-24.71923828125
-30.21240234375
-35.70556640625
-48.52294921875
-65.91796875
-75.98876953125
-71.4111328125
-70.49560546875
-68.66455078125
-64.0869140625
-66.83349609375
-73.2421875
-75.0732421875
-71.4111328125
-68.66455078125
-72.32666015625
-75.0732421875
-70.49560546875
-69.580078125
-74.15771484375
-75.98876953125
-79.65087890625
-86.0595703125
-79.65087890625
-77.81982421875
-78.7353515625
-73.2421875
-78.7353515625
-75.98876953125
-72.32666015625
-74.15771484375
-75.0732421875
-77.81982421875
-73.2421875
-75.0732421875
-77.81982421875
-81.48193359375
-81.48193359375
-83.31298828125
-86.97509765625
-67.7490234375
-58.59375
-46.69189453125
-17.39501953125
15.56396484375
58.59375
98.876953125
158.38623046875
223.388671875
292.05322265625
342.4072265625
411.9873046875
480.65185546875
545.654296875
578.61328125
594.17724609375
563.04931640625
447.69287109375
319.51904296875
189.51416015625
53.1005859375
-89.7216796875
-181.2744140625
-219.7265625
-229.79736328125
-223.388671875
-211.48681640625
-201.416015625
-206.9091796875
-187.68310546875
-186.767578125
-175.78125
-145.56884765625
-113.525390625
-82.3974609375
-65.91796875
-63.17138671875
-56.7626953125
-51.26953125
-57.67822265625
-57.67822265625
-53.1005859375
-46.69189453125
-43.02978515625
-38.4521484375
-43.9453125
-35.70556640625
-33.87451171875
-28.38134765625
-21.97265625
-21.97265625
-24.71923828125
-16.4794921875
-19.22607421875
-26.55029296875
-25.634765625
-21.05712890625
-19.22607421875
-22.88818359375
-21.97265625
-21.97265625
-12.8173828125
-12.8173828125
-10.986328125
-9.1552734375
-12.8173828125
-14.6484375
-9.1552734375
-10.07080078125
-2.74658203125
-0.91552734375
0.91552734375
3.662109375
6.40869140625
10.07080078125
6.40869140625
9.1552734375
22.88818359375
11.90185546875
20.1416015625
26.55029296875
33.87451171875
32.958984375
31.1279296875
37.53662109375
35.70556640625
41.19873046875
43.02978515625
48.52294921875
51.26953125
64.0869140625
68.66455078125
67.7490234375
72.32666015625
80.56640625
87.890625
94.29931640625
99.79248046875
102.5390625
109.86328125
114.44091796875
121.76513671875
137.3291015625
149.23095703125
155.6396484375
160.21728515625
168.45703125
178.52783203125
185.85205078125
191.34521484375
203.2470703125
219.7265625
220.64208984375
237.12158203125
253.60107421875
258.1787109375
271.91162109375
280.1513671875
288.39111328125
293.88427734375
294.7998046875
308.53271484375
317.68798828125
323.18115234375
329.58984375
331.4208984375
340.576171875
356.14013671875
361.63330078125
363.46435546875
368.95751953125
383.60595703125
389.09912109375
396.42333984375
398.25439453125
397.3388671875
397.3388671875
400.08544921875
388.18359375
383.60595703125
386.3525390625
370.78857421875
357.0556640625
346.0693359375
325.01220703125
306.70166015625
293.88427734375
273.74267578125
248.10791015625
226.13525390625
212.40234375
198.66943359375
178.52783203125
171.20361328125
147.39990234375
126.3427734375
110.77880859375
95.21484375
72.32666015625
54.01611328125
45.7763671875
47.607421875
34.7900390625
28.38134765625
13.73291015625
-6.40869140625
-14.6484375
-21.05712890625
-21.05712890625
-25.634765625
-31.1279296875
-35.70556640625
-31.1279296875
-36.62109375
-42.1142578125
-40.283203125
-48.52294921875
-50.35400390625
-50.35400390625
-51.26953125
-62.255859375
-56.7626953125
-54.01611328125
-61.34033203125
-62.255859375
-61.34033203125
-58.59375
-58.59375
-68.66455078125
-67.7490234375
-65.91796875
-69.580078125
-60.4248046875
-54.931640625
-57.67822265625
-60.4248046875
-60.4248046875
-50.35400390625
-55.84716796875
-54.01611328125
-51.26953125
-49.4384765625
-53.1005859375
-47.607421875
-43.9453125
-43.9453125
-47.607421875
-58.59375
-54.01611328125
-58.59375
-61.34033203125
-62.255859375
-57.67822265625
-46.69189453125
-48.52294921875
-45.7763671875
-54.931640625
-56.7626953125
-57.67822265625
-56.7626953125
-56.7626953125
-51.26953125
-43.9453125
-51.26953125
-55.84716796875
-58.59375
-62.255859375
-65.91796875
-61.34033203125
-59.50927734375
-53.1005859375
-51.26953125
-63.17138671875
-63.17138671875
-55.84716796875
-56.7626953125
-59.50927734375
-62.255859375
-65.91796875
-62.255859375
-68.66455078125
-63.17138671875
-62.255859375
-56.7626953125
-61.34033203125
-66.83349609375
-70.49560546875
-68.66455078125
-70.49560546875
-66.83349609375
-66.83349609375
-70.49560546875
-71.4111328125
-62.255859375
-77.81982421875
-81.48193359375
-78.7353515625
-73.2421875
-77.81982421875
-79.65087890625
-76.904296875
-73.2421875
-74.15771484375
-77.81982421875
-80.56640625
-78.7353515625
-77.81982421875
-80.56640625
-78.7353515625
-83.31298828125
-85.14404296875
-75.0732421875
-70.49560546875
-69.580078125
-75.0732421875
-75.0732421875
-72.32666015625
-67.7490234375
-65.00244140625
-58.59375
-54.931640625
-56.7626953125
-56.7626953125
-51.26953125
-56.7626953125
-58.59375
-55.84716796875
-58.59375
-66.83349609375
-70.49560546875
-57.67822265625
-51.26953125
-43.02978515625
-36.62109375
-32.958984375
-43.9453125
-17.39501953125
-3.662109375
-8.23974609375
-11.90185546875
-5.4931640625
-0.91552734375
0
-3.662109375
-16.4794921875
-32.958984375
-24.71923828125
-19.22607421875
-26.55029296875
-39.36767578125
-41.19873046875
-43.9453125
-64.0869140625
-68.66455078125
-76.904296875
-82.3974609375
-94.29931640625
-97.96142578125
-97.96142578125
-104.3701171875
-103.45458984375
-103.45458984375
-108.0322265625
-103.45458984375
-102.5390625
-110.77880859375
-107.11669921875
-110.77880859375
-103.45458984375
-101.62353515625
-101.62353515625
-104.3701171875
-110.77880859375
-107.11669921875
-109.86328125
-112.60986328125
-108.94775390625
-111.6943359375
-108.0322265625
-101.62353515625
-101.62353515625
-106.201171875
-117.1875
-110.77880859375
-109.86328125
-109.86328125
-105.28564453125
-101.62353515625
-100.7080078125
-100.7080078125
-104.3701171875
-102.5390625
-97.96142578125
-85.14404296875
-81.48193359375
-51.26953125
-23.8037109375
11.90185546875
59.50927734375
117.1875
192.2607421875
255.43212890625
316.7724609375
396.42333984375
454.1015625
496.2158203125
510.8642578125
523.681640625
440.36865234375
332.33642578125
198.66943359375
51.26953125
-100.7080078125
-201.416015625
-245.361328125
-258.1787109375
-248.10791015625
-232.5439453125
-218.81103515625
-208.740234375
-209.65576171875
-218.81103515625
-222.47314453125
-205.99365234375
-179.443359375
-154.72412109375
-127.25830078125
-118.10302734375
-100.7080078125
-91.552734375
-92.46826171875
-88.80615234375
-83.31298828125
-81.48193359375
-71.4111328125
-72.32666015625
-66.83349609375
-54.931640625
-53.1005859375
-62.255859375
-56.7626953125
-56.7626953125
-61.34033203125
-53.1005859375
-55.84716796875
-52.18505859375
-42.1142578125
-38.4521484375
-47.607421875
-32.04345703125
-28.38134765625
-30.21240234375
-38.4521484375
-38.4521484375
-41.19873046875
-32.958984375
-11.90185546875
-25.634765625
-30.21240234375
-19.22607421875
-30.21240234375
-26.55029296875
-8.23974609375
0
-11.90185546875
-9.1552734375
2.74658203125
0.91552734375
-7.32421875
-7.32421875
-3.662109375
3.662109375
9.1552734375
16.4794921875
20.1416015625
23.8037109375
25.634765625
35.70556640625
33.87451171875
34.7900390625
42.1142578125
58.59375
59.50927734375
64.0869140625
61.34033203125
58.59375
67.7490234375
75.98876953125
80.56640625
90.63720703125
102.5390625
104.3701171875
113.525390625
122.6806640625
128.173828125
137.3291015625
151.06201171875
160.21728515625
168.45703125
177.6123046875
188.5986328125
196.83837890625
200.50048828125
206.9091796875
214.2333984375
225.2197265625
240.78369140625
245.361328125
251.77001953125
263.671875
279.23583984375
292.96875
296.630859375
313.1103515625
318.603515625
324.0966796875
335.0830078125
340.576171875
334.16748046875
338.7451171875
350.64697265625
360.7177734375
364.3798828125
375.3662109375
375.3662109375
379.94384765625
380.859375
381.77490234375
378.11279296875
368.95751953125
366.2109375
356.14013671875
348.81591796875
341.49169921875
326.84326171875
310.36376953125
299.37744140625
276.4892578125
258.1787109375
239.8681640625
221.5576171875
204.16259765625
183.10546875
169.37255859375
148.3154296875
127.25830078125
109.86328125
97.96142578125
82.3974609375
66.83349609375
60.4248046875
44.86083984375
30.21240234375
18.310546875
10.986328125
-4.57763671875
0
-14.6484375
-33.87451171875
-39.36767578125
-36.62109375
-42.1142578125
-42.1142578125
-43.02978515625
-44.86083984375
-45.7763671875
-55.84716796875
-57.67822265625
-62.255859375
-63.17138671875
-60.4248046875
-57.67822265625
-57.67822265625
-52.18505859375
-59.50927734375
-61.34033203125
-58.59375
-57.67822265625
-70.49560546875
-67.7490234375
-65.91796875
-58.59375
-62.255859375
-54.931640625
-55.84716796875
-57.67822265625
-54.931640625
-54.01611328125
-65.00244140625
-67.7490234375
-58.59375
-51.26953125
-54.931640625
-57.67822265625
-57.67822265625
-61.34033203125
-54.931640625
-51.26953125
-49.4384765625
-47.607421875
-57.67822265625
-53.1005859375
-50.35400390625
-47.607421875
-47.607421875
-53.1005859375
-55.84716796875
-50.35400390625
-51.26953125
-54.01611328125
-48.52294921875
-49.4384765625
-50.35400390625
-47.607421875
-51.26953125
-53.1005859375
-49.4384765625
-42.1142578125
-52.18505859375
-52.18505859375
-50.35400390625
-53.1005859375
-56.7626953125
-56.7626953125
-63.17138671875
-57.67822265625
-54.01611328125
-54.931640625
-67.7490234375
-66.83349609375
-63.17138671875
-61.34033203125
-61.34033203125
-54.01611328125
-53.1005859375
-61.34033203125
-56.7626953125
-64.0869140625
-64.0869140625
-68.66455078125
-67.7490234375
-60.4248046875
-60.4248046875
-58.59375
-57.67822265625
-57.67822265625
-63.17138671875
-68.66455078125
-70.49560546875
-66.83349609375
-71.4111328125
-69.580078125
-68.66455078125
-75.98876953125
-74.15771484375
-68.66455078125
-65.91796875
-72.32666015625
-75.0732421875
-72.32666015625
-67.7490234375
-61.34033203125
-58.59375
-59.50927734375
-53.1005859375
-49.4384765625
-44.86083984375
-39.36767578125
-30.21240234375
-33.87451171875
-31.1279296875
-36.62109375
-34.7900390625
-34.7900390625
-43.9453125
-47.607421875
-43.9453125
-45.7763671875
-41.19873046875
-29.296875
-13.73291015625
-14.6484375
-8.23974609375
7.32421875
20.1416015625
17.39501953125
21.05712890625
22.88818359375
8.23974609375
9.1552734375
13.73291015625
4.57763671875
-0.91552734375
-7.32421875
-7.32421875
-8.23974609375
-10.986328125
-14.6484375
-32.04345703125
-46.69189453125
-51.26953125
-55.84716796875
-67.7490234375
-78.7353515625
-74.15771484375
-79.65087890625
-79.65087890625
-79.65087890625
-96.13037109375
-85.14404296875
-79.65087890625
-86.97509765625
-92.46826171875
-86.97509765625
-92.46826171875
-97.0458984375
-97.96142578125
-86.97509765625
-93.3837890625
-94.29931640625
-97.96142578125
-88.80615234375
-93.3837890625
-96.13037109375
-92.46826171875
-92.46826171875
-84.228515625
-86.97509765625
-86.97509765625
-92.46826171875
-83.31298828125
-87.890625
-82.3974609375
-77.81982421875
-77.81982421875
-80.56640625
-85.14404296875
-83.31298828125
-88.80615234375
-79.65087890625
-62.255859375
-46.69189453125
-16.4794921875
24.71923828125
58.59375
121.76513671875
188.5986328125
254.5166015625
315.85693359375
368.95751953125
449.52392578125
513.61083984375
551.1474609375
572.20458984375
579.52880859375
489.80712890625
367.12646484375
231.62841796875
88.80615234375
-58.59375
-156.55517578125
-215.14892578125
-239.8681640625
-215.14892578125
-205.078125
-198.66943359375
-195.9228515625
-191.34521484375
-184.02099609375
-171.20361328125
-154.72412109375
-126.3427734375
-93.3837890625
-73.2421875
-70.49560546875
-56.7626953125
-54.01611328125
-48.52294921875
-48.52294921875
-45.7763671875
-35.70556640625
-35.70556640625
-32.04345703125
-30.21240234375
-25.634765625
-27.4658203125
-21.97265625
-16.4794921875
-22.88818359375
-23.8037109375
-21.97265625
-21.97265625
-23.8037109375
-11.90185546875
-8.23974609375
-19.22607421875
-13.73291015625
-12.8173828125
-10.986328125
-9.1552734375
2.74658203125
0
4.57763671875
12.8173828125
2.74658203125
-4.57763671875
-3.662109375
7.32421875
0.91552734375
9.1552734375
6.40869140625
2.74658203125
11.90185546875
21.97265625
21.05712890625
21.97265625
27.4658203125
27.4658203125
29.296875
31.1279296875
40.283203125
40.283203125
38.4521484375
52.18505859375
56.7626953125
60.4248046875
62.255859375
72.32666015625
74.15771484375
74.15771484375
81.48193359375
90.63720703125
86.97509765625
94.29931640625
98.876953125
106.201171875
108.94775390625
120.849609375
123.59619140625
130.0048828125
140.9912109375
144.6533203125
152.89306640625
166.6259765625
173.9501953125
182.18994140625
192.2607421875
205.078125
208.740234375
217.8955078125
233.45947265625
242.61474609375
255.43212890625
263.671875
281.982421875
286.56005859375
293.88427734375
306.70166015625
309.4482421875
316.7724609375
328.67431640625
344.23828125
337.82958984375
346.98486328125
355.224609375
357.0556640625
369.873046875
379.94384765625
376.28173828125
385.43701171875
397.3388671875
395.5078125
393.6767578125
399.169921875
395.5078125
393.6767578125
385.43701171875
383.60595703125
370.78857421875
353.3935546875
346.0693359375
336.9140625
318.603515625
307.6171875
292.05322265625
270.99609375
254.5166015625
238.95263671875
220.64208984375
195.00732421875
173.9501953125
157.470703125
143.73779296875
131.8359375
118.10302734375
98.876953125
86.0595703125
76.904296875
47.607421875
48.52294921875
43.9453125
37.53662109375
31.1279296875
23.8037109375
16.4794921875
8.23974609375
-1.8310546875
0.91552734375
-5.4931640625
-6.40869140625
-6.40869140625
-14.6484375
-13.73291015625
-12.8173828125
-24.71923828125
-29.296875
-23.8037109375
-33.87451171875
-39.36767578125
-36.62109375
-28.38134765625
-25.634765625
-32.958984375
-23.8037109375
-32.04345703125
-28.38134765625
-24.71923828125
-21.05712890625
-27.4658203125
-26.55029296875
-30.21240234375
-27.4658203125
-27.4658203125
-23.8037109375
-25.634765625
-30.21240234375
-26.55029296875
-27.4658203125
-32.04345703125
-29.296875
-34.7900390625
-30.21240234375
-28.38134765625
-18.310546875
-23.8037109375
-28.38134765625
-21.97265625
-23.8037109375
-29.296875
-21.05712890625
-25.634765625
-13.73291015625
-13.73291015625
-14.6484375
-15.56396484375
-17.39501953125
-17.39501953125
-19.22607421875
-21.97265625
-15.56396484375
-12.8173828125
-11.90185546875
-11.90185546875
-10.986328125
-16.4794921875
-17.39501953125
-15.56396484375
-12.8173828125
-15.56396484375
-25.634765625
-26.55029296875
-22.88818359375
-26.55029296875
-22.88818359375
-20.1416015625
-15.56396484375
-20.1416015625
-19.22607421875
-27.4658203125
-22.88818359375
-24.71923828125
-26.55029296875
-21.97265625
-29.296875
-28.38134765625
-32.958984375
-34.7900390625
-27.4658203125
-31.1279296875
-33.87451171875
-34.7900390625
-37.53662109375
-39.36767578125
-31.1279296875
-29.296875
-37.53662109375
-35.70556640625
-35.70556640625
-41.19873046875
-43.02978515625
-41.19873046875
-32.04345703125
-32.04345703125
-36.62109375
-36.62109375
-39.36767578125
-42.1142578125
-42.1142578125
-41.19873046875
-31.1279296875
-37.53662109375
-46.69189453125
-43.9453125
-43.02978515625
-33.87451171875
-44.86083984375
-45.7763671875
-39.36767578125
-45.7763671875
-43.9453125
-40.283203125
-41.19873046875
-38.4521484375
-42.1142578125
-40.283203125
-37.53662109375
-43.02978515625
-42.1142578125
-41.19873046875
-42.1142578125
-34.7900390625
-32.958984375
-43.02978515625
-35.70556640625
-31.1279296875
-26.55029296875
-31.1279296875
-15.56396484375
-12.8173828125
-6.40869140625
-6.40869140625
-16.4794921875
-18.310546875
-11.90185546875
-9.1552734375
-12.8173828125
-17.39501953125
-17.39501953125
-14.6484375
-10.986328125
-4.57763671875
7.32421875
19.22607421875
25.634765625
42.1142578125
47.607421875
40.283203125
34.7900390625
38.4521484375
31.1279296875
24.71923828125
10.986328125
13.73291015625
18.310546875
12.8173828125
20.1416015625
14.6484375
3.662109375
-10.07080078125
-17.39501953125
-22.88818359375
-23.8037109375
-44.86083984375
-52.18505859375
-58.59375
-55.84716796875
-53.1005859375
-48.52294921875
-53.1005859375
-65.00244140625
-61.34033203125
-53.1005859375
-58.59375
-60.4248046875
-67.7490234375
-68.66455078125
-61.34033203125
-55.84716796875
-62.255859375
-65.00244140625
-61.34033203125
-65.91796875
-70.49560546875
-66.83349609375
-62.255859375
-61.34033203125
-61.34033203125
-58.59375
-65.00244140625
-63.17138671875
-62.255859375
-59.50927734375
-58.59375
-57.67822265625
-61.34033203125
-61.34033203125
-56.7626953125
-65.00244140625
-61.34033203125
-50.35400390625
-38.4521484375
-23.8037109375
10.07080078125
47.607421875
84.228515625
132.75146484375
194.091796875
261.8408203125
320.4345703125
377.197265625
453.18603515625
519.10400390625
570.37353515625
603.33251953125
619.81201171875
558.4716796875
442.19970703125
313.1103515625
189.51416015625
43.02978515625
-92.46826171875
-178.52783203125
-212.40234375
-204.16259765625
-195.9228515625
-189.51416015625
-181.2744140625
-179.443359375
-173.9501953125
-163.87939453125
-132.75146484375
-94.29931640625
-63.17138671875
-43.9453125
-35.70556640625
-30.21240234375
-28.38134765625
-30.21240234375
-20.1416015625
-21.05712890625
-14.6484375
-9.1552734375
-8.23974609375
-1.8310546875
3.662109375
-3.662109375
-2.74658203125
5.4931640625
5.4931640625
0
-1.8310546875
3.662109375
9.1552734375
10.986328125
5.4931640625
7.32421875
14.6484375
10.986328125
7.32421875
14.6484375
20.1416015625
18.310546875
24.71923828125
28.38134765625
25.634765625
21.05712890625
25.634765625
27.4658203125
27.4658203125
30.21240234375
35.70556640625
37.53662109375
42.1142578125
37.53662109375
47.607421875
51.26953125
55.84716796875
50.35400390625
54.01611328125
59.50927734375
65.91796875
73.2421875
75.98876953125
73.2421875
73.2421875
75.0732421875
83.31298828125
90.63720703125
96.13037109375
95.21484375
103.45458984375
118.10302734375
116.27197265625
126.3427734375
130.0048828125
131.8359375
130.0048828125
140.9912109375
144.6533203125
153.80859375
163.87939453125
164.794921875
176.69677734375
193.17626953125
200.50048828125
203.2470703125
207.82470703125
215.14892578125
224.30419921875
233.45947265625
254.5166015625
262.75634765625
266.41845703125
283.8134765625
295.71533203125
292.96875
310.36376953125
324.0966796875
335.99853515625
344.23828125
354.30908203125
359.80224609375
366.2109375
373.53515625
379.0283203125
389.09912109375
395.5078125
406.494140625
410.15625
420.22705078125
433.04443359375
431.21337890625
423.88916015625
424.8046875
433.04443359375
435.791015625
424.8046875
426.6357421875
420.22705078125
416.56494140625
401.0009765625
380.859375
371.7041015625
362.548828125
353.3935546875
334.16748046875
320.4345703125
297.54638671875
271.91162109375
257.26318359375
241.69921875
216.064453125
196.83837890625
184.9365234375
173.03466796875
153.80859375
131.8359375
112.60986328125
101.62353515625
88.80615234375
76.904296875
69.580078125
48.52294921875
51.26953125
41.19873046875
33.87451171875
34.7900390625
31.1279296875
21.05712890625
17.39501953125
16.4794921875
10.986328125
12.8173828125
19.22607421875
6.40869140625
-4.57763671875
4.57763671875
-4.57763671875
-6.40869140625
0.91552734375
-4.57763671875
-5.4931640625
-1.8310546875
-7.32421875
-0.91552734375
-4.57763671875
0.91552734375
-6.40869140625
-11.90185546875
-8.23974609375
-5.4931640625
-10.07080078125
-1.8310546875
2.74658203125
0
-10.07080078125
-4.57763671875
-11.90185546875
-19.22607421875
-10.986328125
-5.4931640625
-9.1552734375
-8.23974609375
-5.4931640625
-12.8173828125
-21.97265625
-13.73291015625
-14.6484375
-16.4794921875
-12.8173828125
-13.73291015625
-13.73291015625
-11.90185546875
-5.4931640625
-7.32421875
-12.8173828125
-5.4931640625
-6.40869140625
-11.90185546875
-5.4931640625
-4.57763671875
-1.8310546875
-1.8310546875
-3.662109375
-5.4931640625
-10.986328125
-10.986328125
-10.986328125
-12.8173828125
-11.90185546875
-10.07080078125
-7.32421875
-10.07080078125
-13.73291015625
-11.90185546875
-18.310546875
-15.56396484375
-16.4794921875
-17.39501953125
-10.986328125
-10.07080078125
-11.90185546875
-10.07080078125
-3.662109375
-11.90185546875
-26.55029296875
-36.62109375
-43.02978515625
-38.4521484375
-34.7900390625
-31.1279296875
-29.296875
-24.71923828125
-23.8037109375
-27.4658203125
-25.634765625
-25.634765625
-30.21240234375
-35.70556640625
-32.958984375
-34.7900390625
-30.21240234375
-23.8037109375
-37.53662109375
-37.53662109375
-30.21240234375
-31.1279296875
-33.87451171875
-34.7900390625
-34.7900390625
-37.53662109375
-32.958984375
-38.4521484375
-36.62109375
-41.19873046875
-41.19873046875
-42.1142578125
-43.9453125
-49.4384765625
-50.35400390625
-43.02978515625
-44.86083984375
-49.4384765625
-43.9453125
-43.02978515625
-50.35400390625
-47.607421875
-48.52294921875
-51.26953125
-48.52294921875
-43.9453125
-46.69189453125
-44.86083984375
-37.53662109375
-35.70556640625
-32.04345703125
-30.21240234375
-30.21240234375
-34.7900390625
-26.55029296875
-20.1416015625
-17.39501953125
-24.71923828125
-28.38134765625
-28.38134765625
-28.38134765625
-38.4521484375
-32.04345703125
-29.296875
-10.986328125
-1.8310546875
-0.91552734375
4.57763671875
26.55029296875
29.296875
33.87451171875
33.87451171875
33.87451171875
29.296875
28.38134765625
15.56396484375
13.73291015625
14.6484375
9.1552734375
10.986328125
8.23974609375
-4.57763671875
-13.73291015625
-34.7900390625
-40.283203125
-39.36767578125
-50.35400390625
-61.34033203125
-63.17138671875
-67.7490234375
-70.49560546875
-67.7490234375
-67.7490234375
-69.580078125
-76.904296875
-75.0732421875
-70.49560546875
-86.0595703125
-87.890625
-83.31298828125
-86.97509765625
-84.228515625
-74.15771484375
-84.228515625
-88.80615234375
-89.7216796875
-73.2421875
-67.7490234375
-76.904296875
-77.81982421875
-81.48193359375
-82.3974609375
-73.2421875
-64.0869140625
-77.81982421875
-65.00244140625
-57.67822265625
-74.15771484375
-67.7490234375
-65.91796875
-68.66455078125
-73.2421875
-83.31298828125
-76.904296875
-67.7490234375
-61.34033203125
-44.86083984375
-7.32421875
33.87451171875
74.15771484375
131.8359375
189.51416015625
260.92529296875
312.19482421875
376.28173828125
454.1015625
503.5400390625
548.40087890625
569.4580078125
556.640625
461.42578125
341.49169921875
195.00732421875
44.86083984375
-91.552734375
-178.52783203125
-226.13525390625
-235.29052734375
-220.64208984375
-201.416015625
-197.75390625
-187.68310546875
-193.17626953125
-197.75390625
-186.767578125
-164.794921875
-141.90673828125
-101.62353515625
-73.2421875
-65.91796875
-68.66455078125
-54.01611328125
-46.69189453125
-51.26953125
-51.26953125
-46.69189453125
-42.1142578125
-39.36767578125
-30.21240234375
-21.97265625
-26.55029296875
-13.73291015625
-21.97265625
-23.8037109375
-20.1416015625
-13.73291015625
-11.90185546875
-19.22607421875
-17.39501953125
-21.05712890625
-31.1279296875
-29.296875
-11.90185546875
-11.90185546875
-10.986328125
-7.32421875
-7.32421875
-6.40869140625
3.662109375
-4.57763671875
12.8173828125
6.40869140625
-2.74658203125
-0.91552734375
5.4931640625
6.40869140625
8.23974609375
8.23974609375
12.8173828125
16.4794921875
24.71923828125
28.38134765625
27.4658203125
26.55029296875
31.1279296875
32.958984375
33.87451171875
29.296875
41.19873046875
50.35400390625
52.18505859375
55.84716796875
60.4248046875
55.84716796875
65.91796875
77.81982421875
85.14404296875
94.29931640625
93.3837890625
104.3701171875
97.0458984375
104.3701171875
110.77880859375
118.10302734375
130.92041015625
144.6533203125
145.56884765625
164.794921875
168.45703125
163.87939453125
175.78125
189.51416015625
196.83837890625
205.99365234375
213.31787109375
230.712890625
234.375
249.0234375
265.5029296875
266.41845703125
281.06689453125
295.71533203125
304.87060546875
314.94140625
326.84326171875
345.15380859375
350.64697265625
353.3935546875
355.224609375
360.7177734375
363.46435546875
371.7041015625
378.11279296875
380.859375
385.43701171875
397.3388671875
403.74755859375
414.73388671875
418.39599609375
416.56494140625
417.48046875
411.07177734375
397.3388671875
390.0146484375
378.11279296875
365.29541015625
355.224609375
349.7314453125
324.0966796875
306.70166015625
288.39111328125
270.08056640625
257.26318359375
238.95263671875
224.30419921875
205.99365234375
175.78125
166.6259765625
150.146484375
119.93408203125
113.525390625
94.29931640625
75.98876953125
63.17138671875
59.50927734375
44.86083984375
24.71923828125
22.88818359375
10.07080078125
4.57763671875
-2.74658203125
-9.1552734375
-16.4794921875
-22.88818359375
-27.4658203125
-24.71923828125
-32.04345703125
-36.62109375
-40.283203125
-51.26953125
-49.4384765625
-48.52294921875
-45.7763671875
-46.69189453125
-49.4384765625
-51.26953125
-47.607421875
-46.69189453125
-45.7763671875
-45.7763671875
-50.35400390625
-45.7763671875
-47.607421875
-50.35400390625
-42.1142578125
-43.9453125
-40.283203125
-48.52294921875
-39.36767578125
-37.53662109375
-38.4521484375
-43.02978515625
-42.1142578125
-44.86083984375
-51.26953125
-49.4384765625
-47.607421875
-45.7763671875
-40.283203125
-38.4521484375
-43.9453125
-43.9453125
-40.283203125
-47.607421875
-50.35400390625
-44.86083984375
-37.53662109375
-36.62109375
-35.70556640625
-35.70556640625
-36.62109375
-41.19873046875
-38.4521484375
-39.36767578125
-32.958984375
-36.62109375
-47.607421875
-53.1005859375
-41.19873046875
-43.9453125
-39.36767578125
-45.7763671875
-54.931640625
-45.7763671875
-51.26953125
-46.69189453125
-52.18505859375
-46.69189453125
-47.607421875
-53.1005859375
-44.86083984375
-43.02978515625
-49.4384765625
-49.4384765625
-54.01611328125
-52.18505859375
-44.86083984375
-48.52294921875
-50.35400390625
-50.35400390625
-49.4384765625
-54.01611328125
-57.67822265625
-62.255859375
-58.59375
-55.84716796875
-59.50927734375
-57.67822265625
-51.26953125
-61.34033203125
-62.255859375
-58.59375
-58.59375
-63.17138671875
-61.34033203125
-58.59375
-56.7626953125
-58.59375
-69.580078125
-80.56640625
-76.904296875
-67.7490234375
-72.32666015625
-74.15771484375
-65.91796875
-70.49560546875
-68.66455078125
-67.7490234375
-62.255859375
-54.01611328125
-54.01611328125
-50.35400390625
-42.1142578125
-41.19873046875
-38.4521484375
-39.36767578125
-43.02978515625
-46.69189453125
-40.283203125
-43.9453125
-38.4521484375
-37.53662109375
-48.52294921875
-46.69189453125
-39.36767578125
-24.71923828125
-14.6484375
-12.8173828125
-8.23974609375
4.57763671875
10.986328125
15.56396484375
18.310546875
15.56396484375
12.8173828125
14.6484375
9.1552734375
-7.32421875
-4.57763671875
-2.74658203125
-10.07080078125
-13.73291015625
-18.310546875
-35.70556640625
-55.84716796875
-64.0869140625
-61.34033203125
-64.0869140625
-75.0732421875
-86.0595703125
-86.0595703125
-77.81982421875
-86.97509765625
-97.0458984375
-97.0458984375
-94.29931640625
-92.46826171875
-92.46826171875
-92.46826171875
-97.0458984375
-101.62353515625
-105.28564453125
-101.62353515625
-95.21484375
-97.0458984375
-107.11669921875
-99.79248046875
-97.96142578125
-100.7080078125
-96.13037109375
-96.13037109375
-98.876953125
-104.3701171875
-96.13037109375
-95.21484375
-84.228515625
-88.80615234375
-92.46826171875
-96.13037109375
-101.62353515625
-101.62353515625
-91.552734375
-93.3837890625
-102.5390625
-97.0458984375
-82.3974609375
-86.0595703125
-69.580078125
-33.87451171875
1.8310546875
49.4384765625
105.28564453125
162.9638671875
238.037109375
298.4619140625
371.7041015625
439.453125
488.8916015625
519.10400390625
531.005859375
510.8642578125
393.6767578125
268.24951171875
125.42724609375
-16.4794921875
-155.6396484375
-222.47314453125
-241.69921875
-239.8681640625
-238.95263671875
-217.8955078125
-201.416015625
-209.65576171875
-224.30419921875
-228.8818359375
-220.64208984375
-200.50048828125
-172.119140625
-131.8359375
-108.94775390625
-88.80615234375
-79.65087890625
-79.65087890625
-74.15771484375
-65.91796875
-58.59375
-53.1005859375
-55.84716796875
-50.35400390625
-38.4521484375
-35.70556640625
-38.4521484375
-41.19873046875
-35.70556640625
-32.958984375
-30.21240234375
-32.04345703125
-36.62109375
-29.296875
-32.04345703125
-28.38134765625
-21.05712890625
-26.55029296875
-29.296875
-29.296875
-36.62109375
-34.7900390625
-26.55029296875
-17.39501953125
-11.90185546875
-6.40869140625
-6.40869140625
-7.32421875
-11.90185546875
-10.07080078125
-10.07080078125
0
-0.91552734375
8.23974609375
12.8173828125
11.90185546875
20.1416015625
20.1416015625
21.97265625
24.71923828125
27.4658203125
33.87451171875
38.4521484375
39.36767578125
43.02978515625
42.1142578125
47.607421875
51.26953125
46.69189453125
58.59375
65.00244140625
66.83349609375
69.580078125
82.3974609375
90.63720703125
96.13037109375
103.45458984375
98.876953125
107.11669921875
125.42724609375
127.25830078125
134.58251953125
141.90673828125
149.23095703125
165.71044921875
171.20361328125
184.02099609375
194.091796875
197.75390625
213.31787109375
221.5576171875
227.96630859375
241.69921875
246.27685546875
251.77001953125
260.009765625
272.8271484375
274.658203125
280.1513671875
296.630859375
305.7861328125
319.51904296875
325.927734375
330.50537109375
334.16748046875
337.82958984375
351.5625
361.63330078125
366.2109375
376.28173828125
384.521484375
393.6767578125
388.18359375
397.3388671875
389.09912109375
387.26806640625
390.93017578125
379.94384765625
369.873046875
359.80224609375
348.81591796875
338.7451171875
326.84326171875
316.7724609375
300.29296875
276.4892578125
260.009765625
237.12158203125
209.65576171875
197.75390625
183.10546875
163.87939453125
143.73779296875
118.10302734375
107.11669921875
100.7080078125
81.48193359375
62.255859375
44.86083984375
35.70556640625
29.296875
15.56396484375
12.8173828125
7.32421875
-1.8310546875
-17.39501953125
-29.296875
-24.71923828125
-29.296875
-30.21240234375
-34.7900390625
-34.7900390625
-38.4521484375
-42.1142578125
-51.26953125
-53.1005859375
-55.84716796875
-51.26953125
-56.7626953125
-54.931640625
-49.4384765625
-48.52294921875
-47.607421875
-45.7763671875
-50.35400390625
-53.1005859375
-58.59375
-61.34033203125
-57.67822265625
-53.1005859375
-54.01611328125
-52.18505859375
-53.1005859375
-54.931640625
-54.01611328125
-64.0869140625
-56.7626953125
-53.1005859375
-51.26953125
-47.607421875
-51.26953125
-51.26953125
-49.4384765625
-49.4384765625
-52.18505859375
-40.283203125
-43.02978515625
-42.1142578125
-48.52294921875
-55.84716796875
-60.4248046875
-59.50927734375
-51.26953125
-54.931640625
-49.4384765625
-48.52294921875
-51.26953125
-53.1005859375
-49.4384765625
-46.69189453125
-49.4384765625
-47.607421875
-47.607421875
-51.26953125
-53.1005859375
-47.607421875
-49.4384765625
-54.01611328125
-57.67822265625
-49.4384765625
-48.52294921875
-53.1005859375
-58.59375
-58.59375
-65.00244140625
-60.4248046875
-63.17138671875
-56.7626953125
-58.59375
-59.50927734375
-56.7626953125
-63.17138671875
-55.84716796875
-54.931640625
-62.255859375
-64.0869140625
-58.59375
-65.91796875
-65.00244140625
-63.17138671875
-64.0869140625
-60.4248046875
-59.50927734375
-62.255859375
-61.34033203125
-61.34033203125
-61.34033203125
-65.91796875
-65.91796875
-70.49560546875
-63.17138671875
-67.7490234375
-64.0869140625
-64.0869140625
-72.32666015625
-69.580078125
-75.98876953125
-75.98876953125
-73.2421875
-76.904296875
-67.7490234375
-61.34033203125
-67.7490234375
-62.255859375
-59.50927734375
-69.580078125
-55.84716796875
-51.26953125
-43.9453125
-39.36767578125
-33.87451171875
-34.7900390625
-43.02978515625
-33.87451171875
-34.7900390625
-43.9453125
-28.38134765625
-32.958984375
-41.19873046875
-42.1142578125
-33.87451171875
-27.4658203125
-9.1552734375
0
-4.57763671875
9.1552734375
15.56396484375
10.986328125
13.73291015625
27.4658203125
12.8173828125
16.4794921875
9.1552734375
0
0.91552734375
0
-4.57763671875
-6.40869140625
-10.07080078125
-21.05712890625
-30.21240234375
-43.9453125
-44.86083984375
-50.35400390625
-56.7626953125
-75.0732421875
-77.81982421875
-86.97509765625
-91.552734375
-85.14404296875
-86.97509765625
-86.0595703125
-83.31298828125
-87.890625
-83.31298828125
-87.890625
-88.80615234375
-88.80615234375
-94.29931640625
-88.80615234375
-91.552734375
-90.63720703125
-89.7216796875
-91.552734375
-90.63720703125
-97.0458984375
-97.0458984375
-97.96142578125
-99.79248046875
-94.29931640625
-86.0595703125
-89.7216796875
-84.228515625
-90.63720703125
-84.228515625
-76.904296875
-77.81982421875
-91.552734375
-93.3837890625
-96.13037109375
-86.0595703125
-75.98876953125
-68.66455078125
-44.86083984375
-10.07080078125
24.71923828125
68.66455078125
135.498046875
197.75390625
268.24951171875
332.33642578125
389.09912109375
462.34130859375
518.1884765625
552.978515625
574.03564453125
557.55615234375
456.84814453125
334.16748046875
201.416015625
55.84716796875
-91.552734375
-181.2744140625
-230.712890625
-249.0234375
-226.13525390625
-220.64208984375
-214.2333984375
-205.99365234375
-206.9091796875
-198.66943359375
-184.9365234375
-162.04833984375
-134.58251953125
-96.13037109375
-86.0595703125
-80.56640625
-77.81982421875
-68.66455078125
-61.34033203125
-57.67822265625
-55.84716796875
-47.607421875
-47.607421875
-42.1142578125
-36.62109375
-36.62109375
-42.1142578125
-34.7900390625
-28.38134765625
-34.7900390625
-30.21240234375
-22.88818359375
-21.97265625
-16.4794921875
-19.22607421875
-24.71923828125
-29.296875
-34.7900390625
-32.958984375
-28.38134765625
-29.296875
-27.4658203125
-15.56396484375
-11.90185546875
-14.6484375
-10.986328125
-11.90185546875
-12.8173828125
-2.74658203125
0.91552734375
-4.57763671875
5.4931640625
5.4931640625
8.23974609375
3.662109375
6.40869140625
12.8173828125
13.73291015625
14.6484375
19.22607421875
21.97265625
32.958984375
38.4521484375
35.70556640625
43.9453125
44.86083984375
44.86083984375
47.607421875
52.18505859375
58.59375
65.91796875
76.904296875
76.904296875
80.56640625
86.0595703125
92.46826171875
96.13037109375
98.876953125
106.201171875
113.525390625
120.849609375
128.173828125
137.3291015625
145.56884765625
157.470703125
163.87939453125
162.9638671875
171.20361328125
186.767578125
201.416015625
206.9091796875
216.064453125
227.96630859375
239.8681640625
252.685546875
262.75634765625
272.8271484375
281.06689453125
287.4755859375
296.630859375
305.7861328125
308.53271484375
304.87060546875
314.94140625
325.01220703125
337.82958984375
335.0830078125
345.15380859375
357.0556640625
361.63330078125
364.3798828125
367.12646484375
367.12646484375
375.3662109375
385.43701171875
397.3388671875
379.0283203125
361.63330078125
362.548828125
356.14013671875
347.900390625
333.251953125
317.68798828125
301.20849609375
288.39111328125
270.08056640625
249.93896484375
230.712890625
213.31787109375
195.00732421875
174.86572265625
163.87939453125
152.89306640625
129.08935546875
111.6943359375
91.552734375
76.904296875
62.255859375
53.1005859375
43.02978515625
30.21240234375
19.22607421875
7.32421875
-0.91552734375
-16.4794921875
-21.97265625
-25.634765625
-40.283203125
-36.62109375
-32.958984375
-42.1142578125
-38.4521484375
-42.1142578125
-51.26953125
-53.1005859375
-43.9453125
-50.35400390625
-57.67822265625
-51.26953125
-49.4384765625
-45.7763671875
-47.607421875
-54.931640625
-55.84716796875
-55.84716796875
-56.7626953125
-65.00244140625
-69.580078125
-54.01611328125
-53.1005859375
-50.35400390625
-51.26953125
-52.18505859375
-46.69189453125
-50.35400390625
-53.1005859375
-52.18505859375
-58.59375
-65.00244140625
-66.83349609375
-61.34033203125
-52.18505859375
-54.931640625
-53.1005859375
-55.84716796875
-50.35400390625
-48.52294921875
-51.26953125
-51.26953125
-55.84716796875
-50.35400390625
-53.1005859375
-52.18505859375
-48.52294921875
-51.26953125
-53.1005859375
-56.7626953125
-50.35400390625
-47.607421875
-49.4384765625
-48.52294921875
-42.1142578125
-46.69189453125
-51.26953125
-54.01611328125
-47.607421875
-46.69189453125
-54.01611328125
-48.52294921875
-57.67822265625
-53.1005859375
-49.4384765625
-47.607421875
-48.52294921875
-51.26953125
-41.19873046875
-43.02978515625
-61.34033203125
-58.59375
-73.2421875
-67.7490234375
-65.00244140625
-61.34033203125
-59.50927734375
-57.67822265625
-67.7490234375
-67.7490234375
-65.91796875
-65.00244140625
-64.0869140625
-65.00244140625
-55.84716796875
-54.01611328125
-66.83349609375
-68.66455078125
-74.15771484375
-70.49560546875
-74.15771484375
-70.49560546875
-70.49560546875
-79.65087890625
-77.81982421875
-71.4111328125
-73.2421875
-74.15771484375
-68.66455078125
-66.83349609375
-72.32666015625
-64.0869140625
-59.50927734375
-81.48193359375
-71.4111328125
-75.0732421875
-83.31298828125
-74.15771484375
-71.4111328125
-66.83349609375
-71.4111328125
-75.0732421875
-74.15771484375
-74.15771484375
-65.00244140625
-72.32666015625
-81.48193359375
-83.31298828125
-78.7353515625
-82.3974609375
-82.3974609375
-80.56640625
-86.0595703125
-89.7216796875
-80.56640625
-77.81982421875
-71.4111328125
-68.66455078125
-60.4248046875
-53.1005859375
-54.01611328125
-47.607421875
-53.1005859375
-52.18505859375
-48.52294921875
-43.02978515625
-44.86083984375
-49.4384765625
-53.1005859375
-58.59375
-59.50927734375
-48.52294921875
-39.36767578125
-33.87451171875
-20.1416015625
-12.8173828125
-2.74658203125
9.1552734375
10.07080078125
1.8310546875
-6.40869140625
5.4931640625
0.91552734375
-19.22607421875
-18.310546875
-10.07080078125
-16.4794921875
-6.40869140625
-8.23974609375
-16.4794921875
-32.04345703125
-47.607421875
-59.50927734375
-75.0732421875
-79.65087890625
-84.228515625
-95.21484375
-90.63720703125
-97.0458984375
-105.28564453125
-97.96142578125
-91.552734375
-97.96142578125
-94.29931640625
-96.13037109375
-93.3837890625
-97.96142578125
-97.0458984375
-97.0458984375
-97.0458984375
-98.876953125
-97.0458984375
-100.7080078125
-99.79248046875
-97.0458984375
-97.0458984375
-104.3701171875
-89.7216796875
-89.7216796875
-96.13037109375
-102.5390625
-97.0458984375
-97.0458984375
-88.80615234375
-91.552734375
-94.29931640625
-88.80615234375
-84.228515625
-77.81982421875
-86.97509765625
-87.890625
-74.15771484375
-71.4111328125
-65.00244140625
-28.38134765625
5.4931640625
33.87451171875
69.580078125
131.8359375
193.17626953125
266.41845703125
330.50537109375
390.0146484375
461.42578125
524.59716796875
562.1337890625
588.68408203125
560.302734375
444.9462890625
320.4345703125
202.33154296875
58.59375
-87.890625
-185.85205078125
-242.61474609375
-253.60107421875
