ECG
11.90185546875
16.4794921875
14.6484375
12.8173828125
7.32421875
14.6484375
15.56396484375
5.4931640625
4.57763671875
4.57763671875
5.4931640625
10.07080078125
11.90185546875
21.97265625
18.310546875
12.8173828125
13.73291015625
16.4794921875
17.39501953125
7.32421875
11.90185546875
18.310546875
18.310546875
18.310546875
10.986328125
13.73291015625
16.4794921875
18.310546875
14.6484375
18.310546875
20.1416015625
29.296875
36.62109375
36.62109375
42.1142578125
43.02978515625
44.86083984375
43.9453125
35.70556640625
31.1279296875
27.4658203125
15.56396484375
19.22607421875
18.310546875
11.90185546875
14.6484375
20.1416015625
30.21240234375
39.36767578125
45.7763671875
43.9453125
56.7626953125
62.255859375
57.67822265625
56.7626953125
60.4248046875
75.98876953125
69.580078125
62.255859375
59.50927734375
44.86083984375
42.1142578125
45.7763671875
46.69189453125
36.62109375
22.88818359375
23.8037109375
17.39501953125
10.07080078125
9.1552734375
5.4931640625
-2.74658203125
-2.74658203125
-0.91552734375
-10.07080078125
-10.07080078125
-4.57763671875
-7.32421875
-10.986328125
-6.40869140625
-9.1552734375
-8.23974609375
-4.57763671875
-3.662109375
-5.4931640625
-5.4931640625
-1.8310546875
0
-0.91552734375
-3.662109375
-0.91552734375
-6.40869140625
-4.57763671875
1.8310546875
-1.8310546875
6.40869140625
2.74658203125
-2.74658203125
0.91552734375
2.74658203125
-1.8310546875
-3.662109375
0.91552734375
9.1552734375
6.40869140625
13.73291015625
26.55029296875
47.607421875
83.31298828125
113.525390625
151.06201171875
198.66943359375
260.009765625
321.35009765625
379.94384765625
438.53759765625
513.61083984375
567.626953125
602.4169921875
618.896484375
610.65673828125
511.77978515625
384.521484375
266.41845703125
130.0048828125
-5.4931640625
-86.97509765625
-142.822265625
-155.6396484375
-146.484375
-141.90673828125
-127.25830078125
-119.0185546875
-114.44091796875
-97.96142578125
-90.63720703125
-53.1005859375
-25.634765625
-4.57763671875
6.40869140625
14.6484375
18.310546875
22.88818359375
29.296875
32.958984375
32.958984375
35.70556640625
43.02978515625
47.607421875
43.9453125
48.52294921875
49.4384765625
43.9453125
43.02978515625
47.607421875
53.1005859375
56.7626953125
54.931640625
56.7626953125
50.35400390625
53.1005859375
56.7626953125
59.50927734375
65.91796875
62.255859375
62.255859375
69.580078125
71.4111328125
71.4111328125
64.0869140625
65.00244140625
65.91796875
68.66455078125
69.580078125
73.2421875
79.65087890625
84.228515625
87.890625
80.56640625
78.7353515625
78.7353515625
84.228515625
94.29931640625
95.21484375
99.79248046875
107.11669921875
112.60986328125
116.27197265625
114.44091796875
119.0185546875
118.10302734375
125.42724609375
132.75146484375
145.56884765625
149.23095703125
138.24462890625
146.484375
156.55517578125
165.71044921875
165.71044921875
165.71044921875
170.2880859375
186.767578125
191.34521484375
203.2470703125
209.65576171875
220.64208984375
221.5576171875
229.79736328125
241.69921875
242.61474609375
255.43212890625
265.5029296875
281.06689453125
282.89794921875
296.630859375
309.4482421875
308.53271484375
318.603515625
331.4208984375
340.576171875
348.81591796875
357.97119140625
364.3798828125
377.197265625
381.77490234375
385.43701171875
387.26806640625
399.169921875
405.57861328125
411.9873046875
421.142578125
422.05810546875
430.2978515625
433.9599609375
436.70654296875
442.19970703125
440.36865234375
436.70654296875
437.6220703125
431.21337890625
420.22705078125
409.24072265625
395.5078125
375.3662109375
363.46435546875
346.98486328125
334.16748046875
321.35009765625
292.96875
273.74267578125
255.43212890625
236.2060546875
224.30419921875
202.33154296875
184.02099609375
166.6259765625
158.38623046875
138.24462890625
113.525390625
106.201171875
91.552734375
79.65087890625
76.904296875
68.66455078125
60.4248046875
60.4248046875
46.69189453125
38.4521484375
35.70556640625
36.62109375
36.62109375
24.71923828125
20.1416015625
21.05712890625
17.39501953125
15.56396484375
10.986328125
5.4931640625
9.1552734375
4.57763671875
2.74658203125
7.32421875
2.74658203125
6.40869140625
0.91552734375
-2.74658203125
0
10.07080078125
0
0.91552734375
-0.91552734375
1.8310546875
-1.8310546875
-3.662109375
1.8310546875
-0.91552734375
2.74658203125
0
-1.8310546875
-0.91552734375
4.57763671875
9.1552734375
12.8173828125
3.662109375
5.4931640625
6.40869140625
5.4931640625
5.4931640625
8.23974609375
4.57763671875
4.57763671875
10.986328125
8.23974609375
4.57763671875
3.662109375
9.1552734375
7.32421875
4.57763671875
7.32421875
4.57763671875
6.40869140625
7.32421875
9.1552734375
5.4931640625
8.23974609375
6.40869140625
11.90185546875
5.4931640625
3.662109375
4.57763671875
0.91552734375
2.74658203125
7.32421875
14.6484375
10.07080078125
6.40869140625
4.57763671875
3.662109375
0
1.8310546875
1.8310546875
1.8310546875
-5.4931640625
-6.40869140625
-6.40869140625
-2.74658203125
-1.8310546875
-12.8173828125
-9.1552734375
-12.8173828125
-10.07080078125
-9.1552734375
-10.986328125
-10.986328125
-8.23974609375
-10.07080078125
-15.56396484375
-11.90185546875
-9.1552734375
-5.4931640625
-10.986328125
-12.8173828125
-10.986328125
-18.310546875
-22.88818359375
-26.55029296875
-27.4658203125
-27.4658203125
-31.1279296875
-31.1279296875
-30.21240234375
-31.1279296875
-30.21240234375
-30.21240234375
-30.21240234375
-29.296875
-23.8037109375
-26.55029296875
-32.04345703125
-38.4521484375
-26.55029296875
-23.8037109375
-25.634765625
-29.296875
-19.22607421875
-13.73291015625
-14.6484375
-21.05712890625
-25.634765625
-33.87451171875
-25.634765625
-24.71923828125
-17.39501953125
-18.310546875
-17.39501953125
-10.07080078125
-13.73291015625
-14.6484375
-18.310546875
-15.56396484375
-23.8037109375
-24.71923828125
-23.8037109375
-28.38134765625
-32.04345703125
-32.958984375
-32.04345703125
-27.4658203125
-29.296875
-16.4794921875
-11.90185546875
-5.4931640625
5.4931640625
9.1552734375
6.40869140625
10.07080078125
27.4658203125
24.71923828125
21.05712890625
16.4794921875
12.8173828125
-0.91552734375
-4.57763671875
-6.40869140625
-14.6484375
-17.39501953125
-19.22607421875
-25.634765625
-33.87451171875
-38.4521484375
-34.7900390625
-39.36767578125
-44.86083984375
-44.86083984375
-46.69189453125
-48.52294921875
-49.4384765625
-49.4384765625
-49.4384765625
-52.18505859375
-50.35400390625
-47.607421875
-51.26953125
-49.4384765625
-40.283203125
-41.19873046875
-48.52294921875
-53.1005859375
-48.52294921875
-48.52294921875
-43.9453125
-48.52294921875
-47.607421875
-43.9453125
-43.9453125
-43.9453125
-49.4384765625
-49.4384765625
-45.7763671875
-42.1142578125
-36.62109375
-33.87451171875
-43.9453125
-44.86083984375
-45.7763671875
-36.62109375
-32.04345703125
-15.56396484375
11.90185546875
44.86083984375
74.15771484375
119.93408203125
184.9365234375
244.44580078125
314.02587890625
380.859375
443.115234375
502.62451171875
539.24560546875
548.40087890625
552.06298828125
472.412109375
354.30908203125
229.79736328125
89.7216796875
-51.26953125
-138.24462890625
-185.85205078125
-194.091796875
-186.767578125
-173.9501953125
-161.1328125
-158.38623046875
-162.9638671875
-163.87939453125
-157.470703125
-138.24462890625
-115.3564453125
-80.56640625
-55.84716796875
-40.283203125
-33.87451171875
-21.97265625
-24.71923828125
-11.90185546875
-11.90185546875
-8.23974609375
0
-9.1552734375
1.8310546875
3.662109375
5.4931640625
4.57763671875
8.23974609375
8.23974609375
13.73291015625
15.56396484375
16.4794921875
13.73291015625
17.39501953125
19.22607421875
10.986328125
15.56396484375
16.4794921875
20.1416015625
26.55029296875
30.21240234375
29.296875
29.296875
30.21240234375
30.21240234375
23.8037109375
32.04345703125
37.53662109375
41.19873046875
43.9453125
41.19873046875
41.19873046875
43.9453125
43.02978515625
48.52294921875
54.931640625
54.931640625
60.4248046875
64.0869140625
70.49560546875
65.00244140625
73.2421875
72.32666015625
75.0732421875
83.31298828125
93.3837890625
95.21484375
97.0458984375
102.5390625
108.94775390625
110.77880859375
112.60986328125
117.1875
123.59619140625
136.41357421875
136.41357421875
148.3154296875
151.9775390625
158.38623046875
163.87939453125
174.86572265625
180.35888671875
189.51416015625
195.9228515625
209.65576171875
218.81103515625
227.96630859375
240.78369140625
249.0234375
260.009765625
261.8408203125
272.8271484375
282.89794921875
288.39111328125
303.03955078125
311.279296875
318.603515625
328.67431640625
339.66064453125
338.7451171875
344.23828125
354.30908203125
363.46435546875
363.46435546875
371.7041015625
373.53515625
384.521484375
387.26806640625
390.93017578125
390.0146484375
396.42333984375
392.76123046875
387.26806640625
385.43701171875
388.18359375
372.61962890625
371.7041015625
357.0556640625
337.82958984375
334.16748046875
319.51904296875
301.20849609375
282.89794921875
266.41845703125
235.29052734375
224.30419921875
208.740234375
189.51416015625
173.9501953125
156.55517578125
135.498046875
121.76513671875
105.28564453125
85.14404296875
68.66455078125
60.4248046875
49.4384765625
37.53662109375
30.21240234375
27.4658203125
9.1552734375
-2.74658203125
-3.662109375
-6.40869140625
-15.56396484375
-12.8173828125
-15.56396484375
-21.05712890625
-20.1416015625
-14.6484375
-21.97265625
-29.296875
-35.70556640625
-38.4521484375
-44.86083984375
-43.02978515625
-33.87451171875
-35.70556640625
-36.62109375
-38.4521484375
-39.36767578125
-45.7763671875
-42.1142578125
-41.19873046875
-43.02978515625
-35.70556640625
-49.4384765625
-41.19873046875
-33.87451171875
-38.4521484375
-33.87451171875
-32.958984375
-37.53662109375
-43.02978515625
-40.283203125
-41.19873046875
-34.7900390625
-38.4521484375
-37.53662109375
-32.04345703125
-32.04345703125
-35.70556640625
-39.36767578125
-38.4521484375
-37.53662109375
-43.02978515625
-36.62109375
-27.4658203125
-39.36767578125
-33.87451171875
-34.7900390625
-34.7900390625
-27.4658203125
-30.21240234375
-34.7900390625
-34.7900390625
-26.55029296875
-27.4658203125
-33.87451171875
-30.21240234375
-30.21240234375
-32.958984375
-37.53662109375
-34.7900390625
-40.283203125
-32.958984375
-41.19873046875
-43.02978515625
-36.62109375
-28.38134765625
-43.02978515625
-37.53662109375
-32.958984375
-34.7900390625
-40.283203125
-50.35400390625
-50.35400390625
-48.52294921875
-43.9453125
-38.4521484375
-43.9453125
-43.02978515625
-43.9453125
-43.02978515625
-46.69189453125
-48.52294921875
-47.607421875
-49.4384765625
-45.7763671875
-43.02978515625
-41.19873046875
-46.69189453125
-57.67822265625
-61.34033203125
-62.255859375
-57.67822265625
-50.35400390625
-54.931640625
-43.02978515625
-52.18505859375
-48.52294921875
-54.01611328125
-58.59375
-61.34033203125
-64.0869140625
-63.17138671875
-56.7626953125
-51.26953125
-54.931640625
-50.35400390625
-44.86083984375
-53.1005859375
-60.4248046875
-62.255859375
-56.7626953125
-58.59375
-64.0869140625
-56.7626953125
-52.18505859375
-52.18505859375
-46.69189453125
-43.9453125
-45.7763671875
-43.02978515625
-40.283203125
-40.283203125
-47.607421875
-44.86083984375
-45.7763671875
-48.52294921875
-55.84716796875
-54.01611328125
-64.0869140625
-68.66455078125
-61.34033203125
-54.01611328125
-53.1005859375
-43.02978515625
-31.1279296875
-32.958984375
-21.97265625
-21.97265625
-26.55029296875
-24.71923828125
-16.4794921875
-12.8173828125
-8.23974609375
-15.56396484375
-21.97265625
-25.634765625
-32.958984375
-34.7900390625
-40.283203125
-51.26953125
-53.1005859375
-59.50927734375
-65.91796875
-71.4111328125
-72.32666015625
-65.91796875
-62.255859375
-77.81982421875
-75.98876953125
-84.228515625
-86.0595703125
-84.228515625
-84.228515625
-82.3974609375
-86.0595703125
-80.56640625
-86.0595703125
-86.97509765625
-86.0595703125
-82.3974609375
-86.97509765625
-80.56640625
-80.56640625
-75.98876953125
-74.15771484375
-77.81982421875
-74.15771484375
-75.0732421875
-77.81982421875
-78.7353515625
-72.32666015625
-75.98876953125
-79.65087890625
-75.0732421875
-71.4111328125
-69.580078125
-77.81982421875
-79.65087890625
-82.3974609375
-75.98876953125
-62.255859375
-47.607421875
-15.56396484375
14.6484375
62.255859375
107.11669921875
170.2880859375
217.8955078125
281.982421875
335.99853515625
403.74755859375
469.66552734375
518.1884765625
548.40087890625
559.38720703125
502.62451171875
380.859375
263.671875
130.92041015625
-13.73291015625
-126.3427734375
-183.10546875
-208.740234375
-209.65576171875
-192.2607421875
-179.443359375
-176.69677734375
-181.2744140625
-177.6123046875
-166.6259765625
-141.90673828125
-110.77880859375
-76.904296875
-57.67822265625
-53.1005859375
-41.19873046875
-32.958984375
-32.04345703125
-36.62109375
-31.1279296875
-20.1416015625
-16.4794921875
-22.88818359375
-17.39501953125
-9.1552734375
-7.32421875
-10.986328125
-6.40869140625
-8.23974609375
-2.74658203125
-8.23974609375
-6.40869140625
0
0.91552734375
-3.662109375
-6.40869140625
-5.4931640625
-2.74658203125
-3.662109375
5.4931640625
9.1552734375
7.32421875
10.07080078125
9.1552734375
10.986328125
17.39501953125
20.1416015625
12.8173828125
15.56396484375
14.6484375
21.05712890625
24.71923828125
30.21240234375
32.04345703125
31.1279296875
35.70556640625
33.87451171875
32.958984375
43.02978515625
40.283203125
45.7763671875
54.01611328125
59.50927734375
64.0869140625
68.66455078125
69.580078125
69.580078125
72.32666015625
72.32666015625
82.3974609375
86.0595703125
87.890625
94.29931640625
105.28564453125
115.3564453125
123.59619140625
122.6806640625
125.42724609375
132.75146484375
141.90673828125
153.80859375
161.1328125
172.119140625
179.443359375
192.2607421875
201.416015625
208.740234375
210.5712890625
218.81103515625
229.79736328125
239.8681640625
253.60107421875
260.009765625
270.08056640625
283.8134765625
282.89794921875
289.306640625
302.1240234375
309.4482421875
321.35009765625
326.84326171875
335.0830078125
345.15380859375
352.47802734375
365.29541015625
373.53515625
374.45068359375
375.3662109375
374.45068359375
376.28173828125
378.11279296875
380.859375
372.61962890625
372.61962890625
372.61962890625
367.12646484375
353.3935546875
339.66064453125
325.927734375
310.36376953125
300.29296875
279.23583984375
264.58740234375
250.8544921875
233.45947265625
216.064453125
196.83837890625
177.6123046875
151.06201171875
136.41357421875
121.76513671875
107.11669921875
90.63720703125
78.7353515625
70.49560546875
51.26953125
39.36767578125
25.634765625
15.56396484375
13.73291015625
6.40869140625
-4.57763671875
-8.23974609375
-14.6484375
-17.39501953125
-21.05712890625
-22.88818359375
-30.21240234375
-40.283203125
-37.53662109375
-38.4521484375
-43.9453125
-41.19873046875
-34.7900390625
-37.53662109375
-42.1142578125
-45.7763671875
-43.9453125
-43.9453125
-48.52294921875
-48.52294921875
-47.607421875
-43.9453125
-52.18505859375
-47.607421875
-51.26953125
-50.35400390625
-49.4384765625
-49.4384765625
-54.01611328125
-49.4384765625
-46.69189453125
-48.52294921875
-47.607421875
-45.7763671875
-48.52294921875
-47.607421875
-48.52294921875
-47.607421875
-47.607421875
-50.35400390625
-44.86083984375
-47.607421875
-52.18505859375
-39.36767578125
-41.19873046875
-43.02978515625
-46.69189453125
-43.9453125
-44.86083984375
-39.36767578125
-32.958984375
-39.36767578125
-41.19873046875
-38.4521484375
-33.87451171875
-38.4521484375
-40.283203125
-43.02978515625
-42.1142578125
-43.9453125
-45.7763671875
-35.70556640625
-31.1279296875
-40.283203125
-34.7900390625
-35.70556640625
-39.36767578125
-44.86083984375
-47.607421875
-43.9453125
-48.52294921875
-47.607421875
-41.19873046875
-35.70556640625
-40.283203125
-45.7763671875
-49.4384765625
-46.69189453125
-43.9453125
-48.52294921875
-50.35400390625
-43.02978515625
-36.62109375
-54.931640625
-52.18505859375
-49.4384765625
-53.1005859375
-51.26953125
-53.1005859375
-60.4248046875
-55.84716796875
-53.1005859375
-52.18505859375
-57.67822265625
-55.84716796875
-54.01611328125
-62.255859375
-61.34033203125
-58.59375
-61.34033203125
-56.7626953125
-54.931640625
-61.34033203125
-52.18505859375
-54.01611328125
-55.84716796875
-54.01611328125
-58.59375
-56.7626953125
-64.0869140625
-59.50927734375
-58.59375
-56.7626953125
-55.84716796875
-55.84716796875
-64.0869140625
-68.66455078125
-65.00244140625
-55.84716796875
-62.255859375
-65.91796875
-65.00244140625
-62.255859375
-54.01611328125
-61.34033203125
-59.50927734375
-65.00244140625
-62.255859375
-58.59375
-51.26953125
-50.35400390625
-43.02978515625
-34.7900390625
-34.7900390625
-32.04345703125
-32.958984375
-42.1142578125
-50.35400390625
-56.7626953125
-57.67822265625
-49.4384765625
-54.01611328125
-65.91796875
-60.4248046875
-50.35400390625
-51.26953125
-38.4521484375
-32.04345703125
-35.70556640625
-22.88818359375
-17.39501953125
-20.1416015625
-25.634765625
-16.4794921875
-10.986328125
-11.90185546875
-13.73291015625
-17.39501953125
-28.38134765625
-35.70556640625
-37.53662109375
-34.7900390625
-43.02978515625
-45.7763671875
-48.52294921875
-59.50927734375
-63.17138671875
-62.255859375
-71.4111328125
-74.15771484375
-78.7353515625
-80.56640625
-74.15771484375
-77.81982421875
-78.7353515625
-82.3974609375
-77.81982421875
-81.48193359375
-79.65087890625
-84.228515625
-85.14404296875
-84.228515625
-86.97509765625
-86.0595703125
-84.228515625
-76.904296875
-71.4111328125
-78.7353515625
-77.81982421875
-73.2421875
-71.4111328125
-69.580078125
-70.49560546875
-75.98876953125
-69.580078125
-69.580078125
-65.91796875
-71.4111328125
-72.32666015625
-74.15771484375
-73.2421875
-74.15771484375
-62.255859375
-53.1005859375
-40.283203125
-19.22607421875
10.07080078125
49.4384765625
88.80615234375
143.73779296875
203.2470703125
270.99609375
326.84326171875
391.845703125
466.00341796875
525.5126953125
558.4716796875
579.52880859375
537.41455078125
418.39599609375
294.7998046875
173.03466796875
35.70556640625
-84.228515625
-168.45703125
-218.81103515625
-224.30419921875
-217.8955078125
-199.5849609375
-188.5986328125
-196.83837890625
-174.86572265625
-163.87939453125
-136.41357421875
-113.525390625
-77.81982421875
-58.59375
-50.35400390625
-38.4521484375
-30.21240234375
-26.55029296875
-22.88818359375
-17.39501953125
-18.310546875
-12.8173828125
-16.4794921875
-19.22607421875
-19.22607421875
-19.22607421875
-16.4794921875
-13.73291015625
-15.56396484375
-14.6484375
-14.6484375
-7.32421875
-6.40869140625
-1.8310546875
-1.8310546875
0
2.74658203125
-0.91552734375
0
12.8173828125
14.6484375
13.73291015625
12.8173828125
17.39501953125
9.1552734375
12.8173828125
18.310546875
14.6484375
19.22607421875
24.71923828125
32.04345703125
32.958984375
29.296875
33.87451171875
34.7900390625
43.9453125
48.52294921875
38.4521484375
39.36767578125
54.01611328125
57.67822265625
58.59375
60.4248046875
63.17138671875
62.255859375
71.4111328125
80.56640625
80.56640625
82.3974609375
88.80615234375
96.13037109375
106.201171875
109.86328125
112.60986328125
114.44091796875
123.59619140625
133.6669921875
138.24462890625
142.822265625
152.89306640625
166.6259765625
167.54150390625
170.2880859375
181.2744140625
183.10546875
197.75390625
210.5712890625
218.81103515625
224.30419921875
238.95263671875
251.77001953125
257.26318359375
264.58740234375
271.91162109375
279.23583984375
281.982421875
293.88427734375
305.7861328125
312.19482421875
323.18115234375
332.33642578125
341.49169921875
341.49169921875
348.81591796875
359.80224609375
361.63330078125
375.3662109375
385.43701171875
390.0146484375
392.76123046875
394.59228515625
397.3388671875
397.3388671875
391.845703125
389.09912109375
380.859375
372.61962890625
368.95751953125
355.224609375
344.23828125
325.927734375
314.94140625
297.54638671875
278.3203125
252.685546875
235.29052734375
216.97998046875
199.5849609375
184.02099609375
158.38623046875
139.16015625
125.42724609375
114.44091796875
95.21484375
84.228515625
72.32666015625
56.7626953125
49.4384765625
31.1279296875
23.8037109375
15.56396484375
12.8173828125
0
-4.57763671875
-8.23974609375
-10.07080078125
-16.4794921875
-14.6484375
-19.22607421875
-24.71923828125
-24.71923828125
-25.634765625
-31.1279296875
-32.04345703125
-43.9453125
-39.36767578125
-43.9453125
-40.283203125
-41.19873046875
-42.1142578125
-42.1142578125
-43.9453125
-40.283203125
-39.36767578125
-45.7763671875
-41.19873046875
-41.19873046875
-49.4384765625
-46.69189453125
-30.21240234375
-36.62109375
-43.02978515625
-38.4521484375
-42.1142578125
-43.02978515625
-37.53662109375
-39.36767578125
-39.36767578125
-30.21240234375
-38.4521484375
-37.53662109375
-30.21240234375
-38.4521484375
-37.53662109375
-37.53662109375
-37.53662109375
-34.7900390625
-29.296875
-34.7900390625
-35.70556640625
-31.1279296875
-28.38134765625
-33.87451171875
-32.958984375
-32.958984375
-36.62109375
-39.36767578125
-37.53662109375
-34.7900390625
-33.87451171875
-29.296875
-30.21240234375
-32.958984375
-39.36767578125
-34.7900390625
-33.87451171875
-29.296875
-32.958984375
-32.04345703125
-25.634765625
-28.38134765625
-32.04345703125
-29.296875
-36.62109375
-38.4521484375
-40.283203125
-45.7763671875
-42.1142578125
-38.4521484375
-42.1142578125
-37.53662109375
-39.36767578125
-46.69189453125
-41.19873046875
-39.36767578125
-43.9453125
-46.69189453125
-46.69189453125
-45.7763671875
-45.7763671875
-45.7763671875
-38.4521484375
-38.4521484375
-43.9453125
-48.52294921875
-44.86083984375
-43.9453125
-54.01611328125
-53.1005859375
-49.4384765625
-48.52294921875
-58.59375
-59.50927734375
-54.931640625
-61.34033203125
-61.34033203125
-60.4248046875
-55.84716796875
-55.84716796875
-55.84716796875
-62.255859375
-57.67822265625
-60.4248046875
-64.0869140625
-62.255859375
-60.4248046875
-65.00244140625
-61.34033203125
-61.34033203125
-62.255859375
-53.1005859375
-53.1005859375
-52.18505859375
-56.7626953125
-54.01611328125
-49.4384765625
-45.7763671875
-45.7763671875
-49.4384765625
-43.9453125
-43.9453125
-44.86083984375
-53.1005859375
-62.255859375
-65.00244140625
-57.67822265625
-70.49560546875
-69.580078125
-63.17138671875
-52.18505859375
-40.283203125
-42.1142578125
-30.21240234375
-28.38134765625
-23.8037109375
-32.04345703125
-35.70556640625
-33.87451171875
-18.310546875
-9.1552734375
0.91552734375
-10.986328125
-20.1416015625
-22.88818359375
-41.19873046875
-39.36767578125
-46.69189453125
-44.86083984375
-54.01611328125
-53.1005859375
-63.17138671875
-60.4248046875
-62.255859375
-72.32666015625
-78.7353515625
-79.65087890625
-79.65087890625
-87.890625
-86.0595703125
-80.56640625
-79.65087890625
-76.904296875
-82.3974609375
-86.0595703125
-86.97509765625
-86.97509765625
-87.890625
-86.97509765625
-86.97509765625
-76.904296875
-85.14404296875
-78.7353515625
-71.4111328125
-79.65087890625
-72.32666015625
-70.49560546875
-75.0732421875
-72.32666015625
-65.00244140625
-69.580078125
-70.49560546875
-68.66455078125
-72.32666015625
-73.2421875
-74.15771484375
-74.15771484375
-73.2421875
-65.91796875
-57.67822265625
-48.52294921875
-14.6484375
18.310546875
58.59375
115.3564453125
171.20361328125
238.037109375
297.54638671875
361.63330078125
434.87548828125
482.48291015625
518.1884765625
533.75244140625
527.34375
417.48046875
305.7861328125
168.45703125
27.4658203125
-112.60986328125
-190.4296875
-222.47314453125
-223.388671875
-216.064453125
-203.2470703125
-186.767578125
-184.9365234375
-195.00732421875
-202.33154296875
-197.75390625
-161.1328125
-138.24462890625
-105.28564453125
-76.904296875
-59.50927734375
-57.67822265625
-52.18505859375
-46.69189453125
-47.607421875
-43.02978515625
-30.21240234375
-34.7900390625
-32.04345703125
-18.310546875
-19.22607421875
-21.05712890625
-19.22607421875
-21.05712890625
-16.4794921875
-12.8173828125
-10.986328125
-13.73291015625
-6.40869140625
-5.4931640625
-1.8310546875
-8.23974609375
-9.1552734375
-9.1552734375
-5.4931640625
-1.8310546875
0.91552734375
2.74658203125
4.57763671875
4.57763671875
3.662109375
4.57763671875
11.90185546875
10.986328125
8.23974609375
12.8173828125
21.97265625
22.88818359375
23.8037109375
26.55029296875
28.38134765625
29.296875
22.88818359375
34.7900390625
36.62109375
41.19873046875
39.36767578125
43.02978515625
45.7763671875
52.18505859375
54.931640625
54.931640625
58.59375
66.83349609375
71.4111328125
76.904296875
83.31298828125
86.0595703125
94.29931640625
97.96142578125
104.3701171875
112.60986328125
115.3564453125
119.0185546875
131.8359375
145.56884765625
155.6396484375
162.04833984375
175.78125
179.443359375
180.35888671875
184.02099609375
184.02099609375
199.5849609375
216.064453125
230.712890625
235.29052734375
237.12158203125
249.0234375
260.92529296875
276.4892578125
283.8134765625
295.71533203125
300.29296875
314.02587890625
325.927734375
320.4345703125
332.33642578125
339.66064453125
345.15380859375
357.0556640625
361.63330078125
358.88671875
363.46435546875
362.548828125
360.7177734375
360.7177734375
364.3798828125
368.0419921875
360.7177734375
349.7314453125
338.7451171875
330.50537109375
320.4345703125
314.94140625
297.54638671875
285.64453125
265.5029296875
246.27685546875
229.79736328125
205.078125
182.18994140625
159.3017578125
141.90673828125
135.498046875
119.0185546875
98.876953125
87.890625
67.7490234375
53.1005859375
39.36767578125
21.97265625
17.39501953125
0.91552734375
-13.73291015625
-21.97265625
-29.296875
-25.634765625
-30.21240234375
-39.36767578125
-38.4521484375
-50.35400390625
-48.52294921875
-60.4248046875
-62.255859375
-72.32666015625
-72.32666015625
-68.66455078125
-67.7490234375
-65.00244140625
-62.255859375
-68.66455078125
-75.0732421875
-77.81982421875
-75.98876953125
-74.15771484375
-77.81982421875
-75.0732421875
-73.2421875
-72.32666015625
-76.904296875
-80.56640625
-78.7353515625
-78.7353515625
-76.904296875
-74.15771484375
-71.4111328125
-69.580078125
-68.66455078125
-65.00244140625
-65.91796875
-75.98876953125
-77.81982421875
-78.7353515625
-75.98876953125
-70.49560546875
-69.580078125
-70.49560546875
-76.904296875
-72.32666015625
-75.0732421875
-75.0732421875
-76.904296875
-82.3974609375
-81.48193359375
-79.65087890625
-80.56640625
-82.3974609375
-77.81982421875
-76.904296875
-75.98876953125
-68.66455078125
-75.0732421875
-75.0732421875
-71.4111328125
-76.904296875
-77.81982421875
-78.7353515625
-74.15771484375
-79.65087890625
-81.48193359375
-83.31298828125
-76.904296875
-80.56640625
-77.81982421875
-82.3974609375
-80.56640625
-83.31298828125
-81.48193359375
-78.7353515625
-82.3974609375
-86.0595703125
-86.0595703125
-89.7216796875
-87.890625
-89.7216796875
-88.80615234375
-89.7216796875
-91.552734375
-92.46826171875
-95.21484375
-97.96142578125
-94.29931640625
-95.21484375
-96.13037109375
-92.46826171875
-89.7216796875
-92.46826171875
-91.552734375
-94.29931640625
-99.79248046875
-92.46826171875
-90.63720703125
-98.876953125
-99.79248046875
-93.3837890625
-97.0458984375
-92.46826171875
-96.13037109375
-96.13037109375
-101.62353515625
-97.96142578125
-97.96142578125
-94.29931640625
-94.29931640625
-98.876953125
-88.80615234375
-77.81982421875
-80.56640625
-81.48193359375
-86.0595703125
-86.0595703125
-82.3974609375
-84.228515625
-86.97509765625
-99.79248046875
-97.0458984375
-100.7080078125
-97.0458984375
-107.11669921875
-105.28564453125
-105.28564453125
-101.62353515625
-96.13037109375
-81.48193359375
-81.48193359375
-68.66455078125
-56.7626953125
-57.67822265625
-70.49560546875
-72.32666015625
-61.34033203125
-62.255859375
-51.26953125
-56.7626953125
-71.4111328125
-75.0732421875
-75.98876953125
-75.98876953125
-86.0595703125
-93.3837890625
-102.5390625
-110.77880859375
-114.44091796875
-114.44091796875
-112.60986328125
-118.10302734375
-118.10302734375
-118.10302734375
-120.849609375
-122.6806640625
-130.0048828125
-128.173828125
-128.173828125
-128.173828125
-125.42724609375
-124.51171875
-127.25830078125
-128.173828125
-124.51171875
-128.173828125
-129.08935546875
-133.6669921875
-125.42724609375
-127.25830078125
-124.51171875
-121.76513671875
-125.42724609375
-120.849609375
-118.10302734375
-116.27197265625
-119.93408203125
-125.42724609375
-116.27197265625
-118.10302734375
-124.51171875
-125.42724609375
-121.76513671875
-125.42724609375
-121.76513671875
-102.5390625
-90.63720703125
-70.49560546875
-34.7900390625
-1.8310546875
44.86083984375
96.13037109375
156.55517578125
234.375
288.39111328125
350.64697265625
404.6630859375
457.763671875
484.31396484375
508.11767578125
457.763671875
334.16748046875
214.2333984375
83.31298828125
-49.4384765625
-176.69677734375
-237.12158203125
-278.3203125
-280.1513671875
-260.009765625
-249.93896484375
-241.69921875
-247.1923828125
-250.8544921875
-239.8681640625
-223.388671875
-192.2607421875
-166.6259765625
-139.16015625
-121.76513671875
-113.525390625
-104.3701171875
-102.5390625
-92.46826171875
-91.552734375
-90.63720703125
-89.7216796875
-85.14404296875
-82.3974609375
-82.3974609375
-79.65087890625
-71.4111328125
-67.7490234375
-74.15771484375
-74.15771484375
-71.4111328125
-71.4111328125
-71.4111328125
-71.4111328125
-65.91796875
-68.66455078125
-70.49560546875
-63.17138671875
-54.931640625
-58.59375
-63.17138671875
-62.255859375
-60.4248046875
-62.255859375
-53.1005859375
-54.01611328125
-58.59375
-47.607421875
-42.1142578125
-53.1005859375
-46.69189453125
-48.52294921875
-34.7900390625
-32.958984375
-43.02978515625
-38.4521484375
-28.38134765625
-24.71923828125
-19.22607421875
-18.310546875
-16.4794921875
-22.88818359375
-19.22607421875
-11.90185546875
-7.32421875
-1.8310546875
-4.57763671875
-0.91552734375
9.1552734375
15.56396484375
17.39501953125
23.8037109375
23.8037109375
31.1279296875
35.70556640625
43.02978515625
56.7626953125
65.91796875
70.49560546875
78.7353515625
86.0595703125
92.46826171875
99.79248046875
108.0322265625
114.44091796875
127.25830078125
137.3291015625
147.39990234375
152.89306640625
162.9638671875
173.03466796875
184.02099609375
195.00732421875
199.5849609375
211.48681640625
222.47314453125
224.30419921875
235.29052734375
246.27685546875
256.34765625
255.43212890625
270.08056640625
275.57373046875
269.1650390625
282.89794921875
298.4619140625
302.1240234375
309.4482421875
311.279296875
314.02587890625
314.94140625
308.53271484375
303.955078125
303.03955078125
290.22216796875
287.4755859375
281.06689453125
269.1650390625
257.26318359375
238.95263671875
214.2333984375
196.83837890625
178.52783203125
164.794921875
150.146484375
126.3427734375
108.0322265625
90.63720703125
74.15771484375
57.67822265625
40.283203125
23.8037109375
6.40869140625
-5.4931640625
-24.71923828125
-35.70556640625
-48.52294921875
-53.1005859375
-58.59375
-65.91796875
-80.56640625
-85.14404296875
-99.79248046875
-99.79248046875
-97.0458984375
-97.0458984375
-108.0322265625
-108.94775390625
-114.44091796875
-108.94775390625
-119.93408203125
-119.93408203125
-118.10302734375
-112.60986328125
-124.51171875
-119.0185546875
-122.6806640625
-128.173828125
-123.59619140625
-121.76513671875
-121.76513671875
-127.25830078125
-133.6669921875
-127.25830078125
-127.25830078125
-122.6806640625
-123.59619140625
-120.849609375
-119.93408203125
-119.93408203125
-126.3427734375
-128.173828125
-131.8359375
-123.59619140625
-122.6806640625
-126.3427734375
-129.08935546875
-121.76513671875
-123.59619140625
-121.76513671875
-118.10302734375
-116.27197265625
-119.93408203125
-115.3564453125
-123.59619140625
-121.76513671875
-101.62353515625
-110.77880859375
-128.173828125
-108.94775390625
-112.60986328125
-116.27197265625
-114.44091796875
-105.28564453125
-119.0185546875
-123.59619140625
-119.0185546875
-117.1875
-117.1875
-118.10302734375
-120.849609375
-121.76513671875
-121.76513671875
-118.10302734375
-120.849609375
-119.0185546875
-118.10302734375
-122.6806640625
-120.849609375
-122.6806640625
-121.76513671875
-126.3427734375
-122.6806640625
-122.6806640625
-124.51171875
-125.42724609375
-121.76513671875
-121.76513671875
-119.0185546875
-117.1875
-115.3564453125
-115.3564453125
-128.173828125
-123.59619140625
-128.173828125
-129.08935546875
-120.849609375
-129.08935546875
-130.0048828125
-125.42724609375
-129.08935546875
-134.58251953125
-134.58251953125
-132.75146484375
-131.8359375
-137.3291015625
-135.498046875
-140.07568359375
-132.75146484375
-134.58251953125
-137.3291015625
-140.07568359375
-139.16015625
-137.3291015625
-135.498046875
-137.3291015625
-140.07568359375
-137.3291015625
-134.58251953125
-131.8359375
-136.41357421875
-138.24462890625
-136.41357421875
-135.498046875
-143.73779296875
-141.90673828125
-133.6669921875
-139.16015625
-132.75146484375
-125.42724609375
-122.6806640625
-120.849609375
-112.60986328125
-107.11669921875
-100.7080078125
-103.45458984375
-105.28564453125
-104.3701171875
-108.0322265625
-114.44091796875
-115.3564453125
-128.173828125
-124.51171875
-126.3427734375
-121.76513671875
-107.11669921875
-98.876953125
-92.46826171875
-83.31298828125
-75.0732421875
-70.49560546875
-71.4111328125
-75.98876953125
-76.904296875
-70.49560546875
-76.904296875
-82.3974609375
-82.3974609375
-83.31298828125
-81.48193359375
-85.14404296875
-93.3837890625
-103.45458984375
-109.86328125
-121.76513671875
-131.8359375
-129.08935546875
-143.73779296875
-151.9775390625
-155.6396484375
-153.80859375
-162.9638671875
-157.470703125
-165.71044921875
-171.20361328125
-158.38623046875
-157.470703125
-162.04833984375
-160.21728515625
-163.87939453125
-163.87939453125
-166.6259765625
-160.21728515625
-165.71044921875
-171.20361328125
-166.6259765625
-164.794921875
-159.3017578125
-161.1328125
-165.71044921875
-163.87939453125
-164.794921875
-162.9638671875
-162.9638671875
-160.21728515625
-162.9638671875
-163.87939453125
-162.9638671875
-158.38623046875
-161.1328125
-167.54150390625
-171.20361328125
-167.54150390625
-160.21728515625
-151.06201171875
-132.75146484375
-106.201171875
-74.15771484375
-38.4521484375
3.662109375
59.50927734375
122.6806640625
179.443359375
236.2060546875
298.4619140625
368.95751953125
432.12890625
454.1015625
479.736328125
451.35498046875
340.576171875
207.82470703125
94.29931640625
-43.9453125
-184.02099609375
-261.8408203125
-316.7724609375
-324.0966796875
-314.02587890625
-304.87060546875
-286.56005859375
-292.05322265625
-283.8134765625
-268.24951171875
-247.1923828125
-217.8955078125
-185.85205078125
-164.794921875
-148.3154296875
-140.07568359375
-136.41357421875
-130.92041015625
-124.51171875
-126.3427734375
-130.92041015625
-119.0185546875
-116.27197265625
-120.849609375
-117.1875
-108.0322265625
-108.94775390625
-116.27197265625
-116.27197265625
-115.3564453125
-112.60986328125
-106.201171875
-100.7080078125
-105.28564453125
-100.7080078125
-98.876953125
-99.79248046875
-97.0458984375
-95.21484375
-96.13037109375
-89.7216796875
-85.14404296875
-97.96142578125
-84.228515625
-77.81982421875
-82.3974609375
-84.228515625
-79.65087890625
-78.7353515625
-81.48193359375
-74.15771484375
-67.7490234375
-69.580078125
-65.91796875
-64.0869140625
-62.255859375
-57.67822265625
-57.67822265625
-54.01611328125
-56.7626953125
-45.7763671875
-34.7900390625
-40.283203125
-39.36767578125
-24.71923828125
-21.05712890625
-14.6484375
-21.05712890625
-17.39501953125
-17.39501953125
-10.07080078125
-2.74658203125
-1.8310546875
4.57763671875
13.73291015625
19.22607421875
24.71923828125
29.296875
37.53662109375
44.86083984375
54.931640625
62.255859375
78.7353515625
86.97509765625
87.890625
97.0458984375
106.201171875
123.59619140625
128.173828125
137.3291015625
148.3154296875
161.1328125
173.03466796875
185.85205078125
194.091796875
205.99365234375
215.14892578125
215.14892578125
225.2197265625
227.96630859375
233.45947265625
245.361328125
259.09423828125
262.75634765625
268.24951171875
274.658203125
282.89794921875
284.72900390625
292.96875
292.05322265625
299.37744140625
295.71533203125
299.37744140625
302.1240234375
295.71533203125
290.22216796875
275.57373046875
258.1787109375
247.1923828125
228.8818359375
215.14892578125
197.75390625
188.5986328125
163.87939453125
149.23095703125
127.25830078125
112.60986328125
88.80615234375
63.17138671875
52.18505859375
43.02978515625
20.1416015625
5.4931640625
-3.662109375
-11.90185546875
-36.62109375
-47.607421875
-58.59375
-67.7490234375
-87.890625
-84.228515625
-87.890625
-101.62353515625
-107.11669921875
-101.62353515625
-108.94775390625
-114.44091796875
-118.10302734375
-125.42724609375
-125.42724609375
-120.849609375
-126.3427734375
-129.08935546875
-133.6669921875
-128.173828125
-129.08935546875
-127.25830078125
-129.08935546875
-136.41357421875
-130.92041015625
-133.6669921875
-140.9912109375
-142.822265625
-139.16015625
-138.24462890625
-139.16015625
-136.41357421875
-140.07568359375
-144.6533203125
-139.16015625
-132.75146484375
-128.173828125
-132.75146484375
-134.58251953125
-130.92041015625
-134.58251953125
-133.6669921875
-137.3291015625
-141.90673828125
-139.16015625
-140.07568359375
-133.6669921875
-132.75146484375
-131.8359375
-134.58251953125
-124.51171875
-125.42724609375
-133.6669921875
-129.08935546875
-131.8359375
-132.75146484375
-133.6669921875
-130.92041015625
-129.08935546875
-134.58251953125
-131.8359375
-127.25830078125
-130.0048828125
-132.75146484375
-137.3291015625
-136.41357421875
-125.42724609375
-122.6806640625
-126.3427734375
-130.92041015625
-127.25830078125
-126.3427734375
-129.08935546875
-137.3291015625
-135.498046875
-134.58251953125
-133.6669921875
-130.92041015625
-129.08935546875
-138.24462890625
-131.8359375
-131.8359375
-143.73779296875
-141.90673828125
-144.6533203125
-142.822265625
-138.24462890625
-140.07568359375
-139.16015625
-139.16015625
-135.498046875
-136.41357421875
-143.73779296875
-144.6533203125
-142.822265625
-146.484375
-143.73779296875
-144.6533203125
-139.16015625
-136.41357421875
-144.6533203125
-146.484375
-151.06201171875
-151.9775390625
-148.3154296875
-155.6396484375
-156.55517578125
-148.3154296875
-146.484375
-151.06201171875
-151.06201171875
-157.470703125
-158.38623046875
-157.470703125
-155.6396484375
-155.6396484375
-156.55517578125
-153.80859375
-156.55517578125
-155.6396484375
-150.146484375
-144.6533203125
-150.146484375
-159.3017578125
-158.38623046875
-148.3154296875
-150.146484375
-157.470703125
-151.06201171875
-144.6533203125
-139.16015625
-140.9912109375
-133.6669921875
-130.92041015625
-121.76513671875
-119.0185546875
-120.849609375
-120.849609375
-127.25830078125
-129.08935546875
-126.3427734375
-126.3427734375
-143.73779296875
-149.23095703125
-141.90673828125
-131.8359375
-122.6806640625
-116.27197265625
-101.62353515625
-87.890625
-80.56640625
-75.98876953125
-84.228515625
-86.97509765625
-83.31298828125
-88.80615234375
-104.3701171875
-97.0458984375
-88.80615234375
-92.46826171875
-97.96142578125
-100.7080078125
-108.0322265625
-117.1875
-125.42724609375
-134.58251953125
-147.39990234375
-156.55517578125
-162.9638671875
-163.87939453125
-168.45703125
-168.45703125
-170.2880859375
-170.2880859375
-183.10546875
-177.6123046875
-182.18994140625
-180.35888671875
-177.6123046875
-177.6123046875
-176.69677734375
-170.2880859375
-170.2880859375
-175.78125
-179.443359375
-179.443359375
-175.78125
-182.18994140625
-179.443359375
-175.78125
-173.9501953125
-176.69677734375
-176.69677734375
-169.37255859375
-171.20361328125
-170.2880859375
-169.37255859375
-170.2880859375
-171.20361328125
-166.6259765625
-164.794921875
-166.6259765625
-168.45703125
-167.54150390625
-160.21728515625
-140.07568359375
-128.173828125
-110.77880859375
-67.7490234375
-32.04345703125
12.8173828125
69.580078125
120.849609375
185.85205078125
236.2060546875
302.1240234375
371.7041015625
426.6357421875
461.42578125
476.98974609375
417.48046875
302.1240234375
180.35888671875
58.59375
-75.0732421875
-205.078125
-272.8271484375
-312.19482421875
-313.1103515625
-305.7861328125
-298.4619140625
-281.982421875
-281.06689453125
-283.8134765625
-264.58740234375
-245.361328125
-218.81103515625
-189.51416015625
-164.794921875
-147.39990234375
-137.3291015625
-134.58251953125
-136.41357421875
-133.6669921875
-125.42724609375
-119.93408203125
-114.44091796875
-118.10302734375
-107.11669921875
-107.11669921875
-115.3564453125
-113.525390625
-110.77880859375
-114.44091796875
-111.6943359375
-111.6943359375
-107.11669921875
-102.5390625
-97.0458984375
-98.876953125
-99.79248046875
-104.3701171875
-103.45458984375
-103.45458984375
-97.96142578125
-92.46826171875
-94.29931640625
-87.890625
-91.552734375
-83.31298828125
-78.7353515625
-71.4111328125
-81.48193359375
-86.97509765625
-86.0595703125
-77.81982421875
-68.66455078125
-58.59375
-55.84716796875
-59.50927734375
-59.50927734375
-54.931640625
-54.01611328125
-51.26953125
-50.35400390625
-43.9453125
-34.7900390625
-30.21240234375
-33.87451171875
-21.05712890625
-16.4794921875
-17.39501953125
-15.56396484375
-6.40869140625
-6.40869140625
2.74658203125
8.23974609375
7.32421875
16.4794921875
22.88818359375
26.55029296875
31.1279296875
37.53662109375
45.7763671875
50.35400390625
65.00244140625
67.7490234375
75.98876953125
84.228515625
96.13037109375
105.28564453125
119.93408203125
135.498046875
130.92041015625
143.73779296875
156.55517578125
161.1328125
177.6123046875
191.34521484375
204.16259765625
213.31787109375
224.30419921875
232.5439453125
237.12158203125
243.5302734375
255.43212890625
258.1787109375
264.58740234375
270.08056640625
280.1513671875
288.39111328125
292.05322265625
285.64453125
293.88427734375
302.1240234375
299.37744140625
303.03955078125
313.1103515625
304.87060546875
297.54638671875
290.22216796875
287.4755859375
270.99609375
257.26318359375
230.712890625
231.62841796875
213.31787109375
188.5986328125
177.6123046875
159.3017578125
145.56884765625
119.0185546875
96.13037109375
74.15771484375
58.59375
34.7900390625
21.05712890625
14.6484375
-0.91552734375
-17.39501953125
-25.634765625
-29.296875
-50.35400390625
-65.00244140625
-70.49560546875
-75.98876953125
-78.7353515625
-85.14404296875
-98.876953125
-97.0458984375
-97.0458984375
-101.62353515625
-108.0322265625
-107.11669921875
-111.6943359375
-114.44091796875
-118.10302734375
-125.42724609375
-120.849609375
-119.0185546875
-126.3427734375
-125.42724609375
-126.3427734375
-129.08935546875
-133.6669921875
-131.8359375
-135.498046875
-130.92041015625
-136.41357421875
-133.6669921875
-127.25830078125
-130.0048828125
-129.08935546875
-123.59619140625
-134.58251953125
-122.6806640625
-120.849609375
-122.6806640625
-124.51171875
-125.42724609375
-124.51171875
-124.51171875
-125.42724609375
-126.3427734375
-124.51171875
-119.93408203125
-119.0185546875
-126.3427734375
-115.3564453125
-112.60986328125
-111.6943359375
-116.27197265625
-119.0185546875
-117.1875
-120.849609375
-121.76513671875
-119.93408203125
-123.59619140625
-131.8359375
-121.76513671875
-122.6806640625
-114.44091796875
-126.3427734375
-119.0185546875
-125.42724609375
-117.1875
-119.93408203125
-123.59619140625
-122.6806640625
-123.59619140625
-119.0185546875
-121.76513671875
-119.0185546875
-129.08935546875
-128.173828125
-129.08935546875
-123.59619140625
-130.0048828125
-131.8359375
-123.59619140625
-123.59619140625
-127.25830078125
-125.42724609375
-120.849609375
-128.173828125
-133.6669921875
-129.08935546875
-133.6669921875
-139.16015625
-134.58251953125
-129.08935546875
-130.0048828125
-126.3427734375
-127.25830078125
-139.16015625
-139.16015625
-135.498046875
-130.92041015625
-130.92041015625
-130.92041015625
-127.25830078125
-129.08935546875
-131.8359375
-132.75146484375
-137.3291015625
-140.07568359375
-139.16015625
-135.498046875
-134.58251953125
-132.75146484375
-127.25830078125
-133.6669921875
-146.484375
-148.3154296875
-146.484375
-140.9912109375
-140.07568359375
-139.16015625
-137.3291015625
-130.92041015625
-132.75146484375
-136.41357421875
-140.07568359375
-136.41357421875
-121.76513671875
-114.44091796875
-107.11669921875
-107.11669921875
-112.60986328125
-108.94775390625
-114.44091796875
-118.10302734375
-124.51171875
-119.93408203125
-126.3427734375
-128.173828125
-126.3427734375
-129.08935546875
-118.10302734375
-115.3564453125
-98.876953125
-81.48193359375
-87.890625
-84.228515625
-78.7353515625
-73.2421875
-71.4111328125
-64.0869140625
-70.49560546875
-77.81982421875
-77.81982421875
-75.98876953125
-81.48193359375
-82.3974609375
-87.890625
-90.63720703125
-99.79248046875
-102.5390625
-105.28564453125
-117.1875
-126.3427734375
-140.07568359375
-144.6533203125
-150.146484375
-150.146484375
-151.06201171875
-151.9775390625
-156.55517578125
-156.55517578125
-161.1328125
-159.3017578125
-162.9638671875
-161.1328125
-162.04833984375
-155.6396484375
-159.3017578125
-162.04833984375
-161.1328125
-160.21728515625
-158.38623046875
-159.3017578125
-162.9638671875
-164.794921875
-161.1328125
-156.55517578125
-157.470703125
-152.89306640625
-153.80859375
-152.89306640625
-155.6396484375
-151.06201171875
-146.484375
-151.9775390625
-149.23095703125
-152.89306640625
-156.55517578125
-156.55517578125
-147.39990234375
-139.16015625
-131.8359375
-124.51171875
-99.79248046875
-59.50927734375
-22.88818359375
26.55029296875
81.48193359375
147.39990234375
205.99365234375
264.58740234375
341.49169921875
399.169921875
435.791015625
454.1015625
440.36865234375
346.98486328125
231.62841796875
101.62353515625
-36.62109375
-175.78125
-246.27685546875
-292.05322265625
-295.71533203125
-290.22216796875
-281.982421875
-260.92529296875
-257.26318359375
-267.333984375
-273.74267578125
-265.5029296875
-236.2060546875
-213.31787109375
-187.68310546875
-167.54150390625
-147.39990234375
-135.498046875
-127.25830078125
-128.173828125
-118.10302734375
-119.93408203125
-119.93408203125
-119.0185546875
-111.6943359375
-108.0322265625
-112.60986328125
-104.3701171875
-99.79248046875
-93.3837890625
-89.7216796875
-90.63720703125
-90.63720703125
-91.552734375
-86.97509765625
-81.48193359375
-83.31298828125
-87.890625
-81.48193359375
-85.14404296875
-82.3974609375
-81.48193359375
-77.81982421875
-82.3974609375
-78.7353515625
-75.98876953125
-77.81982421875
-78.7353515625
-75.98876953125
-71.4111328125
-60.4248046875
-58.59375
-62.255859375
-57.67822265625
-51.26953125
-50.35400390625
-50.35400390625
-47.607421875
-45.7763671875
-47.607421875
-37.53662109375
-29.296875
-20.1416015625
-24.71923828125
-18.310546875
-10.986328125
-21.97265625
-7.32421875
-6.40869140625
4.57763671875
14.6484375
13.73291015625
21.05712890625
26.55029296875
24.71923828125
31.1279296875
42.1142578125
46.69189453125
43.9453125
51.26953125
62.255859375
77.81982421875
81.48193359375
99.79248046875
100.7080078125
103.45458984375
114.44091796875
115.3564453125
129.08935546875
144.6533203125
151.9775390625
164.794921875
177.6123046875
186.767578125
195.00732421875
203.2470703125
204.16259765625
220.64208984375
228.8818359375
240.78369140625
249.93896484375
257.26318359375
266.41845703125
273.74267578125
279.23583984375
279.23583984375
286.56005859375
296.630859375
295.71533203125
300.29296875
311.279296875
313.1103515625
310.36376953125
309.4482421875
308.53271484375
301.20849609375
284.72900390625
285.64453125
283.8134765625
270.99609375
254.5166015625
245.361328125
220.64208984375
215.14892578125
195.9228515625
162.9638671875
140.07568359375
125.42724609375
108.94775390625
91.552734375
79.65087890625
55.84716796875
44.86083984375
28.38134765625
13.73291015625
-3.662109375
-9.1552734375
-25.634765625
-40.283203125
-46.69189453125
-52.18505859375
-60.4248046875
-68.66455078125
-79.65087890625
-88.80615234375
-94.29931640625
-103.45458984375
-99.79248046875
-106.201171875
-96.13037109375
-103.45458984375
-102.5390625
-112.60986328125
-111.6943359375
-109.86328125
-112.60986328125
-114.44091796875
-118.10302734375
-121.76513671875
-112.60986328125
-110.77880859375
-114.44091796875
-118.10302734375
-118.10302734375
-118.10302734375
-119.0185546875
-121.76513671875
-118.10302734375
-120.849609375
-125.42724609375
-117.1875
-113.525390625
-118.10302734375
-113.525390625
-109.86328125
-109.86328125
-116.27197265625
-119.0185546875
-118.10302734375
-113.525390625
-116.27197265625
-114.44091796875
-110.77880859375
-113.525390625
-114.44091796875
-109.86328125
-108.0322265625
-118.10302734375
-117.1875
-108.94775390625
-107.11669921875
-107.11669921875
-108.94775390625
-106.201171875
-99.79248046875
-99.79248046875
-106.201171875
-111.6943359375
-104.3701171875
-96.13037109375
-101.62353515625
-103.45458984375
-101.62353515625
-100.7080078125
-104.3701171875
-109.86328125
-115.3564453125
-116.27197265625
-109.86328125
-113.525390625
-107.11669921875
-104.3701171875
-107.11669921875
-106.201171875
-108.94775390625
-108.94775390625
-108.94775390625
-106.201171875
-108.0322265625
-111.6943359375
-113.525390625
-115.3564453125
-114.44091796875
-115.3564453125
-120.849609375
-123.59619140625
-119.93408203125
-119.93408203125
-122.6806640625
-127.25830078125
-119.0185546875
-119.0185546875
-119.93408203125
-114.44091796875
-115.3564453125
-122.6806640625
-128.173828125
-121.76513671875
-120.849609375
-117.1875
-121.76513671875
-118.10302734375
-120.849609375
-122.6806640625
-119.93408203125
-126.3427734375
-130.0048828125
-128.173828125
-129.08935546875
-126.3427734375
-124.51171875
-119.0185546875
-108.94775390625
-104.3701171875
-94.29931640625
-101.62353515625
-97.96142578125
-94.29931640625
-90.63720703125
-93.3837890625
-102.5390625
-106.201171875
-97.0458984375
-103.45458984375
-110.77880859375
-115.3564453125
-115.3564453125
-99.79248046875
-86.0595703125
-75.0732421875
-67.7490234375
-56.7626953125
-51.26953125
-56.7626953125
-61.34033203125
-62.255859375
-65.91796875
-68.66455078125
-63.17138671875
-60.4248046875
-61.34033203125
-64.0869140625
-59.50927734375
-67.7490234375
-80.56640625
-90.63720703125
-97.96142578125
-104.3701171875
-121.76513671875
-114.44091796875
-121.76513671875
-130.0048828125
-126.3427734375
-126.3427734375
-131.8359375
-133.6669921875
-138.24462890625
-141.90673828125
-138.24462890625
-141.90673828125
-145.56884765625
-135.498046875
-140.9912109375
-137.3291015625
-145.56884765625
-148.3154296875
-152.89306640625
-149.23095703125
-137.3291015625
-139.16015625
-140.9912109375
-134.58251953125
-136.41357421875
-129.08935546875
-131.8359375
-144.6533203125
-145.56884765625
-135.498046875
-133.6669921875
-127.25830078125
-133.6669921875
-128.173828125
-125.42724609375
-124.51171875
-123.59619140625
-126.3427734375
-122.6806640625
-107.11669921875
-88.80615234375
-53.1005859375
-19.22607421875
29.296875
86.0595703125
149.23095703125
213.31787109375
257.26318359375
327.7587890625
397.3388671875
455.01708984375
487.060546875
504.45556640625
475.15869140625
357.97119140625
242.61474609375
97.96142578125
-49.4384765625
-183.10546875
-252.685546875
-280.1513671875
-279.23583984375
-262.75634765625
-254.5166015625
-251.77001953125
-248.10791015625
-252.685546875
-249.93896484375
-228.8818359375
-207.82470703125
-168.45703125
-143.73779296875
-135.498046875
-115.3564453125
-105.28564453125
-102.5390625
-101.62353515625
-93.3837890625
-94.29931640625
-85.14404296875
-86.97509765625
-83.31298828125
-84.228515625
-76.904296875
-75.98876953125
-77.81982421875
-77.81982421875
-79.65087890625
-75.0732421875
-78.7353515625
-75.98876953125
-68.66455078125
-70.49560546875
-65.91796875
-63.17138671875
-60.4248046875
-58.59375
-55.84716796875
-54.01611328125
-55.84716796875
-50.35400390625
-50.35400390625
-43.9453125
-39.36767578125
-43.02978515625
-43.02978515625
-43.02978515625
-43.9453125
-43.9453125
-37.53662109375
-33.87451171875
-31.1279296875
-33.87451171875
-24.71923828125
-14.6484375
-12.8173828125
-10.986328125
-9.1552734375
-7.32421875
-3.662109375
-6.40869140625
-0.91552734375
5.4931640625
9.1552734375
12.8173828125
16.4794921875
17.39501953125
26.55029296875
30.21240234375
32.04345703125
40.283203125
46.69189453125
54.01611328125
59.50927734375
70.49560546875
75.98876953125
86.0595703125
90.63720703125
95.21484375
100.7080078125
110.77880859375
122.6806640625
129.08935546875
141.90673828125
154.72412109375
161.1328125
171.20361328125
182.18994140625
187.68310546875
204.16259765625
208.740234375
214.2333984375
229.79736328125
232.5439453125
246.27685546875
250.8544921875
252.685546875
260.009765625
266.41845703125
273.74267578125
283.8134765625
291.1376953125
295.71533203125
310.36376953125
314.02587890625
316.7724609375
321.35009765625
320.4345703125
325.01220703125
334.16748046875
325.927734375
321.35009765625
309.4482421875
302.1240234375
299.37744140625
290.22216796875
274.658203125
260.009765625
237.12158203125
220.64208984375
206.9091796875
186.767578125
164.794921875
148.3154296875
130.0048828125
120.849609375
101.62353515625
85.14404296875
65.00244140625
46.69189453125
32.04345703125
12.8173828125
10.986328125
-2.74658203125
-8.23974609375
-15.56396484375
-28.38134765625
-42.1142578125
-46.69189453125
-53.1005859375
-57.67822265625
-63.17138671875
-65.91796875
-70.49560546875
-73.2421875
-80.56640625
-84.228515625
-83.31298828125
-87.890625
-85.14404296875
-89.7216796875
-97.96142578125
-96.13037109375
-97.0458984375
-93.3837890625
-94.29931640625
-91.552734375
-92.46826171875
-102.5390625
-98.876953125
-99.79248046875
-104.3701171875
-102.5390625
-93.3837890625
-97.96142578125
-98.876953125
-100.7080078125
-104.3701171875
-106.201171875
-106.201171875
-98.876953125
-89.7216796875
-92.46826171875
-93.3837890625
-89.7216796875
-83.31298828125
-94.29931640625
-91.552734375
-91.552734375
-83.31298828125
-96.13037109375
-88.80615234375
-94.29931640625
-88.80615234375
-91.552734375
-86.97509765625
-88.80615234375
-87.890625
-91.552734375
-85.14404296875
-80.56640625
-82.3974609375
-82.3974609375
-84.228515625
-76.904296875
-77.81982421875
-83.31298828125
-86.0595703125
-80.56640625
-79.65087890625
-80.56640625
-78.7353515625
-75.98876953125
-77.81982421875
-74.15771484375
-77.81982421875
-77.81982421875
-79.65087890625
-81.48193359375
-82.3974609375
-80.56640625
-81.48193359375
-74.15771484375
-78.7353515625
-74.15771484375
-75.98876953125
-81.48193359375
-77.81982421875
-83.31298828125
-81.48193359375
-78.7353515625
-79.65087890625
-82.3974609375
-86.0595703125
-84.228515625
-84.228515625
-85.14404296875
-85.14404296875
-85.14404296875
-87.890625
-84.228515625
-84.228515625
-82.3974609375
-86.0595703125
-84.228515625
-79.65087890625
-83.31298828125
-86.97509765625
-92.46826171875
-87.890625
-86.97509765625
-90.63720703125
-92.46826171875
-86.0595703125
-83.31298828125
-90.63720703125
-84.228515625
-91.552734375
-98.876953125
-97.0458984375
-89.7216796875
-86.0595703125
-86.0595703125
-86.97509765625
-80.56640625
-88.80615234375
-95.21484375
-98.876953125
-86.0595703125
-86.97509765625
-86.97509765625
-81.48193359375
-74.15771484375
-71.4111328125
-60.4248046875
-54.931640625
-56.7626953125
-54.931640625
-65.00244140625
-70.49560546875
-65.91796875
-62.255859375
-56.7626953125
-53.1005859375
-64.0869140625
-73.2421875
-71.4111328125
-58.59375
-46.69189453125
-34.7900390625
-26.55029296875
-17.39501953125
-7.32421875
-11.90185546875
-15.56396484375
-17.39501953125
-27.4658203125
-33.87451171875
-32.958984375
-40.283203125
-43.02978515625
-39.36767578125
-42.1142578125
-45.7763671875
-51.26953125
-56.7626953125
-74.15771484375
-86.97509765625
-91.552734375
-103.45458984375
-112.60986328125
-118.10302734375
-115.3564453125
-119.0185546875
-119.93408203125
-112.60986328125
-111.6943359375
-117.1875
-120.849609375
-118.10302734375
-121.76513671875
-119.0185546875
-119.93408203125
-115.3564453125
-119.0185546875
-122.6806640625
-119.93408203125
-129.08935546875
-125.42724609375
-126.3427734375
-121.76513671875
-116.27197265625
-123.59619140625
-122.6806640625
-121.76513671875
-109.86328125
-119.93408203125
-117.1875
-114.44091796875
-123.59619140625
-120.849609375
-122.6806640625
-118.10302734375
-111.6943359375
-109.86328125
-113.525390625
-100.7080078125
-83.31298828125
-63.17138671875
-25.634765625
12.8173828125
61.34033203125
119.0185546875
179.443359375
249.0234375
300.29296875
361.63330078125
435.791015625
478.82080078125
520.01953125
543.8232421875
496.2158203125
385.43701171875
263.671875
143.73779296875
7.32421875
-125.42724609375
-217.8955078125
-266.41845703125
-273.74267578125
-259.09423828125
-253.60107421875
-244.44580078125
-236.2060546875
-220.64208984375
-205.99365234375
-181.2744140625
-152.89306640625
-128.173828125
-103.45458984375
-94.29931640625
-85.14404296875
-86.0595703125
-79.65087890625
-70.49560546875
-65.00244140625
-66.83349609375
-58.59375
-65.00244140625
-62.255859375
-55.84716796875
-54.01611328125
-54.01611328125
-48.52294921875
-49.4384765625
-55.84716796875
-50.35400390625
-43.9453125
-43.02978515625
-43.9453125
-45.7763671875
-45.7763671875
-40.283203125
-35.70556640625
-32.04345703125
-32.04345703125
-32.958984375
-26.55029296875
-26.55029296875
-23.8037109375
-25.634765625
-22.88818359375
-18.310546875
-17.39501953125
-15.56396484375
-9.1552734375
-11.90185546875
-9.1552734375
-5.4931640625
-7.32421875
2.74658203125
5.4931640625
7.32421875
10.986328125
13.73291015625
17.39501953125
17.39501953125
18.310546875
19.22607421875
19.22607421875
26.55029296875
31.1279296875
33.87451171875
41.19873046875
42.1142578125
53.1005859375
54.931640625
55.84716796875
63.17138671875
68.66455078125
77.81982421875
84.228515625
90.63720703125
99.79248046875
109.86328125
108.94775390625
115.3564453125
119.0185546875
127.25830078125
144.6533203125
152.89306640625
170.2880859375
171.20361328125
184.9365234375
194.091796875
209.65576171875
216.064453125
214.2333984375
229.79736328125
246.27685546875
249.93896484375
262.75634765625
273.74267578125
289.306640625
299.37744140625
300.29296875
312.19482421875
316.7724609375
324.0966796875
326.84326171875
336.9140625
346.98486328125
347.900390625
353.3935546875
353.3935546875
355.224609375
357.97119140625
358.88671875
351.5625
355.224609375
348.81591796875
343.32275390625
331.4208984375
325.927734375
312.19482421875
298.4619140625
286.56005859375
271.91162109375
246.27685546875
227.05078125
215.14892578125
201.416015625
183.10546875
165.71044921875
144.6533203125
125.42724609375
107.11669921875
91.552734375
71.4111328125
65.00244140625
48.52294921875
32.04345703125
19.22607421875
13.73291015625
2.74658203125
-1.8310546875
-14.6484375
-21.05712890625
-39.36767578125
-34.7900390625
-34.7900390625
-38.4521484375
-42.1142578125
-43.02978515625
-49.4384765625
-52.18505859375
-49.4384765625
-63.17138671875
-61.34033203125
-61.34033203125
-60.4248046875
-55.84716796875
-61.34033203125
-62.255859375
-62.255859375
-63.17138671875
-63.17138671875
-64.0869140625
-64.0869140625
-65.91796875
-68.66455078125
-71.4111328125
-66.83349609375
-63.17138671875
-65.91796875
-64.0869140625
-65.00244140625
-62.255859375
-66.83349609375
-66.83349609375
-66.83349609375
-62.255859375
-58.59375
-56.7626953125
-54.01611328125
-57.67822265625
-63.17138671875
-66.83349609375
-59.50927734375
-63.17138671875
-63.17138671875
-64.0869140625
-65.00244140625
-52.18505859375
-62.255859375
-56.7626953125
-55.84716796875
-60.4248046875
-53.1005859375
-59.50927734375
-54.931640625
-54.931640625
-56.7626953125
-54.01611328125
-52.18505859375
-54.01611328125
-54.01611328125
-58.59375
-65.91796875
-58.59375
-53.1005859375
-64.0869140625
-68.66455078125
-60.4248046875
-55.84716796875
-59.50927734375
-58.59375
-64.0869140625
-65.91796875
-67.7490234375
-62.255859375
-60.4248046875
-57.67822265625
-59.50927734375
-65.00244140625
-65.00244140625
-65.91796875
-63.17138671875
-70.49560546875
-73.2421875
-66.83349609375
-71.4111328125
-73.2421875
-69.580078125
-66.83349609375
-62.255859375
-66.83349609375
-72.32666015625
-73.2421875
-69.580078125
-74.15771484375
-69.580078125
-75.0732421875
-75.0732421875
-69.580078125
-74.15771484375
-71.4111328125
-75.0732421875
-73.2421875
-77.81982421875
-73.2421875
-69.580078125
-72.32666015625
-72.32666015625
-75.98876953125
-71.4111328125
-67.7490234375
-79.65087890625
-72.32666015625
-73.2421875
-75.98876953125
-70.49560546875
-73.2421875
-72.32666015625
-64.0869140625
-67.7490234375
-76.904296875
-74.15771484375
-74.15771484375
-76.904296875
-69.580078125
-71.4111328125
-68.66455078125
-64.0869140625
-63.17138671875
-59.50927734375
-50.35400390625
-51.26953125
-45.7763671875
-42.1142578125
-48.52294921875
-43.02978515625
-41.19873046875
-39.36767578125
-41.19873046875
-36.62109375
-42.1142578125
-55.84716796875
-56.7626953125
-50.35400390625
-46.69189453125
-26.55029296875
-13.73291015625
-4.57763671875
1.8310546875
9.1552734375
3.662109375
-3.662109375
-10.07080078125
-11.90185546875
-11.90185546875
-5.4931640625
-8.23974609375
-4.57763671875
-10.986328125
-21.05712890625
-24.71923828125
-25.634765625
-45.7763671875
-53.1005859375
-62.255859375
-72.32666015625
-69.580078125
-72.32666015625
-74.15771484375
-75.0732421875
-76.904296875
-84.228515625
-88.80615234375
-93.3837890625
-88.80615234375
-91.552734375
-88.80615234375
-86.97509765625
-85.14404296875
-86.97509765625
-93.3837890625
-94.29931640625
-85.14404296875
-85.14404296875
-86.97509765625
-82.3974609375
-86.97509765625
-85.14404296875
-83.31298828125
-78.7353515625
-76.904296875
-79.65087890625
-77.81982421875
-80.56640625
-79.65087890625
-78.7353515625
-76.904296875
-73.2421875
-72.32666015625
-75.98876953125
-81.48193359375
-80.56640625
-78.7353515625
-68.66455078125
-54.931640625
-36.62109375
8.23974609375
43.9453125
80.56640625
135.498046875
191.34521484375
252.685546875
307.6171875
376.28173828125
435.791015625
495.30029296875
532.8369140625
558.4716796875
543.8232421875
439.453125
318.603515625
188.5986328125
45.7763671875
-93.3837890625
-167.54150390625
-216.97998046875
-226.13525390625
-222.47314453125
-213.31787109375
-198.66943359375
-201.416015625
-198.66943359375
-185.85205078125
-173.9501953125
-143.73779296875
-110.77880859375
-84.228515625
-73.2421875
-66.83349609375
-52.18505859375
-47.607421875
-47.607421875
-47.607421875
-37.53662109375
-32.958984375
-29.296875
-31.1279296875
-22.88818359375
-18.310546875
-24.71923828125
-27.4658203125
-30.21240234375
-31.1279296875
-28.38134765625
-27.4658203125
-21.05712890625
-19.22607421875
-11.90185546875
-16.4794921875
-15.56396484375
-15.56396484375
-14.6484375
-12.8173828125
-9.1552734375
-7.32421875
-5.4931640625
0.91552734375
2.74658203125
10.07080078125
5.4931640625
7.32421875
10.07080078125
3.662109375
8.23974609375
9.1552734375
17.39501953125
26.55029296875
29.296875
31.1279296875
30.21240234375
24.71923828125
31.1279296875
34.7900390625
39.36767578125
36.62109375
45.7763671875
48.52294921875
50.35400390625
54.931640625
63.17138671875
67.7490234375
64.0869140625
70.49560546875
75.0732421875
78.7353515625
87.890625
100.7080078125
103.45458984375
110.77880859375
121.76513671875
119.93408203125
128.173828125
129.08935546875
142.822265625
140.9912109375
152.89306640625
163.87939453125
173.03466796875
178.52783203125
190.4296875
194.091796875
198.66943359375
213.31787109375
224.30419921875
236.2060546875
254.5166015625
264.58740234375
270.08056640625
274.658203125
289.306640625
296.630859375
303.03955078125
304.87060546875
317.68798828125
327.7587890625
331.4208984375
339.66064453125
355.224609375
356.14013671875
360.7177734375
366.2109375
373.53515625
371.7041015625
374.45068359375
372.61962890625
385.43701171875
380.859375
378.11279296875
372.61962890625
363.46435546875
358.88671875
343.32275390625
326.84326171875
314.02587890625
297.54638671875
283.8134765625
262.75634765625
241.69921875
225.2197265625
216.97998046875
184.02099609375
162.04833984375
146.484375
133.6669921875
121.76513671875
96.13037109375
81.48193359375
72.32666015625
60.4248046875
54.931640625
37.53662109375
26.55029296875
14.6484375
2.74658203125
1.8310546875
-10.07080078125
-12.8173828125
-8.23974609375
-15.56396484375
-26.55029296875
-29.296875
-37.53662109375
-40.283203125
-45.7763671875
-37.53662109375
-38.4521484375
-42.1142578125
-39.36767578125
-43.9453125
-43.9453125
-44.86083984375
-50.35400390625
-47.607421875
-54.01611328125
-58.59375
-45.7763671875
-44.86083984375
-49.4384765625
-44.86083984375
-43.9453125
-43.9453125
-44.86083984375
-49.4384765625
-50.35400390625
-53.1005859375
-45.7763671875
-48.52294921875
-46.69189453125
-50.35400390625
-43.9453125
-43.02978515625
-48.52294921875
-46.69189453125
-46.69189453125
-48.52294921875
-43.9453125
-43.02978515625
-39.36767578125
-36.62109375
-33.87451171875
-41.19873046875
-41.19873046875
-43.02978515625
-42.1142578125
-36.62109375
-43.02978515625
-41.19873046875
-37.53662109375
-32.958984375
-32.04345703125
-32.958984375
-35.70556640625
-35.70556640625
-38.4521484375
-32.04345703125
-40.283203125
-42.1142578125
-44.86083984375
-39.36767578125
-42.1142578125
-45.7763671875
-39.36767578125
-43.02978515625
-38.4521484375
-48.52294921875
-45.7763671875
-39.36767578125
-41.19873046875
-41.19873046875
-43.9453125
-43.9453125
-40.283203125
-40.283203125
-43.02978515625
-41.19873046875
-43.9453125
-46.69189453125
-44.86083984375
-46.69189453125
-41.19873046875
-45.7763671875
-41.19873046875
-46.69189453125
-54.01611328125
-49.4384765625
-52.18505859375
-48.52294921875
-49.4384765625
-50.35400390625
-43.9453125
-48.52294921875
-51.26953125
-56.7626953125
-55.84716796875
-59.50927734375
-54.931640625
-50.35400390625
-52.18505859375
-51.26953125
-60.4248046875
-58.59375
-58.59375
-63.17138671875
-54.931640625
-44.86083984375
-45.7763671875
-51.26953125
-61.34033203125
-58.59375
-51.26953125
-52.18505859375
-57.67822265625
-59.50927734375
-60.4248046875
-62.255859375
-54.931640625
-53.1005859375
-44.86083984375
-45.7763671875
-49.4384765625
-55.84716796875
-60.4248046875
-62.255859375
-56.7626953125
-53.1005859375
-54.01611328125
-46.69189453125
-36.62109375
-33.87451171875
-29.296875
-24.71923828125
-21.05712890625
-29.296875
-29.296875
-31.1279296875
-31.1279296875
-27.4658203125
-32.958984375
-34.7900390625
-37.53662109375
-40.283203125
-32.958984375
-25.634765625
-16.4794921875
4.57763671875
8.23974609375
18.310546875
24.71923828125
21.97265625
16.4794921875
5.4931640625
2.74658203125
-10.986328125
-3.662109375
1.8310546875
-1.8310546875
5.4931640625
-5.4931640625
-8.23974609375
-19.22607421875
-26.55029296875
-36.62109375
-52.18505859375
-59.50927734375
-62.255859375
-65.91796875
-67.7490234375
-75.98876953125
-66.83349609375
-73.2421875
-77.81982421875
-74.15771484375
-71.4111328125
-74.15771484375
-75.0732421875
-75.98876953125
-75.98876953125
-75.98876953125
-75.0732421875
-73.2421875
-78.7353515625
-83.31298828125
-80.56640625
-78.7353515625
-77.81982421875
-77.81982421875
-70.49560546875
-71.4111328125
-76.904296875
-66.83349609375
-63.17138671875
-67.7490234375
-80.56640625
-80.56640625
-75.98876953125
-72.32666015625
-76.904296875
-71.4111328125
-68.66455078125
-75.98876953125
-65.00244140625
-56.7626953125
-44.86083984375
-15.56396484375
23.8037109375
59.50927734375
100.7080078125
165.71044921875
227.05078125
294.7998046875
343.32275390625
409.24072265625
475.15869140625
526.42822265625
553.89404296875
571.2890625
518.1884765625
401.91650390625
285.64453125
154.72412109375
13.73291015625
-108.94775390625
-186.767578125
-226.13525390625
-220.64208984375
-213.31787109375
-199.5849609375
-193.17626953125
-189.51416015625
-177.6123046875
-157.470703125
-142.822265625
-113.525390625
-86.0595703125
-65.00244140625
-52.18505859375
-39.36767578125
-37.53662109375
-36.62109375
-30.21240234375
-32.958984375
-22.88818359375
-29.296875
-30.21240234375
-29.296875
-21.05712890625
-24.71923828125
-13.73291015625
-10.07080078125
-15.56396484375
-10.986328125
-14.6484375
-11.90185546875
0.91552734375
0.91552734375
4.57763671875
0
9.1552734375
11.90185546875
10.986328125
6.40869140625
10.986328125
9.1552734375
13.73291015625
14.6484375
19.22607421875
28.38134765625
43.02978515625
40.283203125
27.4658203125
23.8037109375
31.1279296875
22.88818359375
29.296875
35.70556640625
42.1142578125
47.607421875
49.4384765625
53.1005859375
54.931640625
52.18505859375
58.59375
69.580078125
69.580078125
71.4111328125
82.3974609375
82.3974609375
85.14404296875
92.46826171875
98.876953125
97.0458984375
106.201171875
108.0322265625
119.0185546875
119.93408203125
140.07568359375
138.24462890625
148.3154296875
150.146484375
153.80859375
167.54150390625
170.2880859375
173.03466796875
180.35888671875
184.02099609375
195.9228515625
206.9091796875
215.14892578125
228.8818359375
242.61474609375
252.685546875
263.671875
270.99609375
286.56005859375
293.88427734375
302.1240234375
306.70166015625
315.85693359375
319.51904296875
333.251953125
344.23828125
350.64697265625
356.14013671875
357.0556640625
367.12646484375
376.28173828125
382.6904296875
389.09912109375
398.25439453125
405.57861328125
409.24072265625
410.15625
411.9873046875
406.494140625
401.91650390625
402.83203125
396.42333984375
388.18359375
374.45068359375
369.873046875
355.224609375
343.32275390625
323.18115234375
308.53271484375
291.1376953125
273.74267578125
250.8544921875
239.8681640625
225.2197265625
201.416015625
180.35888671875
162.04833984375
141.90673828125
130.0048828125
114.44091796875
100.7080078125
82.3974609375
75.98876953125
70.49560546875
60.4248046875
49.4384765625
40.283203125
32.04345703125
24.71923828125
17.39501953125
11.90185546875
9.1552734375
5.4931640625
-0.91552734375
-9.1552734375
-5.4931640625
-10.07080078125
-17.39501953125
-17.39501953125
-24.71923828125
-21.97265625
-17.39501953125
-23.8037109375
-23.8037109375
-16.4794921875
-12.8173828125
-21.97265625
-30.21240234375
-20.1416015625
-27.4658203125
-28.38134765625
-21.05712890625
-15.56396484375
-17.39501953125
-19.22607421875
-21.97265625
-23.8037109375
-30.21240234375
-31.1279296875
-23.8037109375
-15.56396484375
-21.05712890625
-19.22607421875
-21.97265625
-19.22607421875
-27.4658203125
-22.88818359375
-23.8037109375
-20.1416015625
-21.97265625
-17.39501953125
-20.1416015625
-16.4794921875
-17.39501953125
-17.39501953125
-20.1416015625
-20.1416015625
-21.97265625
-26.55029296875
-25.634765625
-19.22607421875
-12.8173828125
-15.56396484375
-28.38134765625
-17.39501953125
-19.22607421875
-23.8037109375
-29.296875
-28.38134765625
-29.296875
-23.8037109375
-24.71923828125
-19.22607421875
-19.22607421875
-21.97265625
-21.97265625
-25.634765625
-26.55029296875
-24.71923828125
-27.4658203125
-26.55029296875
-27.4658203125
-22.88818359375
-24.71923828125
-26.55029296875
-31.1279296875
-32.04345703125
-32.958984375
-29.296875
-35.70556640625
-37.53662109375
-28.38134765625
-29.296875
-28.38134765625
-22.88818359375
-32.958984375
-23.8037109375
-31.1279296875
-32.958984375
-31.1279296875
-32.04345703125
-31.1279296875
-23.8037109375
-33.87451171875
-28.38134765625
-37.53662109375
-36.62109375
-34.7900390625
-37.53662109375
-36.62109375
-32.04345703125
-32.958984375
-32.958984375
-29.296875
-38.4521484375
-44.86083984375
-41.19873046875
-40.283203125
-38.4521484375
-35.70556640625
-34.7900390625
-42.1142578125
-43.02978515625
-34.7900390625
-32.958984375
-38.4521484375
-37.53662109375
-39.36767578125
-32.958984375
-34.7900390625
-36.62109375
-37.53662109375
-39.36767578125
-39.36767578125
-32.04345703125
-36.62109375
-29.296875
-36.62109375
-33.87451171875
-15.56396484375
-16.4794921875
-15.56396484375
-13.73291015625
-7.32421875
-10.07080078125
-15.56396484375
-22.88818359375
-26.55029296875
-30.21240234375
-32.04345703125
-31.1279296875
-37.53662109375
-32.958984375
-27.4658203125
-15.56396484375
3.662109375
10.986328125
16.4794921875
23.8037109375
24.71923828125
18.310546875
16.4794921875
18.310546875
18.310546875
13.73291015625
14.6484375
10.07080078125
1.8310546875
3.662109375
-1.8310546875
-0.91552734375
-16.4794921875
-23.8037109375
-26.55029296875
-44.86083984375
-51.26953125
-47.607421875
-64.0869140625
-61.34033203125
-59.50927734375
-62.255859375
-66.83349609375
-67.7490234375
-62.255859375
-65.00244140625
-65.91796875
-67.7490234375
-70.49560546875
-71.4111328125
-68.66455078125
-71.4111328125
-65.00244140625
-69.580078125
-74.15771484375
-74.15771484375
-75.0732421875
-75.98876953125
-77.81982421875
-80.56640625
-67.7490234375
-65.91796875
-62.255859375
-66.83349609375
-62.255859375
-66.83349609375
-62.255859375
-61.34033203125
-62.255859375
-65.91796875
-69.580078125
-62.255859375
-56.7626953125
-54.01611328125
-41.19873046875
-13.73291015625
17.39501953125
46.69189453125
83.31298828125
136.41357421875
194.091796875
255.43212890625
315.85693359375
375.3662109375
443.115234375
498.96240234375
536.4990234375
554.8095703125
536.4990234375
425.72021484375
312.19482421875
184.02099609375
48.52294921875
-89.7216796875
-162.04833984375
-201.416015625
-212.40234375
-199.5849609375
-193.17626953125
-181.2744140625
-181.2744140625
-186.767578125
-177.6123046875
-157.470703125
-142.822265625
-101.62353515625
-69.580078125
-57.67822265625
-54.01611328125
-47.607421875
-43.02978515625
-35.70556640625
-37.53662109375
-21.05712890625
-21.97265625
-18.310546875
-14.6484375
-15.56396484375
-17.39501953125
-21.05712890625
-14.6484375
-12.8173828125
-7.32421875
-4.57763671875
-3.662109375
2.74658203125
8.23974609375
7.32421875
7.32421875
8.23974609375
9.1552734375
4.57763671875
8.23974609375
17.39501953125
21.97265625
19.22607421875
18.310546875
15.56396484375
21.97265625
23.8037109375
19.22607421875
15.56396484375
24.71923828125
32.04345703125
32.958984375
37.53662109375
35.70556640625
32.04345703125
36.62109375
42.1142578125
41.19873046875
47.607421875
58.59375
57.67822265625
62.255859375
66.83349609375
65.00244140625
67.7490234375
72.32666015625
77.81982421875
75.98876953125
91.552734375
91.552734375
97.0458984375
106.201171875
110.77880859375
112.60986328125
119.0185546875
121.76513671875
128.173828125
131.8359375
140.07568359375
148.3154296875
154.72412109375
162.9638671875
176.69677734375
173.9501953125
187.68310546875
198.66943359375
204.16259765625
216.064453125
223.388671875
234.375
246.27685546875
252.685546875
269.1650390625
270.99609375
283.8134765625
296.630859375
303.03955078125
307.6171875
310.36376953125
320.4345703125
328.67431640625
343.32275390625
346.98486328125
357.0556640625
353.3935546875
357.0556640625
368.0419921875
378.11279296875
389.09912109375
384.521484375
382.6904296875
397.3388671875
410.15625
408.3251953125
396.42333984375
383.60595703125
383.60595703125
368.95751953125
364.3798828125
354.30908203125
333.251953125
316.7724609375
301.20849609375
289.306640625
268.24951171875
249.93896484375
231.62841796875
216.97998046875
197.75390625
177.6123046875
158.38623046875
144.6533203125
130.0048828125
113.525390625
97.0458984375
83.31298828125
68.66455078125
54.01611328125
43.9453125
43.02978515625
28.38134765625
19.22607421875
21.97265625
11.90185546875
4.57763671875
-8.23974609375
-6.40869140625
-7.32421875
-13.73291015625
-17.39501953125
-19.22607421875
-26.55029296875
-21.05712890625
-15.56396484375
-21.05712890625
-34.7900390625
-27.4658203125
-28.38134765625
-26.55029296875
-31.1279296875
-30.21240234375
-30.21240234375
-29.296875
-30.21240234375
-32.04345703125
-36.62109375
-40.283203125
-33.87451171875
-32.958984375
-32.958984375
-33.87451171875
-29.296875
-28.38134765625
-26.55029296875
-27.4658203125
-38.4521484375
-38.4521484375
-32.04345703125
-35.70556640625
-32.04345703125
-28.38134765625
-29.296875
-27.4658203125
-28.38134765625
-29.296875
-23.8037109375
-29.296875
-24.71923828125
-30.21240234375
-35.70556640625
-35.70556640625
-28.38134765625
-29.296875
-32.04345703125
-31.1279296875
-30.21240234375
-31.1279296875
-40.283203125
-32.04345703125
-24.71923828125
-24.71923828125
-26.55029296875
-25.634765625
-29.296875
-32.04345703125
-33.87451171875
-32.958984375
-23.8037109375
-31.1279296875
-32.958984375
-32.958984375
-28.38134765625
-40.283203125
-36.62109375
-37.53662109375
-32.04345703125
-32.04345703125
-34.7900390625
-32.04345703125
-36.62109375
-32.04345703125
-32.04345703125
-38.4521484375
-39.36767578125
-39.36767578125
-41.19873046875
-44.86083984375
-42.1142578125
-43.02978515625
-39.36767578125
-40.283203125
-43.02978515625
-36.62109375
-47.607421875
-45.7763671875
-47.607421875
-48.52294921875
-50.35400390625
-47.607421875
-42.1142578125
-52.18505859375
-47.607421875
-46.69189453125
-49.4384765625
-49.4384765625
-44.86083984375
-46.69189453125
-44.86083984375
-40.283203125
-46.69189453125
-54.01611328125
-44.86083984375
-43.02978515625
-48.52294921875
-44.86083984375
-49.4384765625
-50.35400390625
-50.35400390625
-46.69189453125
-45.7763671875
-53.1005859375
-48.52294921875
-45.7763671875
-44.86083984375
-46.69189453125
-48.52294921875
-47.607421875
-54.01611328125
-47.607421875
-45.7763671875
-45.7763671875
-45.7763671875
-45.7763671875
-40.283203125
-37.53662109375
-34.7900390625
-31.1279296875
-13.73291015625
-10.986328125
-15.56396484375
-17.39501953125
-20.1416015625
-24.71923828125
-31.1279296875
-35.70556640625
-40.283203125
-47.607421875
-53.1005859375
-43.02978515625
-32.958984375
-31.1279296875
-10.986328125
0
3.662109375
15.56396484375
21.97265625
12.8173828125
5.4931640625
16.4794921875
12.8173828125
5.4931640625
5.4931640625
5.4931640625
0
3.662109375
1.8310546875
-14.6484375
-12.8173828125
-17.39501953125
-26.55029296875
-37.53662109375
-54.01611328125
-52.18505859375
-51.26953125
-57.67822265625
-69.580078125
-69.580078125
-67.7490234375
-66.83349609375
-66.83349609375
-62.255859375
-61.34033203125
-63.17138671875
-63.17138671875
-74.15771484375
-74.15771484375
-75.0732421875
-72.32666015625
-79.65087890625
-70.49560546875
-73.2421875
-73.2421875
-80.56640625
-79.65087890625
-69.580078125
-75.0732421875
-70.49560546875
-65.91796875
-67.7490234375
-70.49560546875
-69.580078125
-65.00244140625
-59.50927734375
-57.67822265625
-64.0869140625
-65.91796875
-68.66455078125
-60.4248046875
-50.35400390625
-36.62109375
-24.71923828125
14.6484375
44.86083984375
90.63720703125
133.6669921875
192.2607421875
257.26318359375
306.70166015625
365.29541015625
442.19970703125
499.8779296875
541.9921875
572.20458984375
574.03564453125
481.5673828125
358.88671875
238.037109375
111.6943359375
-36.62109375
-129.08935546875
-181.2744140625
-206.9091796875
-200.50048828125
-194.091796875
-190.4296875
-191.34521484375
-181.2744140625
-156.55517578125
-142.822265625
-123.59619140625
-96.13037109375
-66.83349609375
-57.67822265625
-48.52294921875
-44.86083984375
-38.4521484375
-30.21240234375
-24.71923828125
-22.88818359375
-21.97265625
-16.4794921875
-12.8173828125
-4.57763671875
-12.8173828125
-7.32421875
-5.4931640625
-7.32421875
-7.32421875
-8.23974609375
-1.8310546875
-2.74658203125
-1.8310546875
6.40869140625
2.74658203125
-0.91552734375
2.74658203125
-2.74658203125
7.32421875
12.8173828125
13.73291015625
19.22607421875
24.71923828125
26.55029296875
19.22607421875
19.22607421875
13.73291015625
19.22607421875
27.4658203125
30.21240234375
34.7900390625
34.7900390625
39.36767578125
45.7763671875
50.35400390625
47.607421875
52.18505859375
52.18505859375
56.7626953125
59.50927734375
54.931640625
61.34033203125
65.00244140625
73.2421875
76.904296875
74.15771484375
77.81982421875
86.0595703125
96.13037109375
95.21484375
101.62353515625
105.28564453125
114.44091796875
119.93408203125
123.59619140625
135.498046875
130.92041015625
146.484375
151.9775390625
156.55517578125
162.04833984375
174.86572265625
186.767578125
184.02099609375
198.66943359375
206.9091796875
216.064453125
227.96630859375
238.037109375
250.8544921875
260.92529296875
272.8271484375
274.658203125
282.89794921875
295.71533203125
297.54638671875
307.6171875
315.85693359375
328.67431640625
335.0830078125
347.900390625
344.23828125
354.30908203125
361.63330078125
374.45068359375
370.78857421875
379.0283203125
385.43701171875
389.09912109375
400.08544921875
401.0009765625
402.83203125
401.91650390625
406.494140625
398.25439453125
388.18359375
379.0283203125
372.61962890625
359.80224609375
347.900390625
338.7451171875
318.603515625
306.70166015625
287.4755859375
269.1650390625
249.0234375
233.45947265625
208.740234375
187.68310546875
176.69677734375
151.06201171875
138.24462890625
119.93408203125
112.60986328125
97.0458984375
89.7216796875
70.49560546875
54.01611328125
47.607421875
43.9453125
30.21240234375
24.71923828125
23.8037109375
19.22607421875
10.07080078125
-3.662109375
-7.32421875
-12.8173828125
-16.4794921875
-16.4794921875
-15.56396484375
-10.986328125
-19.22607421875
-20.1416015625
-24.71923828125
-27.4658203125
-22.88818359375
-24.71923828125
-23.8037109375
-33.87451171875
-27.4658203125
-30.21240234375
-21.97265625
-21.97265625
-19.22607421875
-27.4658203125
-35.70556640625
-38.4521484375
-29.296875
-33.87451171875
-25.634765625
-32.958984375
-29.296875
-14.6484375
-20.1416015625
-26.55029296875
-28.38134765625
-20.1416015625
-16.4794921875
-25.634765625
-21.05712890625
-20.1416015625
-18.310546875
-15.56396484375
-13.73291015625
-20.1416015625
-20.1416015625
-21.05712890625
-13.73291015625
-12.8173828125
-20.1416015625
-16.4794921875
-13.73291015625
-17.39501953125
-15.56396484375
-16.4794921875
-19.22607421875
-21.97265625
-16.4794921875
-19.22607421875
-19.22607421875
-21.05712890625
-28.38134765625
-23.8037109375
-13.73291015625
-15.56396484375
-25.634765625
-14.6484375
-23.8037109375
-21.05712890625
-28.38134765625
-24.71923828125
-21.05712890625
-18.310546875
-21.97265625
-21.05712890625
-35.70556640625
-23.8037109375
-19.22607421875
-21.05712890625
-26.55029296875
-20.1416015625
-13.73291015625
-18.310546875
-16.4794921875
-22.88818359375
-21.97265625
-24.71923828125
-22.88818359375
-32.04345703125
-32.04345703125
-31.1279296875
-21.97265625
-22.88818359375
-23.8037109375
-31.1279296875
-39.36767578125
-32.04345703125
-29.296875
-27.4658203125
-34.7900390625
-37.53662109375
-39.36767578125
-32.04345703125
-29.296875
-32.958984375
-32.04345703125
-22.88818359375
-26.55029296875
-30.21240234375
-32.04345703125
-28.38134765625
-23.8037109375
-22.88818359375
-21.05712890625
-19.22607421875
-19.22607421875
-6.40869140625
-2.74658203125
-7.32421875
-3.662109375
0.91552734375
7.32421875
-2.74658203125
-11.90185546875
-16.4794921875
-15.56396484375
-18.310546875
-22.88818359375
-16.4794921875
-2.74658203125
5.4931640625
19.22607421875
31.1279296875
43.9453125
51.26953125
39.36767578125
32.04345703125
34.7900390625
38.4521484375
36.62109375
34.7900390625
32.958984375
32.958984375
31.1279296875
33.87451171875
19.22607421875
8.23974609375
12.8173828125
-5.4931640625
-17.39501953125
-21.05712890625
-29.296875
-39.36767578125
-41.19873046875
-42.1142578125
-52.18505859375
-52.18505859375
-43.9453125
-43.9453125
-48.52294921875
-43.02978515625
-43.02978515625
-51.26953125
-46.69189453125
-41.19873046875
-45.7763671875
-50.35400390625
-44.86083984375
-49.4384765625
-54.931640625
-54.931640625
-55.84716796875
-50.35400390625
-43.9453125
-49.4384765625
-51.26953125
-50.35400390625
-48.52294921875
-44.86083984375
-45.7763671875
-47.607421875
-44.86083984375
-42.1142578125
-43.02978515625
-46.69189453125
-48.52294921875
-41.19873046875
-41.19873046875
-33.87451171875
-20.1416015625
6.40869140625
44.86083984375
81.48193359375
130.0048828125
182.18994140625
240.78369140625
300.29296875
355.224609375
430.2978515625
496.2158203125
536.4990234375
558.4716796875
564.88037109375
493.46923828125
375.3662109375
257.26318359375
109.86328125
-37.53662109375
-138.24462890625
-188.5986328125
-193.17626953125
-187.68310546875
-168.45703125
-153.80859375
-146.484375
-148.3154296875
-155.6396484375
-166.6259765625
-150.146484375
-121.76513671875
-87.890625
-66.83349609375
-51.26953125
-27.4658203125
-20.1416015625
-14.6484375
-11.90185546875
-10.07080078125
-3.662109375
7.32421875
7.32421875
8.23974609375
14.6484375
12.8173828125
10.07080078125
19.22607421875
21.97265625
23.8037109375
20.1416015625
24.71923828125
37.53662109375
28.38134765625
28.38134765625
29.296875
30.21240234375
34.7900390625
32.958984375
35.70556640625
38.4521484375
40.283203125
49.4384765625
45.7763671875
46.69189453125
54.931640625
54.931640625
54.931640625
56.7626953125
59.50927734375
64.0869140625
69.580078125
69.580078125
66.83349609375
65.91796875
72.32666015625
70.49560546875
70.49560546875
73.2421875
80.56640625
85.14404296875
88.80615234375
97.0458984375
103.45458984375
108.94775390625
112.60986328125
113.525390625
115.3564453125
124.51171875
125.42724609375
137.3291015625
140.07568359375
144.6533203125
154.72412109375
163.87939453125
167.54150390625
169.37255859375
171.20361328125
184.02099609375
187.68310546875
196.83837890625
197.75390625
209.65576171875
213.31787109375
228.8818359375
240.78369140625
250.8544921875
258.1787109375
269.1650390625
282.89794921875
292.96875
300.29296875
312.19482421875
323.18115234375
336.9140625
347.900390625
353.3935546875
365.29541015625
367.12646484375
379.0283203125
395.5078125
402.83203125
405.57861328125
416.56494140625
421.142578125
419.3115234375
422.05810546875
424.8046875
426.6357421875
429.38232421875
436.70654296875
437.6220703125
432.12890625
427.55126953125
426.6357421875
413.818359375
403.74755859375
390.93017578125
386.3525390625
369.873046875
346.98486328125
327.7587890625
320.4345703125
297.54638671875
286.56005859375
261.8408203125
246.27685546875
228.8818359375
208.740234375
190.4296875
165.71044921875
151.06201171875
144.6533203125
124.51171875
107.11669921875
95.21484375
86.0595703125
76.904296875
65.91796875
63.17138671875
52.18505859375
47.607421875
41.19873046875
39.36767578125
32.04345703125
23.8037109375
21.05712890625
17.39501953125
8.23974609375
-0.91552734375
3.662109375
2.74658203125
4.57763671875
5.4931640625
0
0
1.8310546875
-1.8310546875
1.8310546875
-0.91552734375
-8.23974609375
-2.74658203125
2.74658203125
1.8310546875
0.91552734375
0.91552734375
-3.662109375
-9.1552734375
-8.23974609375
-0.91552734375
0
10.07080078125
10.986328125
5.4931640625
7.32421875
2.74658203125
-1.8310546875
-4.57763671875
-0.91552734375
0.91552734375
13.73291015625
8.23974609375
7.32421875
5.4931640625
5.4931640625
3.662109375
1.8310546875
3.662109375
6.40869140625
0.91552734375
3.662109375
5.4931640625
3.662109375
4.57763671875
10.07080078125
5.4931640625
0.91552734375
6.40869140625
2.74658203125
2.74658203125
6.40869140625
-2.74658203125
3.662109375
3.662109375
1.8310546875
5.4931640625
0.91552734375
-4.57763671875
-8.23974609375
-5.4931640625
2.74658203125
5.4931640625
3.662109375
-1.8310546875
-3.662109375
-7.32421875
-3.662109375
-13.73291015625
-11.90185546875
-2.74658203125
-3.662109375
-2.74658203125
-5.4931640625
-3.662109375
-6.40869140625
-6.40869140625
-11.90185546875
-10.986328125
-19.22607421875
-10.986328125
-14.6484375
-3.662109375
5.4931640625
10.986328125
14.6484375
17.39501953125
19.22607421875
11.90185546875
14.6484375
11.90185546875
12.8173828125
16.4794921875
16.4794921875
18.310546875
18.310546875
29.296875
40.283203125
42.1142578125
42.1142578125
44.86083984375
54.931640625
67.7490234375
76.904296875
83.31298828125
87.890625
71.4111328125
74.15771484375
65.91796875
55.84716796875
58.59375
53.1005859375
49.4384765625
46.69189453125
45.7763671875
40.283203125
24.71923828125
5.4931640625
-9.1552734375
-11.90185546875
-18.310546875
-32.04345703125
-34.7900390625
-34.7900390625
-38.4521484375
-35.70556640625
-38.4521484375
-45.7763671875
-47.607421875
-45.7763671875
-44.86083984375
-38.4521484375
-43.9453125
-37.53662109375
-32.958984375
-34.7900390625
-35.70556640625
-40.283203125
-38.4521484375
-41.19873046875
-44.86083984375
-49.4384765625
-46.69189453125
-43.9453125
-41.19873046875
-43.02978515625
-43.02978515625
-40.283203125
-42.1142578125
-41.19873046875
-41.19873046875
-43.02978515625
-36.62109375
-38.4521484375
-39.36767578125
-43.9453125
-32.04345703125
-32.04345703125
-23.8037109375
1.8310546875
32.958984375
67.7490234375
119.93408203125
185.85205078125
247.1923828125
312.19482421875
361.63330078125
426.6357421875
489.80712890625
533.75244140625
556.640625
574.03564453125
509.94873046875
400.08544921875
287.4755859375
147.39990234375
-5.4931640625
-122.6806640625
-175.78125
-198.66943359375
-200.50048828125
-182.18994140625
-169.37255859375
-157.470703125
-162.04833984375
-163.87939453125
-167.54150390625
-151.06201171875
-130.0048828125
-95.21484375
-63.17138671875
-49.4384765625
-32.04345703125
-26.55029296875
-14.6484375
-17.39501953125
-15.56396484375
-9.1552734375
-5.4931640625
-2.74658203125
-3.662109375
6.40869140625
11.90185546875
15.56396484375
18.310546875
23.8037109375
18.310546875
16.4794921875
14.6484375
9.1552734375
16.4794921875
18.310546875
17.39501953125
22.88818359375
30.21240234375
26.55029296875
23.8037109375
21.97265625
22.88818359375
31.1279296875
41.19873046875
35.70556640625
38.4521484375
41.19873046875
43.9453125
49.4384765625
49.4384765625
50.35400390625
48.52294921875
49.4384765625
55.84716796875
62.255859375
71.4111328125
65.00244140625
67.7490234375
77.81982421875
73.2421875
78.7353515625
77.81982421875
83.31298828125
91.552734375
105.28564453125
107.11669921875
100.7080078125
108.0322265625
118.10302734375
117.1875
118.10302734375
120.849609375
123.59619140625
133.6669921875
140.9912109375
145.56884765625
151.06201171875
161.1328125
169.37255859375
178.52783203125
185.85205078125
191.34521484375
200.50048828125
215.14892578125
221.5576171875
231.62841796875
239.8681640625
253.60107421875
254.5166015625
266.41845703125
282.89794921875
284.72900390625
290.22216796875
304.87060546875
312.19482421875
327.7587890625
333.251953125
343.32275390625
346.0693359375
352.47802734375
362.548828125
368.95751953125
379.94384765625
389.09912109375
398.25439453125
412.90283203125
407.40966796875
415.6494140625
414.73388671875
414.73388671875
419.3115234375
407.40966796875
401.91650390625
409.24072265625
396.42333984375
387.26806640625
380.859375
364.3798828125
351.5625
327.7587890625
305.7861328125
290.22216796875
273.74267578125
256.34765625
240.78369140625
221.5576171875
197.75390625
183.10546875
173.9501953125
158.38623046875
136.41357421875
119.93408203125
102.5390625
90.63720703125
82.3974609375
70.49560546875
65.91796875
54.931640625
47.607421875
34.7900390625
30.21240234375
19.22607421875
16.4794921875
16.4794921875
9.1552734375
9.1552734375
2.74658203125
0.91552734375
7.32421875
-9.1552734375
-4.57763671875
-10.07080078125
-6.40869140625
-0.91552734375
-9.1552734375
-17.39501953125
-10.986328125
-14.6484375
-8.23974609375
-13.73291015625
-20.1416015625
-18.310546875
-20.1416015625
-20.1416015625
-22.88818359375
-13.73291015625
-14.6484375
-18.310546875
-15.56396484375
-17.39501953125
-15.56396484375
-21.97265625
-19.22607421875
-11.90185546875
-10.07080078125
-17.39501953125
-14.6484375
-12.8173828125
-19.22607421875
-16.4794921875
-13.73291015625
-10.986328125
-14.6484375
-15.56396484375
-12.8173828125
-11.90185546875
-10.986328125
-12.8173828125
-13.73291015625
-14.6484375
-15.56396484375
-9.1552734375
-11.90185546875
-10.07080078125
-9.1552734375
-10.07080078125
-10.986328125
-11.90185546875
-7.32421875
-5.4931640625
-10.986328125
-15.56396484375
-9.1552734375
-10.07080078125
-10.07080078125
-7.32421875
-5.4931640625
-0.91552734375
0
1.8310546875
-19.22607421875
-18.310546875
-15.56396484375
-15.56396484375
-16.4794921875
-14.6484375
-8.23974609375
-10.986328125
-14.6484375
-12.8173828125
-16.4794921875
-14.6484375
-19.22607421875
-17.39501953125
-15.56396484375
-12.8173828125
-15.56396484375
-15.56396484375
-21.05712890625
-16.4794921875
-19.22607421875
-24.71923828125
-23.8037109375
-18.310546875
-21.97265625
-26.55029296875
-23.8037109375
-22.88818359375
-19.22607421875
-22.88818359375
-24.71923828125
-30.21240234375
-21.05712890625
-18.310546875
-16.4794921875
-7.32421875
-10.986328125
-6.40869140625
4.57763671875
11.90185546875
14.6484375
19.22607421875
9.1552734375
2.74658203125
10.986328125
5.4931640625
1.8310546875
4.57763671875
8.23974609375
4.57763671875
-6.40869140625
4.57763671875
11.90185546875
23.8037109375
31.1279296875
39.36767578125
54.931640625
59.50927734375
55.84716796875
51.26953125
43.02978515625
40.283203125
32.04345703125
32.958984375
35.70556640625
48.52294921875
41.19873046875
32.958984375
36.62109375
23.8037109375
18.310546875
-6.40869140625
-25.634765625
-21.05712890625
-20.1416015625
-29.296875
-38.4521484375
-43.02978515625
-29.296875
-37.53662109375
-41.19873046875
-47.607421875
-52.18505859375
-54.01611328125
-54.01611328125
-50.35400390625
-50.35400390625
-48.52294921875
-51.26953125
-44.86083984375
-45.7763671875
-46.69189453125
-52.18505859375
-56.7626953125
-51.26953125
-48.52294921875
-58.59375
-52.18505859375
-48.52294921875
-49.4384765625
-43.02978515625
-48.52294921875
-45.7763671875
-41.19873046875
-48.52294921875
-43.02978515625
-45.7763671875
-43.9453125
-45.7763671875
-46.69189453125
-43.9453125
-32.04345703125
-21.97265625
12.8173828125
43.9453125
85.14404296875
138.24462890625
198.66943359375
250.8544921875
324.0966796875
365.29541015625
430.2978515625
493.46923828125
542.90771484375
576.7822265625
596.923828125
554.8095703125
443.115234375
325.01220703125
209.65576171875
54.01611328125
-75.98876953125
-155.6396484375
-200.50048828125
-204.16259765625
-190.4296875
-181.2744140625
-167.54150390625
-162.9638671875
-157.470703125
-142.822265625
-129.08935546875
-98.876953125
-64.0869140625
-43.9453125
-25.634765625
-17.39501953125
-10.986328125
-12.8173828125
-8.23974609375
-7.32421875
-7.32421875
-8.23974609375
3.662109375
9.1552734375
7.32421875
16.4794921875
15.56396484375
17.39501953125
15.56396484375
21.05712890625
20.1416015625
20.1416015625
25.634765625
24.71923828125
19.22607421875
22.88818359375
30.21240234375
36.62109375
32.958984375
30.21240234375
32.04345703125
33.87451171875
36.62109375
40.283203125
47.607421875
43.9453125
44.86083984375
57.67822265625
55.84716796875
54.01611328125
53.1005859375
55.84716796875
58.59375
56.7626953125
62.255859375
73.2421875
70.49560546875
71.4111328125
78.7353515625
75.0732421875
79.65087890625
86.0595703125
90.63720703125
93.3837890625
93.3837890625
99.79248046875
105.28564453125
108.0322265625
110.77880859375
115.3564453125
125.42724609375
130.0048828125
141.90673828125
142.822265625
146.484375
150.146484375
158.38623046875
167.54150390625
175.78125
188.5986328125
189.51416015625
201.416015625
201.416015625
210.5712890625
227.96630859375
230.712890625
243.5302734375
251.77001953125
260.009765625
270.99609375
280.1513671875
287.4755859375
300.29296875
311.279296875
322.265625
333.251953125
339.66064453125
350.64697265625
362.548828125
359.80224609375
372.61962890625
374.45068359375
384.521484375
398.25439453125
394.59228515625
402.83203125
412.90283203125
422.9736328125
424.8046875
422.9736328125
415.6494140625
423.88916015625
424.8046875
422.05810546875
411.07177734375
407.40966796875
397.3388671875
390.0146484375
371.7041015625
355.224609375
328.67431640625
314.94140625
306.70166015625
282.89794921875
265.5029296875
247.1923828125
234.375
220.64208984375
192.2607421875
173.03466796875
154.72412109375
135.498046875
124.51171875
112.60986328125
100.7080078125
93.3837890625
84.228515625
77.81982421875
61.34033203125
54.931640625
43.02978515625
38.4521484375
40.283203125
35.70556640625
30.21240234375
21.97265625
20.1416015625
19.22607421875
9.1552734375
6.40869140625
1.8310546875
2.74658203125
9.1552734375
0.91552734375
5.4931640625
0.91552734375
-1.8310546875
8.23974609375
3.662109375
0
-6.40869140625
-6.40869140625
-4.57763671875
-6.40869140625
-10.07080078125
1.8310546875
5.4931640625
2.74658203125
0
0.91552734375
-5.4931640625
0.91552734375
0.91552734375
-3.662109375
-9.1552734375
0
2.74658203125
8.23974609375
-5.4931640625
-1.8310546875
-5.4931640625
-5.4931640625
-0.91552734375
0.91552734375
-1.8310546875
1.8310546875
7.32421875
2.74658203125
2.74658203125
5.4931640625
7.32421875
4.57763671875
5.4931640625
10.07080078125
10.07080078125
4.57763671875
6.40869140625
0.91552734375
-0.91552734375
0.91552734375
10.07080078125
10.07080078125
10.986328125
3.662109375
6.40869140625
2.74658203125
8.23974609375
10.07080078125
4.57763671875
1.8310546875
0
-0.91552734375
0.91552734375
1.8310546875
2.74658203125
7.32421875
4.57763671875
4.57763671875
0.91552734375
-1.8310546875
0
-6.40869140625
-2.74658203125
-3.662109375
-2.74658203125
-5.4931640625
-7.32421875
-2.74658203125
-2.74658203125
-8.23974609375
-9.1552734375
-8.23974609375
-7.32421875
-2.74658203125
-3.662109375
-1.8310546875
-6.40869140625
-1.8310546875
-9.1552734375
-10.07080078125
-10.07080078125
-10.986328125
-4.57763671875
-18.310546875
-7.32421875
-12.8173828125
-8.23974609375
-10.07080078125
-11.90185546875
-10.986328125
-15.56396484375
-17.39501953125
-10.07080078125
-12.8173828125
-10.07080078125
-10.986328125
-10.07080078125
-5.4931640625
-8.23974609375
-10.986328125
-8.23974609375
-3.662109375
6.40869140625
9.1552734375
10.07080078125
15.56396484375
11.90185546875
12.8173828125
12.8173828125
12.8173828125
13.73291015625
10.07080078125
10.07080078125
6.40869140625
-2.74658203125
6.40869140625
19.22607421875
37.53662109375
38.4521484375
45.7763671875
56.7626953125
58.59375
64.0869140625
56.7626953125
55.84716796875
47.607421875
43.02978515625
50.35400390625
47.607421875
51.26953125
46.69189453125
34.7900390625
32.958984375
32.958984375
21.97265625
14.6484375
4.57763671875
-2.74658203125
-14.6484375
-22.88818359375
-32.958984375
-29.296875
-26.55029296875
-28.38134765625
-29.296875
-33.87451171875
-36.62109375
-28.38134765625
-29.296875
-30.21240234375
-35.70556640625
-36.62109375
-39.36767578125
-41.19873046875
-38.4521484375
-44.86083984375
-36.62109375
-31.1279296875
-33.87451171875
-43.9453125
-37.53662109375
-35.70556640625
-35.70556640625
-36.62109375
-27.4658203125
-30.21240234375
-26.55029296875
-21.97265625
-24.71923828125
-34.7900390625
-29.296875
-32.958984375
-29.296875
-26.55029296875
-32.04345703125
-23.8037109375
-7.32421875
9.1552734375
41.19873046875
79.65087890625
119.0185546875
164.794921875
222.47314453125
276.4892578125
344.23828125
399.169921875
462.34130859375
531.92138671875
586.85302734375
606.0791015625
619.81201171875
543.8232421875
424.8046875
310.36376953125
184.9365234375
38.4521484375
-82.3974609375
-148.3154296875
-192.2607421875
-192.2607421875
-184.9365234375
-179.443359375
-163.87939453125
-155.6396484375
-132.75146484375
-121.76513671875
-95.21484375
-58.59375
-32.04345703125
-18.310546875
-16.4794921875
-13.73291015625
0
10.07080078125
9.1552734375
21.97265625
11.90185546875
21.97265625
23.8037109375
28.38134765625
23.8037109375
23.8037109375
23.8037109375
32.958984375
33.87451171875
34.7900390625
36.62109375
31.1279296875
33.87451171875
32.04345703125
35.70556640625
43.02978515625
34.7900390625
38.4521484375
43.9453125
49.4384765625
57.67822265625
54.01611328125
57.67822265625
57.67822265625
51.26953125
56.7626953125
62.255859375
64.0869140625
60.4248046875
69.580078125
74.15771484375
73.2421875
76.904296875
84.228515625
86.0595703125
83.31298828125
83.31298828125
86.0595703125
93.3837890625
97.96142578125
93.3837890625
102.5390625
106.201171875
109.86328125
109.86328125
114.44091796875
119.93408203125
124.51171875
124.51171875
132.75146484375
141.90673828125
141.90673828125
144.6533203125
153.80859375
154.72412109375
158.38623046875
168.45703125
175.78125
184.02099609375
192.2607421875
208.740234375
216.97998046875
224.30419921875
228.8818359375
240.78369140625
247.1923828125
260.009765625
264.58740234375
281.982421875
287.4755859375
295.71533203125
304.87060546875
323.18115234375
325.927734375
331.4208984375
340.576171875
347.900390625
361.63330078125
379.0283203125
379.94384765625
399.169921875
396.42333984375
401.0009765625
411.07177734375
407.40966796875
410.15625
424.8046875
430.2978515625
429.38232421875
441.2841796875
449.52392578125
448.6083984375
444.03076171875
433.04443359375
425.72021484375
422.9736328125
416.56494140625
411.07177734375
394.59228515625
381.77490234375
366.2109375
344.23828125
331.4208984375
309.4482421875
292.05322265625
266.41845703125
252.685546875
227.05078125
206.9091796875
195.9228515625
170.2880859375
152.89306640625
143.73779296875
125.42724609375
108.94775390625
105.28564453125
95.21484375
89.7216796875
84.228515625
71.4111328125
65.00244140625
60.4248046875
53.1005859375
45.7763671875
36.62109375
38.4521484375
37.53662109375
31.1279296875
20.1416015625
20.1416015625
25.634765625
27.4658203125
21.05712890625
14.6484375
12.8173828125
15.56396484375
11.90185546875
13.73291015625
15.56396484375
18.310546875
11.90185546875
12.8173828125
14.6484375
10.07080078125
4.57763671875
13.73291015625
15.56396484375
8.23974609375
14.6484375
14.6484375
23.8037109375
24.71923828125
15.56396484375
10.07080078125
4.57763671875
8.23974609375
9.1552734375
11.90185546875
12.8173828125
9.1552734375
24.71923828125
21.97265625
18.310546875
19.22607421875
17.39501953125
17.39501953125
14.6484375
11.90185546875
16.4794921875
19.22607421875
21.05712890625
31.1279296875
21.05712890625
21.05712890625
24.71923828125
28.38134765625
32.04345703125
24.71923828125
32.04345703125
25.634765625
24.71923828125
25.634765625
21.97265625
16.4794921875
21.05712890625
20.1416015625
21.97265625
18.310546875
20.1416015625
19.22607421875
22.88818359375
22.88818359375
25.634765625
23.8037109375
18.310546875
10.986328125
10.986328125
17.39501953125
21.97265625
18.310546875
20.1416015625
19.22607421875
21.97265625
16.4794921875
17.39501953125
21.97265625
10.07080078125
13.73291015625
14.6484375
15.56396484375
21.05712890625
21.05712890625
15.56396484375
14.6484375
16.4794921875
16.4794921875
15.56396484375
18.310546875
17.39501953125
10.07080078125
2.74658203125
3.662109375
5.4931640625
6.40869140625
5.4931640625
11.90185546875
3.662109375
0
5.4931640625
11.90185546875
10.986328125
4.57763671875
3.662109375
2.74658203125
7.32421875
7.32421875
20.1416015625
18.310546875
10.07080078125
27.4658203125
37.53662109375
38.4521484375
34.7900390625
33.87451171875
39.36767578125
42.1142578125
41.19873046875
29.296875
28.38134765625
28.38134765625
28.38134765625
22.88818359375
19.22607421875
21.97265625
33.87451171875
54.01611328125
68.66455078125
75.98876953125
89.7216796875
86.97509765625
73.2421875
72.32666015625
68.66455078125
71.4111328125
69.580078125
70.49560546875
71.4111328125
82.3974609375
74.15771484375
57.67822265625
56.7626953125
46.69189453125
38.4521484375
34.7900390625
20.1416015625
6.40869140625
18.310546875
2.74658203125
-3.662109375
4.57763671875
5.4931640625
1.8310546875
-7.32421875
-3.662109375
-7.32421875
-6.40869140625
-10.986328125
-9.1552734375
-8.23974609375
-10.986328125
-5.4931640625
-10.07080078125
-17.39501953125
-6.40869140625
-13.73291015625
-5.4931640625
-10.07080078125
-15.56396484375
-8.23974609375
-2.74658203125
-1.8310546875
-11.90185546875
-10.986328125
-7.32421875
-5.4931640625
-8.23974609375
-5.4931640625
-4.57763671875
-6.40869140625
-5.4931640625
2.74658203125
0.91552734375
0
9.1552734375
13.73291015625
16.4794921875
46.69189453125
82.3974609375
122.6806640625
166.6259765625
218.81103515625
290.22216796875
346.98486328125
394.59228515625
474.2431640625
533.75244140625
580.4443359375
604.248046875
617.98095703125
542.90771484375
431.21337890625
312.19482421875
172.119140625
20.1416015625
-99.79248046875
-149.23095703125
-165.71044921875
-159.3017578125
-148.3154296875
-134.58251953125
-120.849609375
-122.6806640625
-137.3291015625
-133.6669921875
-117.1875
-86.0595703125
-51.26953125
-20.1416015625
-5.4931640625
2.74658203125
9.1552734375
19.22607421875
21.05712890625
21.97265625
29.296875
43.02978515625
42.1142578125
43.02978515625
43.02978515625
50.35400390625
50.35400390625
58.59375
55.84716796875
61.34033203125
63.17138671875
66.83349609375
67.7490234375
65.91796875
63.17138671875
62.255859375
55.84716796875
62.255859375
63.17138671875
65.91796875
60.4248046875
71.4111328125
74.15771484375
80.56640625
75.98876953125
75.0732421875
83.31298828125
96.13037109375
100.7080078125
94.29931640625
83.31298828125
81.48193359375
89.7216796875
97.0458984375
94.29931640625
100.7080078125
106.201171875
111.6943359375
110.77880859375
118.10302734375
118.10302734375
119.0185546875
116.27197265625
131.8359375
140.9912109375
144.6533203125
148.3154296875
151.9775390625
159.3017578125
157.470703125
158.38623046875
164.794921875
170.2880859375
184.02099609375
189.51416015625
200.50048828125
199.5849609375
207.82470703125
207.82470703125
218.81103515625
227.96630859375
233.45947265625
244.44580078125
251.77001953125
265.5029296875
274.658203125
285.64453125
297.54638671875
305.7861328125
314.02587890625
325.01220703125
339.66064453125
350.64697265625
358.88671875
368.95751953125
379.0283203125
384.521484375
396.42333984375
401.91650390625
408.3251953125
412.90283203125
416.56494140625
434.87548828125
440.36865234375
445.86181640625
455.9326171875
468.75
471.49658203125
466.9189453125
466.00341796875
468.75
468.75
467.83447265625
464.17236328125
455.9326171875
455.9326171875
442.19970703125
433.9599609375
414.73388671875
394.59228515625
380.859375
360.7177734375
337.82958984375
314.02587890625
305.7861328125
290.22216796875
269.1650390625
245.361328125
224.30419921875
215.14892578125
191.34521484375
173.9501953125
157.470703125
143.73779296875
130.92041015625
121.76513671875
111.6943359375
97.96142578125
86.97509765625
78.7353515625
70.49560546875
68.66455078125
55.84716796875
60.4248046875
54.01611328125
45.7763671875
46.69189453125
49.4384765625
43.02978515625
34.7900390625
33.87451171875
24.71923828125
21.97265625
31.1279296875
33.87451171875
27.4658203125
25.634765625
22.88818359375
17.39501953125
16.4794921875
26.55029296875
12.8173828125
15.56396484375
12.8173828125
10.986328125
16.4794921875
12.8173828125
12.8173828125
17.39501953125
19.22607421875
19.22607421875
18.310546875
16.4794921875
18.310546875
17.39501953125
18.310546875
17.39501953125
22.88818359375
17.39501953125
12.8173828125
10.07080078125
10.07080078125
14.6484375
22.88818359375
18.310546875
21.05712890625
27.4658203125
28.38134765625
21.05712890625
14.6484375
16.4794921875
19.22607421875
18.310546875
12.8173828125
17.39501953125
20.1416015625
28.38134765625
21.05712890625
13.73291015625
12.8173828125
10.07080078125
10.986328125
13.73291015625
13.73291015625
15.56396484375
22.88818359375
11.90185546875
16.4794921875
13.73291015625
14.6484375
16.4794921875
24.71923828125
18.310546875
17.39501953125
15.56396484375
15.56396484375
14.6484375
10.07080078125
12.8173828125
12.8173828125
16.4794921875
10.07080078125
5.4931640625
10.986328125
11.90185546875
5.4931640625
1.8310546875
5.4931640625
6.40869140625
7.32421875
5.4931640625
0
10.07080078125
8.23974609375
0
5.4931640625
7.32421875
5.4931640625
8.23974609375
11.90185546875
18.310546875
16.4794921875
21.05712890625
28.38134765625
31.1279296875
33.87451171875
34.7900390625
30.21240234375
31.1279296875
32.04345703125
24.71923828125
23.8037109375
21.97265625
26.55029296875
32.958984375
41.19873046875
54.931640625
68.66455078125
79.65087890625
79.65087890625
75.0732421875
78.7353515625
70.49560546875
70.49560546875
72.32666015625
68.66455078125
70.49560546875
77.81982421875
63.17138671875
59.50927734375
55.84716796875
45.7763671875
39.36767578125
36.62109375
29.296875
19.22607421875
10.986328125
-3.662109375
-8.23974609375
-11.90185546875
-21.05712890625
-22.88818359375
-24.71923828125
-21.05712890625
-21.05712890625
-20.1416015625
-19.22607421875
-25.634765625
-24.71923828125
-28.38134765625
-26.55029296875
-29.296875
-32.958984375
-22.88818359375
-16.4794921875
-24.71923828125
-23.8037109375
-21.05712890625
-29.296875
-25.634765625
-29.296875
-30.21240234375
-26.55029296875
-30.21240234375
-26.55029296875
-17.39501953125
-21.05712890625
-25.634765625
-22.88818359375
-12.8173828125
-18.310546875
-21.05712890625
-24.71923828125
-26.55029296875
-16.4794921875
-11.90185546875
5.4931640625
21.97265625
65.91796875
94.29931640625
149.23095703125
214.2333984375
271.91162109375
337.82958984375
393.6767578125
459.5947265625
525.5126953125
561.21826171875
584.1064453125
601.50146484375
531.005859375
413.818359375
292.96875
151.9775390625
4.57763671875
-107.11669921875
-158.38623046875
-179.443359375
-181.2744140625
-167.54150390625
-160.21728515625
-144.6533203125
-157.470703125
-156.55517578125
-146.484375
-131.8359375
-98.876953125
-62.255859375
-39.36767578125
-21.05712890625
-8.23974609375
-11.90185546875
-1.8310546875
4.57763671875
6.40869140625
11.90185546875
13.73291015625
20.1416015625
24.71923828125
21.97265625
21.05712890625
24.71923828125
23.8037109375
31.1279296875
26.55029296875
28.38134765625
31.1279296875
36.62109375
37.53662109375
37.53662109375
29.296875
35.70556640625
36.62109375
42.1142578125
44.86083984375
56.7626953125
53.1005859375
57.67822265625
48.52294921875
61.34033203125
60.4248046875
57.67822265625
60.4248046875
59.50927734375
65.91796875
66.83349609375
69.580078125
74.15771484375
72.32666015625
78.7353515625
75.0732421875
78.7353515625
86.97509765625
91.552734375
97.0458984375
100.7080078125
97.0458984375
97.0458984375
94.29931640625
108.94775390625
114.44091796875
114.44091796875
119.93408203125
120.849609375
125.42724609375
131.8359375
142.822265625
147.39990234375
151.9775390625
151.9775390625
158.38623046875
167.54150390625
173.03466796875
183.10546875
184.9365234375
196.83837890625
208.740234375
216.97998046875
228.8818359375
234.375
243.5302734375
251.77001953125
260.92529296875
279.23583984375
286.56005859375
299.37744140625
310.36376953125
319.51904296875
325.01220703125
337.82958984375
339.66064453125
349.7314453125
356.14013671875
370.78857421875
376.28173828125
387.26806640625
392.76123046875
400.08544921875
410.15625
411.9873046875
413.818359375
420.22705078125
426.6357421875
437.6220703125
437.6220703125
442.19970703125
434.87548828125
427.55126953125
422.9736328125
414.73388671875
401.0009765625
389.09912109375
375.3662109375
362.548828125
344.23828125
328.67431640625
313.1103515625
293.88427734375
277.40478515625
254.5166015625
236.2060546875
219.7265625
203.2470703125
188.5986328125
172.119140625
154.72412109375
144.6533203125
125.42724609375
107.11669921875
98.876953125
83.31298828125
73.2421875
67.7490234375
59.50927734375
52.18505859375
52.18505859375
43.9453125
40.283203125
31.1279296875
25.634765625
23.8037109375
18.310546875
15.56396484375
10.07080078125
11.90185546875
9.1552734375
12.8173828125
8.23974609375
2.74658203125
1.8310546875
-1.8310546875
0.91552734375
-3.662109375
0.91552734375
-6.40869140625
6.40869140625
1.8310546875
0.91552734375
0
0.91552734375
-0.91552734375
-5.4931640625
-6.40869140625
-2.74658203125
0.91552734375
-0.91552734375
0.91552734375
-0.91552734375
-2.74658203125
-5.4931640625
-8.23974609375
-8.23974609375
0
-13.73291015625
-5.4931640625
0.91552734375
-2.74658203125
3.662109375
-0.91552734375
5.4931640625
6.40869140625
0
-2.74658203125
-2.74658203125
0
5.4931640625
4.57763671875
4.57763671875
6.40869140625
2.74658203125
-3.662109375
-0.91552734375
3.662109375
4.57763671875
-0.91552734375
6.40869140625
12.8173828125
9.1552734375
8.23974609375
7.32421875
0.91552734375
3.662109375
-0.91552734375
0.91552734375
3.662109375
8.23974609375
0
0
-1.8310546875
0
-0.91552734375
1.8310546875
-0.91552734375
-1.8310546875
4.57763671875
5.4931640625
3.662109375
2.74658203125
1.8310546875
-0.91552734375
-4.57763671875
-8.23974609375
-2.74658203125
-6.40869140625
-4.57763671875
-3.662109375
0.91552734375
-5.4931640625
-1.8310546875
-10.07080078125
-11.90185546875
-8.23974609375
1.8310546875
-7.32421875
-7.32421875
-5.4931640625
-7.32421875
-7.32421875
-8.23974609375
-11.90185546875
-10.07080078125
-10.986328125
-11.90185546875
-13.73291015625
-18.310546875
-10.07080078125
-9.1552734375
-5.4931640625
-9.1552734375
-13.73291015625
-16.4794921875
-18.310546875
-10.07080078125
-13.73291015625
-6.40869140625
13.73291015625
18.310546875
16.4794921875
16.4794921875
17.39501953125
16.4794921875
21.97265625
19.22607421875
19.22607421875
23.8037109375
21.97265625
10.07080078125
2.74658203125
7.32421875
22.88818359375
38.4521484375
43.9453125
54.931640625
56.7626953125
60.4248046875
55.84716796875
56.7626953125
44.86083984375
36.62109375
43.02978515625
43.02978515625
46.69189453125
53.1005859375
44.86083984375
34.7900390625
28.38134765625
23.8037109375
27.4658203125
9.1552734375
-4.57763671875
-16.4794921875
-14.6484375
-12.8173828125
-23.8037109375
-27.4658203125
-26.55029296875
-21.97265625
-25.634765625
-32.04345703125
-27.4658203125
-33.87451171875
-34.7900390625
-27.4658203125
-29.296875
-28.38134765625
-26.55029296875
-21.97265625
-30.21240234375
-34.7900390625
-42.1142578125
-32.04345703125
-32.958984375
-32.04345703125
-34.7900390625
-32.958984375
-20.1416015625
-22.88818359375
-18.310546875
-21.97265625
-21.97265625
-31.1279296875
-31.1279296875
-25.634765625
-32.958984375
-31.1279296875
-27.4658203125
-21.97265625
-24.71923828125
-21.05712890625
1.8310546875
15.56396484375
43.02978515625
91.552734375
126.3427734375
173.03466796875
237.12158203125
300.29296875
360.7177734375
414.73388671875
476.98974609375
532.8369140625
586.85302734375
613.4033203125
634.46044921875
563.96484375
437.6220703125
325.927734375
196.83837890625
56.7626953125
-68.66455078125
-148.3154296875
-189.51416015625
-189.51416015625
-171.20361328125
-163.87939453125
-163.87939453125
-146.484375
-131.8359375
-114.44091796875
-88.80615234375
-62.255859375
-29.296875
-16.4794921875
-1.8310546875
4.57763671875
4.57763671875
6.40869140625
11.90185546875
18.310546875
23.8037109375
21.05712890625
21.05712890625
27.4658203125
24.71923828125
28.38134765625
28.38134765625
29.296875
34.7900390625
37.53662109375
28.38134765625
29.296875
32.958984375
44.86083984375
43.9453125
44.86083984375
47.607421875
52.18505859375
49.4384765625
43.9453125
48.52294921875
51.26953125
46.69189453125
45.7763671875
58.59375
57.67822265625
57.67822265625
60.4248046875
68.66455078125
68.66455078125
70.49560546875
75.0732421875
71.4111328125
65.00244140625
79.65087890625
87.890625
92.46826171875
96.13037109375
91.552734375
84.228515625
92.46826171875
94.29931640625
94.29931640625
102.5390625
101.62353515625
106.201171875
119.93408203125
120.849609375
121.76513671875
127.25830078125
129.08935546875
128.173828125
132.75146484375
143.73779296875
150.146484375
155.6396484375
165.71044921875
174.86572265625
183.10546875
197.75390625
190.4296875
198.66943359375
215.14892578125
224.30419921875
224.30419921875
238.037109375
249.93896484375
265.5029296875
271.91162109375
281.982421875
284.72900390625
296.630859375
303.955078125
324.0966796875
336.9140625
340.576171875
353.3935546875
360.7177734375
359.80224609375
369.873046875
378.11279296875
390.0146484375
401.91650390625
401.0009765625
410.15625
424.8046875
430.2978515625
431.21337890625
433.9599609375
438.53759765625
442.19970703125
443.115234375
439.453125
433.9599609375
431.21337890625
422.05810546875
415.6494140625
399.169921875
390.93017578125
372.61962890625
353.3935546875
338.7451171875
321.35009765625
303.955078125
281.982421875
270.08056640625
247.1923828125
223.388671875
215.14892578125
201.416015625
184.9365234375
163.87939453125
142.822265625
136.41357421875
126.3427734375
115.3564453125
100.7080078125
86.97509765625
87.890625
75.0732421875
62.255859375
51.26953125
48.52294921875
46.69189453125
37.53662109375
43.9453125
35.70556640625
36.62109375
29.296875
21.05712890625
22.88818359375
21.05712890625
17.39501953125
21.05712890625
19.22607421875
14.6484375
23.8037109375
25.634765625
19.22607421875
16.4794921875
9.1552734375
10.986328125
13.73291015625
10.986328125
15.56396484375
17.39501953125
14.6484375
12.8173828125
17.39501953125
17.39501953125
15.56396484375
16.4794921875
13.73291015625
17.39501953125
13.73291015625
10.986328125
14.6484375
16.4794921875
12.8173828125
14.6484375
14.6484375
21.97265625
11.90185546875
2.74658203125
8.23974609375
17.39501953125
15.56396484375
13.73291015625
23.8037109375
19.22607421875
18.310546875
15.56396484375
12.8173828125
21.97265625
24.71923828125
20.1416015625
21.05712890625
20.1416015625
19.22607421875
18.310546875
20.1416015625
18.310546875
10.07080078125
13.73291015625
16.4794921875
14.6484375
21.97265625
18.310546875
22.88818359375
24.71923828125
20.1416015625
16.4794921875
15.56396484375
13.73291015625
10.986328125
15.56396484375
17.39501953125
17.39501953125
13.73291015625
12.8173828125
7.32421875
6.40869140625
8.23974609375
12.8173828125
10.986328125
12.8173828125
13.73291015625
10.07080078125
13.73291015625
11.90185546875
2.74658203125
10.07080078125
8.23974609375
4.57763671875
-1.8310546875
8.23974609375
8.23974609375
9.1552734375
7.32421875
3.662109375
-1.8310546875
-2.74658203125
5.4931640625
13.73291015625
7.32421875
0
3.662109375
3.662109375
5.4931640625
-1.8310546875
-0.91552734375
-4.57763671875
-4.57763671875
-3.662109375
0
-2.74658203125
-2.74658203125
-2.74658203125
-2.74658203125
-3.662109375
-13.73291015625
-5.4931640625
-10.07080078125
-0.91552734375
-4.57763671875
-1.8310546875
7.32421875
10.986328125
2.74658203125
14.6484375
24.71923828125
25.634765625
22.88818359375
21.05712890625
18.310546875
19.22607421875
20.1416015625
20.1416015625
23.8037109375
24.71923828125
15.56396484375
7.32421875
10.07080078125
20.1416015625
41.19873046875
52.18505859375
70.49560546875
68.66455078125
69.580078125
67.7490234375
65.00244140625
64.0869140625
54.931640625
47.607421875
53.1005859375
59.50927734375
57.67822265625
59.50927734375
47.607421875
38.4521484375
34.7900390625
29.296875
18.310546875
10.986328125
0
-8.23974609375
-5.4931640625
-7.32421875
-6.40869140625
-9.1552734375
-22.88818359375
-19.22607421875
-21.97265625
-12.8173828125
-14.6484375
-21.97265625
-21.05712890625
-19.22607421875
-26.55029296875
-27.4658203125
-32.04345703125
-32.958984375
-22.88818359375
-26.55029296875
-21.97265625
-20.1416015625
-19.22607421875
-19.22607421875
-19.22607421875
-21.05712890625
-15.56396484375
-20.1416015625
-21.05712890625
-17.39501953125
-14.6484375
-22.88818359375
-16.4794921875
-15.56396484375
-14.6484375
-15.56396484375
-12.8173828125
-18.310546875
-13.73291015625
-4.57763671875
11.90185546875
31.1279296875
55.84716796875
92.46826171875
138.24462890625
189.51416015625
247.1923828125
306.70166015625
361.63330078125
411.07177734375
476.07421875
541.9921875
589.599609375
625.30517578125
639.95361328125
548.40087890625
418.39599609375
298.4619140625
173.03466796875
36.62109375
-71.4111328125
-146.484375
-172.119140625
-168.45703125
-158.38623046875
-151.9775390625
-147.39990234375
-141.90673828125
-122.6806640625
-104.3701171875
-86.0595703125
-49.4384765625
-22.88818359375
-4.57763671875
7.32421875
14.6484375
15.56396484375
15.56396484375
13.73291015625
27.4658203125
30.21240234375
29.296875
33.87451171875
35.70556640625
38.4521484375
43.02978515625
40.283203125
43.02978515625
47.607421875
44.86083984375
49.4384765625
45.7763671875
51.26953125
54.01611328125
56.7626953125
54.01611328125
55.84716796875
61.34033203125
59.50927734375
58.59375
72.32666015625
67.7490234375
60.4248046875
65.00244140625
76.904296875
75.98876953125
70.49560546875
79.65087890625
79.65087890625
80.56640625
86.0595703125
83.31298828125
92.46826171875
96.13037109375
99.79248046875
100.7080078125
97.96142578125
97.0458984375
97.96142578125
117.1875
120.849609375
116.27197265625
118.10302734375
128.173828125
123.59619140625
127.25830078125
136.41357421875
143.73779296875
150.146484375
149.23095703125
162.9638671875
173.03466796875
173.03466796875
175.78125
179.443359375
193.17626953125
191.34521484375
192.2607421875
205.99365234375
216.064453125
226.13525390625
227.05078125
235.29052734375
249.93896484375
257.26318359375
265.5029296875
270.99609375
282.89794921875
295.71533203125
311.279296875
318.603515625
326.84326171875
340.576171875
346.0693359375
366.2109375
374.45068359375
375.3662109375
383.60595703125
383.60595703125
398.25439453125
411.9873046875
418.39599609375
427.55126953125
431.21337890625
441.2841796875
447.69287109375
455.01708984375
453.18603515625
466.00341796875
473.32763671875
478.82080078125
468.75
470.5810546875
469.66552734375
464.17236328125
466.00341796875
444.03076171875
427.55126953125
421.142578125
412.90283203125
400.08544921875
386.3525390625
368.95751953125
346.0693359375
330.50537109375
305.7861328125
285.64453125
269.1650390625
243.5302734375
227.05078125
213.31787109375
196.83837890625
182.18994140625
166.6259765625
145.56884765625
134.58251953125
119.0185546875
108.94775390625
94.29931640625
86.97509765625
80.56640625
80.56640625
76.904296875
70.49560546875
66.83349609375
62.255859375
51.26953125
48.52294921875
43.02978515625
46.69189453125
39.36767578125
34.7900390625
41.19873046875
32.958984375
36.62109375
34.7900390625
30.21240234375
23.8037109375
32.958984375
39.36767578125
26.55029296875
32.04345703125
34.7900390625
32.04345703125
38.4521484375
35.70556640625
36.62109375
37.53662109375
36.62109375
35.70556640625
35.70556640625
26.55029296875
32.04345703125
36.62109375
47.607421875
38.4521484375
40.283203125
32.958984375
34.7900390625
33.87451171875
34.7900390625
37.53662109375
30.21240234375
32.04345703125
39.36767578125
40.283203125
40.283203125
36.62109375
37.53662109375
42.1142578125
37.53662109375
36.62109375
32.958984375
40.283203125
43.02978515625
38.4521484375
