ECG
19.22607421875
11.90185546875
19.22607421875
18.310546875
19.22607421875
4.57763671875
-0.91552734375
0
-18.310546875
-28.38134765625
-23.8037109375
-24.71923828125
-31.1279296875
-43.9453125
-43.02978515625
-54.01611328125
-67.7490234375
-69.580078125
-77.81982421875
-83.31298828125
-90.63720703125
-95.21484375
-101.62353515625
-103.45458984375
-112.60986328125
-113.525390625
-110.77880859375
-117.1875
-122.6806640625
-130.0048828125
-134.58251953125
-136.41357421875
-138.24462890625
-143.73779296875
-138.24462890625
-144.6533203125
-147.39990234375
-148.3154296875
-156.55517578125
-153.80859375
-149.23095703125
-156.55517578125
-161.1328125
-161.1328125
-169.37255859375
-166.6259765625
-167.54150390625
-162.9638671875
-159.3017578125
-163.87939453125
-165.71044921875
-169.37255859375
-168.45703125
-167.54150390625
-164.794921875
-156.55517578125
-173.03466796875
-176.69677734375
-166.6259765625
-165.71044921875
-169.37255859375
-158.38623046875
-163.87939453125
-171.20361328125
-164.794921875
-162.9638671875
-160.21728515625
-162.04833984375
-162.9638671875
-153.80859375
-155.6396484375
-162.9638671875
-151.9775390625
-151.9775390625
-158.38623046875
-153.80859375
-158.38623046875
-151.06201171875
-141.90673828125
-143.73779296875
-148.3154296875
-152.89306640625
-156.55517578125
-149.23095703125
-142.822265625
-138.24462890625
-148.3154296875
-140.9912109375
-145.56884765625
-137.3291015625
-140.9912109375
-138.24462890625
-140.07568359375
-145.56884765625
-148.3154296875
-140.07568359375
-142.822265625
-140.9912109375
-141.90673828125
-143.73779296875
-137.3291015625
-132.75146484375
-137.3291015625
-140.9912109375
-141.90673828125
-142.822265625
-149.23095703125
-147.39990234375
-149.23095703125
-149.23095703125
-150.146484375
-145.56884765625
-150.146484375
-154.72412109375
-150.146484375
-148.3154296875
-149.23095703125
-152.89306640625
-150.146484375
-156.55517578125
-168.45703125
-160.21728515625
-153.80859375
-155.6396484375
-155.6396484375
-162.9638671875
-159.3017578125
-160.21728515625
-159.3017578125
-160.21728515625
-157.470703125
-167.54150390625
-165.71044921875
-174.86572265625
-166.6259765625
-162.9638671875
-169.37255859375
-171.20361328125
-166.6259765625
-170.2880859375
-173.9501953125
-170.2880859375
-170.2880859375
-169.37255859375
-161.1328125
-169.37255859375
-174.86572265625
-172.119140625
-173.03466796875
-173.03466796875
-176.69677734375
-184.02099609375
-175.78125
-178.52783203125
-184.9365234375
-180.35888671875
-180.35888671875
-176.69677734375
-172.119140625
-173.03466796875
-179.443359375
-179.443359375
-180.35888671875
-183.10546875
-177.6123046875
-182.18994140625
-181.2744140625
-183.10546875
-182.18994140625
-176.69677734375
-171.20361328125
-174.86572265625
-174.86572265625
-179.443359375
-177.6123046875
-182.18994140625
-184.02099609375
-179.443359375
-174.86572265625
-173.9501953125
-184.9365234375
-184.9365234375
-180.35888671875
-182.18994140625
-170.2880859375
-179.443359375
-186.767578125
-190.4296875
-184.9365234375
-181.2744140625
-183.10546875
-180.35888671875
-174.86572265625
-175.78125
-184.9365234375
-182.18994140625
-179.443359375
-171.20361328125
-168.45703125
-177.6123046875
-182.18994140625
-175.78125
-176.69677734375
-179.443359375
-181.2744140625
-179.443359375
-185.85205078125
-177.6123046875
-173.9501953125
-162.04833984375
-160.21728515625
-159.3017578125
-155.6396484375
-147.39990234375
-148.3154296875
-139.16015625
-127.25830078125
-129.08935546875
-137.3291015625
-144.6533203125
-150.146484375
-151.06201171875
-141.90673828125
-144.6533203125
-127.25830078125
-105.28564453125
-102.5390625
-109.86328125
-109.86328125
-118.10302734375
-119.0185546875
-120.849609375
-123.59619140625
-129.08935546875
-130.92041015625
-134.58251953125
-138.24462890625
-140.9912109375
-140.9912109375
-146.484375
-140.07568359375
-151.06201171875
-162.9638671875
-165.71044921875
-172.119140625
-183.10546875
-189.51416015625
-188.5986328125
-194.091796875
-191.34521484375
-187.68310546875
-190.4296875
-188.5986328125
-184.02099609375
-192.2607421875
-188.5986328125
-195.9228515625
-200.50048828125
-189.51416015625
-188.5986328125
-194.091796875
-190.4296875
-192.2607421875
-197.75390625
-193.17626953125
-202.33154296875
-205.078125
-203.2470703125
-197.75390625
-198.66943359375
-203.2470703125
-205.078125
-209.65576171875
-214.2333984375
-200.50048828125
-200.50048828125
-202.33154296875
-202.33154296875
-206.9091796875
-182.18994140625
-145.56884765625
-133.6669921875
-109.86328125
-85.14404296875
-31.1279296875
22.88818359375
50.35400390625
111.6943359375
206.9091796875
273.74267578125
368.0419921875
451.35498046875
530.09033203125
568.54248046875
539.24560546875
404.6630859375
254.5166015625
150.146484375
34.7900390625
-85.14404296875
-173.9501953125
-214.2333984375
-202.33154296875
-181.2744140625
-188.5986328125
-184.02099609375
-181.2744140625
-191.34521484375
-193.17626953125
-205.99365234375
-203.2470703125
-184.9365234375
-153.80859375
-138.24462890625
-126.3427734375
-128.173828125
-132.75146484375
-131.8359375
-122.6806640625
-119.93408203125
-109.86328125
-109.86328125
-123.59619140625
-124.51171875
-122.6806640625
-127.25830078125
-122.6806640625
-121.76513671875
-122.6806640625
-116.27197265625
-115.3564453125
-117.1875
-114.44091796875
-115.3564453125
-117.1875
-107.11669921875
-106.201171875
-101.62353515625
-99.79248046875
-108.0322265625
-108.0322265625
-102.5390625
-108.0322265625
-106.201171875
-100.7080078125
-91.552734375
-86.0595703125
-78.7353515625
-79.65087890625
-86.0595703125
-79.65087890625
-83.31298828125
-82.3974609375
-80.56640625
-82.3974609375
-73.2421875
-67.7490234375
-67.7490234375
-65.91796875
-64.0869140625
-65.91796875
-51.26953125
-48.52294921875
-54.931640625
-52.18505859375
-51.26953125
-47.607421875
-41.19873046875
-32.04345703125
-25.634765625
-35.70556640625
-29.296875
-26.55029296875
-10.986328125
-5.4931640625
-0.91552734375
0
-7.32421875
8.23974609375
28.38134765625
28.38134765625
29.296875
31.1279296875
25.634765625
32.04345703125
32.958984375
38.4521484375
44.86083984375
49.4384765625
56.7626953125
53.1005859375
50.35400390625
49.4384765625
44.86083984375
43.02978515625
43.9453125
42.1142578125
38.4521484375
41.19873046875
34.7900390625
33.87451171875
33.87451171875
28.38134765625
19.22607421875
12.8173828125
10.07080078125
6.40869140625
0.91552734375
-9.1552734375
-10.07080078125
-16.4794921875
-17.39501953125
-29.296875
-34.7900390625
-42.1142578125
-45.7763671875
-42.1142578125
-45.7763671875
-52.18505859375
-56.7626953125
-68.66455078125
-65.00244140625
-76.904296875
-86.0595703125
-86.97509765625
-89.7216796875
-89.7216796875
-93.3837890625
-99.79248046875
-100.7080078125
-97.96142578125
-97.0458984375
-102.5390625
-103.45458984375
-100.7080078125
-108.0322265625
-111.6943359375
-112.60986328125
-116.27197265625
-123.59619140625
-125.42724609375
-129.08935546875
-131.8359375
-135.498046875
-119.0185546875
-126.3427734375
-114.44091796875
-126.3427734375
-125.42724609375
-127.25830078125
-133.6669921875
-133.6669921875
-133.6669921875
-128.173828125
-133.6669921875
-126.3427734375
-126.3427734375
-130.92041015625
-129.08935546875
-127.25830078125
-125.42724609375
-129.08935546875
-126.3427734375
-123.59619140625
-116.27197265625
-120.849609375
-130.92041015625
-127.25830078125
-126.3427734375
-117.1875
-124.51171875
-125.42724609375
-115.3564453125
-112.60986328125
-107.11669921875
-109.86328125
-117.1875
-116.27197265625
-107.11669921875
-110.77880859375
-113.525390625
-113.525390625
-108.94775390625
-103.45458984375
-108.0322265625
-106.201171875
-106.201171875
-109.86328125
-102.5390625
-99.79248046875
-103.45458984375
-108.94775390625
-103.45458984375
-107.11669921875
-106.201171875
-106.201171875
-103.45458984375
-103.45458984375
-105.28564453125
-122.6806640625
-115.3564453125
-108.0322265625
-104.3701171875
-112.60986328125
-109.86328125
-115.3564453125
-111.6943359375
-114.44091796875
-110.77880859375
-107.11669921875
-110.77880859375
-118.10302734375
-114.44091796875
-120.849609375
-120.849609375
-117.1875
-116.27197265625
-116.27197265625
-119.93408203125
-115.3564453125
-119.93408203125
-116.27197265625
-120.849609375
-121.76513671875
-119.93408203125
-126.3427734375
-122.6806640625
-123.59619140625
-129.08935546875
-130.92041015625
-127.25830078125
-127.25830078125
-131.8359375
-131.8359375
-140.9912109375
-139.16015625
-136.41357421875
-128.173828125
-119.93408203125
-128.173828125
-134.58251953125
-148.3154296875
-145.56884765625
-131.8359375
-131.8359375
-136.41357421875
-133.6669921875
-139.16015625
-145.56884765625
-144.6533203125
-133.6669921875
-139.16015625
-140.9912109375
-138.24462890625
-147.39990234375
-143.73779296875
-138.24462890625
-134.58251953125
-131.8359375
-134.58251953125
-134.58251953125
-140.07568359375
-146.484375
-137.3291015625
-151.06201171875
-149.23095703125
-149.23095703125
-145.56884765625
-142.822265625
-140.9912109375
-135.498046875
-137.3291015625
-131.8359375
-143.73779296875
-139.16015625
-133.6669921875
-142.822265625
-136.41357421875
-137.3291015625
-134.58251953125
-141.90673828125
-149.23095703125
-149.23095703125
-136.41357421875
-135.498046875
-130.92041015625
-132.75146484375
-134.58251953125
-139.16015625
-139.16015625
-133.6669921875
-137.3291015625
-140.9912109375
-139.16015625
-127.25830078125
-126.3427734375
-128.173828125
-129.08935546875
-107.11669921875
-95.21484375
-99.79248046875
-94.29931640625
-99.79248046875
-117.1875
-116.27197265625
-108.94775390625
-118.10302734375
-128.173828125
-119.93408203125
-93.3837890625
-71.4111328125
-74.15771484375
-81.48193359375
-82.3974609375
-86.97509765625
-90.63720703125
-104.3701171875
-97.0458984375
-106.201171875
-105.28564453125
-103.45458984375
-107.11669921875
-123.59619140625
-119.0185546875
-109.86328125
-109.86328125
-117.1875
-135.498046875
-137.3291015625
-140.9912109375
-152.89306640625
-165.71044921875
-166.6259765625
-151.9775390625
-149.23095703125
-156.55517578125
-149.23095703125
-140.07568359375
-146.484375
-153.80859375
-146.484375
-147.39990234375
-159.3017578125
-162.9638671875
-168.45703125
-165.71044921875
-153.80859375
-148.3154296875
-156.55517578125
-165.71044921875
-163.87939453125
-161.1328125
-166.6259765625
-170.2880859375
-173.03466796875
-169.37255859375
-173.03466796875
-173.9501953125
-176.69677734375
-173.9501953125
-160.21728515625
-159.3017578125
-162.9638671875
-146.484375
-115.3564453125
-96.13037109375
-72.32666015625
-56.7626953125
-18.310546875
39.36767578125
58.59375
78.7353515625
165.71044921875
249.0234375
317.68798828125
384.521484375
459.5947265625
510.8642578125
527.34375
455.9326171875
308.53271484375
219.7265625
156.55517578125
43.02978515625
-37.53662109375
-74.15771484375
-96.13037109375
-80.56640625
-70.49560546875
-75.98876953125
-87.890625
-101.62353515625
-126.3427734375
-141.90673828125
-173.9501953125
-172.119140625
-164.794921875
-142.822265625
-126.3427734375
-122.6806640625
-113.525390625
-108.94775390625
-109.86328125
-112.60986328125
-108.0322265625
-95.21484375
-103.45458984375
-108.94775390625
-100.7080078125
-111.6943359375
-102.5390625
-97.96142578125
-98.876953125
-92.46826171875
-97.96142578125
-98.876953125
-101.62353515625
-103.45458984375
-105.28564453125
-90.63720703125
-97.0458984375
-100.7080078125
-102.5390625
-98.876953125
-102.5390625
-93.3837890625
-86.97509765625
-79.65087890625
-89.7216796875
-82.3974609375
-82.3974609375
-79.65087890625
-66.83349609375
-72.32666015625
-77.81982421875
-77.81982421875
-79.65087890625
-69.580078125
-68.66455078125
-56.7626953125
-63.17138671875
-65.91796875
-52.18505859375
-62.255859375
-55.84716796875
-53.1005859375
-45.7763671875
-35.70556640625
-38.4521484375
-36.62109375
-41.19873046875
-32.958984375
-32.958984375
-33.87451171875
-34.7900390625
-26.55029296875
-25.634765625
-22.88818359375
-12.8173828125
-5.4931640625
0.91552734375
5.4931640625
0
3.662109375
12.8173828125
10.07080078125
10.07080078125
15.56396484375
24.71923828125
24.71923828125
36.62109375
41.19873046875
24.71923828125
26.55029296875
27.4658203125
28.38134765625
32.04345703125
30.21240234375
16.4794921875
21.05712890625
30.21240234375
22.88818359375
16.4794921875
10.986328125
17.39501953125
16.4794921875
12.8173828125
14.6484375
8.23974609375
-11.90185546875
-9.1552734375
-3.662109375
-10.07080078125
-12.8173828125
-20.1416015625
-24.71923828125
-30.21240234375
-38.4521484375
-41.19873046875
-49.4384765625
-48.52294921875
-51.26953125
-43.9453125
-58.59375
-62.255859375
-63.17138671875
-77.81982421875
-85.14404296875
-81.48193359375
-86.0595703125
-87.890625
-86.97509765625
-94.29931640625
-94.29931640625
-96.13037109375
-109.86328125
-109.86328125
-106.201171875
-114.44091796875
-118.10302734375
-123.59619140625
-117.1875
-124.51171875
-130.92041015625
-121.76513671875
-122.6806640625
-130.0048828125
-130.0048828125
-125.42724609375
-125.42724609375
-134.58251953125
-129.08935546875
-126.3427734375
-137.3291015625
-134.58251953125
-131.8359375
-127.25830078125
-127.25830078125
-130.92041015625
-131.8359375
-136.41357421875
-132.75146484375
-129.08935546875
-129.08935546875
-126.3427734375
-126.3427734375
-125.42724609375
-123.59619140625
-118.10302734375
-118.10302734375
-117.1875
-119.93408203125
-116.27197265625
-117.1875
-119.93408203125
-117.1875
-110.77880859375
-102.5390625
-109.86328125
-112.60986328125
-116.27197265625
-115.3564453125
-116.27197265625
-107.11669921875
-107.11669921875
-106.201171875
-109.86328125
-108.0322265625
-106.201171875
-103.45458984375
-111.6943359375
-108.94775390625
-104.3701171875
-107.11669921875
-108.0322265625
-106.201171875
-103.45458984375
-112.60986328125
-114.44091796875
-106.201171875
-93.3837890625
-91.552734375
-107.11669921875
-107.11669921875
-104.3701171875
-112.60986328125
-107.11669921875
-105.28564453125
-111.6943359375
-119.93408203125
-114.44091796875
-118.10302734375
-120.849609375
-119.93408203125
-111.6943359375
-119.0185546875
-118.10302734375
-121.76513671875
-125.42724609375
-126.3427734375
-116.27197265625
-111.6943359375
-122.6806640625
-122.6806640625
-124.51171875
-122.6806640625
-120.849609375
-124.51171875
-129.08935546875
-131.8359375
-130.92041015625
-135.498046875
-133.6669921875
-144.6533203125
-140.9912109375
-142.822265625
-136.41357421875
-138.24462890625
-137.3291015625
-121.76513671875
-127.25830078125
-141.90673828125
-148.3154296875
-144.6533203125
-139.16015625
-144.6533203125
-143.73779296875
-149.23095703125
-151.06201171875
-150.146484375
-148.3154296875
-144.6533203125
-151.9775390625
-159.3017578125
-164.794921875
-143.73779296875
-145.56884765625
-144.6533203125
-172.119140625
-174.86572265625
-129.08935546875
-143.73779296875
-153.80859375
-160.21728515625
-176.69677734375
-174.86572265625
-133.6669921875
-144.6533203125
-151.9775390625
-151.06201171875
-155.6396484375
-155.6396484375
-144.6533203125
-152.89306640625
-149.23095703125
-140.9912109375
-146.484375
-139.16015625
-123.59619140625
-120.849609375
-114.44091796875
-107.11669921875
-102.5390625
-102.5390625
-108.0322265625
-105.28564453125
-102.5390625
-127.25830078125
-135.498046875
-127.25830078125
-114.44091796875
-96.13037109375
-76.904296875
-81.48193359375
-80.56640625
-85.14404296875
-88.80615234375
-86.0595703125
-108.94775390625
-108.94775390625
-108.0322265625
-113.525390625
-119.0185546875
-119.93408203125
-119.93408203125
-121.76513671875
-127.25830078125
-118.10302734375
-122.6806640625
-141.90673828125
-148.3154296875
-151.06201171875
-159.3017578125
-164.794921875
-177.6123046875
-170.2880859375
-166.6259765625
-165.71044921875
-172.119140625
-173.9501953125
-168.45703125
-171.20361328125
-162.04833984375
-158.38623046875
-162.04833984375
-169.37255859375
-167.54150390625
-172.119140625
-181.2744140625
-174.86572265625
-173.03466796875
-165.71044921875
-165.71044921875
-162.04833984375
-177.6123046875
-186.767578125
-185.85205078125
-172.119140625
-177.6123046875
-180.35888671875
-179.443359375
-184.02099609375
-174.86572265625
-165.71044921875
-166.6259765625
-166.6259765625
-150.146484375
-124.51171875
-105.28564453125
-91.552734375
-56.7626953125
-12.8173828125
34.7900390625
55.84716796875
88.80615234375
170.2880859375
251.77001953125
314.94140625
386.3525390625
475.15869140625
513.61083984375
507.2021484375
404.6630859375
261.8408203125
176.69677734375
94.29931640625
-4.57763671875
-58.59375
-101.62353515625
-117.1875
-108.94775390625
-98.876953125
-105.28564453125
-119.0185546875
-138.24462890625
-159.3017578125
-175.78125
-197.75390625
-192.2607421875
-168.45703125
-152.89306640625
-131.8359375
-112.60986328125
-116.27197265625
-125.42724609375
-123.59619140625
-121.76513671875
-115.3564453125
-108.0322265625
-113.525390625
-118.10302734375
-118.10302734375
-119.93408203125
-104.3701171875
-96.13037109375
-106.201171875
-111.6943359375
-104.3701171875
-98.876953125
-101.62353515625
-114.44091796875
-108.0322265625
-89.7216796875
-95.21484375
-92.46826171875
-97.96142578125
-98.876953125
-99.79248046875
-87.890625
-84.228515625
-84.228515625
-83.31298828125
-90.63720703125
-87.890625
-75.0732421875
-73.2421875
-77.81982421875
-86.97509765625
-77.81982421875
-67.7490234375
-67.7490234375
-70.49560546875
-64.0869140625
-70.49560546875
-70.49560546875
-64.0869140625
-59.50927734375
-48.52294921875
-40.283203125
-51.26953125
-43.9453125
-46.69189453125
-43.02978515625
-36.62109375
-34.7900390625
-32.04345703125
-27.4658203125
-19.22607421875
-18.310546875
-10.986328125
-3.662109375
-3.662109375
-10.07080078125
-6.40869140625
10.07080078125
15.56396484375
21.97265625
32.04345703125
29.296875
22.88818359375
28.38134765625
36.62109375
42.1142578125
40.283203125
32.04345703125
31.1279296875
38.4521484375
38.4521484375
32.04345703125
34.7900390625
32.04345703125
32.04345703125
35.70556640625
45.7763671875
32.04345703125
31.1279296875
41.19873046875
29.296875
20.1416015625
17.39501953125
19.22607421875
10.07080078125
4.57763671875
-1.8310546875
-5.4931640625
-14.6484375
-9.1552734375
-13.73291015625
-19.22607421875
-22.88818359375
-31.1279296875
-43.02978515625
-46.69189453125
-44.86083984375
-52.18505859375
-54.01611328125
-55.84716796875
-56.7626953125
-66.83349609375
-67.7490234375
-65.91796875
-74.15771484375
-83.31298828125
-86.0595703125
-91.552734375
-98.876953125
-103.45458984375
-96.13037109375
-102.5390625
-106.201171875
-106.201171875
-113.525390625
-115.3564453125
-113.525390625
-116.27197265625
-115.3564453125
-119.93408203125
-126.3427734375
-124.51171875
-125.42724609375
-130.92041015625
-128.173828125
-131.8359375
-136.41357421875
-131.8359375
-126.3427734375
-129.08935546875
-139.16015625
-130.92041015625
-130.0048828125
-130.0048828125
-124.51171875
-133.6669921875
-132.75146484375
-132.75146484375
-125.42724609375
-126.3427734375
-122.6806640625
-125.42724609375
-126.3427734375
-120.849609375
-124.51171875
-130.92041015625
-129.08935546875
-120.849609375
-127.25830078125
-132.75146484375
-119.93408203125
-113.525390625
-111.6943359375
-106.201171875
-108.94775390625
-107.11669921875
-109.86328125
-109.86328125
-111.6943359375
-111.6943359375
-103.45458984375
-101.62353515625
-102.5390625
-101.62353515625
-102.5390625
-97.96142578125
-95.21484375
-108.0322265625
-98.876953125
-90.63720703125
-93.3837890625
-105.28564453125
-101.62353515625
-99.79248046875
-107.11669921875
-109.86328125
-116.27197265625
-102.5390625
-93.3837890625
-100.7080078125
-106.201171875
-108.0322265625
-115.3564453125
-119.93408203125
-106.201171875
-98.876953125
-106.201171875
-109.86328125
-109.86328125
-107.11669921875
-103.45458984375
-107.11669921875
-106.201171875
-109.86328125
-110.77880859375
-114.44091796875
-119.93408203125
-114.44091796875
-121.76513671875
-119.93408203125
-116.27197265625
-119.93408203125
-127.25830078125
-120.849609375
-125.42724609375
-125.42724609375
-127.25830078125
-121.76513671875
-119.93408203125
-125.42724609375
-125.42724609375
-124.51171875
-129.08935546875
-130.0048828125
-128.173828125
-130.0048828125
-130.92041015625
-127.25830078125
-132.75146484375
-132.75146484375
-127.25830078125
-135.498046875
-134.58251953125
-126.3427734375
-127.25830078125
-129.08935546875
-140.07568359375
-140.07568359375
-132.75146484375
-136.41357421875
-142.822265625
-135.498046875
-136.41357421875
-131.8359375
-141.90673828125
-150.146484375
-145.56884765625
-145.56884765625
-146.484375
-142.822265625
-140.07568359375
-140.9912109375
-140.07568359375
-140.9912109375
-147.39990234375
-151.9775390625
-147.39990234375
-142.822265625
-135.498046875
-128.173828125
-119.0185546875
-127.25830078125
-119.93408203125
-93.3837890625
-82.3974609375
-89.7216796875
-98.876953125
-97.96142578125
-82.3974609375
-80.56640625
-74.15771484375
-86.97509765625
-88.80615234375
-87.890625
-94.29931640625
-79.65087890625
-64.0869140625
-39.36767578125
-35.70556640625
-50.35400390625
-49.4384765625
-57.67822265625
-61.34033203125
-77.81982421875
-90.63720703125
-89.7216796875
-93.3837890625
-94.29931640625
-89.7216796875
-108.94775390625
-106.201171875
-102.5390625
-113.525390625
-123.59619140625
-125.42724609375
-132.75146484375
-135.498046875
-140.07568359375
-149.23095703125
-159.3017578125
-162.9638671875
-167.54150390625
-165.71044921875
-158.38623046875
-160.21728515625
-163.87939453125
-161.1328125
-164.794921875
-161.1328125
-158.38623046875
-155.6396484375
-162.9638671875
-164.794921875
-162.04833984375
-159.3017578125
-154.72412109375
-166.6259765625
-167.54150390625
-167.54150390625
-174.86572265625
-161.1328125
-165.71044921875
-173.03466796875
-179.443359375
-166.6259765625
-173.9501953125
-174.86572265625
-169.37255859375
-186.767578125
-183.10546875
-166.6259765625
-165.71044921875
-151.9775390625
-127.25830078125
-109.86328125
-97.0458984375
-72.32666015625
-32.958984375
21.97265625
70.49560546875
111.6943359375
171.20361328125
217.8955078125
280.1513671875
344.23828125
418.39599609375
455.9326171875
420.22705078125
287.4755859375
128.173828125
28.38134765625
-91.552734375
-215.14892578125
-318.603515625
-375.3662109375
-365.29541015625
-334.16748046875
-292.05322265625
-260.009765625
-229.79736328125
-216.97998046875
-219.7265625
-222.47314453125
-216.97998046875
-189.51416015625
-158.38623046875
-130.92041015625
-123.59619140625
-119.93408203125
-122.6806640625
-108.0322265625
-109.86328125
-107.11669921875
-109.86328125
-112.60986328125
-107.11669921875
-104.3701171875
-111.6943359375
-110.77880859375
-97.0458984375
-100.7080078125
-94.29931640625
-90.63720703125
-88.80615234375
-94.29931640625
-89.7216796875
-89.7216796875
-89.7216796875
-89.7216796875
-82.3974609375
-75.0732421875
-81.48193359375
-75.98876953125
-79.65087890625
-76.904296875
-76.904296875
-65.91796875
-69.580078125
-71.4111328125
-68.66455078125
-56.7626953125
-58.59375
-54.931640625
-54.01611328125
-57.67822265625
-52.18505859375
-45.7763671875
-37.53662109375
-33.87451171875
-33.87451171875
-31.1279296875
-21.97265625
-23.8037109375
-21.05712890625
-12.8173828125
-15.56396484375
-12.8173828125
-1.8310546875
6.40869140625
5.4931640625
9.1552734375
9.1552734375
18.310546875
22.88818359375
31.1279296875
41.19873046875
49.4384765625
61.34033203125
60.4248046875
68.66455078125
83.31298828125
88.80615234375
90.63720703125
94.29931640625
103.45458984375
106.201171875
113.525390625
124.51171875
125.42724609375
128.173828125
137.3291015625
138.24462890625
145.56884765625
137.3291015625
151.06201171875
155.6396484375
159.3017578125
153.80859375
153.80859375
151.9775390625
148.3154296875
142.822265625
138.24462890625
140.07568359375
133.6669921875
131.8359375
127.25830078125
123.59619140625
119.0185546875
106.201171875
103.45458984375
91.552734375
85.14404296875
75.0732421875
62.255859375
63.17138671875
61.34033203125
50.35400390625
33.87451171875
19.22607421875
16.4794921875
6.40869140625
4.57763671875
-9.1552734375
-23.8037109375
-28.38134765625
-25.634765625
-31.1279296875
-44.86083984375
-47.607421875
-58.59375
-55.84716796875
-71.4111328125
-71.4111328125
-77.81982421875
-84.228515625
-76.904296875
-84.228515625
-88.80615234375
-93.3837890625
-96.13037109375
-105.28564453125
-106.201171875
-97.0458984375
-96.13037109375
-104.3701171875
-116.27197265625
-110.77880859375
-113.525390625
-111.6943359375
-109.86328125
-114.44091796875
-119.0185546875
-121.76513671875
-127.25830078125
-124.51171875
-120.849609375
-121.76513671875
-125.42724609375
-112.60986328125
-118.10302734375
-123.59619140625
-123.59619140625
-124.51171875
-119.0185546875
-117.1875
-109.86328125
-108.94775390625
-109.86328125
-102.5390625
-103.45458984375
-110.77880859375
-113.525390625
-105.28564453125
-106.201171875
-109.86328125
-97.0458984375
-103.45458984375
-105.28564453125
-108.0322265625
-106.201171875
-97.0458984375
-91.552734375
-88.80615234375
-86.97509765625
-93.3837890625
-87.890625
-97.0458984375
-93.3837890625
-95.21484375
-84.228515625
-80.56640625
-74.15771484375
-78.7353515625
-86.97509765625
-89.7216796875
-83.31298828125
-84.228515625
-84.228515625
-87.890625
-85.14404296875
-82.3974609375
-86.0595703125
-96.13037109375
-90.63720703125
-88.80615234375
-95.21484375
-91.552734375
-99.79248046875
-91.552734375
-87.890625
-94.29931640625
-90.63720703125
-92.46826171875
-105.28564453125
-100.7080078125
-97.0458984375
-87.890625
-97.96142578125
-100.7080078125
-101.62353515625
-95.21484375
-97.0458984375
-104.3701171875
-108.94775390625
-108.0322265625
-106.201171875
-107.11669921875
-118.10302734375
-106.201171875
-107.11669921875
-122.6806640625
-117.1875
-115.3564453125
-122.6806640625
-119.93408203125
-122.6806640625
-109.86328125
-123.59619140625
-128.173828125
-118.10302734375
-117.1875
-116.27197265625
-119.0185546875
-119.0185546875
-128.173828125
-134.58251953125
-128.173828125
-119.0185546875
-122.6806640625
-130.0048828125
-129.08935546875
-132.75146484375
-132.75146484375
-134.58251953125
-137.3291015625
-137.3291015625
-135.498046875
-137.3291015625
-131.8359375
-131.8359375
-138.24462890625
-134.58251953125
-137.3291015625
-133.6669921875
-126.3427734375
-125.42724609375
-119.0185546875
-116.27197265625
-103.45458984375
-100.7080078125
-89.7216796875
-82.3974609375
-77.81982421875
-81.48193359375
-73.2421875
-86.0595703125
-78.7353515625
-63.17138671875
-71.4111328125
-72.32666015625
-58.59375
-53.1005859375
-53.1005859375
-41.19873046875
-26.55029296875
-21.05712890625
-15.56396484375
-16.4794921875
-21.05712890625
-18.310546875
-40.283203125
-57.67822265625
-55.84716796875
-61.34033203125
-67.7490234375
-74.15771484375
-76.904296875
-96.13037109375
-95.21484375
-87.890625
-97.96142578125
-115.3564453125
-128.173828125
-132.75146484375
-142.822265625
-145.56884765625
-145.56884765625
-151.9775390625
-152.89306640625
-152.89306640625
-151.9775390625
-149.23095703125
-151.06201171875
-157.470703125
-162.04833984375
-164.794921875
-165.71044921875
-158.38623046875
-160.21728515625
-161.1328125
-154.72412109375
-158.38623046875
-159.3017578125
-151.06201171875
-158.38623046875
-164.794921875
-165.71044921875
-164.794921875
-162.04833984375
-153.80859375
-153.80859375
-161.1328125
-165.71044921875
-155.6396484375
-159.3017578125
-153.80859375
-165.71044921875
-171.20361328125
-162.9638671875
-173.03466796875
-169.37255859375
-152.89306640625
-140.07568359375
-122.6806640625
-102.5390625
-77.81982421875
-39.36767578125
31.1279296875
80.56640625
129.08935546875
190.4296875
239.8681640625
309.4482421875
385.43701171875
470.5810546875
500.79345703125
439.453125
309.4482421875
167.54150390625
65.00244140625
-75.98876953125
-233.45947265625
-348.81591796875
-396.42333984375
-378.11279296875
-351.5625
-317.68798828125
-273.74267578125
-238.95263671875
-215.14892578125
-210.5712890625
-218.81103515625
-195.9228515625
-163.87939453125
-143.73779296875
-119.93408203125
-103.45458984375
-103.45458984375
-95.21484375
-90.63720703125
-88.80615234375
-85.14404296875
-92.46826171875
-96.13037109375
-93.3837890625
-86.97509765625
-81.48193359375
-77.81982421875
-82.3974609375
-81.48193359375
-77.81982421875
-77.81982421875
-74.15771484375
-71.4111328125
-68.66455078125
-74.15771484375
-74.15771484375
-66.83349609375
-59.50927734375
-58.59375
-57.67822265625
-54.931640625
-57.67822265625
-56.7626953125
-55.84716796875
-54.931640625
-42.1142578125
-45.7763671875
-52.18505859375
-44.86083984375
-43.02978515625
-35.70556640625
-25.634765625
-24.71923828125
-35.70556640625
-32.04345703125
-28.38134765625
-19.22607421875
-18.310546875
-14.6484375
-13.73291015625
0
-6.40869140625
8.23974609375
2.74658203125
7.32421875
18.310546875
23.8037109375
30.21240234375
36.62109375
38.4521484375
46.69189453125
50.35400390625
57.67822265625
64.0869140625
65.00244140625
77.81982421875
85.14404296875
91.552734375
105.28564453125
116.27197265625
124.51171875
131.8359375
140.9912109375
149.23095703125
145.56884765625
151.06201171875
162.04833984375
169.37255859375
162.9638671875
165.71044921875
180.35888671875
173.03466796875
172.119140625
172.119140625
174.86572265625
190.4296875
190.4296875
182.18994140625
176.69677734375
175.78125
172.119140625
173.9501953125
173.03466796875
166.6259765625
156.55517578125
147.39990234375
145.56884765625
138.24462890625
130.92041015625
128.173828125
117.1875
98.876953125
95.21484375
86.0595703125
75.98876953125
65.91796875
49.4384765625
43.9453125
46.69189453125
30.21240234375
16.4794921875
4.57763671875
-1.8310546875
0
-5.4931640625
-13.73291015625
-32.958984375
-27.4658203125
-31.1279296875
-34.7900390625
-41.19873046875
-52.18505859375
-56.7626953125
-64.0869140625
-65.00244140625
-74.15771484375
-81.48193359375
-83.31298828125
-83.31298828125
-85.14404296875
-80.56640625
-78.7353515625
-86.97509765625
-85.14404296875
-92.46826171875
-99.79248046875
-93.3837890625
-104.3701171875
-92.46826171875
-95.21484375
-102.5390625
-104.3701171875
-102.5390625
-102.5390625
-108.94775390625
-115.3564453125
-108.0322265625
-96.13037109375
-104.3701171875
-101.62353515625
-97.96142578125
-93.3837890625
-98.876953125
-102.5390625
-100.7080078125
-96.13037109375
-86.97509765625
-88.80615234375
-91.552734375
-96.13037109375
-87.890625
-91.552734375
-86.97509765625
-83.31298828125
-88.80615234375
-76.904296875
-78.7353515625
-75.98876953125
-77.81982421875
-76.904296875
-80.56640625
-76.904296875
-72.32666015625
-67.7490234375
-68.66455078125
-71.4111328125
-65.91796875
-62.255859375
-58.59375
-57.67822265625
-60.4248046875
-60.4248046875
-66.83349609375
-61.34033203125
-67.7490234375
-67.7490234375
-63.17138671875
-55.84716796875
-63.17138671875
-58.59375
-58.59375
-61.34033203125
-49.4384765625
-50.35400390625
-62.255859375
-63.17138671875
-70.49560546875
-75.0732421875
-65.91796875
-65.00244140625
-66.83349609375
-63.17138671875
-60.4248046875
-67.7490234375
-74.15771484375
-76.904296875
-72.32666015625
-73.2421875
-69.580078125
-66.83349609375
-79.65087890625
-79.65087890625
-77.81982421875
-82.3974609375
-85.14404296875
-86.0595703125
-79.65087890625
-81.48193359375
-84.228515625
-78.7353515625
-72.32666015625
-75.0732421875
-81.48193359375
-85.14404296875
-86.97509765625
-83.31298828125
-87.890625
-89.7216796875
-92.46826171875
-94.29931640625
-92.46826171875
-101.62353515625
-91.552734375
-88.80615234375
-91.552734375
-97.0458984375
-98.876953125
-93.3837890625
-87.890625
-96.13037109375
-99.79248046875
-103.45458984375
-100.7080078125
-92.46826171875
-98.876953125
-95.21484375
-97.96142578125
-105.28564453125
-102.5390625
-105.28564453125
-107.11669921875
-101.62353515625
-98.876953125
-107.11669921875
-97.0458984375
-105.28564453125
-113.525390625
-97.96142578125
-94.29931640625
-97.96142578125
-107.11669921875
-113.525390625
-104.3701171875
-99.79248046875
-113.525390625
-110.77880859375
-103.45458984375
-109.86328125
-100.7080078125
-98.876953125
-97.96142578125
-87.890625
-68.66455078125
-63.17138671875
-55.84716796875
-55.84716796875
-54.01611328125
-52.18505859375
-45.7763671875
-38.4521484375
-41.19873046875
-55.84716796875
-49.4384765625
-47.607421875
-42.1142578125
-35.70556640625
-21.05712890625
-16.4794921875
-10.986328125
0.91552734375
-1.8310546875
0.91552734375
6.40869140625
0
-5.4931640625
-19.22607421875
-39.36767578125
-37.53662109375
-44.86083984375
-54.931640625
-53.1005859375
-54.01611328125
-55.84716796875
-67.7490234375
-80.56640625
-81.48193359375
-88.80615234375
-96.13037109375
-110.77880859375
-113.525390625
-120.849609375
-118.10302734375
-123.59619140625
-124.51171875
-125.42724609375
-130.92041015625
-130.0048828125
-127.25830078125
-131.8359375
-127.25830078125
-131.8359375
-133.6669921875
-131.8359375
-126.3427734375
-134.58251953125
-129.08935546875
-128.173828125
-137.3291015625
-142.822265625
-144.6533203125
-141.90673828125
-125.42724609375
-126.3427734375
-136.41357421875
-138.24462890625
-135.498046875
-136.41357421875
-129.08935546875
-131.8359375
-140.9912109375
-135.498046875
-145.56884765625
-150.146484375
-147.39990234375
-146.484375
-133.6669921875
-110.77880859375
-102.5390625
-88.80615234375
-67.7490234375
-21.97265625
38.4521484375
81.48193359375
123.59619140625
191.34521484375
247.1923828125
298.4619140625
379.0283203125
453.18603515625
484.31396484375
446.77734375
323.18115234375
163.87939453125
52.18505859375
-62.255859375
-173.9501953125
-281.06689453125
-344.23828125
-338.7451171875
-314.02587890625
-264.58740234375
-226.13525390625
-203.2470703125
-190.4296875
-183.10546875
-189.51416015625
-175.78125
-154.72412109375
-139.16015625
-101.62353515625
-78.7353515625
-76.904296875
-80.56640625
-78.7353515625
-70.49560546875
-69.580078125
-70.49560546875
-64.0869140625
-65.00244140625
-69.580078125
-66.83349609375
-63.17138671875
-54.01611328125
-56.7626953125
-43.02978515625
-43.02978515625
-58.59375
-54.931640625
-46.69189453125
-48.52294921875
-43.9453125
-43.02978515625
-47.607421875
-46.69189453125
-32.958984375
-33.87451171875
-33.87451171875
-27.4658203125
-20.1416015625
-24.71923828125
-25.634765625
-21.05712890625
-23.8037109375
-12.8173828125
-17.39501953125
-25.634765625
-14.6484375
-7.32421875
-10.986328125
-10.986328125
-6.40869140625
11.90185546875
13.73291015625
10.986328125
13.73291015625
18.310546875
13.73291015625
15.56396484375
25.634765625
29.296875
27.4658203125
21.05712890625
34.7900390625
57.67822265625
55.84716796875
68.66455078125
81.48193359375
78.7353515625
85.14404296875
91.552734375
81.48193359375
90.63720703125
105.28564453125
113.525390625
126.3427734375
126.3427734375
133.6669921875
143.73779296875
141.90673828125
149.23095703125
155.6396484375
163.87939453125
164.794921875
169.37255859375
170.2880859375
175.78125
173.03466796875
173.9501953125
172.119140625
185.85205078125
191.34521484375
186.767578125
173.9501953125
170.2880859375
173.03466796875
167.54150390625
175.78125
174.86572265625
157.470703125
151.9775390625
162.04833984375
151.06201171875
143.73779296875
141.90673828125
133.6669921875
122.6806640625
108.94775390625
100.7080078125
94.29931640625
84.228515625
78.7353515625
73.2421875
69.580078125
51.26953125
49.4384765625
31.1279296875
17.39501953125
10.986328125
19.22607421875
16.4794921875
9.1552734375
-5.4931640625
-17.39501953125
-9.1552734375
-18.310546875
-21.05712890625
-34.7900390625
-46.69189453125
-40.283203125
-39.36767578125
-44.86083984375
-51.26953125
-55.84716796875
-59.50927734375
-54.931640625
-59.50927734375
-61.34033203125
-54.01611328125
-62.255859375
-74.15771484375
-77.81982421875
-82.3974609375
-76.904296875
-70.49560546875
-75.98876953125
-80.56640625
-76.904296875
-79.65087890625
-86.0595703125
-85.14404296875
-81.48193359375
-85.14404296875
-84.228515625
-73.2421875
-77.81982421875
-82.3974609375
-85.14404296875
-78.7353515625
-75.98876953125
-66.83349609375
-73.2421875
-77.81982421875
-67.7490234375
-72.32666015625
-75.98876953125
-69.580078125
-68.66455078125
-68.66455078125
-62.255859375
-66.83349609375
-60.4248046875
-55.84716796875
-63.17138671875
-69.580078125
-63.17138671875
-62.255859375
-60.4248046875
-55.84716796875
-55.84716796875
-54.931640625
-62.255859375
-59.50927734375
-61.34033203125
-59.50927734375
-54.01611328125
-48.52294921875
-47.607421875
-53.1005859375
-48.52294921875
-50.35400390625
-46.69189453125
-49.4384765625
-38.4521484375
-40.283203125
-54.01611328125
-54.931640625
-53.1005859375
-48.52294921875
-54.01611328125
-58.59375
-59.50927734375
-53.1005859375
-65.91796875
-63.17138671875
-68.66455078125
-64.0869140625
-61.34033203125
-61.34033203125
-66.83349609375
-64.0869140625
-54.931640625
-61.34033203125
-65.00244140625
-69.580078125
-70.49560546875
-59.50927734375
-65.00244140625
-65.91796875
-73.2421875
-71.4111328125
-63.17138671875
-70.49560546875
-79.65087890625
-79.65087890625
-75.98876953125
-78.7353515625
-89.7216796875
-74.15771484375
-81.48193359375
-89.7216796875
-86.97509765625
-86.0595703125
-87.890625
-87.890625
-84.228515625
-86.0595703125
-86.0595703125
-89.7216796875
-83.31298828125
-93.3837890625
-100.7080078125
-95.21484375
-95.21484375
-94.29931640625
-92.46826171875
-92.46826171875
-93.3837890625
-97.96142578125
-86.0595703125
-92.46826171875
-99.79248046875
-97.96142578125
-96.13037109375
-106.201171875
-100.7080078125
-98.876953125
-98.876953125
-96.13037109375
-106.201171875
-97.0458984375
-94.29931640625
-97.0458984375
-105.28564453125
-102.5390625
-91.552734375
-82.3974609375
-76.904296875
-85.14404296875
-84.228515625
-73.2421875
-54.01611328125
-61.34033203125
-54.01611328125
-48.52294921875
-53.1005859375
-51.26953125
-47.607421875
-53.1005859375
-49.4384765625
-47.607421875
-35.70556640625
-39.36767578125
-21.97265625
-20.1416015625
-14.6484375
-3.662109375
-8.23974609375
9.1552734375
5.4931640625
-7.32421875
-26.55029296875
-33.87451171875
-36.62109375
-39.36767578125
-43.02978515625
-44.86083984375
-61.34033203125
-59.50927734375
-58.59375
-73.2421875
-82.3974609375
-87.890625
-94.29931640625
-96.13037109375
-115.3564453125
-119.0185546875
-121.76513671875
-122.6806640625
-119.93408203125
-128.173828125
-123.59619140625
-114.44091796875
-118.10302734375
-127.25830078125
-118.10302734375
-127.25830078125
-136.41357421875
-138.24462890625
-131.8359375
-138.24462890625
-134.58251953125
-132.75146484375
-123.59619140625
-120.849609375
-128.173828125
-139.16015625
-137.3291015625
-130.0048828125
-129.08935546875
-130.0048828125
-134.58251953125
-131.8359375
-126.3427734375
-129.08935546875
-141.90673828125
-140.07568359375
-142.822265625
-146.484375
-136.41357421875
-125.42724609375
-129.08935546875
-117.1875
-95.21484375
-83.31298828125
-75.0732421875
-62.255859375
-24.71923828125
32.958984375
64.0869140625
102.5390625
151.9775390625
189.51416015625
240.78369140625
313.1103515625
376.28173828125
400.08544921875
386.3525390625
281.982421875
137.3291015625
69.580078125
-16.4794921875
-110.77880859375
-188.5986328125
-244.44580078125
-248.10791015625
-227.05078125
-184.02099609375
-165.71044921875
-151.9775390625
-146.484375
-155.6396484375
-167.54150390625
-176.69677734375
-164.794921875
-149.23095703125
-134.58251953125
-118.10302734375
-94.29931640625
-77.81982421875
-74.15771484375
-74.15771484375
-77.81982421875
-70.49560546875
-60.4248046875
-60.4248046875
-65.00244140625
-67.7490234375
-69.580078125
-73.2421875
-61.34033203125
-48.52294921875
-60.4248046875
-60.4248046875
-58.59375
-60.4248046875
-59.50927734375
-61.34033203125
-52.18505859375
-47.607421875
-46.69189453125
-42.1142578125
-47.607421875
-43.9453125
-37.53662109375
-39.36767578125
-41.19873046875
-29.296875
-29.296875
-26.55029296875
-27.4658203125
-23.8037109375
-25.634765625
-29.296875
-21.05712890625
-23.8037109375
-13.73291015625
-3.662109375
-10.07080078125
-11.90185546875
-4.57763671875
-8.23974609375
3.662109375
8.23974609375
22.88818359375
17.39501953125
22.88818359375
22.88818359375
32.04345703125
26.55029296875
42.1142578125
44.86083984375
43.02978515625
45.7763671875
54.931640625
66.83349609375
66.83349609375
68.66455078125
74.15771484375
76.904296875
86.97509765625
99.79248046875
109.86328125
112.60986328125
101.62353515625
102.5390625
120.849609375
131.8359375
133.6669921875
142.822265625
150.146484375
144.6533203125
140.07568359375
147.39990234375
153.80859375
155.6396484375
162.04833984375
157.470703125
147.39990234375
162.04833984375
167.54150390625
149.23095703125
152.89306640625
150.146484375
139.16015625
136.41357421875
130.0048828125
134.58251953125
132.75146484375
119.0185546875
124.51171875
114.44091796875
102.5390625
99.79248046875
88.80615234375
84.228515625
75.0732421875
60.4248046875
49.4384765625
42.1142578125
36.62109375
40.283203125
33.87451171875
23.8037109375
21.05712890625
11.90185546875
-2.74658203125
-10.986328125
-20.1416015625
-19.22607421875
-23.8037109375
-27.4658203125
-32.958984375
-44.86083984375
-41.19873046875
-42.1142578125
-50.35400390625
-54.931640625
-59.50927734375
-59.50927734375
-59.50927734375
-76.904296875
-75.98876953125
-79.65087890625
-80.56640625
-87.890625
-91.552734375
-88.80615234375
-89.7216796875
-94.29931640625
-93.3837890625
-93.3837890625
-96.13037109375
-97.0458984375
-84.228515625
-83.31298828125
-93.3837890625
-100.7080078125
-85.14404296875
-87.890625
-92.46826171875
-92.46826171875
-93.3837890625
-86.0595703125
-84.228515625
-81.48193359375
-86.0595703125
-80.56640625
-77.81982421875
-80.56640625
-70.49560546875
-65.91796875
-70.49560546875
-75.98876953125
-72.32666015625
-70.49560546875
-60.4248046875
-67.7490234375
-65.00244140625
-67.7490234375
-72.32666015625
-56.7626953125
-59.50927734375
-65.00244140625
-64.0869140625
-68.66455078125
-64.0869140625
-65.91796875
-66.83349609375
-59.50927734375
-57.67822265625
-69.580078125
-65.91796875
-62.255859375
-59.50927734375
-55.84716796875
-53.1005859375
-60.4248046875
-55.84716796875
-54.931640625
-59.50927734375
-60.4248046875
-64.0869140625
-61.34033203125
-63.17138671875
-65.91796875
-54.01611328125
-58.59375
-60.4248046875
-53.1005859375
-59.50927734375
-62.255859375
-58.59375
-60.4248046875
-56.7626953125
-63.17138671875
-65.91796875
-65.91796875
-67.7490234375
-65.00244140625
-60.4248046875
-75.0732421875
-74.15771484375
-75.98876953125
-70.49560546875
-72.32666015625
-74.15771484375
-77.81982421875
-81.48193359375
-77.81982421875
-79.65087890625
-86.0595703125
-86.0595703125
-81.48193359375
-80.56640625
-83.31298828125
-88.80615234375
-86.97509765625
-83.31298828125
-85.14404296875
-88.80615234375
-91.552734375
-97.96142578125
-104.3701171875
-113.525390625
-98.876953125
-80.56640625
-86.97509765625
-97.0458984375
-98.876953125
-91.552734375
-88.80615234375
-105.28564453125
-100.7080078125
-95.21484375
-103.45458984375
-104.3701171875
-95.21484375
-94.29931640625
-97.0458984375
-97.0458984375
-97.0458984375
-100.7080078125
-99.79248046875
-106.201171875
-98.876953125
-93.3837890625
-97.0458984375
-86.0595703125
-80.56640625
-72.32666015625
-78.7353515625
-76.904296875
-59.50927734375
-49.4384765625
-51.26953125
-48.52294921875
-48.52294921875
-48.52294921875
-46.69189453125
-55.84716796875
-54.931640625
-49.4384765625
-46.69189453125
-35.70556640625
-36.62109375
-36.62109375
-20.1416015625
-5.4931640625
-7.32421875
0
14.6484375
-0.91552734375
-15.56396484375
-28.38134765625
-31.1279296875
-34.7900390625
-39.36767578125
-45.7763671875
-51.26953125
-53.1005859375
-53.1005859375
-59.50927734375
-68.66455078125
-75.98876953125
-98.876953125
-95.21484375
-105.28564453125
-119.0185546875
-110.77880859375
-111.6943359375
-121.76513671875
-117.1875
-121.76513671875
-118.10302734375
-121.76513671875
-119.0185546875
-125.42724609375
-122.6806640625
-120.849609375
-125.42724609375
-125.42724609375
-125.42724609375
-119.0185546875
-127.25830078125
-131.8359375
-132.75146484375
-134.58251953125
-135.498046875
-134.58251953125
-132.75146484375
-130.92041015625
-132.75146484375
-131.8359375
-131.8359375
-137.3291015625
-129.08935546875
-126.3427734375
-136.41357421875
-131.8359375
-132.75146484375
-135.498046875
-124.51171875
-119.93408203125
-117.1875
-97.96142578125
-80.56640625
-80.56640625
-66.83349609375
-31.1279296875
22.88818359375
74.15771484375
108.0322265625
152.89306640625
205.078125
252.685546875
318.603515625
397.3388671875
452.2705078125
454.1015625
363.46435546875
209.65576171875
97.0458984375
5.4931640625
-106.201171875
-188.5986328125
-267.333984375
-298.4619140625
-273.74267578125
-234.375
-200.50048828125
-175.78125
-161.1328125
-165.71044921875
-178.52783203125
-170.2880859375
-163.87939453125
-141.90673828125
-121.76513671875
-98.876953125
-83.31298828125
-67.7490234375
-66.83349609375
-56.7626953125
-70.49560546875
-71.4111328125
-64.0869140625
-65.00244140625
-72.32666015625
-61.34033203125
-56.7626953125
-57.67822265625
-52.18505859375
-44.86083984375
-44.86083984375
-51.26953125
-47.607421875
-51.26953125
-46.69189453125
-41.19873046875
-32.958984375
-40.283203125
-37.53662109375
-32.04345703125
-39.36767578125
-44.86083984375
-35.70556640625
-30.21240234375
-31.1279296875
-21.97265625
-20.1416015625
-23.8037109375
-23.8037109375
-26.55029296875
-13.73291015625
-9.1552734375
-10.07080078125
-2.74658203125
-7.32421875
-11.90185546875
-6.40869140625
4.57763671875
13.73291015625
11.90185546875
9.1552734375
19.22607421875
30.21240234375
41.19873046875
34.7900390625
38.4521484375
38.4521484375
49.4384765625
54.01611328125
60.4248046875
64.0869140625
67.7490234375
75.98876953125
84.228515625
85.14404296875
90.63720703125
104.3701171875
104.3701171875
109.86328125
110.77880859375
123.59619140625
140.07568359375
151.06201171875
151.06201171875
152.89306640625
155.6396484375
161.1328125
170.2880859375
176.69677734375
182.18994140625
177.6123046875
175.78125
181.2744140625
189.51416015625
179.443359375
183.10546875
183.10546875
188.5986328125
195.9228515625
186.767578125
172.119140625
175.78125
174.86572265625
170.2880859375
165.71044921875
160.21728515625
153.80859375
148.3154296875
147.39990234375
144.6533203125
140.9912109375
115.3564453125
101.62353515625
97.0458984375
92.46826171875
88.80615234375
82.3974609375
69.580078125
63.17138671875
56.7626953125
41.19873046875
25.634765625
25.634765625
17.39501953125
6.40869140625
4.57763671875
0
-1.8310546875
0.91552734375
-13.73291015625
-21.05712890625
-29.296875
-36.62109375
-39.36767578125
-35.70556640625
-39.36767578125
-46.69189453125
-47.607421875
-52.18505859375
-52.18505859375
-54.01611328125
-61.34033203125
-60.4248046875
-65.91796875
-65.91796875
-69.580078125
-70.49560546875
-73.2421875
-71.4111328125
-64.0869140625
-67.7490234375
-66.83349609375
-73.2421875
-75.0732421875
-69.580078125
-74.15771484375
-72.32666015625
-67.7490234375
-74.15771484375
-75.0732421875
-76.904296875
-75.0732421875
-70.49560546875
-71.4111328125
-77.81982421875
-70.49560546875
-68.66455078125
-77.81982421875
-72.32666015625
-70.49560546875
-75.98876953125
-69.580078125
-55.84716796875
-57.67822265625
-60.4248046875
-66.83349609375
-64.0869140625
-61.34033203125
-60.4248046875
-61.34033203125
-53.1005859375
-54.01611328125
-54.931640625
-56.7626953125
-57.67822265625
-54.931640625
-52.18505859375
-56.7626953125
-44.86083984375
-48.52294921875
-43.02978515625
-39.36767578125
-39.36767578125
-48.52294921875
-43.9453125
-38.4521484375
-45.7763671875
-39.36767578125
-42.1142578125
-44.86083984375
-46.69189453125
-43.9453125
-40.283203125
-49.4384765625
-44.86083984375
-39.36767578125
-40.283203125
-39.36767578125
-43.02978515625
-46.69189453125
-52.18505859375
-52.18505859375
-52.18505859375
-50.35400390625
-49.4384765625
-51.26953125
-50.35400390625
-55.84716796875
-53.1005859375
-60.4248046875
-62.255859375
-60.4248046875
-62.255859375
-61.34033203125
-60.4248046875
-65.00244140625
-63.17138671875
-62.255859375
-67.7490234375
-75.0732421875
-75.98876953125
-70.49560546875
-65.91796875
-62.255859375
-68.66455078125
-76.904296875
-75.0732421875
-69.580078125
-70.49560546875
-74.15771484375
-70.49560546875
-70.49560546875
-86.0595703125
-81.48193359375
-76.904296875
-78.7353515625
-80.56640625
-86.97509765625
-93.3837890625
-80.56640625
-79.65087890625
-82.3974609375
-81.48193359375
-74.15771484375
-81.48193359375
-93.3837890625
-86.0595703125
-90.63720703125
-99.79248046875
-88.80615234375
-88.80615234375
-99.79248046875
-100.7080078125
-95.21484375
-88.80615234375
-84.228515625
-91.552734375
-88.80615234375
-82.3974609375
-88.80615234375
-87.890625
-87.890625
-83.31298828125
-74.15771484375
-60.4248046875
-65.00244140625
-61.34033203125
-54.931640625
-33.87451171875
-32.958984375
-37.53662109375
-30.21240234375
-26.55029296875
-26.55029296875
-28.38134765625
-25.634765625
-24.71923828125
-25.634765625
-19.22607421875
-5.4931640625
7.32421875
19.22607421875
15.56396484375
15.56396484375
24.71923828125
28.38134765625
28.38134765625
18.310546875
-0.91552734375
8.23974609375
-0.91552734375
-20.1416015625
-26.55029296875
-31.1279296875
-32.04345703125
-33.87451171875
-34.7900390625
-43.02978515625
-61.34033203125
-70.49560546875
-80.56640625
-89.7216796875
-99.79248046875
-95.21484375
-88.80615234375
-97.96142578125
-106.201171875
-108.94775390625
-107.11669921875
-108.0322265625
-106.201171875
-99.79248046875
-115.3564453125
-117.1875
-118.10302734375
-111.6943359375
-111.6943359375
-116.27197265625
-118.10302734375
-105.28564453125
-120.849609375
-119.0185546875
-120.849609375
-119.93408203125
-114.44091796875
-119.0185546875
-126.3427734375
-123.59619140625
-122.6806640625
-127.25830078125
-119.93408203125
-114.44091796875
-121.76513671875
-124.51171875
-122.6806640625
-122.6806640625
-119.93408203125
-123.59619140625
-124.51171875
-105.28564453125
-78.7353515625
-66.83349609375
-62.255859375
-39.36767578125
14.6484375
67.7490234375
118.10302734375
157.470703125
232.5439453125
271.91162109375
325.01220703125
404.6630859375
488.8916015625
537.41455078125
517.27294921875
406.494140625
242.61474609375
116.27197265625
-4.57763671875
-135.498046875
-260.009765625
-337.82958984375
-337.82958984375
-313.1103515625
-275.57373046875
-236.2060546875
-198.66943359375
-179.443359375
-169.37255859375
-159.3017578125
-162.9638671875
-136.41357421875
-108.94775390625
-80.56640625
-59.50927734375
-60.4248046875
-62.255859375
-61.34033203125
-57.67822265625
-53.1005859375
-54.01611328125
-53.1005859375
-56.7626953125
-60.4248046875
-54.931640625
-45.7763671875
-46.69189453125
-39.36767578125
-40.283203125
-42.1142578125
-37.53662109375
-37.53662109375
-43.02978515625
-30.21240234375
-25.634765625
-21.97265625
-20.1416015625
-23.8037109375
-19.22607421875
-19.22607421875
-21.05712890625
-10.986328125
-7.32421875
-12.8173828125
-5.4931640625
4.57763671875
7.32421875
2.74658203125
9.1552734375
6.40869140625
5.4931640625
14.6484375
16.4794921875
11.90185546875
18.310546875
20.1416015625
18.310546875
25.634765625
25.634765625
35.70556640625
45.7763671875
43.9453125
50.35400390625
62.255859375
56.7626953125
61.34033203125
72.32666015625
75.0732421875
68.66455078125
89.7216796875
93.3837890625
90.63720703125
98.876953125
109.86328125
117.1875
129.08935546875
135.498046875
136.41357421875
145.56884765625
161.1328125
169.37255859375
173.03466796875
178.52783203125
186.767578125
186.767578125
195.9228515625
213.31787109375
208.740234375
217.8955078125
212.40234375
208.740234375
225.2197265625
242.61474609375
232.5439453125
223.388671875
222.47314453125
223.388671875
225.2197265625
230.712890625
225.2197265625
223.388671875
217.8955078125
209.65576171875
202.33154296875
204.16259765625
195.00732421875
188.5986328125
176.69677734375
175.78125
168.45703125
159.3017578125
143.73779296875
130.92041015625
121.76513671875
114.44091796875
106.201171875
104.3701171875
95.21484375
81.48193359375
68.66455078125
61.34033203125
55.84716796875
49.4384765625
34.7900390625
30.21240234375
24.71923828125
8.23974609375
-0.91552734375
4.57763671875
-2.74658203125
-10.986328125
-18.310546875
-24.71923828125
-25.634765625
-31.1279296875
-29.296875
-34.7900390625
-38.4521484375
-39.36767578125
-38.4521484375
-39.36767578125
-44.86083984375
-51.26953125
-55.84716796875
-54.01611328125
-51.26953125
-53.1005859375
-55.84716796875
-57.67822265625
-52.18505859375
-54.931640625
-55.84716796875
-55.84716796875
-64.0869140625
-65.91796875
-66.83349609375
-61.34033203125
-61.34033203125
-59.50927734375
-62.255859375
-54.01611328125
-52.18505859375
-56.7626953125
-63.17138671875
-58.59375
-57.67822265625
-54.01611328125
-49.4384765625
-45.7763671875
-55.84716796875
-52.18505859375
-47.607421875
-43.02978515625
-44.86083984375
-42.1142578125
-40.283203125
-38.4521484375
-41.19873046875
-40.283203125
-39.36767578125
-42.1142578125
-40.283203125
-31.1279296875
-34.7900390625
-40.283203125
-38.4521484375
-38.4521484375
-37.53662109375
-36.62109375
-37.53662109375
-38.4521484375
-32.958984375
-26.55029296875
-21.97265625
-21.97265625
-32.04345703125
-31.1279296875
-33.87451171875
-33.87451171875
-31.1279296875
-32.04345703125
-33.87451171875
-33.87451171875
-28.38134765625
-29.296875
-36.62109375
-27.4658203125
-22.88818359375
-27.4658203125
-30.21240234375
-34.7900390625
-37.53662109375
-34.7900390625
-41.19873046875
-35.70556640625
-32.958984375
-35.70556640625
-35.70556640625
-42.1142578125
-46.69189453125
-35.70556640625
-36.62109375
-43.9453125
-42.1142578125
-43.9453125
-46.69189453125
-51.26953125
-48.52294921875
-46.69189453125
-56.7626953125
-49.4384765625
-53.1005859375
-57.67822265625
-54.01611328125
-54.931640625
-50.35400390625
-48.52294921875
-58.59375
-67.7490234375
-68.66455078125
-62.255859375
-60.4248046875
-61.34033203125
-58.59375
-60.4248046875
-55.84716796875
-57.67822265625
-58.59375
-61.34033203125
-61.34033203125
-64.0869140625
-69.580078125
-66.83349609375
-60.4248046875
-65.91796875
-68.66455078125
-67.7490234375
-65.91796875
-64.0869140625
-61.34033203125
-67.7490234375
-75.0732421875
-74.15771484375
-73.2421875
-72.32666015625
-69.580078125
-73.2421875
-79.65087890625
-73.2421875
-64.0869140625
-65.00244140625
-67.7490234375
-81.48193359375
-73.2421875
-68.66455078125
-59.50927734375
-51.26953125
-48.52294921875
-44.86083984375
-34.7900390625
-21.97265625
-10.986328125
-17.39501953125
-16.4794921875
-12.8173828125
-11.90185546875
-3.662109375
-2.74658203125
-10.07080078125
-11.90185546875
-2.74658203125
20.1416015625
32.04345703125
40.283203125
34.7900390625
37.53662109375
36.62109375
55.84716796875
51.26953125
43.9453125
32.04345703125
28.38134765625
21.97265625
7.32421875
4.57763671875
0
-8.23974609375
-11.90185546875
-2.74658203125
-9.1552734375
-28.38134765625
-36.62109375
-51.26953125
-60.4248046875
-74.15771484375
-81.48193359375
-84.228515625
-78.7353515625
-75.0732421875
-82.3974609375
-90.63720703125
-96.13037109375
-95.21484375
-97.0458984375
-96.13037109375
-96.13037109375
-94.29931640625
-93.3837890625
-98.876953125
-102.5390625
-104.3701171875
-107.11669921875
-102.5390625
-99.79248046875
-98.876953125
-102.5390625
-100.7080078125
-107.11669921875
-101.62353515625
-107.11669921875
-106.201171875
-104.3701171875
-105.28564453125
-104.3701171875
-106.201171875
-106.201171875
-107.11669921875
-107.11669921875
-107.11669921875
-112.60986328125
-109.86328125
-101.62353515625
-89.7216796875
-78.7353515625
-69.580078125
-43.9453125
-16.4794921875
27.4658203125
76.904296875
127.25830078125
176.69677734375
233.45947265625
286.56005859375
351.5625
430.2978515625
513.61083984375
552.06298828125
517.27294921875
402.83203125
247.1923828125
132.75146484375
-0.91552734375
-160.21728515625
-284.72900390625
-357.0556640625
-337.82958984375
-312.19482421875
-274.658203125
-232.5439453125
-195.9228515625
-173.03466796875
-155.6396484375
-152.89306640625
-145.56884765625
-133.6669921875
-99.79248046875
-72.32666015625
-53.1005859375
-41.19873046875
-32.958984375
-32.958984375
-37.53662109375
-40.283203125
-39.36767578125
-43.9453125
-43.02978515625
-27.4658203125
-27.4658203125
-34.7900390625
-38.4521484375
-25.634765625
-16.4794921875
-21.97265625
-31.1279296875
-18.310546875
-17.39501953125
-18.310546875
-10.07080078125
-5.4931640625
-14.6484375
-12.8173828125
-13.73291015625
-8.23974609375
-3.662109375
-5.4931640625
-3.662109375
2.74658203125
-2.74658203125
10.986328125
18.310546875
13.73291015625
16.4794921875
12.8173828125
21.05712890625
21.05712890625
22.88818359375
23.8037109375
25.634765625
35.70556640625
43.9453125
42.1142578125
36.62109375
47.607421875
51.26953125
62.255859375
73.2421875
63.17138671875
64.0869140625
79.65087890625
82.3974609375
90.63720703125
92.46826171875
92.46826171875
104.3701171875
108.94775390625
116.27197265625
126.3427734375
130.92041015625
140.07568359375
148.3154296875
152.89306640625
160.21728515625
158.38623046875
179.443359375
188.5986328125
194.091796875
210.5712890625
215.14892578125
214.2333984375
221.5576171875
225.2197265625
230.712890625
222.47314453125
229.79736328125
246.27685546875
246.27685546875
243.5302734375
249.0234375
247.1923828125
244.44580078125
243.5302734375
244.44580078125
246.27685546875
235.29052734375
224.30419921875
226.13525390625
227.05078125
218.81103515625
209.65576171875
202.33154296875
194.091796875
192.2607421875
180.35888671875
176.69677734375
167.54150390625
153.80859375
140.9912109375
125.42724609375
116.27197265625
108.94775390625
95.21484375
88.80615234375
79.65087890625
72.32666015625
67.7490234375
55.84716796875
43.9453125
43.02978515625
32.958984375
25.634765625
21.05712890625
10.986328125
4.57763671875
0.91552734375
-5.4931640625
-8.23974609375
-16.4794921875
-18.310546875
-19.22607421875
-21.05712890625
-17.39501953125
-21.97265625
-38.4521484375
-44.86083984375
-37.53662109375
-34.7900390625
-33.87451171875
-40.283203125
-50.35400390625
-49.4384765625
-40.283203125
-45.7763671875
-46.69189453125
-49.4384765625
-45.7763671875
-41.19873046875
-42.1142578125
-40.283203125
-38.4521484375
-46.69189453125
-45.7763671875
-53.1005859375
-53.1005859375
-51.26953125
-45.7763671875
-49.4384765625
-46.69189453125
-47.607421875
-47.607421875
-47.607421875
-41.19873046875
-43.02978515625
-42.1142578125
-36.62109375
-43.9453125
-48.52294921875
-38.4521484375
-33.87451171875
-32.958984375
-36.62109375
-37.53662109375
-31.1279296875
-28.38134765625
-24.71923828125
-31.1279296875
-25.634765625
-24.71923828125
-24.71923828125
-36.62109375
-37.53662109375
-25.634765625
-20.1416015625
-12.8173828125
-17.39501953125
-19.22607421875
-10.986328125
-13.73291015625
-22.88818359375
-11.90185546875
-10.07080078125
-26.55029296875
-22.88818359375
-28.38134765625
-30.21240234375
-17.39501953125
-21.97265625
-21.05712890625
-25.634765625
-33.87451171875
-22.88818359375
-21.05712890625
-29.296875
-25.634765625
-23.8037109375
-31.1279296875
-28.38134765625
-31.1279296875
-31.1279296875
-37.53662109375
-26.55029296875
-31.1279296875
-33.87451171875
-31.1279296875
-36.62109375
-47.607421875
-44.86083984375
-34.7900390625
-33.87451171875
-45.7763671875
-53.1005859375
-46.69189453125
-45.7763671875
-46.69189453125
-46.69189453125
-50.35400390625
-32.958984375
-37.53662109375
-60.4248046875
-56.7626953125
-47.607421875
-43.02978515625
-45.7763671875
-58.59375
-49.4384765625
-49.4384765625
-53.1005859375
-55.84716796875
-60.4248046875
-57.67822265625
-59.50927734375
-54.01611328125
-63.17138671875
-64.0869140625
-63.17138671875
-65.00244140625
-65.00244140625
-68.66455078125
-63.17138671875
-70.49560546875
-65.00244140625
-64.0869140625
-65.91796875
-57.67822265625
-56.7626953125
-68.66455078125
-70.49560546875
-65.91796875
-56.7626953125
-68.66455078125
-68.66455078125
-73.2421875
-73.2421875
-71.4111328125
-77.81982421875
-71.4111328125
-56.7626953125
-71.4111328125
-72.32666015625
-65.00244140625
-67.7490234375
-72.32666015625
-74.15771484375
-62.255859375
-67.7490234375
-75.98876953125
-72.32666015625
-65.91796875
-60.4248046875
-44.86083984375
-29.296875
-31.1279296875
-20.1416015625
-28.38134765625
-15.56396484375
-5.4931640625
0
-10.986328125
-8.23974609375
-10.986328125
-16.4794921875
-4.57763671875
9.1552734375
21.05712890625
22.88818359375
35.70556640625
38.4521484375
43.02978515625
43.9453125
43.9453125
51.26953125
47.607421875
34.7900390625
24.71923828125
13.73291015625
5.4931640625
-2.74658203125
-14.6484375
-8.23974609375
-13.73291015625
-13.73291015625
-19.22607421875
-43.02978515625
-54.931640625
-65.91796875
-71.4111328125
-73.2421875
-76.904296875
-67.7490234375
-79.65087890625
-80.56640625
-86.97509765625
-92.46826171875
-90.63720703125
-89.7216796875
-89.7216796875
-86.0595703125
-97.0458984375
-100.7080078125
-95.21484375
-90.63720703125
-96.13037109375
-102.5390625
-101.62353515625
-96.13037109375
-104.3701171875
-106.201171875
-106.201171875
-95.21484375
-106.201171875
-107.11669921875
-101.62353515625
-98.876953125
-100.7080078125
-102.5390625
-97.0458984375
-97.0458984375
-104.3701171875
-105.28564453125
-115.3564453125
-125.42724609375
-112.60986328125
-115.3564453125
-103.45458984375
-80.56640625
-66.83349609375
-56.7626953125
-43.9453125
-13.73291015625
53.1005859375
107.11669921875
134.58251953125
183.10546875
233.45947265625
299.37744140625
369.873046875
440.36865234375
487.97607421875
467.83447265625
356.14013671875
195.9228515625
81.48193359375
-29.296875
-133.6669921875
-217.8955078125
-286.56005859375
-287.4755859375
-262.75634765625
-228.8818359375
-198.66943359375
-171.20361328125
-160.21728515625
-159.3017578125
-172.119140625
-166.6259765625
-141.90673828125
-112.60986328125
-88.80615234375
-71.4111328125
-65.00244140625
-45.7763671875
-32.958984375
-40.283203125
-51.26953125
-49.4384765625
-45.7763671875
-41.19873046875
-27.4658203125
-32.04345703125
-41.19873046875
-42.1142578125
-40.283203125
-38.4521484375
-35.70556640625
-29.296875
-30.21240234375
-31.1279296875
-31.1279296875
-25.634765625
-25.634765625
-25.634765625
-11.90185546875
-7.32421875
-15.56396484375
-18.310546875
-15.56396484375
-14.6484375
-13.73291015625
-3.662109375
-1.8310546875
0
10.07080078125
17.39501953125
12.8173828125
9.1552734375
-0.91552734375
3.662109375
23.8037109375
28.38134765625
13.73291015625
11.90185546875
30.21240234375
33.87451171875
31.1279296875
39.36767578125
50.35400390625
45.7763671875
50.35400390625
57.67822265625
65.00244140625
67.7490234375
61.34033203125
78.7353515625
84.228515625
86.0595703125
92.46826171875
100.7080078125
103.45458984375
111.6943359375
122.6806640625
131.8359375
140.07568359375
132.75146484375
145.56884765625
146.484375
151.9775390625
168.45703125
170.2880859375
176.69677734375
179.443359375
185.85205078125
190.4296875
184.02099609375
194.091796875
192.2607421875
196.83837890625
204.16259765625
207.82470703125
199.5849609375
202.33154296875
198.66943359375
201.416015625
191.34521484375
191.34521484375
193.17626953125
201.416015625
201.416015625
198.66943359375
195.9228515625
175.78125
170.2880859375
172.119140625
161.1328125
142.822265625
142.822265625
132.75146484375
133.6669921875
119.93408203125
115.3564453125
95.21484375
88.80615234375
95.21484375
76.904296875
60.4248046875
56.7626953125
52.18505859375
37.53662109375
32.958984375
28.38134765625
21.05712890625
24.71923828125
10.986328125
3.662109375
-4.57763671875
-10.07080078125
-9.1552734375
-12.8173828125
-14.6484375
-21.05712890625
-32.04345703125
-27.4658203125
-26.55029296875
-38.4521484375
-41.19873046875
-48.52294921875
-41.19873046875
-36.62109375
-40.283203125
-54.01611328125
-65.91796875
-55.84716796875
-55.84716796875
-57.67822265625
-67.7490234375
-65.00244140625
-62.255859375
-62.255859375
-43.02978515625
-52.18505859375
-62.255859375
-58.59375
-54.01611328125
-58.59375
-56.7626953125
-55.84716796875
-67.7490234375
-65.91796875
-65.91796875
-53.1005859375
-43.02978515625
-39.36767578125
-55.84716796875
-54.01611328125
-48.52294921875
-49.4384765625
-47.607421875
-45.7763671875
-46.69189453125
-43.9453125
-41.19873046875
-40.283203125
-49.4384765625
-54.931640625
-46.69189453125
-42.1142578125
-37.53662109375
-45.7763671875
-40.283203125
-36.62109375
-39.36767578125
-37.53662109375
-40.283203125
-35.70556640625
-34.7900390625
-45.7763671875
-30.21240234375
-34.7900390625
-35.70556640625
-35.70556640625
-38.4521484375
-38.4521484375
-34.7900390625
-34.7900390625
-42.1142578125
-38.4521484375
-43.9453125
-42.1142578125
-35.70556640625
-21.97265625
-30.21240234375
-46.69189453125
-42.1142578125
-43.02978515625
-45.7763671875
-44.86083984375
-49.4384765625
-43.02978515625
-36.62109375
-37.53662109375
-43.9453125
-46.69189453125
-45.7763671875
-41.19873046875
-46.69189453125
-57.67822265625
-44.86083984375
-52.18505859375
-54.01611328125
-53.1005859375
-54.01611328125
-46.69189453125
-49.4384765625
-56.7626953125
-51.26953125
-62.255859375
-65.00244140625
-62.255859375
-58.59375
-70.49560546875
-72.32666015625
-66.83349609375
-71.4111328125
-72.32666015625
-76.904296875
-71.4111328125
-75.98876953125
-75.0732421875
-68.66455078125
-71.4111328125
-76.904296875
-85.14404296875
-78.7353515625
-80.56640625
-83.31298828125
-79.65087890625
-80.56640625
-83.31298828125
-78.7353515625
-85.14404296875
-88.80615234375
-82.3974609375
-75.98876953125
-86.97509765625
-85.14404296875
-84.228515625
-81.48193359375
-62.255859375
-53.1005859375
-56.7626953125
-55.84716796875
-53.1005859375
-42.1142578125
-37.53662109375
-44.86083984375
-43.9453125
-27.4658203125
-30.21240234375
-23.8037109375
-29.296875
-41.19873046875
-34.7900390625
-16.4794921875
0.91552734375
9.1552734375
24.71923828125
24.71923828125
16.4794921875
22.88818359375
24.71923828125
21.97265625
21.97265625
20.1416015625
10.07080078125
-0.91552734375
-7.32421875
-10.986328125
-24.71923828125
-31.1279296875
-29.296875
-29.296875
-36.62109375
-52.18505859375
-64.0869140625
-73.2421875
-84.228515625
-100.7080078125
-99.79248046875
-99.79248046875
-91.552734375
-94.29931640625
-104.3701171875
-103.45458984375
-104.3701171875
-100.7080078125
-111.6943359375
-122.6806640625
-120.849609375
-114.44091796875
-111.6943359375
-119.93408203125
-122.6806640625
-120.849609375
-119.0185546875
-115.3564453125
-118.10302734375
-119.0185546875
-121.76513671875
-119.93408203125
-122.6806640625
-120.849609375
-130.92041015625
-132.75146484375
-134.58251953125
-134.58251953125
-132.75146484375
-133.6669921875
-152.89306640625
-154.72412109375
-148.3154296875
-135.498046875
-110.77880859375
-115.3564453125
-121.76513671875
-92.46826171875
-60.4248046875
-42.1142578125
-28.38134765625
15.56396484375
59.50927734375
81.48193359375
118.10302734375
196.83837890625
274.658203125
336.9140625
407.40966796875
477.9052734375
534.66796875
551.1474609375
476.98974609375
335.0830078125
250.8544921875
186.767578125
94.29931640625
20.1416015625
-20.1416015625
-35.70556640625
-31.1279296875
-32.04345703125
-30.21240234375
-41.19873046875
-67.7490234375
-86.0595703125
-121.76513671875
-136.41357421875
-139.16015625
-137.3291015625
-111.6943359375
-86.0595703125
-79.65087890625
-81.48193359375
-72.32666015625
-58.59375
-67.7490234375
-69.580078125
-74.15771484375
-69.580078125
-67.7490234375
-59.50927734375
-65.91796875
-71.4111328125
-66.83349609375
-64.0869140625
-67.7490234375
-65.91796875
-68.66455078125
-65.00244140625
-54.01611328125
-46.69189453125
-58.59375
-52.18505859375
-54.01611328125
-59.50927734375
-47.607421875
-52.18505859375
-50.35400390625
-43.9453125
-32.958984375
-43.9453125
-45.7763671875
-31.1279296875
-38.4521484375
-42.1142578125
-37.53662109375
-27.4658203125
-14.6484375
-24.71923828125
-28.38134765625
-16.4794921875
-14.6484375
-12.8173828125
-10.07080078125
-14.6484375
-13.73291015625
-12.8173828125
-1.8310546875
5.4931640625
3.662109375
11.90185546875
14.6484375
14.6484375
11.90185546875
14.6484375
18.310546875
28.38134765625
38.4521484375
40.283203125
46.69189453125
53.1005859375
58.59375
50.35400390625
60.4248046875
62.255859375
69.580078125
78.7353515625
79.65087890625
74.15771484375
81.48193359375
93.3837890625
94.29931640625
94.29931640625
91.552734375
92.46826171875
93.3837890625
98.876953125
106.201171875
102.5390625
96.13037109375
97.0458984375
94.29931640625
101.62353515625
92.46826171875
88.80615234375
92.46826171875
87.890625
86.97509765625
81.48193359375
86.0595703125
76.904296875
78.7353515625
59.50927734375
57.67822265625
50.35400390625
44.86083984375
45.7763671875
41.19873046875
37.53662109375
40.283203125
36.62109375
30.21240234375
8.23974609375
-1.8310546875
7.32421875
0
-11.90185546875
-9.1552734375
-5.4931640625
-18.310546875
-26.55029296875
-21.05712890625
-24.71923828125
-32.04345703125
-42.1142578125
-40.283203125
-44.86083984375
-42.1142578125
-46.69189453125
-42.1142578125
-44.86083984375
-49.4384765625
-58.59375
-59.50927734375
-63.17138671875
-64.0869140625
-73.2421875
-69.580078125
-58.59375
-61.34033203125
-70.49560546875
-74.15771484375
-74.15771484375
-75.0732421875
-73.2421875
-74.15771484375
-76.904296875
-74.15771484375
-74.15771484375
-73.2421875
-82.3974609375
-77.81982421875
-71.4111328125
-80.56640625
-79.65087890625
-80.56640625
-76.904296875
-77.81982421875
-70.49560546875
-72.32666015625
-74.15771484375
-64.0869140625
-68.66455078125
-61.34033203125
-67.7490234375
-70.49560546875
-84.228515625
-74.15771484375
-55.84716796875
-53.1005859375
-63.17138671875
-66.83349609375
-58.59375
-56.7626953125
-60.4248046875
-74.15771484375
-65.91796875
-53.1005859375
-52.18505859375
-57.67822265625
-60.4248046875
-56.7626953125
-53.1005859375
-49.4384765625
-60.4248046875
-68.66455078125
-61.34033203125
-49.4384765625
-54.931640625
-51.26953125
-53.1005859375
-62.255859375
-62.255859375
-57.67822265625
-52.18505859375
-53.1005859375
-65.00244140625
-55.84716796875
-46.69189453125
-45.7763671875
-51.26953125
-51.26953125
-61.34033203125
-63.17138671875
-59.50927734375
-64.0869140625
-61.34033203125
-60.4248046875
-54.931640625
-58.59375
-59.50927734375
-65.00244140625
-65.00244140625
-66.83349609375
-68.66455078125
-72.32666015625
-68.66455078125
-65.91796875
-60.4248046875
-64.0869140625
-73.2421875
-79.65087890625
-78.7353515625
-78.7353515625
-72.32666015625
-79.65087890625
-62.255859375
-71.4111328125
-81.48193359375
-76.904296875
-78.7353515625
-86.0595703125
-86.0595703125
-87.890625
-84.228515625
-86.97509765625
-89.7216796875
-83.31298828125
-81.48193359375
-91.552734375
-95.21484375
-93.3837890625
-82.3974609375
-86.0595703125
-85.14404296875
-85.14404296875
-92.46826171875
-90.63720703125
-86.0595703125
-76.904296875
-67.7490234375
-65.91796875
-71.4111328125
-54.01611328125
-35.70556640625
-28.38134765625
-38.4521484375
-41.19873046875
-32.958984375
-30.21240234375
-32.04345703125
-32.04345703125
-31.1279296875
-40.283203125
-22.88818359375
-4.57763671875
8.23974609375
16.4794921875
22.88818359375
29.296875
41.19873046875
31.1279296875
38.4521484375
34.7900390625
19.22607421875
22.88818359375
21.05712890625
10.986328125
4.57763671875
2.74658203125
-9.1552734375
-19.22607421875
-20.1416015625
-21.97265625
-21.05712890625
-36.62109375
-54.931640625
-57.67822265625
-74.15771484375
-77.81982421875
-86.97509765625
-91.552734375
-91.552734375
-98.876953125
-112.60986328125
-113.525390625
-106.201171875
-104.3701171875
-111.6943359375
-110.77880859375
-114.44091796875
-113.525390625
-118.10302734375
-117.1875
-120.849609375
-125.42724609375
-124.51171875
-129.08935546875
-126.3427734375
-121.76513671875
-119.93408203125
-116.27197265625
-119.93408203125
-120.849609375
-118.10302734375
-130.92041015625
-136.41357421875
-131.8359375
-134.58251953125
-136.41357421875
-140.07568359375
-137.3291015625
-133.6669921875
-137.3291015625
-127.25830078125
-120.849609375
-112.60986328125
-94.29931640625
-62.255859375
-50.35400390625
-26.55029296875
4.57763671875
59.50927734375
97.0458984375
119.0185546875
195.00732421875
279.23583984375
359.80224609375
441.2841796875
517.27294921875
571.2890625
578.61328125
500.79345703125
347.900390625
248.10791015625
183.10546875
74.15771484375
-10.986328125
-68.66455078125
-77.81982421875
-60.4248046875
-47.607421875
-54.931640625
-69.580078125
-78.7353515625
-105.28564453125
-123.59619140625
-134.58251953125
-127.25830078125
-119.0185546875
-102.5390625
-99.79248046875
-76.904296875
-61.34033203125
-70.49560546875
-73.2421875
-72.32666015625
-66.83349609375
-73.2421875
-69.580078125
-60.4248046875
-66.83349609375
-61.34033203125
-62.255859375
-65.00244140625
-65.00244140625
-66.83349609375
-68.66455078125
-54.01611328125
-61.34033203125
-54.931640625
-52.18505859375
-47.607421875
-58.59375
-54.931640625
-50.35400390625
-50.35400390625
-49.4384765625
-50.35400390625
-50.35400390625
-45.7763671875
-44.86083984375
-39.36767578125
-26.55029296875
-31.1279296875
-23.8037109375
-21.97265625
-26.55029296875
-20.1416015625
-16.4794921875
-8.23974609375
-12.8173828125
-15.56396484375
-13.73291015625
-14.6484375
-8.23974609375
-4.57763671875
4.57763671875
5.4931640625
14.6484375
21.05712890625
10.986328125
19.22607421875
20.1416015625
25.634765625
25.634765625
37.53662109375
38.4521484375
43.02978515625
49.4384765625
59.50927734375
60.4248046875
64.0869140625
65.91796875
69.580078125
86.0595703125
93.3837890625
94.29931640625
97.96142578125
100.7080078125
102.5390625
100.7080078125
113.525390625
112.60986328125
119.0185546875
124.51171875
117.1875
121.76513671875
133.6669921875
120.849609375
117.1875
118.10302734375
115.3564453125
119.0185546875
117.1875
112.60986328125
110.77880859375
112.60986328125
119.0185546875
111.6943359375
110.77880859375
105.28564453125
97.96142578125
82.3974609375
81.48193359375
79.65087890625
76.904296875
65.91796875
54.01611328125
51.26953125
56.7626953125
43.02978515625
34.7900390625
38.4521484375
26.55029296875
16.4794921875
12.8173828125
3.662109375
-8.23974609375
-0.91552734375
-1.8310546875
-11.90185546875
-10.07080078125
-19.22607421875
-23.8037109375
-38.4521484375
-41.19873046875
-39.36767578125
-34.7900390625
-36.62109375
-43.02978515625
-46.69189453125
-58.59375
-46.69189453125
-44.86083984375
-51.26953125
-55.84716796875
-54.01611328125
-50.35400390625
-65.00244140625
-72.32666015625
-67.7490234375
-65.91796875
-68.66455078125
-55.84716796875
-57.67822265625
-69.580078125
-62.255859375
-63.17138671875
-64.0869140625
-63.17138671875
-65.91796875
-60.4248046875
-56.7626953125
-64.0869140625
-64.0869140625
-63.17138671875
-59.50927734375
-67.7490234375
-62.255859375
-69.580078125
-65.00244140625
-69.580078125
-63.17138671875
-52.18505859375
-53.1005859375
-52.18505859375
-60.4248046875
-65.00244140625
-54.931640625
-46.69189453125
-44.86083984375
-55.84716796875
-57.67822265625
-50.35400390625
-62.255859375
-56.7626953125
-52.18505859375
-49.4384765625
-42.1142578125
-42.1142578125
-39.36767578125
-41.19873046875
-43.02978515625
-54.01611328125
-49.4384765625
-43.02978515625
-37.53662109375
-40.283203125
-40.283203125
-35.70556640625
-41.19873046875
-43.9453125
-44.86083984375
-41.19873046875
-38.4521484375
-43.02978515625
-41.19873046875
-42.1142578125
-43.9453125
-46.69189453125
-35.70556640625
-43.9453125
-53.1005859375
-45.7763671875
-43.02978515625
-52.18505859375
-49.4384765625
-51.26953125
-47.607421875
-47.607421875
-50.35400390625
-53.1005859375
-49.4384765625
-56.7626953125
-61.34033203125
-62.255859375
-59.50927734375
-64.0869140625
-57.67822265625
-51.26953125
-52.18505859375
-64.0869140625
-64.0869140625
-60.4248046875
-68.66455078125
-65.91796875
-61.34033203125
-53.1005859375
-56.7626953125
-61.34033203125
-65.00244140625
-61.34033203125
-64.0869140625
-67.7490234375
-76.904296875
-72.32666015625
-73.2421875
-66.83349609375
-64.0869140625
-70.49560546875
-59.50927734375
-62.255859375
-75.0732421875
-80.56640625
-75.98876953125
-73.2421875
-65.91796875
-64.0869140625
-54.01611328125
-55.84716796875
-54.01611328125
-43.02978515625
-36.62109375
-32.958984375
-26.55029296875
-10.07080078125
-15.56396484375
-7.32421875
-12.8173828125
-12.8173828125
-14.6484375
-6.40869140625
3.662109375
10.07080078125
30.21240234375
39.36767578125
47.607421875
50.35400390625
59.50927734375
64.0869140625
73.2421875
69.580078125
55.84716796875
46.69189453125
46.69189453125
50.35400390625
44.86083984375
41.19873046875
32.958984375
32.04345703125
23.8037109375
21.05712890625
-0.91552734375
-15.56396484375
-19.22607421875
-23.8037109375
-38.4521484375
-52.18505859375
-62.255859375
-66.83349609375
-72.32666015625
-71.4111328125
-78.7353515625
-96.13037109375
-100.7080078125
-100.7080078125
-90.63720703125
-97.0458984375
-108.94775390625
-104.3701171875
-100.7080078125
-99.79248046875
-110.77880859375
-114.44091796875
-107.11669921875
-104.3701171875
-114.44091796875
-106.201171875
-101.62353515625
-108.0322265625
-120.849609375
-124.51171875
-118.10302734375
-109.86328125
-112.60986328125
-116.27197265625
-120.849609375
-115.3564453125
-115.3564453125
-115.3564453125
-113.525390625
-116.27197265625
-119.0185546875
-125.42724609375
-108.94775390625
-96.13037109375
-80.56640625
-69.580078125
-41.19873046875
-0.91552734375
61.34033203125
109.86328125
147.39990234375
215.14892578125
261.8408203125
320.4345703125
388.18359375
470.5810546875
522.76611328125
500.79345703125
391.845703125
237.12158203125
108.0322265625
-13.73291015625
-144.6533203125
-262.75634765625
-333.251953125
-345.15380859375
-316.7724609375
-266.41845703125
-234.375
-195.00732421875
-182.18994140625
-165.71044921875
-173.03466796875
-172.119140625
-145.56884765625
-118.10302734375
-92.46826171875
-72.32666015625
-72.32666015625
-62.255859375
-61.34033203125
-63.17138671875
-66.83349609375
-57.67822265625
-51.26953125
-50.35400390625
-45.7763671875
-51.26953125
-49.4384765625
-44.86083984375
-37.53662109375
-45.7763671875
-44.86083984375
-46.69189453125
-33.87451171875
-28.38134765625
-37.53662109375
-34.7900390625
-31.1279296875
-35.70556640625
-41.19873046875
-32.04345703125
-21.97265625
-20.1416015625
-14.6484375
-10.986328125
-21.97265625
-18.310546875
1.8310546875
1.8310546875
-2.74658203125
3.662109375
4.57763671875
2.74658203125
9.1552734375
10.986328125
10.07080078125
17.39501953125
24.71923828125
23.8037109375
24.71923828125
24.71923828125
37.53662109375
44.86083984375
44.86083984375
54.01611328125
52.18505859375
50.35400390625
56.7626953125
54.931640625
70.49560546875
77.81982421875
84.228515625
96.13037109375
101.62353515625
104.3701171875
114.44091796875
116.27197265625
130.0048828125
140.9912109375
145.56884765625
156.55517578125
166.6259765625
171.20361328125
183.10546875
186.767578125
196.83837890625
204.16259765625
211.48681640625
215.14892578125
223.388671875
210.5712890625
221.5576171875
230.712890625
227.05078125
232.5439453125
243.5302734375
236.2060546875
228.8818359375
227.05078125
227.05078125
227.96630859375
227.96630859375
231.62841796875
223.388671875
230.712890625
226.13525390625
205.99365234375
202.33154296875
193.17626953125
180.35888671875
170.2880859375
171.20361328125
164.794921875
153.80859375
135.498046875
125.42724609375
127.25830078125
117.1875
100.7080078125
86.97509765625
77.81982421875
72.32666015625
67.7490234375
51.26953125
37.53662109375
49.4384765625
45.7763671875
26.55029296875
16.4794921875
21.05712890625
8.23974609375
0.91552734375
-0.91552734375
-11.90185546875
-11.90185546875
-13.73291015625
-14.6484375
-16.4794921875
-17.39501953125
-26.55029296875
-32.958984375
-31.1279296875
-41.19873046875
-51.26953125
-47.607421875
-54.01611328125
-57.67822265625
-49.4384765625
-37.53662109375
-41.19873046875
-54.01611328125
-56.7626953125
-55.84716796875
-49.4384765625
-54.01611328125
-58.59375
-60.4248046875
-54.931640625
-57.67822265625
-53.1005859375
-53.1005859375
-54.931640625
-55.84716796875
-47.607421875
-46.69189453125
-42.1142578125
-54.01611328125
-55.84716796875
-47.607421875
-52.18505859375
-44.86083984375
-41.19873046875
-45.7763671875
-49.4384765625
-43.9453125
-43.9453125
-37.53662109375
-35.70556640625
-43.02978515625
-44.86083984375
-41.19873046875
-32.958984375
-35.70556640625
-32.958984375
-34.7900390625
-34.7900390625
-41.19873046875
-32.958984375
-27.4658203125
-29.296875
-31.1279296875
-31.1279296875
-31.1279296875
-27.4658203125
-27.4658203125
-24.71923828125
-22.88818359375
-30.21240234375
-26.55029296875
-26.55029296875
-32.04345703125
-32.958984375
-29.296875
-30.21240234375
-30.21240234375
-30.21240234375
-26.55029296875
-27.4658203125
-33.87451171875
-34.7900390625
-35.70556640625
-43.9453125
-38.4521484375
-31.1279296875
-37.53662109375
-44.86083984375
-57.67822265625
-41.19873046875
-42.1142578125
-44.86083984375
-50.35400390625
-52.18505859375
-51.26953125
-61.34033203125
-52.18505859375
-41.19873046875
-45.7763671875
-53.1005859375
-51.26953125
-54.931640625
-58.59375
-60.4248046875
-61.34033203125
-59.50927734375
-58.59375
-59.50927734375
-54.01611328125
-58.59375
-56.7626953125
-49.4384765625
-49.4384765625
-41.19873046875
-47.607421875
-55.84716796875
-43.9453125
-36.62109375
-23.8037109375
-17.39501953125
-12.8173828125
-17.39501953125
-10.986328125
-14.6484375
-14.6484375
-5.4931640625
0
0
5.4931640625
7.32421875
30.21240234375
44.86083984375
64.0869140625
73.2421875
67.7490234375
77.81982421875
84.228515625
81.48193359375
65.91796875
67.7490234375
72.32666015625
73.2421875
61.34033203125
66.83349609375
71.4111328125
54.931640625
49.4384765625
50.35400390625
33.87451171875
21.97265625
19.22607421875
1.8310546875
-10.986328125
-22.88818359375
-35.70556640625
-47.607421875
-56.7626953125
-64.0869140625
-68.66455078125
-81.48193359375
-73.2421875
-73.2421875
-86.97509765625
-91.552734375
-99.79248046875
-104.3701171875
-98.876953125
-104.3701171875
-99.79248046875
-99.79248046875
-107.11669921875
-113.525390625
-111.6943359375
-117.1875
-117.1875
-110.77880859375
-110.77880859375
-110.77880859375
-107.11669921875
-108.0322265625
-111.6943359375
-119.0185546875
-117.1875
-116.27197265625
-124.51171875
-120.849609375
-120.849609375
-129.08935546875
-138.24462890625
-137.3291015625
-138.24462890625
-131.8359375
-112.60986328125
-99.79248046875
-81.48193359375
-54.01611328125
-16.4794921875
44.86083984375
105.28564453125
139.16015625
201.416015625
271.91162109375
335.0830078125
420.22705078125
500.79345703125
547.4853515625
521.8505859375
402.83203125
259.09423828125
142.822265625
-1.8310546875
-159.3017578125
-302.1240234375
-363.46435546875
-363.46435546875
-339.66064453125
-296.630859375
-247.1923828125
-208.740234375
-196.83837890625
-180.35888671875
-187.68310546875
-160.21728515625
-136.41357421875
-119.93408203125
-97.0458984375
-69.580078125
-58.59375
-60.4248046875
-59.50927734375
-60.4248046875
-63.17138671875
-61.34033203125
-55.84716796875
-64.0869140625
-66.83349609375
-54.931640625
-55.84716796875
-43.02978515625
-43.02978515625
-50.35400390625
-43.9453125
-42.1142578125
-47.607421875
-32.958984375
-33.87451171875
-32.958984375
-33.87451171875
-32.04345703125
-28.38134765625
-22.88818359375
-16.4794921875
-19.22607421875
-21.05712890625
-20.1416015625
-13.73291015625
-10.986328125
-4.57763671875
-10.07080078125
-6.40869140625
-1.8310546875
-7.32421875
-2.74658203125
8.23974609375
11.90185546875
10.986328125
21.97265625
31.1279296875
31.1279296875
29.296875
33.87451171875
41.19873046875
40.283203125
40.283203125
46.69189453125
50.35400390625
58.59375
63.17138671875
69.580078125
74.15771484375
86.97509765625
97.0458984375
108.0322265625
113.525390625
115.3564453125
119.0185546875
125.42724609375
130.0048828125
146.484375
154.72412109375
161.1328125
170.2880859375
175.78125
185.85205078125
186.767578125
207.82470703125
217.8955078125
220.64208984375
230.712890625
237.12158203125
234.375
227.96630859375
239.8681640625
240.78369140625
237.12158203125
235.29052734375
238.95263671875
243.5302734375
246.27685546875
236.2060546875
242.61474609375
243.5302734375
232.5439453125
229.79736328125
227.05078125
218.81103515625
211.48681640625
203.2470703125
206.9091796875
201.416015625
177.6123046875
163.87939453125
162.04833984375
152.89306640625
140.07568359375
127.25830078125
121.76513671875
104.3701171875
101.62353515625
89.7216796875
88.80615234375
76.904296875
69.580078125
57.67822265625
45.7763671875
43.02978515625
37.53662109375
20.1416015625
20.1416015625
13.73291015625
10.07080078125
10.07080078125
-1.8310546875
-15.56396484375
-13.73291015625
-6.40869140625
-10.07080078125
-15.56396484375
-30.21240234375
-27.4658203125
-28.38134765625
-25.634765625
-31.1279296875
-42.1142578125
-41.19873046875
-41.19873046875
-40.283203125
-45.7763671875
-46.69189453125
-48.52294921875
-55.84716796875
-42.1142578125
-34.7900390625
-51.26953125
-58.59375
-43.02978515625
-54.01611328125
-44.86083984375
-48.52294921875
-46.69189453125
-40.283203125
-44.86083984375
-48.52294921875
-43.9453125
-43.02978515625
-42.1142578125
-35.70556640625
-33.87451171875
-43.9453125
-47.607421875
-46.69189453125
-39.36767578125
-26.55029296875
-32.958984375
-41.19873046875
-38.4521484375
-34.7900390625
-32.04345703125
-22.88818359375
-26.55029296875
-32.958984375
-27.4658203125
-20.1416015625
-29.296875
-30.21240234375
-25.634765625
-15.56396484375
-17.39501953125
-22.88818359375
-31.1279296875
-25.634765625
-20.1416015625
-27.4658203125
-21.97265625
-22.88818359375
-25.634765625
-21.97265625
-22.88818359375
-28.38134765625
-23.8037109375
-22.88818359375
-25.634765625
-19.22607421875
-21.05712890625
-22.88818359375
-29.296875
-25.634765625
-25.634765625
-27.4658203125
-30.21240234375
-32.04345703125
-30.21240234375
-32.958984375
-32.958984375
-31.1279296875
-40.283203125
-38.4521484375
-38.4521484375
-39.36767578125
-41.19873046875
-32.958984375
-36.62109375
-41.19873046875
-43.9453125
-47.607421875
-43.9453125
-38.4521484375
-32.958984375
-39.36767578125
-49.4384765625
-56.7626953125
-53.1005859375
-63.17138671875
-55.84716796875
-52.18505859375
-45.7763671875
-43.9453125
-38.4521484375
-39.36767578125
-35.70556640625
-23.8037109375
-11.90185546875
-6.40869140625
-5.4931640625
-10.07080078125
-6.40869140625
-0.91552734375
0.91552734375
4.57763671875
-1.8310546875
6.40869140625
7.32421875
8.23974609375
25.634765625
44.86083984375
62.255859375
66.83349609375
75.0732421875
78.7353515625
77.81982421875
81.48193359375
76.904296875
78.7353515625
86.0595703125
82.3974609375
71.4111328125
71.4111328125
70.49560546875
67.7490234375
70.49560546875
61.34033203125
53.1005859375
33.87451171875
22.88818359375
8.23974609375
-5.4931640625
-13.73291015625
-22.88818359375
-33.87451171875
-46.69189453125
-52.18505859375
-55.84716796875
-56.7626953125
-63.17138671875
-69.580078125
-76.904296875
-89.7216796875
-85.14404296875
-90.63720703125
-96.13037109375
-107.11669921875
-99.79248046875
-91.552734375
-93.3837890625
-102.5390625
-107.11669921875
-109.86328125
-107.11669921875
-107.11669921875
-111.6943359375
-107.11669921875
-105.28564453125
-102.5390625
-117.1875
-118.10302734375
-105.28564453125
-101.62353515625
-101.62353515625
-111.6943359375
-118.10302734375
-119.93408203125
-121.76513671875
-123.59619140625
-123.59619140625
-114.44091796875
-93.3837890625
-99.79248046875
-83.31298828125
-63.17138671875
-17.39501953125
43.9453125
90.63720703125
139.16015625
204.16259765625
264.58740234375
332.33642578125
410.15625
496.2158203125
520.93505859375
458.67919921875
323.18115234375
176.69677734375
75.0732421875
-69.580078125
-192.2607421875
-294.7998046875
-318.603515625
-299.37744140625
-280.1513671875
-256.34765625
-221.5576171875
-200.50048828125
-195.00732421875
-189.51416015625
-184.02099609375
-171.20361328125
-140.9912109375
-113.525390625
-86.97509765625
-68.66455078125
-53.1005859375
-53.1005859375
-61.34033203125
-66.83349609375
-57.67822265625
-55.84716796875
-54.931640625
-55.84716796875
-55.84716796875
-55.84716796875
-52.18505859375
-45.7763671875
-43.02978515625
-40.283203125
-39.36767578125
-44.86083984375
-38.4521484375
-36.62109375
-35.70556640625
-32.958984375
-25.634765625
-14.6484375
-26.55029296875
-20.1416015625
-21.97265625
-22.88818359375
-20.1416015625
-22.88818359375
-21.05712890625
-9.1552734375
-7.32421875
-9.1552734375
-0.91552734375
4.57763671875
9.1552734375
6.40869140625
10.07080078125
12.8173828125
12.8173828125
15.56396484375
21.05712890625
17.39501953125
17.39501953125
29.296875
36.62109375
37.53662109375
41.19873046875
47.607421875
64.0869140625
62.255859375
58.59375
68.66455078125
67.7490234375
76.904296875
80.56640625
97.96142578125
99.79248046875
107.11669921875
116.27197265625
121.76513671875
130.92041015625
141.90673828125
143.73779296875
155.6396484375
162.04833984375
169.37255859375
177.6123046875
182.18994140625
189.51416015625
203.2470703125
203.2470703125
193.17626953125
202.33154296875
199.5849609375
204.16259765625
221.5576171875
229.79736328125
214.2333984375
204.16259765625
208.740234375
210.5712890625
210.5712890625
210.5712890625
205.99365234375
200.50048828125
196.83837890625
199.5849609375
192.2607421875
184.9365234375
178.52783203125
167.54150390625
157.470703125
159.3017578125
155.6396484375
139.16015625
130.92041015625
119.93408203125
105.28564453125
100.7080078125
110.77880859375
95.21484375
76.904296875
68.66455078125
51.26953125
43.02978515625
43.9453125
32.958984375
23.8037109375
17.39501953125
21.05712890625
15.56396484375
13.73291015625
-0.91552734375
-3.662109375
-10.986328125
-21.05712890625
-21.05712890625
-27.4658203125
-25.634765625
-31.1279296875
-30.21240234375
-31.1279296875
-48.52294921875
-42.1142578125
-36.62109375
-52.18505859375
-50.35400390625
-48.52294921875
-59.50927734375
-59.50927734375
-54.01611328125
-55.84716796875
-55.84716796875
-59.50927734375
-62.255859375
-62.255859375
-71.4111328125
-69.580078125
-50.35400390625
-57.67822265625
-59.50927734375
-57.67822265625
-74.15771484375
-73.2421875
-67.7490234375
-64.0869140625
-59.50927734375
-63.17138671875
-55.84716796875
-55.84716796875
-54.931640625
-58.59375
-59.50927734375
-54.931640625
-53.1005859375
-52.18505859375
-44.86083984375
-42.1142578125
-53.1005859375
-56.7626953125
-48.52294921875
-45.7763671875
-52.18505859375
-43.02978515625
-53.1005859375
-55.84716796875
-47.607421875
-46.69189453125
-42.1142578125
-41.19873046875
-42.1142578125
-46.69189453125
-40.283203125
-51.26953125
-55.84716796875
-48.52294921875
-44.86083984375
-43.02978515625
-31.1279296875
-33.87451171875
-20.1416015625
-32.04345703125
-36.62109375
-32.04345703125
-24.71923828125
-43.9453125
-50.35400390625
-36.62109375
-45.7763671875
-38.4521484375
-43.02978515625
-37.53662109375
-43.02978515625
-49.4384765625
-38.4521484375
-44.86083984375
-41.19873046875
-38.4521484375
-43.9453125
-54.01611328125
-51.26953125
-54.931640625
-47.607421875
-40.283203125
-42.1142578125
-62.255859375
-61.34033203125
-60.4248046875
-56.7626953125
-54.931640625
-49.4384765625
-50.35400390625
-47.607421875
-31.1279296875
-21.05712890625
-14.6484375
-16.4794921875
-26.55029296875
-24.71923828125
-13.73291015625
-21.05712890625
-6.40869140625
-16.4794921875
-27.4658203125
-10.986328125
0
12.8173828125
26.55029296875
43.9453125
56.7626953125
68.66455078125
72.32666015625
76.904296875
63.17138671875
66.83349609375
65.00244140625
62.255859375
75.0732421875
61.34033203125
50.35400390625
65.91796875
68.66455078125
54.931640625
45.7763671875
28.38134765625
9.1552734375
5.4931640625
0
-14.6484375
-32.04345703125
-48.52294921875
-52.18505859375
-59.50927734375
-69.580078125
-62.255859375
-77.81982421875
-76.904296875
-81.48193359375
-90.63720703125
-100.7080078125
-97.0458984375
-106.201171875
-104.3701171875
-111.6943359375
-112.60986328125
-118.10302734375
-112.60986328125
-113.525390625
-122.6806640625
-128.173828125
-119.0185546875
-118.10302734375
-117.1875
-128.173828125
-135.498046875
-133.6669921875
-138.24462890625
-140.9912109375
-146.484375
-137.3291015625
-138.24462890625
-142.822265625
-143.73779296875
-146.484375
-139.16015625
-137.3291015625
-124.51171875
-103.45458984375
-77.81982421875
-69.580078125
-43.9453125
-3.662109375
54.931640625
96.13037109375
108.0322265625
185.85205078125
279.23583984375
357.97119140625
432.12890625
527.34375
568.54248046875
575.86669921875
495.30029296875
333.251953125
236.2060546875
161.1328125
57.67822265625
-11.90185546875
-65.91796875
-89.7216796875
-79.65087890625
-64.0869140625
-66.83349609375
-78.7353515625
-88.80615234375
-111.6943359375
-133.6669921875
-155.6396484375
-152.89306640625
-140.9912109375
-124.51171875
-108.0322265625
-100.7080078125
-90.63720703125
-89.7216796875
-92.46826171875
-81.48193359375
-86.0595703125
-83.31298828125
-80.56640625
-70.49560546875
-76.904296875
-91.552734375
-83.31298828125
-83.31298828125
-79.65087890625
-75.98876953125
-72.32666015625
-69.580078125
-70.49560546875
-68.66455078125
-69.580078125
-76.904296875
-77.81982421875
-68.66455078125
-65.91796875
-65.91796875
-59.50927734375
-64.0869140625
-61.34033203125
-57.67822265625
-54.931640625
-54.01611328125
-57.67822265625
-63.17138671875
-48.52294921875
-43.02978515625
-46.69189453125
-46.69189453125
-43.9453125
-33.87451171875
-32.958984375
-30.21240234375
-29.296875
-23.8037109375
-23.8037109375
-21.05712890625
-10.07080078125
-11.90185546875
-6.40869140625
-6.40869140625
-2.74658203125
13.73291015625
10.986328125
9.1552734375
12.8173828125
10.986328125
25.634765625
34.7900390625
42.1142578125
43.9453125
54.931640625
49.4384765625
56.7626953125
55.84716796875
67.7490234375
60.4248046875
61.34033203125
75.0732421875
88.80615234375
75.98876953125
75.98876953125
86.0595703125
90.63720703125
91.552734375
87.890625
90.63720703125
88.80615234375
84.228515625
83.31298828125
80.56640625
82.3974609375
86.97509765625
86.0595703125
83.31298828125
69.580078125
62.255859375
72.32666015625
69.580078125
59.50927734375
52.18505859375
53.1005859375
43.9453125
38.4521484375
36.62109375
33.87451171875
32.958984375
18.310546875
12.8173828125
14.6484375
4.57763671875
-0.91552734375
-5.4931640625
-9.1552734375
-11.90185546875
-26.55029296875
-24.71923828125
-31.1279296875
-29.296875
-34.7900390625
-44.86083984375
-44.86083984375
-43.02978515625
-40.283203125
-44.86083984375
-49.4384765625
-53.1005859375
-64.0869140625
-71.4111328125
-66.83349609375
-77.81982421875
-85.14404296875
-75.0732421875
-68.66455078125
-67.7490234375
-75.0732421875
-70.49560546875
-80.56640625
-73.2421875
-73.2421875
-69.580078125
-80.56640625
-80.56640625
-87.890625
-86.0595703125
-80.56640625
-79.65087890625
-77.81982421875
-76.904296875
-80.56640625
-77.81982421875
-69.580078125
-75.98876953125
-82.3974609375
-83.31298828125
-82.3974609375
-84.228515625
-75.0732421875
-70.49560546875
-74.15771484375
-65.00244140625
-74.15771484375
-71.4111328125
-75.98876953125
-82.3974609375
-80.56640625
-72.32666015625
-61.34033203125
-62.255859375
-74.15771484375
-75.0732421875
-64.0869140625
-70.49560546875
-65.91796875
-73.2421875
-64.0869140625
-65.00244140625
-65.91796875
-60.4248046875
-55.84716796875
-68.66455078125
-63.17138671875
-54.931640625
-52.18505859375
-52.18505859375
-66.83349609375
-69.580078125
-59.50927734375
-54.931640625
-62.255859375
-74.15771484375
-72.32666015625
-65.00244140625
-63.17138671875
-57.67822265625
-53.1005859375
-56.7626953125
-64.0869140625
-66.83349609375
-57.67822265625
-63.17138671875
-62.255859375
-62.255859375
-70.49560546875
-57.67822265625
-50.35400390625
-52.18505859375
-63.17138671875
-65.00244140625
-64.0869140625
-70.49560546875
-76.904296875
-59.50927734375
-51.26953125
-54.931640625
-58.59375
-55.84716796875
-40.283203125
-25.634765625
-33.87451171875
-41.19873046875
-36.62109375
-32.958984375
-32.04345703125
-27.4658203125
-31.1279296875
-29.296875
-28.38134765625
-18.310546875
-1.8310546875
4.57763671875
14.6484375
21.97265625
37.53662109375
42.1142578125
43.9453125
58.59375
53.1005859375
48.52294921875
56.7626953125
60.4248046875
53.1005859375
37.53662109375
43.9453125
50.35400390625
47.607421875
44.86083984375
38.4521484375
28.38134765625
13.73291015625
-15.56396484375
-22.88818359375
-27.4658203125
-38.4521484375
-40.283203125
-54.01611328125
-70.49560546875
-68.66455078125
-80.56640625
-83.31298828125
-81.48193359375
-86.0595703125
-103.45458984375
-116.27197265625
-114.44091796875
-106.201171875
-117.1875
-120.849609375
-121.76513671875
-120.849609375
-125.42724609375
-119.93408203125
-118.10302734375
-123.59619140625
-127.25830078125
-126.3427734375
-119.93408203125
-140.07568359375
-140.07568359375
-141.90673828125
-150.146484375
-141.90673828125
-140.9912109375
-146.484375
-159.3017578125
-150.146484375
-149.23095703125
-160.21728515625
-135.498046875
-135.498046875
-118.10302734375
-93.3837890625
-71.4111328125
-48.52294921875
-25.634765625
24.71923828125
83.31298828125
108.94775390625
141.90673828125
234.375
317.68798828125
387.26806640625
462.34130859375
542.90771484375
577.69775390625
569.4580078125
454.1015625
298.4619140625
218.81103515625
123.59619140625
27.4658203125
-34.7900390625
-72.32666015625
-86.0595703125
-79.65087890625
-78.7353515625
-85.14404296875
-81.48193359375
-90.63720703125
-125.42724609375
-141.90673828125
-157.470703125
-155.6396484375
-142.822265625
-129.08935546875
-105.28564453125
-90.63720703125
-89.7216796875
-88.80615234375
-80.56640625
-86.97509765625
-95.21484375
-86.97509765625
-86.0595703125
-84.228515625
-79.65087890625
-86.0595703125
-89.7216796875
-77.81982421875
-83.31298828125
-89.7216796875
-84.228515625
-85.14404296875
-84.228515625
-83.31298828125
-78.7353515625
-77.81982421875
-82.3974609375
-69.580078125
-69.580078125
-70.49560546875
-73.2421875
-73.2421875
-69.580078125
-69.580078125
-70.49560546875
-71.4111328125
-64.0869140625
-51.26953125
-54.931640625
-60.4248046875
-54.931640625
-46.69189453125
-41.19873046875
-33.87451171875
-30.21240234375
-40.283203125
-47.607421875
-32.958984375
-18.310546875
-28.38134765625
-32.04345703125
-25.634765625
-13.73291015625
-10.07080078125
8.23974609375
3.662109375
6.40869140625
12.8173828125
2.74658203125
7.32421875
28.38134765625
23.8037109375
22.88818359375
34.7900390625
43.9453125
47.607421875
56.7626953125
64.0869140625
59.50927734375
68.66455078125
73.2421875
79.65087890625
88.80615234375
86.97509765625
87.890625
94.29931640625
97.0458984375
94.29931640625
90.63720703125
90.63720703125
92.46826171875
90.63720703125
97.0458984375
97.96142578125
99.79248046875
96.13037109375
87.890625
80.56640625
83.31298828125
84.228515625
84.228515625
73.2421875
62.255859375
63.17138671875
56.7626953125
45.7763671875
36.62109375
33.87451171875
37.53662109375
22.88818359375
27.4658203125
18.310546875
0.91552734375
-7.32421875
-1.8310546875
10.986328125
10.986328125
-3.662109375
-8.23974609375
-24.71923828125
-21.97265625
-31.1279296875
-15.56396484375
-9.1552734375
-17.39501953125
-24.71923828125
-26.55029296875
-40.283203125
-40.283203125
-43.02978515625
-42.1142578125
-45.7763671875
-50.35400390625
-54.931640625
-54.01611328125
-56.7626953125
-60.4248046875
-62.255859375
-71.4111328125
-75.98876953125
-63.17138671875
-63.17138671875
-61.34033203125
-63.17138671875
-67.7490234375
-82.3974609375
-78.7353515625
-77.81982421875
-84.228515625
-79.65087890625
-73.2421875
-87.890625
-85.14404296875
-75.0732421875
-71.4111328125
-73.2421875
-77.81982421875
-72.32666015625
-68.66455078125
-75.0732421875
-79.65087890625
-72.32666015625
-75.0732421875
-73.2421875
-72.32666015625
-81.48193359375
-72.32666015625
-70.49560546875
-68.66455078125
-69.580078125
-64.0869140625
-61.34033203125
-61.34033203125
-56.7626953125
-58.59375
-58.59375
-43.9453125
-59.50927734375
-54.01611328125
-57.67822265625
-55.84716796875
-57.67822265625
-61.34033203125
-62.255859375
-47.607421875
-54.01611328125
-53.1005859375
-65.00244140625
-59.50927734375
-42.1142578125
-43.9453125
-48.52294921875
-52.18505859375
-57.67822265625
-58.59375
-43.9453125
-43.9453125
-42.1142578125
-54.01611328125
-55.84716796875
-54.01611328125
-54.01611328125
-54.01611328125
-53.1005859375
-63.17138671875
-63.17138671875
-57.67822265625
-56.7626953125
-57.67822265625
-62.255859375
-64.0869140625
-65.00244140625
-61.34033203125
-57.67822265625
-61.34033203125
-62.255859375
-61.34033203125
-65.91796875
-63.17138671875
-59.50927734375
-60.4248046875
-57.67822265625
-41.19873046875
-31.1279296875
-32.958984375
-28.38134765625
-21.97265625
-21.97265625
-20.1416015625
-24.71923828125
-27.4658203125
-15.56396484375
-19.22607421875
-21.05712890625
-15.56396484375
-8.23974609375
12.8173828125
23.8037109375
41.19873046875
44.86083984375
60.4248046875
64.0869140625
61.34033203125
65.91796875
59.50927734375
57.67822265625
72.32666015625
74.15771484375
54.01611328125
44.86083984375
47.607421875
52.18505859375
47.607421875
40.283203125
25.634765625
22.88818359375
3.662109375
-8.23974609375
-16.4794921875
-30.21240234375
-41.19873046875
-57.67822265625
-69.580078125
-65.91796875
-63.17138671875
-70.49560546875
-76.904296875
-80.56640625
-94.29931640625
-104.3701171875
-114.44091796875
-108.0322265625
-105.28564453125
-108.0322265625
-119.93408203125
-109.86328125
-110.77880859375
-112.60986328125
-114.44091796875
-117.1875
-110.77880859375
-123.59619140625
-128.173828125
-131.8359375
-126.3427734375
-123.59619140625
-131.8359375
-127.25830078125
-122.6806640625
-131.8359375
-140.07568359375
-142.822265625
-137.3291015625
-141.90673828125
-141.90673828125
-128.173828125
-132.75146484375
-111.6943359375
-84.228515625
-68.66455078125
-48.52294921875
-6.40869140625
56.7626953125
108.0322265625
137.3291015625
206.9091796875
301.20849609375
379.94384765625
477.9052734375
563.96484375
628.0517578125
657.3486328125
585.9375
423.88916015625
306.70166015625
214.2333984375
72.32666015625
-37.53662109375
-102.5390625
-139.16015625
-140.07568359375
-143.73779296875
-132.75146484375
-122.6806640625
-119.0185546875
-128.173828125
-141.90673828125
-155.6396484375
-150.146484375
-124.51171875
-97.96142578125
-99.79248046875
-94.29931640625
-100.7080078125
-100.7080078125
-82.3974609375
-81.48193359375
-75.0732421875
-78.7353515625
-83.31298828125
-75.98876953125
-86.97509765625
-83.31298828125
-71.4111328125
-81.48193359375
-85.14404296875
-74.15771484375
-75.0732421875
-71.4111328125
-73.2421875
-80.56640625
-67.7490234375
-58.59375
-63.17138671875
-67.7490234375
-60.4248046875
-60.4248046875
-55.84716796875
-46.69189453125
-51.26953125
-44.86083984375
-40.283203125
-55.84716796875
-48.52294921875
-38.4521484375
-37.53662109375
-41.19873046875
-39.36767578125
-29.296875
-27.4658203125
-23.8037109375
-21.05712890625
-14.6484375
-19.22607421875
-23.8037109375
-10.986328125
-8.23974609375
0
7.32421875
-0.91552734375
19.22607421875
20.1416015625
29.296875
36.62109375
24.71923828125
32.958984375
33.87451171875
42.1142578125
39.36767578125
44.86083984375
52.18505859375
63.17138671875
75.0732421875
76.904296875
78.7353515625
92.46826171875
108.0322265625
108.0322265625
109.86328125
114.44091796875
123.59619140625
132.75146484375
124.51171875
130.92041015625
134.58251953125
137.3291015625
141.90673828125
140.07568359375
147.39990234375
146.484375
145.56884765625
141.90673828125
138.24462890625
134.58251953125
147.39990234375
135.498046875
136.41357421875
131.8359375
123.59619140625
126.3427734375
119.0185546875
112.60986328125
109.86328125
100.7080078125
97.0458984375
89.7216796875
80.56640625
75.98876953125
64.0869140625
45.7763671875
36.62109375
37.53662109375
31.1279296875
18.310546875
20.1416015625
20.1416015625
13.73291015625
10.986328125
7.32421875
-10.07080078125
-18.310546875
-12.8173828125
-22.88818359375
-20.1416015625
-8.23974609375
-28.38134765625
-38.4521484375
-37.53662109375
-29.296875
-32.04345703125
-36.62109375
-40.283203125
-46.69189453125
-42.1142578125
-40.283203125
-46.69189453125
-39.36767578125
-37.53662109375
-48.52294921875
-43.02978515625
-50.35400390625
-63.17138671875
-57.67822265625
-49.4384765625
-65.91796875
-67.7490234375
-53.1005859375
-48.52294921875
-46.69189453125
-53.1005859375
-48.52294921875
-52.18505859375
-54.931640625
-64.0869140625
-58.59375
-53.1005859375
-54.01611328125
-54.01611328125
-54.931640625
-54.01611328125
-54.01611328125
-56.7626953125
-60.4248046875
-54.931640625
-57.67822265625
-48.52294921875
-40.283203125
-48.52294921875
-43.02978515625
-46.69189453125
-44.86083984375
-40.283203125
-35.70556640625
-40.283203125
-49.4384765625
-42.1142578125
-36.62109375
-40.283203125
-32.958984375
-32.958984375
-35.70556640625
-33.87451171875
-24.71923828125
-37.53662109375
-40.283203125
-35.70556640625
-32.04345703125
-28.38134765625
-27.4658203125
-30.21240234375
-27.4658203125
-21.97265625
-23.8037109375
-26.55029296875
-30.21240234375
-33.87451171875
-29.296875
-33.87451171875
-42.1142578125
-45.7763671875
-35.70556640625
-35.70556640625
-39.36767578125
-45.7763671875
-33.87451171875
-38.4521484375
-40.283203125
-28.38134765625
-34.7900390625
-51.26953125
-51.26953125
-43.9453125
-51.26953125
-52.18505859375
-50.35400390625
-51.26953125
-49.4384765625
-57.67822265625
-57.67822265625
-53.1005859375
-55.84716796875
-52.18505859375
-48.52294921875
-54.01611328125
-50.35400390625
-51.26953125
-60.4248046875
-56.7626953125
-55.84716796875
-61.34033203125
-70.49560546875
-69.580078125
-65.00244140625
-56.7626953125
-65.00244140625
-69.580078125
-50.35400390625
-67.7490234375
-66.83349609375
-54.01611328125
-72.32666015625
-65.91796875
-56.7626953125
-61.34033203125
-48.52294921875
-45.7763671875
-41.19873046875
-27.4658203125
-24.71923828125
-21.05712890625
-23.8037109375
-21.05712890625
-31.1279296875
-17.39501953125
-10.986328125
-13.73291015625
-10.07080078125
-10.986328125
-9.1552734375
5.4931640625
22.88818359375
41.19873046875
48.52294921875
61.34033203125
75.0732421875
64.0869140625
70.49560546875
69.580078125
56.7626953125
50.35400390625
51.26953125
57.67822265625
54.931640625
57.67822265625
54.931640625
48.52294921875
40.283203125
27.4658203125
27.4658203125
19.22607421875
17.39501953125
-2.74658203125
-32.04345703125
-41.19873046875
-56.7626953125
-59.50927734375
-65.00244140625
-54.01611328125
-60.4248046875
-66.83349609375
-77.81982421875
-83.31298828125
-88.80615234375
-92.46826171875
-110.77880859375
-108.0322265625
-98.876953125
-99.79248046875
-108.0322265625
-111.6943359375
-109.86328125
-106.201171875
-114.44091796875
-109.86328125
-110.77880859375
-115.3564453125
-116.27197265625
-120.849609375
-120.849609375
-121.76513671875
-130.0048828125
-119.93408203125
-121.76513671875
-128.173828125
-148.3154296875
-140.9912109375
-140.07568359375
-149.23095703125
-133.6669921875
-134.58251953125
-134.58251953125
-108.0322265625
-79.65087890625
-58.59375
-31.1279296875
33.87451171875
102.5390625
124.51171875
166.6259765625
243.5302734375
338.7451171875
434.87548828125
534.66796875
624.3896484375
693.05419921875
703.125
594.17724609375
448.6083984375
345.15380859375
255.43212890625
88.80615234375
-59.50927734375
-146.484375
-158.38623046875
-150.146484375
-151.06201171875
-158.38623046875
-145.56884765625
-137.3291015625
-143.73779296875
-142.822265625
-145.56884765625
-123.59619140625
-112.60986328125
-98.876953125
-84.228515625
-83.31298828125
-83.31298828125
-74.15771484375
-73.2421875
-75.0732421875
-75.98876953125
-82.3974609375
-77.81982421875
-78.7353515625
-71.4111328125
-72.32666015625
-64.0869140625
-65.91796875
-67.7490234375
-61.34033203125
-60.4248046875
-53.1005859375
-54.931640625
-64.0869140625
-56.7626953125
-48.52294921875
-51.26953125
-53.1005859375
-48.52294921875
-43.9453125
-38.4521484375
-35.70556640625
-30.21240234375
-46.69189453125
-44.86083984375
-37.53662109375
-32.958984375
-32.04345703125
-32.958984375
-24.71923828125
-17.39501953125
-23.8037109375
-26.55029296875
-18.310546875
-11.90185546875
-9.1552734375
-10.07080078125
-10.986328125
-3.662109375
0.91552734375
5.4931640625
6.40869140625
17.39501953125
27.4658203125
22.88818359375
22.88818359375
34.7900390625
32.958984375
42.1142578125
47.607421875
54.01611328125
56.7626953125
62.255859375
79.65087890625
73.2421875
88.80615234375
92.46826171875
98.876953125
115.3564453125
123.59619140625
130.92041015625
127.25830078125
131.8359375
151.06201171875
155.6396484375
154.72412109375
154.72412109375
160.21728515625
164.794921875
167.54150390625
170.2880859375
171.20361328125
172.119140625
174.86572265625
171.20361328125
175.78125
167.54150390625
163.87939453125
163.87939453125
160.21728515625
156.55517578125
163.87939453125
144.6533203125
142.822265625
143.73779296875
137.3291015625
130.92041015625
119.93408203125
111.6943359375
98.876953125
92.46826171875
82.3974609375
75.98876953125
76.904296875
60.4248046875
58.59375
52.18505859375
47.607421875
40.283203125
25.634765625
19.22607421875
18.310546875
12.8173828125
9.1552734375
4.57763671875
0.91552734375
-11.90185546875
-12.8173828125
-16.4794921875
-14.6484375
-11.90185546875
-19.22607421875
-24.71923828125
-33.87451171875
-36.62109375
-30.21240234375
-37.53662109375
-32.958984375
-39.36767578125
-38.4521484375
-35.70556640625
-44.86083984375
-40.283203125
-41.19873046875
-46.69189453125
-44.86083984375
-51.26953125
-43.9453125
-43.02978515625
-46.69189453125
-50.35400390625
-58.59375
-54.931640625
-58.59375
-52.18505859375
-57.67822265625
-54.931640625
-51.26953125
-40.283203125
-48.52294921875
-58.59375
-52.18505859375
-54.931640625
-54.931640625
-52.18505859375
-50.35400390625
-46.69189453125
-54.931640625
-49.4384765625
-36.62109375
-35.70556640625
-35.70556640625
-38.4521484375
-43.02978515625
-38.4521484375
-40.283203125
-34.7900390625
-23.8037109375
-30.21240234375
-38.4521484375
-37.53662109375
-35.70556640625
-29.296875
-28.38134765625
-35.70556640625
-35.70556640625
-31.1279296875
-26.55029296875
-28.38134765625
-32.958984375
-38.4521484375
-30.21240234375
-24.71923828125
-24.71923828125
-34.7900390625
-34.7900390625
-29.296875
-29.296875
-31.1279296875
-28.38134765625
-36.62109375
-42.1142578125
-39.36767578125
-40.283203125
-38.4521484375
-30.21240234375
-27.4658203125
-30.21240234375
-31.1279296875
-35.70556640625
-33.87451171875
-34.7900390625
-28.38134765625
-38.4521484375
-43.02978515625
-43.02978515625
-31.1279296875
-29.296875
-28.38134765625
-35.70556640625
-46.69189453125
-42.1142578125
-44.86083984375
-54.01611328125
-56.7626953125
-46.69189453125
-42.1142578125
-41.19873046875
-45.7763671875
-46.69189453125
-51.26953125
-49.4384765625
-52.18505859375
-55.84716796875
-52.18505859375
-54.931640625
-50.35400390625
-51.26953125
-59.50927734375
-56.7626953125
-54.01611328125
-57.67822265625
-60.4248046875
-55.84716796875
-56.7626953125
-62.255859375
-53.1005859375
-54.931640625
-58.59375
-56.7626953125
-62.255859375
-58.59375
-61.34033203125
-64.0869140625
-71.4111328125
-68.66455078125
-63.17138671875
-63.17138671875
-68.66455078125
-62.255859375
-66.83349609375
-57.67822265625
-74.15771484375
-82.3974609375
-81.48193359375
-72.32666015625
-60.4248046875
-64.0869140625
-68.66455078125
-63.17138671875
-75.98876953125
-72.32666015625
-62.255859375
-56.7626953125
-63.17138671875
-54.931640625
-35.70556640625
-31.1279296875
-34.7900390625
-25.634765625
-21.05712890625
-17.39501953125
-15.56396484375
-11.90185546875
-11.90185546875
-3.662109375
-2.74658203125
-0.91552734375
-1.8310546875
10.986328125
30.21240234375
45.7763671875
56.7626953125
58.59375
63.17138671875
71.4111328125
69.580078125
65.00244140625
56.7626953125
59.50927734375
65.91796875
67.7490234375
65.91796875
52.18505859375
50.35400390625
50.35400390625
46.69189453125
37.53662109375
32.04345703125
26.55029296875
7.32421875
-8.23974609375
-23.8037109375
-43.9453125
-44.86083984375
-45.7763671875
-51.26953125
-57.67822265625
-61.34033203125
-69.580078125
-80.56640625
-84.228515625
-86.0595703125
-94.29931640625
-99.79248046875
-103.45458984375
-93.3837890625
-85.14404296875
-91.552734375
-94.29931640625
-107.11669921875
-106.201171875
-102.5390625
-104.3701171875
-102.5390625
-116.27197265625
-117.1875
-111.6943359375
-115.3564453125
-120.849609375
-98.876953125
-102.5390625
-119.0185546875
-129.08935546875
-131.8359375
-129.08935546875
-130.0048828125
-123.59619140625
-113.525390625
-115.3564453125
-116.27197265625
-92.46826171875
-62.255859375
-35.70556640625
-5.4931640625
50.35400390625
98.876953125
129.08935546875
174.86572265625
268.24951171875
349.7314453125
439.453125
544.73876953125
631.7138671875
674.74365234375
671.08154296875
566.71142578125
420.22705078125
318.603515625
213.31787109375
41.19873046875
-91.552734375
-151.9775390625
-158.38623046875
-148.3154296875
-151.9775390625
-151.9775390625
-138.24462890625
-138.24462890625
-128.173828125
-136.41357421875
-129.08935546875
-122.6806640625
-105.28564453125
-86.0595703125
-65.91796875
-63.17138671875
-50.35400390625
-59.50927734375
-67.7490234375
-60.4248046875
-59.50927734375
-61.34033203125
-62.255859375
-64.0869140625
-51.26953125
-56.7626953125
-62.255859375
-61.34033203125
-63.17138671875
-53.1005859375
-58.59375
-58.59375
-44.86083984375
-46.69189453125
-57.67822265625
-53.1005859375
-48.52294921875
-37.53662109375
-38.4521484375
-45.7763671875
-43.02978515625
-34.7900390625
-35.70556640625
-37.53662109375
-33.87451171875
-28.38134765625
-20.1416015625
-22.88818359375
-14.6484375
-18.310546875
-17.39501953125
-12.8173828125
-7.32421875
-4.57763671875
-3.662109375
-3.662109375
6.40869140625
11.90185546875
5.4931640625
20.1416015625
15.56396484375
19.22607421875
22.88818359375
24.71923828125
21.05712890625
31.1279296875
36.62109375
43.02978515625
47.607421875
57.67822265625
54.931640625
59.50927734375
72.32666015625
72.32666015625
78.7353515625
89.7216796875
100.7080078125
108.94775390625
106.201171875
113.525390625
123.59619140625
125.42724609375
125.42724609375
132.75146484375
134.58251953125
149.23095703125
148.3154296875
151.9775390625
162.9638671875
164.794921875
167.54150390625
163.87939453125
162.04833984375
168.45703125
174.86572265625
173.9501953125
184.9365234375
174.86572265625
169.37255859375
162.04833984375
164.794921875
160.21728515625
151.9775390625
143.73779296875
146.484375
140.07568359375
132.75146484375
119.93408203125
120.849609375
104.3701171875
81.48193359375
84.228515625
68.66455078125
74.15771484375
72.32666015625
60.4248046875
51.26953125
49.4384765625
40.283203125
31.1279296875
31.1279296875
17.39501953125
11.90185546875
7.32421875
4.57763671875
2.74658203125
1.8310546875
-8.23974609375
-15.56396484375
-24.71923828125
-20.1416015625
-27.4658203125
-21.97265625
-22.88818359375
-22.88818359375
-32.04345703125
-46.69189453125
-42.1142578125
-43.9453125
-43.9453125
-44.86083984375
-41.19873046875
-54.01611328125
-49.4384765625
-40.283203125
-42.1142578125
-53.1005859375
-55.84716796875
-47.607421875
-45.7763671875
-44.86083984375
-54.01611328125
-66.83349609375
-57.67822265625
-52.18505859375
-45.7763671875
-43.9453125
-48.52294921875
-49.4384765625
-52.18505859375
-52.18505859375
-49.4384765625
-54.01611328125
-43.9453125
-45.7763671875
-45.7763671875
-41.19873046875
-51.26953125
-53.1005859375
-49.4384765625
-44.86083984375
-43.02978515625
-50.35400390625
-62.255859375
-50.35400390625
-43.9453125
-49.4384765625
-48.52294921875
-35.70556640625
-26.55029296875
-30.21240234375
-43.02978515625
-44.86083984375
-47.607421875
-46.69189453125
-48.52294921875
-40.283203125
-43.9453125
-44.86083984375
-39.36767578125
-30.21240234375
-35.70556640625
-38.4521484375
-35.70556640625
-28.38134765625
-37.53662109375
-32.04345703125
-27.4658203125
-39.36767578125
-42.1142578125
-34.7900390625
-39.36767578125
-40.283203125
-37.53662109375
-36.62109375
-40.283203125
-30.21240234375
-28.38134765625
-33.87451171875
-37.53662109375
-37.53662109375
-39.36767578125
-42.1142578125
-41.19873046875
-45.7763671875
-42.1142578125
-44.86083984375
-46.69189453125
-54.01611328125
-50.35400390625
-38.4521484375
-44.86083984375
-54.01611328125
-49.4384765625
-54.01611328125
-65.91796875
-57.67822265625
-52.18505859375
-64.0869140625
-63.17138671875
-61.34033203125
-67.7490234375
-65.91796875
-66.83349609375
-67.7490234375
-61.34033203125
-58.59375
-69.580078125
-68.66455078125
-70.49560546875
-71.4111328125
-68.66455078125
-65.91796875
-67.7490234375
-67.7490234375
-67.7490234375
-74.15771484375
-71.4111328125
-65.91796875
-65.00244140625
-70.49560546875
-78.7353515625
-74.15771484375
-74.15771484375
-59.50927734375
-56.7626953125
-63.17138671875
-71.4111328125
-79.65087890625
-73.2421875
-76.904296875
-77.81982421875
-79.65087890625
-77.81982421875
-65.91796875
-54.931640625
-66.83349609375
-58.59375
-57.67822265625
-54.01611328125
-43.9453125
-34.7900390625
-31.1279296875
-19.22607421875
-23.8037109375
-20.1416015625
-7.32421875
-10.986328125
-13.73291015625
-11.90185546875
-0.91552734375
18.310546875
35.70556640625
43.9453125
55.84716796875
61.34033203125
57.67822265625
66.83349609375
65.91796875
60.4248046875
58.59375
55.84716796875
52.18505859375
54.931640625
63.17138671875
68.66455078125
69.580078125
42.1142578125
39.36767578125
32.958984375
16.4794921875
2.74658203125
-3.662109375
-10.07080078125
-25.634765625
-39.36767578125
-34.7900390625
-45.7763671875
-58.59375
-56.7626953125
-61.34033203125
-67.7490234375
-72.32666015625
-79.65087890625
-90.63720703125
-100.7080078125
-96.13037109375
-95.21484375
-108.0322265625
-111.6943359375
-115.3564453125
-101.62353515625
-104.3701171875
-110.77880859375
-113.525390625
-121.76513671875
-116.27197265625
-121.76513671875
-122.6806640625
-121.76513671875
-123.59619140625
-131.8359375
-134.58251953125
-136.41357421875
-144.6533203125
-144.6533203125
-140.9912109375
-137.3291015625
-140.9912109375
-138.24462890625
-141.90673828125
-121.76513671875
-104.3701171875
-92.46826171875
-69.580078125
-40.283203125
3.662109375
50.35400390625
93.3837890625
119.0185546875
195.9228515625
279.23583984375
367.12646484375
453.18603515625
532.8369140625
588.68408203125
601.50146484375
521.8505859375
358.88671875
254.5166015625
173.9501953125
65.91796875
-21.05712890625
-75.98876953125
-94.29931640625
-96.13037109375
-97.0458984375
-90.63720703125
-104.3701171875
-116.27197265625
-129.08935546875
-144.6533203125
-162.9638671875
-168.45703125
-151.06201171875
-134.58251953125
-112.60986328125
-101.62353515625
-79.65087890625
-91.552734375
-103.45458984375
-90.63720703125
-84.228515625
-86.97509765625
-82.3974609375
-76.904296875
-77.81982421875
-74.15771484375
-72.32666015625
-75.98876953125
-73.2421875
-78.7353515625
-75.98876953125
-84.228515625
-75.98876953125
-86.0595703125
-78.7353515625
-69.580078125
-54.01611328125
-66.83349609375
-69.580078125
-55.84716796875
-50.35400390625
-62.255859375
-56.7626953125
-52.18505859375
-64.0869140625
-55.84716796875
-52.18505859375
-44.86083984375
-31.1279296875
-37.53662109375
-41.19873046875
-32.04345703125
-37.53662109375
-30.21240234375
-19.22607421875
-18.310546875
-22.88818359375
-17.39501953125
-17.39501953125
-23.8037109375
-10.986328125
-8.23974609375
-1.8310546875
-0.91552734375
0.91552734375
6.40869140625
16.4794921875
21.05712890625
26.55029296875
32.04345703125
32.04345703125
34.7900390625
34.7900390625
39.36767578125
43.02978515625
46.69189453125
54.931640625
69.580078125
84.228515625
85.14404296875
86.0595703125
85.14404296875
79.65087890625
83.31298828125
102.5390625
112.60986328125
116.27197265625
123.59619140625
118.10302734375
116.27197265625
118.10302734375
111.6943359375
119.0185546875
122.6806640625
113.525390625
116.27197265625
115.3564453125
111.6943359375
119.0185546875
111.6943359375
99.79248046875
114.44091796875
114.44091796875
95.21484375
90.63720703125
78.7353515625
82.3974609375
74.15771484375
65.91796875
67.7490234375
59.50927734375
46.69189453125
40.283203125
34.7900390625
22.88818359375
14.6484375
16.4794921875
15.56396484375
10.07080078125
1.8310546875
-6.40869140625
-7.32421875
-10.986328125
-8.23974609375
-5.4931640625
-23.8037109375
-27.4658203125
-42.1142578125
-39.36767578125
-43.02978515625
-46.69189453125
-44.86083984375
-49.4384765625
-55.84716796875
-60.4248046875
-49.4384765625
-60.4248046875
-59.50927734375
-65.91796875
-73.2421875
-73.2421875
-65.00244140625
-66.83349609375
-75.0732421875
-76.904296875
-73.2421875
-77.81982421875
-69.580078125
-68.66455078125
-73.2421875
-76.904296875
-77.81982421875
-72.32666015625
-74.15771484375
-79.65087890625
-82.3974609375
-82.3974609375
-73.2421875
-81.48193359375
-80.56640625
-74.15771484375
-81.48193359375
-83.31298828125
-78.7353515625
-76.904296875
-76.904296875
-66.83349609375
-60.4248046875
-75.98876953125
-76.904296875
-73.2421875
-67.7490234375
-66.83349609375
-70.49560546875
-74.15771484375
-68.66455078125
-73.2421875
-65.00244140625
-61.34033203125
-61.34033203125
-59.50927734375
-62.255859375
-65.91796875
-64.0869140625
-55.84716796875
-65.00244140625
-63.17138671875
-53.1005859375
-47.607421875
-60.4248046875
-52.18505859375
-48.52294921875
-49.4384765625
-57.67822265625
-48.52294921875
-54.01611328125
-45.7763671875
-51.26953125
-57.67822265625
-64.0869140625
-54.01611328125
-44.86083984375
-45.7763671875
-59.50927734375
-56.7626953125
-50.35400390625
-52.18505859375
-60.4248046875
-55.84716796875
-61.34033203125
-65.91796875
-61.34033203125
-60.4248046875
-63.17138671875
-65.91796875
-55.84716796875
