ECG
-105.28564453125
-113.525390625
-114.44091796875
-120.849609375
-123.59619140625
-126.3427734375
-123.59619140625
-127.25830078125
-128.173828125
-134.58251953125
-139.16015625
-132.75146484375
-133.6669921875
-139.16015625
-133.6669921875
-140.07568359375
-152.89306640625
-158.38623046875
-140.07568359375
-115.3564453125
-122.6806640625
-133.6669921875
-103.45458984375
-65.91796875
-32.04345703125
-9.1552734375
18.310546875
94.29931640625
132.75146484375
148.3154296875
207.82470703125
267.333984375
346.98486328125
425.72021484375
504.45556640625
567.626953125
597.83935546875
584.1064453125
462.34130859375
314.94140625
258.1787109375
155.6396484375
75.0732421875
50.35400390625
30.21240234375
21.05712890625
35.70556640625
25.634765625
10.07080078125
-13.73291015625
-36.62109375
-59.50927734375
-88.80615234375
-106.201171875
-113.525390625
-98.876953125
-72.32666015625
-61.34033203125
-53.1005859375
-51.26953125
-59.50927734375
-58.59375
-57.67822265625
-54.01611328125
-57.67822265625
-55.84716796875
-53.1005859375
-54.931640625
-56.7626953125
-54.01611328125
-57.67822265625
-65.00244140625
-47.607421875
-37.53662109375
-57.67822265625
-67.7490234375
-77.81982421875
-55.84716796875
-54.931640625
-49.4384765625
-29.296875
-56.7626953125
-39.36767578125
-17.39501953125
-20.1416015625
-24.71923828125
-31.1279296875
-28.38134765625
-23.8037109375
-27.4658203125
-21.05712890625
-22.88818359375
-28.38134765625
-10.986328125
-14.6484375
-9.1552734375
-20.1416015625
-15.56396484375
-20.1416015625
-1.8310546875
10.07080078125
2.74658203125
7.32421875
19.22607421875
17.39501953125
17.39501953125
16.4794921875
6.40869140625
19.22607421875
27.4658203125
50.35400390625
47.607421875
43.9453125
28.38134765625
32.958984375
46.69189453125
58.59375
60.4248046875
73.2421875
74.15771484375
69.580078125
81.48193359375
86.0595703125
98.876953125
104.3701171875
94.29931640625
106.201171875
132.75146484375
124.51171875
122.6806640625
130.0048828125
128.173828125
131.8359375
156.55517578125
169.37255859375
165.71044921875
180.35888671875
180.35888671875
201.416015625
197.75390625
199.5849609375
208.740234375
216.97998046875
225.2197265625
235.29052734375
227.05078125
216.97998046875
218.81103515625
207.82470703125
223.388671875
225.2197265625
223.388671875
223.388671875
216.064453125
227.96630859375
216.064453125
200.50048828125
210.5712890625
229.79736328125
218.81103515625
219.7265625
224.30419921875
200.50048828125
165.71044921875
155.6396484375
151.9775390625
136.41357421875
120.849609375
102.5390625
98.876953125
99.79248046875
80.56640625
75.0732421875
50.35400390625
32.04345703125
27.4658203125
18.310546875
15.56396484375
10.986328125
14.6484375
-8.23974609375
-15.56396484375
-14.6484375
-8.23974609375
-34.7900390625
-33.87451171875
-26.55029296875
-47.607421875
-52.18505859375
-52.18505859375
-52.18505859375
-51.26953125
-52.18505859375
-61.34033203125
-83.31298828125
-77.81982421875
-66.83349609375
-74.15771484375
-77.81982421875
-94.29931640625
-94.29931640625
-84.228515625
-94.29931640625
-90.63720703125
-91.552734375
-100.7080078125
-84.228515625
-84.228515625
-78.7353515625
-76.904296875
-72.32666015625
-69.580078125
-65.91796875
-82.3974609375
-97.96142578125
-94.29931640625
-83.31298828125
-91.552734375
-83.31298828125
-86.0595703125
-81.48193359375
-71.4111328125
-81.48193359375
-74.15771484375
-78.7353515625
-71.4111328125
-65.91796875
-80.56640625
-77.81982421875
-73.2421875
-71.4111328125
-75.0732421875
-77.81982421875
-86.97509765625
-77.81982421875
-89.7216796875
-89.7216796875
-81.48193359375
-62.255859375
-70.49560546875
-80.56640625
-77.81982421875
-80.56640625
-73.2421875
-61.34033203125
-78.7353515625
-80.56640625
-88.80615234375
-82.3974609375
-71.4111328125
-64.0869140625
-77.81982421875
-80.56640625
-83.31298828125
-85.14404296875
-80.56640625
-83.31298828125
-68.66455078125
-66.83349609375
-79.65087890625
-86.97509765625
-80.56640625
-79.65087890625
-84.228515625
-92.46826171875
-89.7216796875
-90.63720703125
-86.0595703125
-81.48193359375
-78.7353515625
-61.34033203125
-90.63720703125
-75.98876953125
-67.7490234375
-80.56640625
-97.96142578125
-97.0458984375
-99.79248046875
-106.201171875
-99.79248046875
-100.7080078125
-100.7080078125
-91.552734375
-91.552734375
-91.552734375
-99.79248046875
-97.96142578125
-100.7080078125
-96.13037109375
-104.3701171875
-94.29931640625
-108.94775390625
-101.62353515625
-97.96142578125
-108.94775390625
-96.13037109375
-99.79248046875
-105.28564453125
-114.44091796875
-119.0185546875
-103.45458984375
-104.3701171875
-98.876953125
-115.3564453125
-116.27197265625
-111.6943359375
-117.1875
-102.5390625
-112.60986328125
-119.93408203125
-108.94775390625
-119.93408203125
-111.6943359375
-108.0322265625
-116.27197265625
-124.51171875
-126.3427734375
-129.08935546875
-108.0322265625
-107.11669921875
-96.13037109375
-84.228515625
-107.11669921875
-97.96142578125
-81.48193359375
-85.14404296875
-77.81982421875
-85.14404296875
-82.3974609375
-86.0595703125
-68.66455078125
-69.580078125
-76.904296875
-75.98876953125
-72.32666015625
-49.4384765625
-12.8173828125
-8.23974609375
-26.55029296875
-29.296875
-14.6484375
-1.8310546875
0.91552734375
-10.07080078125
-14.6484375
-1.8310546875
-2.74658203125
-21.97265625
-5.4931640625
-11.90185546875
-9.1552734375
-18.310546875
-14.6484375
-4.57763671875
-25.634765625
-32.04345703125
-21.05712890625
-54.931640625
-88.80615234375
-86.0595703125
-89.7216796875
-98.876953125
-94.29931640625
-102.5390625
-117.1875
-125.42724609375
-125.42724609375
-135.498046875
-134.58251953125
-142.822265625
-149.23095703125
-139.16015625
-150.146484375
-151.9775390625
-146.484375
-150.146484375
-151.06201171875
-161.1328125
-162.9638671875
-161.1328125
-153.80859375
-151.9775390625
-176.69677734375
-177.6123046875
-179.443359375
-184.02099609375
-173.9501953125
-175.78125
-180.35888671875
-185.85205078125
-184.02099609375
-195.9228515625
-184.02099609375
-164.794921875
-155.6396484375
-151.9775390625
-161.1328125
-140.9912109375
-108.94775390625
-86.97509765625
-56.7626953125
-30.21240234375
16.4794921875
54.931640625
85.14404296875
121.76513671875
212.40234375
292.96875
356.14013671875
400.08544921875
453.18603515625
473.32763671875
464.17236328125
410.15625
298.4619140625
232.5439453125
172.119140625
83.31298828125
31.1279296875
27.4658203125
25.634765625
27.4658203125
28.38134765625
27.4658203125
3.662109375
-36.62109375
-83.31298828125
-115.3564453125
-143.73779296875
-157.470703125
-151.06201171875
-135.498046875
-127.25830078125
-121.76513671875
-111.6943359375
-88.80615234375
-102.5390625
-94.29931640625
-80.56640625
-80.56640625
-95.21484375
-103.45458984375
-89.7216796875
-91.552734375
-112.60986328125
-105.28564453125
-80.56640625
-57.67822265625
-71.4111328125
-90.63720703125
-85.14404296875
-79.65087890625
-108.94775390625
-108.0322265625
-112.60986328125
-82.3974609375
-71.4111328125
-79.65087890625
-79.65087890625
-76.904296875
-58.59375
-54.01611328125
-47.607421875
-55.84716796875
-37.53662109375
-23.8037109375
-33.87451171875
-48.52294921875
-65.91796875
-54.931640625
-42.1142578125
-46.69189453125
-27.4658203125
-26.55029296875
-33.87451171875
-18.310546875
-14.6484375
-16.4794921875
-4.57763671875
-5.4931640625
3.662109375
2.74658203125
23.8037109375
21.05712890625
16.4794921875
14.6484375
27.4658203125
45.7763671875
38.4521484375
24.71923828125
13.73291015625
24.71923828125
37.53662109375
31.1279296875
31.1279296875
56.7626953125
64.0869140625
49.4384765625
80.56640625
96.13037109375
90.63720703125
88.80615234375
79.65087890625
95.21484375
109.86328125
126.3427734375
137.3291015625
123.59619140625
142.822265625
139.16015625
128.173828125
157.470703125
162.04833984375
155.6396484375
171.20361328125
164.794921875
172.119140625
171.20361328125
167.54150390625
167.54150390625
173.9501953125
166.6259765625
162.9638671875
158.38623046875
177.6123046875
193.17626953125
177.6123046875
176.69677734375
142.822265625
176.69677734375
171.20361328125
173.9501953125
169.37255859375
157.470703125
151.06201171875
153.80859375
131.8359375
128.173828125
97.0458984375
92.46826171875
80.56640625
66.83349609375
75.0732421875
83.31298828125
54.931640625
33.87451171875
32.958984375
24.71923828125
21.97265625
12.8173828125
12.8173828125
-7.32421875
-15.56396484375
-31.1279296875
-39.36767578125
-39.36767578125
-41.19873046875
-47.607421875
-52.18505859375
-60.4248046875
-73.2421875
-91.552734375
-91.552734375
-80.56640625
-94.29931640625
-97.96142578125
-103.45458984375
-86.0595703125
-94.29931640625
-94.29931640625
-99.79248046875
-93.3837890625
-86.0595703125
-93.3837890625
-108.94775390625
-117.1875
-109.86328125
-100.7080078125
-105.28564453125
-102.5390625
-114.44091796875
-94.29931640625
-97.96142578125
-108.94775390625
-115.3564453125
-110.77880859375
-110.77880859375
-114.44091796875
-106.201171875
-107.11669921875
-105.28564453125
-99.79248046875
-111.6943359375
-95.21484375
-101.62353515625
-112.60986328125
-107.11669921875
-103.45458984375
-92.46826171875
-116.27197265625
-111.6943359375
-89.7216796875
-90.63720703125
-98.876953125
-106.201171875
-107.11669921875
-111.6943359375
-92.46826171875
-78.7353515625
-92.46826171875
-83.31298828125
-86.0595703125
-84.228515625
-85.14404296875
-86.97509765625
-90.63720703125
-88.80615234375
-96.13037109375
-86.97509765625
-71.4111328125
-76.904296875
-87.890625
-80.56640625
-65.91796875
-82.3974609375
-75.0732421875
-75.0732421875
-76.904296875
-67.7490234375
-77.81982421875
-65.00244140625
-70.49560546875
-79.65087890625
-86.0595703125
-95.21484375
-88.80615234375
-85.14404296875
-86.0595703125
-78.7353515625
-78.7353515625
-89.7216796875
-85.14404296875
-88.80615234375
-87.890625
-84.228515625
-78.7353515625
-88.80615234375
-98.876953125
-115.3564453125
-108.94775390625
-86.97509765625
-78.7353515625
-77.81982421875
-86.0595703125
-83.31298828125
-93.3837890625
-92.46826171875
-82.3974609375
-86.97509765625
-79.65087890625
-69.580078125
-72.32666015625
-86.0595703125
-98.876953125
-92.46826171875
-70.49560546875
-75.98876953125
-93.3837890625
-112.60986328125
-112.60986328125
-105.28564453125
-108.94775390625
-101.62353515625
-97.0458984375
-80.56640625
-75.0732421875
-74.15771484375
-75.98876953125
-98.876953125
-96.13037109375
-114.44091796875
-118.10302734375
-105.28564453125
-101.62353515625
-102.5390625
-97.96142578125
-96.13037109375
-95.21484375
-108.94775390625
-104.3701171875
-102.5390625
-107.11669921875
-103.45458984375
-104.3701171875
-104.3701171875
-106.201171875
-112.60986328125
-107.11669921875
-92.46826171875
-97.96142578125
-109.86328125
-102.5390625
-85.14404296875
-75.0732421875
-73.2421875
-68.66455078125
-64.0869140625
-50.35400390625
-49.4384765625
-41.19873046875
-54.01611328125
-50.35400390625
-52.18505859375
-37.53662109375
-52.18505859375
-32.04345703125
-31.1279296875
-18.310546875
1.8310546875
12.8173828125
9.1552734375
12.8173828125
41.19873046875
33.87451171875
18.310546875
15.56396484375
28.38134765625
30.21240234375
27.4658203125
37.53662109375
41.19873046875
40.283203125
32.958984375
24.71923828125
13.73291015625
13.73291015625
-2.74658203125
-3.662109375
1.8310546875
-20.1416015625
-74.15771484375
-79.65087890625
-81.48193359375
-86.97509765625
-80.56640625
-89.7216796875
-95.21484375
-96.13037109375
-96.13037109375
-106.201171875
-120.849609375
-119.93408203125
-133.6669921875
-126.3427734375
-129.08935546875
-131.8359375
-131.8359375
-125.42724609375
-130.92041015625
-144.6533203125
-146.484375
-129.08935546875
-122.6806640625
-128.173828125
-130.92041015625
-128.173828125
-134.58251953125
-140.07568359375
-119.0185546875
-137.3291015625
-164.794921875
-147.39990234375
-154.72412109375
-165.71044921875
-144.6533203125
-132.75146484375
-132.75146484375
-141.90673828125
-127.25830078125
-81.48193359375
-53.1005859375
-26.55029296875
5.4931640625
45.7763671875
96.13037109375
144.6533203125
178.52783203125
268.24951171875
355.224609375
431.21337890625
515.44189453125
595.0927734375
654.60205078125
673.828125
621.64306640625
490.72265625
368.0419921875
276.4892578125
173.03466796875
58.59375
-14.6484375
-39.36767578125
-22.88818359375
-3.662109375
-9.1552734375
-35.70556640625
-50.35400390625
-61.34033203125
-81.48193359375
-108.94775390625
-104.3701171875
-80.56640625
-62.255859375
-57.67822265625
-58.59375
-58.59375
-55.84716796875
-52.18505859375
-65.91796875
-75.98876953125
-70.49560546875
-54.01611328125
-56.7626953125
-65.91796875
-76.904296875
-65.00244140625
-54.01611328125
-52.18505859375
-54.01611328125
-56.7626953125
-59.50927734375
-36.62109375
-47.607421875
-43.9453125
-47.607421875
-52.18505859375
-51.26953125
-49.4384765625
-54.01611328125
-53.1005859375
-49.4384765625
-44.86083984375
-34.7900390625
-40.283203125
-32.04345703125
-32.04345703125
-27.4658203125
-25.634765625
-21.97265625
-20.1416015625
-23.8037109375
-5.4931640625
-7.32421875
-16.4794921875
-10.07080078125
0
5.4931640625
-2.74658203125
-21.05712890625
-3.662109375
10.07080078125
22.88818359375
13.73291015625
21.05712890625
32.04345703125
29.296875
28.38134765625
29.296875
31.1279296875
48.52294921875
54.01611328125
54.931640625
65.00244140625
75.98876953125
81.48193359375
89.7216796875
84.228515625
93.3837890625
104.3701171875
112.60986328125
122.6806640625
130.92041015625
134.58251953125
133.6669921875
140.07568359375
154.72412109375
155.6396484375
169.37255859375
182.18994140625
172.119140625
179.443359375
186.767578125
195.00732421875
198.66943359375
205.078125
217.8955078125
225.2197265625
225.2197265625
217.8955078125
223.388671875
228.8818359375
228.8818359375
232.5439453125
228.8818359375
233.45947265625
243.5302734375
249.0234375
242.61474609375
237.12158203125
244.44580078125
236.2060546875
227.96630859375
224.30419921875
213.31787109375
220.64208984375
220.64208984375
214.2333984375
207.82470703125
198.66943359375
191.34521484375
188.5986328125
178.52783203125
156.55517578125
153.80859375
128.173828125
115.3564453125
103.45458984375
87.890625
79.65087890625
79.65087890625
59.50927734375
41.19873046875
33.87451171875
24.71923828125
20.1416015625
12.8173828125
-4.57763671875
-15.56396484375
-13.73291015625
-21.97265625
-31.1279296875
-20.1416015625
-23.8037109375
-33.87451171875
-49.4384765625
-54.931640625
-66.83349609375
-69.580078125
-68.66455078125
-65.00244140625
-70.49560546875
-73.2421875
-68.66455078125
-68.66455078125
-76.904296875
-85.14404296875
-82.3974609375
-84.228515625
-75.0732421875
-76.904296875
-78.7353515625
-77.81982421875
-79.65087890625
-87.890625
-88.80615234375
-66.83349609375
-74.15771484375
-79.65087890625
-76.904296875
-77.81982421875
-88.80615234375
-86.97509765625
-79.65087890625
-75.98876953125
-77.81982421875
-91.552734375
-79.65087890625
-84.228515625
-82.3974609375
-83.31298828125
-88.80615234375
-86.97509765625
-84.228515625
-79.65087890625
-72.32666015625
-66.83349609375
-64.0869140625
-74.15771484375
-83.31298828125
-76.904296875
-73.2421875
-75.98876953125
-66.83349609375
-68.66455078125
-70.49560546875
-80.56640625
-81.48193359375
-66.83349609375
-67.7490234375
-65.91796875
-67.7490234375
-72.32666015625
-71.4111328125
-71.4111328125
-72.32666015625
-74.15771484375
-69.580078125
-63.17138671875
-74.15771484375
-71.4111328125
-72.32666015625
-60.4248046875
-60.4248046875
-64.0869140625
-78.7353515625
-77.81982421875
-70.49560546875
-67.7490234375
-59.50927734375
-65.00244140625
-83.31298828125
-76.904296875
-71.4111328125
-65.91796875
-72.32666015625
-71.4111328125
-65.91796875
-67.7490234375
-80.56640625
-92.46826171875
-92.46826171875
-78.7353515625
-78.7353515625
-78.7353515625
-80.56640625
-75.98876953125
-82.3974609375
-88.80615234375
-86.0595703125
-91.552734375
-80.56640625
-85.14404296875
-86.0595703125
-75.0732421875
-93.3837890625
-97.0458984375
-92.46826171875
-77.81982421875
-71.4111328125
-77.81982421875
-92.46826171875
-89.7216796875
-84.228515625
-85.14404296875
-71.4111328125
-61.34033203125
-97.0458984375
-104.3701171875
-109.86328125
-96.13037109375
-89.7216796875
-88.80615234375
-95.21484375
-101.62353515625
-97.0458984375
-103.45458984375
-91.552734375
-102.5390625
-97.96142578125
-89.7216796875
-93.3837890625
-87.890625
-84.228515625
-87.890625
-74.15771484375
-66.83349609375
-57.67822265625
-53.1005859375
-55.84716796875
-54.01611328125
-55.84716796875
-47.607421875
-40.283203125
-42.1142578125
-46.69189453125
-41.19873046875
-27.4658203125
-11.90185546875
4.57763671875
24.71923828125
20.1416015625
24.71923828125
30.21240234375
35.70556640625
41.19873046875
23.8037109375
3.662109375
16.4794921875
25.634765625
33.87451171875
22.88818359375
18.310546875
21.97265625
18.310546875
24.71923828125
11.90185546875
0.91552734375
-7.32421875
-23.8037109375
-49.4384765625
-71.4111328125
-108.0322265625
-102.5390625
-79.65087890625
-83.31298828125
-98.876953125
-115.3564453125
-103.45458984375
-102.5390625
-109.86328125
-115.3564453125
-123.59619140625
-120.849609375
-132.75146484375
-129.08935546875
-131.8359375
-138.24462890625
-127.25830078125
-127.25830078125
-129.08935546875
-142.822265625
-139.16015625
-132.75146484375
-152.89306640625
-157.470703125
-151.9775390625
-147.39990234375
-156.55517578125
-152.89306640625
-149.23095703125
-158.38623046875
-176.69677734375
-168.45703125
-151.06201171875
-154.72412109375
-166.6259765625
-165.71044921875
-173.03466796875
-171.20361328125
-138.24462890625
-102.5390625
-65.00244140625
-34.7900390625
0.91552734375
56.7626953125
119.93408203125
159.3017578125
231.62841796875
328.67431640625
410.15625
498.046875
575.86669921875
643.61572265625
682.06787109375
669.25048828125
566.71142578125
433.04443359375
314.02587890625
206.9091796875
94.29931640625
0
-45.7763671875
-51.26953125
-49.4384765625
-60.4248046875
-65.91796875
-59.50927734375
-91.552734375
-118.10302734375
-124.51171875
-120.849609375
-97.0458984375
-81.48193359375
-65.00244140625
-60.4248046875
-61.34033203125
-54.931640625
-61.34033203125
-68.66455078125
-64.0869140625
-64.0869140625
-62.255859375
-63.17138671875
-75.98876953125
-62.255859375
-64.0869140625
-67.7490234375
-61.34033203125
-61.34033203125
-59.50927734375
-62.255859375
-72.32666015625
-70.49560546875
-65.00244140625
-60.4248046875
-54.01611328125
-59.50927734375
-52.18505859375
-45.7763671875
-53.1005859375
-56.7626953125
-57.67822265625
-52.18505859375
-52.18505859375
-45.7763671875
-48.52294921875
-39.36767578125
-39.36767578125
-36.62109375
-30.21240234375
-26.55029296875
-27.4658203125
-18.310546875
-22.88818359375
-25.634765625
-22.88818359375
-7.32421875
-5.4931640625
-2.74658203125
0
1.8310546875
-0.91552734375
-2.74658203125
12.8173828125
15.56396484375
22.88818359375
22.88818359375
32.958984375
37.53662109375
38.4521484375
37.53662109375
42.1142578125
37.53662109375
60.4248046875
60.4248046875
58.59375
77.81982421875
82.3974609375
91.552734375
97.96142578125
108.94775390625
100.7080078125
108.94775390625
120.849609375
118.10302734375
131.8359375
130.92041015625
134.58251953125
147.39990234375
164.794921875
165.71044921875
170.2880859375
172.119140625
176.69677734375
183.10546875
191.34521484375
199.5849609375
208.740234375
201.416015625
216.064453125
227.05078125
229.79736328125
219.7265625
226.13525390625
231.62841796875
229.79736328125
227.05078125
222.47314453125
226.13525390625
231.62841796875
222.47314453125
217.8955078125
219.7265625
216.97998046875
204.16259765625
193.17626953125
193.17626953125
178.52783203125
171.20361328125
165.71044921875
151.9775390625
134.58251953125
119.93408203125
108.0322265625
102.5390625
97.96142578125
79.65087890625
69.580078125
46.69189453125
34.7900390625
21.97265625
13.73291015625
9.1552734375
-6.40869140625
-6.40869140625
-20.1416015625
-28.38134765625
-23.8037109375
-34.7900390625
-53.1005859375
-54.01611328125
-59.50927734375
-73.2421875
-62.255859375
-73.2421875
-78.7353515625
-75.98876953125
-77.81982421875
-91.552734375
-99.79248046875
-92.46826171875
-87.890625
-95.21484375
-87.890625
-95.21484375
-100.7080078125
-98.876953125
-97.96142578125
-95.21484375
-92.46826171875
-97.0458984375
-102.5390625
-96.13037109375
-94.29931640625
-98.876953125
-94.29931640625
-95.21484375
-105.28564453125
-104.3701171875
-104.3701171875
-103.45458984375
-102.5390625
-100.7080078125
-102.5390625
-106.201171875
-106.201171875
-102.5390625
-108.0322265625
-97.0458984375
-95.21484375
-88.80615234375
-93.3837890625
-95.21484375
-97.96142578125
-98.876953125
-98.876953125
-93.3837890625
-95.21484375
-91.552734375
-95.21484375
-93.3837890625
-90.63720703125
-89.7216796875
-97.96142578125
-96.13037109375
-96.13037109375
-99.79248046875
-87.890625
-86.0595703125
-101.62353515625
-108.94775390625
-105.28564453125
-91.552734375
-87.890625
-90.63720703125
-93.3837890625
-91.552734375
-86.97509765625
-85.14404296875
-90.63720703125
-90.63720703125
-90.63720703125
-88.80615234375
-98.876953125
-89.7216796875
-85.14404296875
-85.14404296875
-86.97509765625
-97.96142578125
-93.3837890625
-100.7080078125
-98.876953125
-86.97509765625
-86.97509765625
-86.0595703125
-84.228515625
-88.80615234375
-95.21484375
-101.62353515625
-100.7080078125
-90.63720703125
-88.80615234375
-95.21484375
-102.5390625
-103.45458984375
-100.7080078125
-96.13037109375
-105.28564453125
-113.525390625
-112.60986328125
-113.525390625
-113.525390625
-111.6943359375
-108.94775390625
-114.44091796875
-110.77880859375
-109.86328125
-111.6943359375
-117.1875
-123.59619140625
-125.42724609375
-118.10302734375
-117.1875
-114.44091796875
-106.201171875
-114.44091796875
-115.3564453125
-108.94775390625
-111.6943359375
-119.0185546875
-124.51171875
-123.59619140625
-113.525390625
-119.0185546875
-113.525390625
-115.3564453125
-119.0185546875
-130.92041015625
-128.173828125
-119.0185546875
-120.849609375
-123.59619140625
-123.59619140625
-114.44091796875
-119.93408203125
-129.08935546875
-133.6669921875
-121.76513671875
-115.3564453125
-120.849609375
-110.77880859375
-109.86328125
-111.6943359375
-106.201171875
-97.0458984375
-93.3837890625
-82.3974609375
-83.31298828125
-84.228515625
-77.81982421875
-63.17138671875
-53.1005859375
-60.4248046875
-62.255859375
-61.34033203125
-65.00244140625
-54.931640625
-33.87451171875
-13.73291015625
-0.91552734375
14.6484375
13.73291015625
17.39501953125
14.6484375
5.4931640625
0.91552734375
0.91552734375
-2.74658203125
-0.91552734375
-2.74658203125
0
-12.8173828125
-3.662109375
1.8310546875
-10.07080078125
-25.634765625
-31.1279296875
-33.87451171875
-36.62109375
-48.52294921875
-72.32666015625
-95.21484375
-88.80615234375
-86.0595703125
-97.0458984375
-113.525390625
-117.1875
-119.93408203125
-123.59619140625
-133.6669921875
-143.73779296875
-147.39990234375
-146.484375
-152.89306640625
-151.06201171875
-140.07568359375
-144.6533203125
-154.72412109375
-166.6259765625
-165.71044921875
-173.03466796875
-167.54150390625
-169.37255859375
-167.54150390625
-163.87939453125
-151.9775390625
-154.72412109375
-162.04833984375
-170.2880859375
-180.35888671875
-186.767578125
-186.767578125
-187.68310546875
-189.51416015625
-183.10546875
-194.091796875
-195.00732421875
-184.02099609375
-188.5986328125
-167.54150390625
-133.6669921875
-108.0322265625
-76.904296875
-36.62109375
26.55029296875
76.904296875
109.86328125
169.37255859375
273.74267578125
352.47802734375
437.6220703125
527.34375
622.55859375
674.74365234375
655.517578125
548.40087890625
396.42333984375
296.630859375
185.85205078125
26.55029296875
-75.0732421875
-109.86328125
-100.7080078125
-82.3974609375
-98.876953125
-110.77880859375
-108.0322265625
-115.3564453125
-134.58251953125
-151.9775390625
-138.24462890625
-128.173828125
-116.27197265625
-103.45458984375
-83.31298828125
-87.890625
-94.29931640625
-88.80615234375
-93.3837890625
-93.3837890625
-89.7216796875
-99.79248046875
-93.3837890625
-89.7216796875
-94.29931640625
-100.7080078125
-109.86328125
-99.79248046875
-100.7080078125
-105.28564453125
-98.876953125
-93.3837890625
-89.7216796875
-86.97509765625
-96.13037109375
-93.3837890625
-77.81982421875
-69.580078125
-75.0732421875
-84.228515625
-83.31298828125
-77.81982421875
-82.3974609375
-81.48193359375
-62.255859375
-64.0869140625
-72.32666015625
-75.98876953125
-74.15771484375
-61.34033203125
-58.59375
-51.26953125
-55.84716796875
-61.34033203125
-54.931640625
-49.4384765625
-38.4521484375
-32.958984375
-39.36767578125
-32.04345703125
-19.22607421875
-39.36767578125
-27.4658203125
-21.05712890625
-27.4658203125
-16.4794921875
-14.6484375
-4.57763671875
9.1552734375
14.6484375
8.23974609375
3.662109375
12.8173828125
23.8037109375
24.71923828125
23.8037109375
41.19873046875
43.9453125
37.53662109375
51.26953125
56.7626953125
63.17138671875
86.97509765625
88.80615234375
87.890625
90.63720703125
108.0322265625
119.93408203125
129.08935546875
130.0048828125
130.92041015625
140.07568359375
148.3154296875
160.21728515625
167.54150390625
166.6259765625
168.45703125
179.443359375
173.9501953125
175.78125
186.767578125
180.35888671875
182.18994140625
186.767578125
189.51416015625
191.34521484375
191.34521484375
185.85205078125
192.2607421875
192.2607421875
190.4296875
189.51416015625
180.35888671875
181.2744140625
176.69677734375
170.2880859375
170.2880859375
162.9638671875
150.146484375
131.8359375
117.1875
109.86328125
101.62353515625
91.552734375
79.65087890625
74.15771484375
55.84716796875
45.7763671875
37.53662109375
23.8037109375
17.39501953125
-0.91552734375
-10.986328125
-15.56396484375
-24.71923828125
-28.38134765625
-29.296875
-37.53662109375
-57.67822265625
-67.7490234375
-72.32666015625
-79.65087890625
-83.31298828125
-83.31298828125
-86.0595703125
-89.7216796875
-87.890625
-89.7216796875
-99.79248046875
-100.7080078125
-94.29931640625
-97.0458984375
-97.0458984375
-108.0322265625
-107.11669921875
-108.94775390625
-114.44091796875
-108.0322265625
-102.5390625
-106.201171875
-109.86328125
-104.3701171875
-103.45458984375
-100.7080078125
-101.62353515625
-106.201171875
-105.28564453125
-108.94775390625
-113.525390625
-113.525390625
-110.77880859375
-105.28564453125
-103.45458984375
-100.7080078125
-103.45458984375
-102.5390625
-102.5390625
-108.0322265625
-114.44091796875
-113.525390625
-115.3564453125
-114.44091796875
-104.3701171875
-110.77880859375
-108.94775390625
-108.94775390625
-105.28564453125
-98.876953125
-97.96142578125
-95.21484375
-92.46826171875
-95.21484375
-100.7080078125
-95.21484375
-86.0595703125
-90.63720703125
-89.7216796875
-101.62353515625
-90.63720703125
-89.7216796875
-87.890625
-90.63720703125
-86.97509765625
-97.0458984375
-84.228515625
-82.3974609375
-78.7353515625
-79.65087890625
-77.81982421875
-88.80615234375
-91.552734375
-85.14404296875
-86.97509765625
-97.96142578125
-90.63720703125
-78.7353515625
-82.3974609375
-87.890625
-79.65087890625
-76.904296875
-84.228515625
-91.552734375
-92.46826171875
-99.79248046875
-100.7080078125
-96.13037109375
-96.13037109375
-102.5390625
-102.5390625
-103.45458984375
-107.11669921875
-97.96142578125
-85.14404296875
-91.552734375
-97.0458984375
-96.13037109375
-97.96142578125
-102.5390625
-97.96142578125
-100.7080078125
-98.876953125
-96.13037109375
-102.5390625
-102.5390625
-90.63720703125
-97.96142578125
-102.5390625
-102.5390625
-104.3701171875
-97.0458984375
-91.552734375
-89.7216796875
-91.552734375
-107.11669921875
-109.86328125
-105.28564453125
-106.201171875
-105.28564453125
-106.201171875
-109.86328125
-108.94775390625
-112.60986328125
-114.44091796875
-107.11669921875
-116.27197265625
-111.6943359375
-112.60986328125
-120.849609375
-120.849609375
-114.44091796875
-121.76513671875
-113.525390625
-122.6806640625
-119.93408203125
-116.27197265625
-114.44091796875
-110.77880859375
-119.93408203125
-120.849609375
-117.1875
-120.849609375
-124.51171875
-119.93408203125
-118.10302734375
-119.0185546875
-120.849609375
-120.849609375
-112.60986328125
-114.44091796875
-123.59619140625
-117.1875
-116.27197265625
-109.86328125
-117.1875
-119.0185546875
-115.3564453125
-101.62353515625
-105.28564453125
-111.6943359375
-112.60986328125
-107.11669921875
-98.876953125
-96.13037109375
-100.7080078125
-95.21484375
-83.31298828125
-72.32666015625
-71.4111328125
-66.83349609375
-65.91796875
-60.4248046875
-51.26953125
-54.931640625
-51.26953125
-51.26953125
-54.01611328125
-35.70556640625
-18.310546875
4.57763671875
11.90185546875
12.8173828125
18.310546875
19.22607421875
10.986328125
9.1552734375
14.6484375
3.662109375
5.4931640625
12.8173828125
17.39501953125
14.6484375
8.23974609375
6.40869140625
6.40869140625
6.40869140625
-3.662109375
-10.986328125
-32.04345703125
-44.86083984375
-54.931640625
-71.4111328125
-92.46826171875
-102.5390625
-100.7080078125
-96.13037109375
-104.3701171875
-109.86328125
-111.6943359375
-113.525390625
-119.93408203125
-119.93408203125
-118.10302734375
-121.76513671875
-130.0048828125
-134.58251953125
-141.90673828125
-141.90673828125
-143.73779296875
-148.3154296875
-149.23095703125
-144.6533203125
-145.56884765625
-148.3154296875
-140.9912109375
-151.9775390625
-164.794921875
-162.9638671875
-159.3017578125
-165.71044921875
-156.55517578125
-158.38623046875
-172.119140625
-184.02099609375
-180.35888671875
-176.69677734375
-171.20361328125
-174.86572265625
-176.69677734375
-153.80859375
-130.0048828125
-105.28564453125
-81.48193359375
-46.69189453125
7.32421875
85.14404296875
133.6669921875
158.38623046875
241.69921875
324.0966796875
396.42333984375
480.65185546875
578.61328125
659.1796875
678.40576171875
617.0654296875
474.2431640625
343.32275390625
241.69921875
110.77880859375
-26.55029296875
-92.46826171875
-101.62353515625
-79.65087890625
-77.81982421875
-89.7216796875
-82.3974609375
-98.876953125
-113.525390625
-131.8359375
-149.23095703125
-127.25830078125
-101.62353515625
-93.3837890625
-81.48193359375
-75.0732421875
-73.2421875
-80.56640625
-85.14404296875
-81.48193359375
-87.890625
-88.80615234375
-87.890625
-86.97509765625
-78.7353515625
-70.49560546875
-68.66455078125
-75.98876953125
-81.48193359375
-75.98876953125
-79.65087890625
-78.7353515625
-77.81982421875
-82.3974609375
-81.48193359375
-75.98876953125
-80.56640625
-73.2421875
-74.15771484375
-73.2421875
-69.580078125
-62.255859375
-60.4248046875
-51.26953125
-50.35400390625
-54.01611328125
-61.34033203125
-50.35400390625
-53.1005859375
-45.7763671875
-35.70556640625
-35.70556640625
-27.4658203125
-21.97265625
-11.90185546875
-14.6484375
-12.8173828125
-12.8173828125
-21.05712890625
-14.6484375
-4.57763671875
-1.8310546875
-3.662109375
-2.74658203125
5.4931640625
12.8173828125
15.56396484375
13.73291015625
20.1416015625
32.958984375
34.7900390625
34.7900390625
35.70556640625
42.1142578125
51.26953125
48.52294921875
48.52294921875
55.84716796875
74.15771484375
83.31298828125
85.14404296875
91.552734375
100.7080078125
107.11669921875
112.60986328125
131.8359375
134.58251953125
131.8359375
135.498046875
145.56884765625
146.484375
164.794921875
164.794921875
162.9638671875
165.71044921875
175.78125
186.767578125
194.091796875
196.83837890625
188.5986328125
192.2607421875
188.5986328125
198.66943359375
194.091796875
194.091796875
208.740234375
204.16259765625
197.75390625
197.75390625
198.66943359375
203.2470703125
198.66943359375
193.17626953125
203.2470703125
189.51416015625
174.86572265625
170.2880859375
166.6259765625
151.9775390625
146.484375
125.42724609375
123.59619140625
111.6943359375
102.5390625
96.13037109375
86.0595703125
73.2421875
56.7626953125
44.86083984375
34.7900390625
22.88818359375
12.8173828125
10.07080078125
-0.91552734375
-15.56396484375
-24.71923828125
-21.97265625
-36.62109375
-38.4521484375
-41.19873046875
-47.607421875
-46.69189453125
-64.0869140625
-75.98876953125
-84.228515625
-80.56640625
-80.56640625
-86.97509765625
-90.63720703125
-86.0595703125
-94.29931640625
-97.96142578125
-104.3701171875
-109.86328125
-94.29931640625
-103.45458984375
-114.44091796875
-111.6943359375
-101.62353515625
-97.0458984375
-105.28564453125
-105.28564453125
-100.7080078125
-88.80615234375
-92.46826171875
-108.0322265625
-109.86328125
-105.28564453125
-103.45458984375
-106.201171875
-100.7080078125
-97.96142578125
-97.0458984375
-93.3837890625
-108.0322265625
-112.60986328125
-105.28564453125
-106.201171875
-100.7080078125
-102.5390625
-100.7080078125
-103.45458984375
-97.96142578125
-95.21484375
-99.79248046875
-105.28564453125
-108.0322265625
-108.0322265625
-103.45458984375
-102.5390625
-97.96142578125
-97.0458984375
-96.13037109375
-102.5390625
-97.0458984375
-105.28564453125
-106.201171875
-99.79248046875
-101.62353515625
-101.62353515625
-102.5390625
-101.62353515625
-97.0458984375
-96.13037109375
-93.3837890625
-102.5390625
-92.46826171875
-97.96142578125
-100.7080078125
-97.96142578125
-103.45458984375
-99.79248046875
-97.96142578125
-97.96142578125
-90.63720703125
-101.62353515625
-98.876953125
-95.21484375
-97.96142578125
-102.5390625
-95.21484375
-93.3837890625
-86.97509765625
-90.63720703125
-95.21484375
-97.96142578125
-98.876953125
-102.5390625
-108.0322265625
-106.201171875
-110.77880859375
-107.11669921875
-108.94775390625
-119.0185546875
-113.525390625
-109.86328125
-119.93408203125
-107.11669921875
-108.0322265625
-124.51171875
-121.76513671875
-117.1875
-115.3564453125
-113.525390625
-117.1875
-111.6943359375
-117.1875
-108.94775390625
-111.6943359375
-119.93408203125
-120.849609375
-119.93408203125
-114.44091796875
-117.1875
-119.0185546875
-114.44091796875
-113.525390625
-119.0185546875
-119.93408203125
-116.27197265625
-114.44091796875
-128.173828125
-128.173828125
-130.0048828125
-127.25830078125
-130.92041015625
-122.6806640625
-129.08935546875
-130.92041015625
-123.59619140625
-128.173828125
-130.92041015625
-123.59619140625
-127.25830078125
-135.498046875
-134.58251953125
-133.6669921875
-130.92041015625
-137.3291015625
-139.16015625
-134.58251953125
-137.3291015625
-137.3291015625
-132.75146484375
-135.498046875
-137.3291015625
-129.08935546875
-135.498046875
-135.498046875
-142.822265625
-132.75146484375
-115.3564453125
-125.42724609375
-138.24462890625
-140.07568359375
-130.92041015625
-130.92041015625
-126.3427734375
-128.173828125
-127.25830078125
-130.92041015625
-129.08935546875
-134.58251953125
-136.41357421875
-137.3291015625
-132.75146484375
-142.822265625
-144.6533203125
-143.73779296875
-148.3154296875
-146.484375
-134.58251953125
-131.8359375
-131.8359375
-126.3427734375
-121.76513671875
-122.6806640625
-129.08935546875
-124.51171875
-128.173828125
-127.25830078125
-131.8359375
-134.58251953125
-132.75146484375
-130.92041015625
-130.92041015625
-137.3291015625
-130.92041015625
-120.849609375
-108.94775390625
-114.44091796875
-114.44091796875
-91.552734375
-82.3974609375
-82.3974609375
-81.48193359375
-79.65087890625
-75.98876953125
-80.56640625
-78.7353515625
-79.65087890625
-70.49560546875
-58.59375
-49.4384765625
-35.70556640625
-22.88818359375
-5.4931640625
1.8310546875
-3.662109375
-4.57763671875
-2.74658203125
-7.32421875
0
-10.986328125
-9.1552734375
-10.986328125
-16.4794921875
-21.97265625
-20.1416015625
-24.71923828125
-36.62109375
-47.607421875
-53.1005859375
-68.66455078125
-82.3974609375
-85.14404296875
-91.552734375
-101.62353515625
-117.1875
-118.10302734375
-119.93408203125
-133.6669921875
-137.3291015625
-138.24462890625
-129.08935546875
-140.9912109375
-143.73779296875
-144.6533203125
-145.56884765625
-148.3154296875
-158.38623046875
-158.38623046875
-148.3154296875
-150.146484375
-152.89306640625
-151.9775390625
-153.80859375
-151.9775390625
-152.89306640625
-160.21728515625
-171.20361328125
-175.78125
-174.86572265625
-179.443359375
-178.52783203125
-173.9501953125
-176.69677734375
-185.85205078125
-197.75390625
-198.66943359375
-184.9365234375
-179.443359375
-194.091796875
-180.35888671875
-173.9501953125
-151.06201171875
-125.42724609375
-103.45458984375
-58.59375
-30.21240234375
32.958984375
99.79248046875
125.42724609375
175.78125
265.5029296875
348.81591796875
424.8046875
515.44189453125
594.17724609375
638.12255859375
627.13623046875
517.27294921875
357.0556640625
253.60107421875
141.90673828125
-1.8310546875
-87.890625
-117.1875
-104.3701171875
-86.0595703125
-95.21484375
-97.0458984375
-94.29931640625
-106.201171875
-120.849609375
-138.24462890625
-140.9912109375
-133.6669921875
-109.86328125
-95.21484375
-80.56640625
-85.14404296875
-82.3974609375
-81.48193359375
-86.97509765625
-89.7216796875
-86.0595703125
-86.0595703125
-81.48193359375
-85.14404296875
-76.904296875
-72.32666015625
-80.56640625
-79.65087890625
-82.3974609375
-81.48193359375
-76.904296875
-75.0732421875
-75.0732421875
-69.580078125
-68.66455078125
-62.255859375
-65.91796875
-65.91796875
-57.67822265625
-55.84716796875
-56.7626953125
-64.0869140625
-61.34033203125
-56.7626953125
-57.67822265625
-55.84716796875
-47.607421875
-52.18505859375
-50.35400390625
-37.53662109375
-30.21240234375
-33.87451171875
-34.7900390625
-25.634765625
-21.97265625
-18.310546875
-16.4794921875
-5.4931640625
-9.1552734375
-10.986328125
-11.90185546875
-9.1552734375
-0.91552734375
5.4931640625
3.662109375
6.40869140625
10.07080078125
21.05712890625
25.634765625
21.05712890625
33.87451171875
35.70556640625
36.62109375
40.283203125
43.9453125
55.84716796875
65.00244140625
65.91796875
65.91796875
72.32666015625
91.552734375
92.46826171875
94.29931640625
97.0458984375
98.876953125
105.28564453125
123.59619140625
127.25830078125
132.75146484375
143.73779296875
163.87939453125
157.470703125
151.9775390625
161.1328125
167.54150390625
173.03466796875
174.86572265625
182.18994140625
192.2607421875
197.75390625
199.5849609375
199.5849609375
205.078125
209.65576171875
211.48681640625
208.740234375
218.81103515625
216.064453125
207.82470703125
210.5712890625
208.740234375
209.65576171875
204.16259765625
196.83837890625
191.34521484375
201.416015625
192.2607421875
182.18994140625
173.03466796875
168.45703125
162.04833984375
145.56884765625
126.3427734375
119.0185546875
116.27197265625
103.45458984375
89.7216796875
79.65087890625
66.83349609375
56.7626953125
40.283203125
34.7900390625
30.21240234375
23.8037109375
19.22607421875
2.74658203125
-2.74658203125
-11.90185546875
-19.22607421875
-32.04345703125
-34.7900390625
-42.1142578125
-48.52294921875
-41.19873046875
-43.02978515625
-54.01611328125
-54.931640625
-55.84716796875
-60.4248046875
-67.7490234375
-71.4111328125
-70.49560546875
-75.98876953125
-74.15771484375
-80.56640625
-87.890625
-89.7216796875
-79.65087890625
-84.228515625
-85.14404296875
-77.81982421875
-77.81982421875
-82.3974609375
-76.904296875
-80.56640625
-93.3837890625
-86.97509765625
-94.29931640625
-89.7216796875
-88.80615234375
-88.80615234375
-87.890625
-92.46826171875
-94.29931640625
-91.552734375
-86.97509765625
-87.890625
-81.48193359375
-83.31298828125
-83.31298828125
-85.14404296875
-89.7216796875
-76.904296875
-74.15771484375
-78.7353515625
-77.81982421875
-80.56640625
-81.48193359375
-77.81982421875
-71.4111328125
-71.4111328125
-74.15771484375
-63.17138671875
-64.0869140625
-74.15771484375
-76.904296875
-73.2421875
-75.0732421875
-77.81982421875
-75.98876953125
-68.66455078125
-73.2421875
-67.7490234375
-72.32666015625
-78.7353515625
-75.98876953125
-70.49560546875
-81.48193359375
-85.14404296875
-78.7353515625
-75.0732421875
-73.2421875
-72.32666015625
-81.48193359375
-73.2421875
-85.14404296875
-88.80615234375
-87.890625
-86.0595703125
-82.3974609375
-86.0595703125
-80.56640625
-75.98876953125
-82.3974609375
-85.14404296875
-84.228515625
-80.56640625
-82.3974609375
-82.3974609375
-86.0595703125
-92.46826171875
-94.29931640625
-85.14404296875
-82.3974609375
-74.15771484375
-77.81982421875
-87.890625
-88.80615234375
-89.7216796875
-92.46826171875
-87.890625
-88.80615234375
-95.21484375
-93.3837890625
-93.3837890625
-96.13037109375
-90.63720703125
-91.552734375
-97.0458984375
-93.3837890625
-98.876953125
-97.0458984375
-97.0458984375
-107.11669921875
-106.201171875
-102.5390625
-100.7080078125
-101.62353515625
-104.3701171875
-107.11669921875
-108.94775390625
-102.5390625
-107.11669921875
-109.86328125
-102.5390625
-110.77880859375
-102.5390625
-97.0458984375
-105.28564453125
-109.86328125
-108.0322265625
-111.6943359375
-119.0185546875
-107.11669921875
-111.6943359375
-107.11669921875
-110.77880859375
-112.60986328125
-109.86328125
-108.94775390625
-116.27197265625
-112.60986328125
-114.44091796875
-114.44091796875
-121.76513671875
-120.849609375
-114.44091796875
-111.6943359375
-108.0322265625
-116.27197265625
-120.849609375
-110.77880859375
-119.0185546875
-120.849609375
-116.27197265625
-106.201171875
-108.0322265625
-110.77880859375
-113.525390625
-118.10302734375
-119.0185546875
-120.849609375
-111.6943359375
-107.11669921875
-113.525390625
-119.93408203125
-122.6806640625
-124.51171875
-121.76513671875
-120.849609375
-122.6806640625
-117.1875
-119.93408203125
-112.60986328125
-110.77880859375
-120.849609375
-120.849609375
-123.59619140625
-115.3564453125
-114.44091796875
-120.849609375
-119.93408203125
-122.6806640625
-118.10302734375
-113.525390625
-116.27197265625
-108.94775390625
-118.10302734375
-117.1875
-119.93408203125
-120.849609375
-119.93408203125
-116.27197265625
-121.76513671875
-125.42724609375
-118.10302734375
-109.86328125
-119.0185546875
-126.3427734375
-128.173828125
-119.93408203125
-127.25830078125
-132.75146484375
-137.3291015625
-119.93408203125
-117.1875
-121.76513671875
-119.93408203125
-123.59619140625
-122.6806640625
-124.51171875
-123.59619140625
-123.59619140625
-133.6669921875
-139.16015625
-129.08935546875
-122.6806640625
-124.51171875
-122.6806640625
-115.3564453125
-105.28564453125
-96.13037109375
-95.21484375
-89.7216796875
-78.7353515625
-66.83349609375
-69.580078125
-73.2421875
-75.98876953125
-72.32666015625
-72.32666015625
-71.4111328125
-58.59375
-39.36767578125
-32.958984375
-16.4794921875
3.662109375
9.1552734375
-0.91552734375
6.40869140625
12.8173828125
12.8173828125
-5.4931640625
0
9.1552734375
0.91552734375
-11.90185546875
-20.1416015625
-22.88818359375
-19.22607421875
-22.88818359375
-39.36767578125
-40.283203125
-56.7626953125
-73.2421875
-77.81982421875
-85.14404296875
-88.80615234375
-116.27197265625
-115.3564453125
-119.93408203125
-125.42724609375
-125.42724609375
-127.25830078125
-129.08935546875
-130.92041015625
-138.24462890625
-142.822265625
-151.06201171875
-150.146484375
-148.3154296875
-146.484375
-146.484375
-147.39990234375
-149.23095703125
-147.39990234375
-147.39990234375
-149.23095703125
-151.9775390625
-155.6396484375
-148.3154296875
-149.23095703125
-152.89306640625
-161.1328125
-159.3017578125
-157.470703125
-163.87939453125
-161.1328125
-163.87939453125
-163.87939453125
-180.35888671875
-180.35888671875
-173.9501953125
-166.6259765625
-171.20361328125
-156.55517578125
-120.849609375
-99.79248046875
-61.34033203125
-21.97265625
32.04345703125
95.21484375
124.51171875
178.52783203125
263.671875
341.49169921875
428.466796875
515.44189453125
597.83935546875
643.61572265625
621.64306640625
506.28662109375
353.3935546875
256.34765625
133.6669921875
-7.32421875
-88.80615234375
-112.60986328125
-94.29931640625
-70.49560546875
-75.0732421875
-76.904296875
-78.7353515625
-94.29931640625
-119.93408203125
-134.58251953125
-134.58251953125
-119.0185546875
-99.79248046875
-89.7216796875
-71.4111328125
-69.580078125
-67.7490234375
-73.2421875
-70.49560546875
-70.49560546875
-74.15771484375
-76.904296875
-83.31298828125
-80.56640625
-76.904296875
-74.15771484375
-74.15771484375
-74.15771484375
-71.4111328125
-77.81982421875
-69.580078125
-64.0869140625
-67.7490234375
-68.66455078125
-68.66455078125
-65.91796875
-58.59375
-66.83349609375
-64.0869140625
-65.00244140625
-54.01611328125
-50.35400390625
-50.35400390625
-55.84716796875
-46.69189453125
-50.35400390625
-51.26953125
-42.1142578125
-39.36767578125
-38.4521484375
-37.53662109375
-34.7900390625
-26.55029296875
-22.88818359375
-23.8037109375
-20.1416015625
-16.4794921875
-21.05712890625
-16.4794921875
-11.90185546875
-6.40869140625
-3.662109375
-2.74658203125
2.74658203125
12.8173828125
16.4794921875
16.4794921875
21.05712890625
24.71923828125
21.97265625
23.8037109375
32.04345703125
40.283203125
42.1142578125
48.52294921875
52.18505859375
61.34033203125
69.580078125
67.7490234375
75.98876953125
76.904296875
82.3974609375
91.552734375
94.29931640625
102.5390625
109.86328125
113.525390625
130.92041015625
137.3291015625
139.16015625
142.822265625
156.55517578125
160.21728515625
163.87939453125
165.71044921875
174.86572265625
180.35888671875
178.52783203125
180.35888671875
190.4296875
185.85205078125
188.5986328125
200.50048828125
198.66943359375
193.17626953125
195.9228515625
201.416015625
205.99365234375
205.078125
203.2470703125
207.82470703125
207.82470703125
201.416015625
201.416015625
190.4296875
189.51416015625
195.00732421875
184.9365234375
167.54150390625
164.794921875
157.470703125
152.89306640625
146.484375
130.0048828125
117.1875
109.86328125
94.29931640625
77.81982421875
75.0732421875
61.34033203125
50.35400390625
40.283203125
32.958984375
23.8037109375
9.1552734375
6.40869140625
-16.4794921875
-23.8037109375
-22.88818359375
-32.958984375
-36.62109375
-29.296875
-37.53662109375
-46.69189453125
-59.50927734375
-67.7490234375
-77.81982421875
-72.32666015625
-65.00244140625
-67.7490234375
-73.2421875
-82.3974609375
-91.552734375
-97.96142578125
-88.80615234375
-88.80615234375
-95.21484375
-95.21484375
-89.7216796875
-86.0595703125
-86.0595703125
-84.228515625
-97.0458984375
-86.0595703125
-80.56640625
-86.97509765625
-97.96142578125
-108.94775390625
-101.62353515625
-106.201171875
-105.28564453125
-99.79248046875
-101.62353515625
-103.45458984375
-89.7216796875
-89.7216796875
-89.7216796875
-96.13037109375
-88.80615234375
-87.890625
-86.97509765625
-86.0595703125
-86.0595703125
-81.48193359375
-75.0732421875
-83.31298828125
-82.3974609375
-89.7216796875
-87.890625
-87.890625
-97.0458984375
-94.29931640625
-88.80615234375
-90.63720703125
-86.97509765625
-85.14404296875
-89.7216796875
-85.14404296875
-90.63720703125
-96.13037109375
-83.31298828125
-86.97509765625
-84.228515625
-89.7216796875
-84.228515625
-86.97509765625
-88.80615234375
-81.48193359375
-88.80615234375
-90.63720703125
-95.21484375
-95.21484375
-91.552734375
-99.79248046875
-98.876953125
-95.21484375
-103.45458984375
-103.45458984375
-81.48193359375
-89.7216796875
-95.21484375
-96.13037109375
-95.21484375
-97.96142578125
-97.96142578125
-92.46826171875
-95.21484375
-107.11669921875
-109.86328125
-94.29931640625
-98.876953125
-104.3701171875
-91.552734375
-92.46826171875
-91.552734375
-81.48193359375
-78.7353515625
-101.62353515625
-99.79248046875
-91.552734375
-89.7216796875
-114.44091796875
-124.51171875
-119.93408203125
-108.0322265625
-96.13037109375
-94.29931640625
-98.876953125
-103.45458984375
-102.5390625
-110.77880859375
-104.3701171875
-111.6943359375
-114.44091796875
-108.0322265625
-106.201171875
-109.86328125
-97.0458984375
-104.3701171875
-106.201171875
-109.86328125
-119.93408203125
-130.92041015625
-120.849609375
-109.86328125
-114.44091796875
-114.44091796875
-108.0322265625
-115.3564453125
-119.93408203125
-119.93408203125
-127.25830078125
-119.93408203125
-107.11669921875
-110.77880859375
-117.1875
-112.60986328125
-101.62353515625
-113.525390625
-108.94775390625
-106.201171875
-120.849609375
-127.25830078125
-127.25830078125
-119.0185546875
-109.86328125
-112.60986328125
-114.44091796875
-115.3564453125
-114.44091796875
-111.6943359375
-107.11669921875
-110.77880859375
-114.44091796875
-112.60986328125
-117.1875
-116.27197265625
-112.60986328125
-108.94775390625
-109.86328125
-104.3701171875
-109.86328125
-117.1875
-108.94775390625
-105.28564453125
-114.44091796875
-108.94775390625
-117.1875
-116.27197265625
-109.86328125
-109.86328125
-109.86328125
-117.1875
-114.44091796875
-108.0322265625
-94.29931640625
-107.11669921875
-116.27197265625
-113.525390625
-115.3564453125
-117.1875
-130.0048828125
-116.27197265625
-103.45458984375
-119.93408203125
-127.25830078125
-125.42724609375
-123.59619140625
-130.0048828125
-133.6669921875
-127.25830078125
-131.8359375
-129.08935546875
-120.849609375
-117.1875
-126.3427734375
-124.51171875
-124.51171875
-129.08935546875
-137.3291015625
-136.41357421875
-128.173828125
-123.59619140625
-128.173828125
-128.173828125
-125.42724609375
-122.6806640625
-115.3564453125
-127.25830078125
-130.92041015625
-122.6806640625
-114.44091796875
-130.92041015625
-135.498046875
-125.42724609375
-121.76513671875
-118.10302734375
-116.27197265625
-114.44091796875
-109.86328125
-120.849609375
-121.76513671875
-122.6806640625
-108.94775390625
-111.6943359375
-107.11669921875
-93.3837890625
-78.7353515625
-64.0869140625
-69.580078125
-69.580078125
-70.49560546875
-75.98876953125
-60.4248046875
-69.580078125
-69.580078125
-58.59375
-64.0869140625
-54.01611328125
-35.70556640625
-28.38134765625
-14.6484375
-9.1552734375
-8.23974609375
-2.74658203125
4.57763671875
-6.40869140625
-16.4794921875
-19.22607421875
-18.310546875
-7.32421875
-3.662109375
-10.07080078125
-21.05712890625
-38.4521484375
-40.283203125
-43.02978515625
-54.931640625
-59.50927734375
-77.81982421875
-91.552734375
-100.7080078125
-116.27197265625
-120.849609375
-126.3427734375
-147.39990234375
-140.9912109375
-137.3291015625
-151.06201171875
-148.3154296875
-146.484375
-144.6533203125
-140.9912109375
-153.80859375
-151.9775390625
-151.06201171875
-150.146484375
-151.9775390625
-145.56884765625
-139.16015625
-136.41357421875
-147.39990234375
-156.55517578125
-157.470703125
-151.9775390625
-168.45703125
-156.55517578125
-151.06201171875
-153.80859375
-158.38623046875
-170.2880859375
-176.69677734375
-188.5986328125
-183.10546875
-174.86572265625
-174.86572265625
-173.9501953125
-162.04833984375
-154.72412109375
-130.92041015625
-108.94775390625
-89.7216796875
-54.01611328125
-26.55029296875
20.1416015625
75.98876953125
104.3701171875
148.3154296875
226.13525390625
297.54638671875
357.0556640625
439.453125
525.5126953125
563.96484375
566.71142578125
471.49658203125
320.4345703125
225.2197265625
133.6669921875
18.310546875
-21.97265625
-30.21240234375
-26.55029296875
-17.39501953125
0
-9.1552734375
-38.4521484375
-65.91796875
-98.876953125
-117.1875
-147.39990234375
-158.38623046875
-121.76513671875
-96.13037109375
-83.31298828125
-84.228515625
-76.904296875
-79.65087890625
-86.97509765625
-93.3837890625
-86.97509765625
-88.80615234375
-87.890625
-84.228515625
-82.3974609375
-81.48193359375
-67.7490234375
-73.2421875
-79.65087890625
-74.15771484375
-75.0732421875
-81.48193359375
-81.48193359375
-69.580078125
-75.0732421875
-72.32666015625
-70.49560546875
-70.49560546875
-67.7490234375
-67.7490234375
-73.2421875
-60.4248046875
-68.66455078125
-61.34033203125
-59.50927734375
-49.4384765625
-40.283203125
-46.69189453125
-52.18505859375
-59.50927734375
-51.26953125
-46.69189453125
-40.283203125
-40.283203125
-34.7900390625
-35.70556640625
-30.21240234375
-29.296875
-19.22607421875
-1.8310546875
-13.73291015625
-4.57763671875
1.8310546875
-8.23974609375
-19.22607421875
-14.6484375
-13.73291015625
0
12.8173828125
7.32421875
10.986328125
21.97265625
31.1279296875
35.70556640625
36.62109375
22.88818359375
23.8037109375
41.19873046875
49.4384765625
55.84716796875
59.50927734375
58.59375
78.7353515625
88.80615234375
82.3974609375
73.2421875
87.890625
107.11669921875
109.86328125
97.0458984375
98.876953125
125.42724609375
119.0185546875
135.498046875
150.146484375
139.16015625
151.06201171875
164.794921875
159.3017578125
153.80859375
171.20361328125
177.6123046875
172.119140625
176.69677734375
169.37255859375
180.35888671875
175.78125
161.1328125
173.9501953125
176.69677734375
175.78125
180.35888671875
176.69677734375
171.20361328125
175.78125
187.68310546875
176.69677734375
152.89306640625
147.39990234375
148.3154296875
137.3291015625
126.3427734375
110.77880859375
97.96142578125
110.77880859375
99.79248046875
79.65087890625
65.00244140625
65.91796875
54.01611328125
39.36767578125
30.21240234375
29.296875
12.8173828125
-5.4931640625
-7.32421875
-16.4794921875
-16.4794921875
-21.05712890625
-29.296875
-33.87451171875
-43.9453125
-61.34033203125
-61.34033203125
-65.00244140625
-64.0869140625
-65.91796875
-85.14404296875
-88.80615234375
-89.7216796875
-97.96142578125
-81.48193359375
-65.00244140625
-76.904296875
-97.0458984375
-111.6943359375
-114.44091796875
-111.6943359375
-117.1875
-107.11669921875
-95.21484375
-94.29931640625
-110.77880859375
-116.27197265625
-93.3837890625
-95.21484375
-79.65087890625
-73.2421875
-80.56640625
-98.876953125
-108.0322265625
-115.3564453125
-103.45458984375
-93.3837890625
-103.45458984375
-99.79248046875
-92.46826171875
-94.29931640625
-103.45458984375
-93.3837890625
-78.7353515625
-74.15771484375
-86.97509765625
-88.80615234375
-90.63720703125
-93.3837890625
-104.3701171875
-115.3564453125
-105.28564453125
-84.228515625
-77.81982421875
-78.7353515625
-92.46826171875
-88.80615234375
-86.97509765625
-83.31298828125
-81.48193359375
-69.580078125
-75.98876953125
-88.80615234375
-102.5390625
-105.28564453125
-92.46826171875
-76.904296875
-75.0732421875
-65.91796875
-67.7490234375
-68.66455078125
-80.56640625
-83.31298828125
-85.14404296875
-92.46826171875
-91.552734375
-91.552734375
-93.3837890625
-107.11669921875
-99.79248046875
-86.97509765625
-104.3701171875
-95.21484375
-95.21484375
-82.3974609375
-80.56640625
-98.876953125
-103.45458984375
-98.876953125
-95.21484375
-101.62353515625
-108.0322265625
-108.0322265625
-97.0458984375
-86.0595703125
-90.63720703125
-88.80615234375
-85.14404296875
-83.31298828125
-88.80615234375
-95.21484375
-112.60986328125
-108.94775390625
-111.6943359375
-102.5390625
-106.201171875
-109.86328125
-99.79248046875
-101.62353515625
-98.876953125
-117.1875
-120.849609375
-119.93408203125
-125.42724609375
-107.11669921875
-105.28564453125
-113.525390625
-115.3564453125
-121.76513671875
-130.92041015625
-119.0185546875
-116.27197265625
-119.0185546875
-122.6806640625
-131.8359375
-126.3427734375
-126.3427734375
-123.59619140625
-123.59619140625
-136.41357421875
-127.25830078125
-112.60986328125
-102.5390625
-103.45458984375
-110.77880859375
-114.44091796875
-124.51171875
-130.0048828125
-132.75146484375
-128.173828125
-119.0185546875
-105.28564453125
-120.849609375
-124.51171875
-108.94775390625
-110.77880859375
-115.3564453125
-119.93408203125
-123.59619140625
-126.3427734375
-114.44091796875
-116.27197265625
-117.1875
-117.1875
-114.44091796875
-117.1875
-119.93408203125
-116.27197265625
-119.93408203125
-132.75146484375
-128.173828125
-122.6806640625
-122.6806640625
-115.3564453125
-119.0185546875
-115.3564453125
-116.27197265625
-110.77880859375
-114.44091796875
-129.08935546875
-147.39990234375
-140.9912109375
-134.58251953125
-130.92041015625
-127.25830078125
-128.173828125
-120.849609375
-126.3427734375
-120.849609375
-125.42724609375
-125.42724609375
-124.51171875
-134.58251953125
-126.3427734375
-119.93408203125
-117.1875
-123.59619140625
-124.51171875
-129.08935546875
-122.6806640625
-126.3427734375
-133.6669921875
-120.849609375
-119.0185546875
-112.60986328125
-119.0185546875
-127.25830078125
-128.173828125
-124.51171875
-117.1875
-107.11669921875
-108.94775390625
-101.62353515625
-79.65087890625
-82.3974609375
-81.48193359375
-89.7216796875
-94.29931640625
-79.65087890625
-70.49560546875
-75.0732421875
-70.49560546875
-54.931640625
-54.01611328125
-39.36767578125
-30.21240234375
-32.958984375
-22.88818359375
-11.90185546875
-11.90185546875
-1.8310546875
10.986328125
5.4931640625
-1.8310546875
-1.8310546875
1.8310546875
-10.07080078125
-21.05712890625
-20.1416015625
-18.310546875
-35.70556640625
-48.52294921875
-68.66455078125
-76.904296875
-73.2421875
-75.0732421875
-91.552734375
-103.45458984375
-113.525390625
-122.6806640625
-114.44091796875
-121.76513671875
-137.3291015625
-140.07568359375
-135.498046875
-130.92041015625
-140.07568359375
-136.41357421875
-131.8359375
-139.16015625
-134.58251953125
-134.58251953125
-140.07568359375
-135.498046875
-136.41357421875
-144.6533203125
-156.55517578125
-164.794921875
-151.9775390625
-153.80859375
-150.146484375
-152.89306640625
-154.72412109375
-159.3017578125
-163.87939453125
-168.45703125
-162.04833984375
-164.794921875
-168.45703125
-179.443359375
-178.52783203125
-183.10546875
-166.6259765625
-158.38623046875
-164.794921875
-147.39990234375
-125.42724609375
-97.0458984375
-70.49560546875
-24.71923828125
28.38134765625
73.2421875
96.13037109375
127.25830078125
205.99365234375
299.37744140625
381.77490234375
469.66552734375
543.8232421875
593.26171875
601.50146484375
536.4990234375
394.59228515625
288.39111328125
192.2607421875
61.34033203125
-23.8037109375
-49.4384765625
-64.0869140625
-41.19873046875
-23.8037109375
-44.86083984375
-73.2421875
-78.7353515625
-123.59619140625
-138.24462890625
-143.73779296875
-143.73779296875
-131.8359375
-110.77880859375
-82.3974609375
-69.580078125
-76.904296875
-81.48193359375
-92.46826171875
-98.876953125
-87.890625
-69.580078125
-62.255859375
-78.7353515625
-86.97509765625
-86.0595703125
-79.65087890625
-73.2421875
-68.66455078125
-62.255859375
-65.91796875
-68.66455078125
-71.4111328125
-64.0869140625
-74.15771484375
-85.14404296875
-77.81982421875
-70.49560546875
-71.4111328125
-56.7626953125
-48.52294921875
-53.1005859375
-69.580078125
-64.0869140625
-70.49560546875
-69.580078125
-54.01611328125
-51.26953125
-47.607421875
-44.86083984375
-41.19873046875
-39.36767578125
-51.26953125
-59.50927734375
-53.1005859375
-43.9453125
-32.04345703125
-21.97265625
-19.22607421875
-28.38134765625
-21.05712890625
-6.40869140625
-2.74658203125
-6.40869140625
-1.8310546875
3.662109375
11.90185546875
24.71923828125
31.1279296875
32.958984375
25.634765625
28.38134765625
39.36767578125
44.86083984375
33.87451171875
36.62109375
36.62109375
54.931640625
60.4248046875
65.91796875
76.904296875
76.904296875
78.7353515625
92.46826171875
101.62353515625
100.7080078125
98.876953125
107.11669921875
108.94775390625
115.3564453125
128.173828125
139.16015625
140.9912109375
149.23095703125
149.23095703125
151.06201171875
169.37255859375
174.86572265625
182.18994140625
189.51416015625
189.51416015625
181.2744140625
189.51416015625
173.9501953125
173.9501953125
192.2607421875
206.9091796875
210.5712890625
216.064453125
207.82470703125
198.66943359375
199.5849609375
193.17626953125
193.17626953125
189.51416015625
190.4296875
186.767578125
185.85205078125
180.35888671875
176.69677734375
152.89306640625
142.822265625
146.484375
129.08935546875
111.6943359375
95.21484375
83.31298828125
72.32666015625
60.4248046875
48.52294921875
43.9453125
32.04345703125
32.04345703125
21.97265625
13.73291015625
0.91552734375
-10.07080078125
-21.05712890625
-32.958984375
-34.7900390625
-40.283203125
-45.7763671875
-43.02978515625
-46.69189453125
-57.67822265625
-65.00244140625
-71.4111328125
-78.7353515625
-75.0732421875
-80.56640625
-86.97509765625
-98.876953125
-98.876953125
-92.46826171875
-88.80615234375
-93.3837890625
-86.97509765625
-97.0458984375
-95.21484375
-86.0595703125
-96.13037109375
-92.46826171875
-101.62353515625
-103.45458984375
-111.6943359375
-108.94775390625
-106.201171875
-113.525390625
-101.62353515625
-97.0458984375
-89.7216796875
-92.46826171875
-97.96142578125
-102.5390625
-109.86328125
-112.60986328125
-109.86328125
-108.0322265625
-99.79248046875
-103.45458984375
-104.3701171875
-101.62353515625
-106.201171875
-108.0322265625
-105.28564453125
-108.0322265625
-108.0322265625
-91.552734375
-89.7216796875
-96.13037109375
-97.96142578125
-97.0458984375
-92.46826171875
-98.876953125
-101.62353515625
-107.11669921875
-111.6943359375
-108.94775390625
-102.5390625
-91.552734375
-95.21484375
-98.876953125
-91.552734375
-87.890625
-91.552734375
-81.48193359375
-88.80615234375
-97.96142578125
-82.3974609375
-85.14404296875
-93.3837890625
-91.552734375
-100.7080078125
-111.6943359375
-103.45458984375
-92.46826171875
-88.80615234375
-98.876953125
-97.0458984375
-90.63720703125
-97.0458984375
-97.96142578125
-97.0458984375
-87.890625
-94.29931640625
-87.890625
-87.890625
-98.876953125
-102.5390625
-111.6943359375
-107.11669921875
-97.96142578125
-101.62353515625
-95.21484375
-92.46826171875
-97.96142578125
-99.79248046875
-97.96142578125
-106.201171875
-112.60986328125
-113.525390625
-112.60986328125
-105.28564453125
-97.0458984375
-104.3701171875
-109.86328125
-108.94775390625
-102.5390625
-110.77880859375
-100.7080078125
-103.45458984375
-103.45458984375
-111.6943359375
-115.3564453125
-111.6943359375
-108.94775390625
-106.201171875
-113.525390625
-107.11669921875
-109.86328125
-114.44091796875
-119.0185546875
-125.42724609375
-118.10302734375
-108.94775390625
-115.3564453125
-110.77880859375
-112.60986328125
-107.11669921875
-129.08935546875
-123.59619140625
-120.849609375
-113.525390625
-109.86328125
-119.0185546875
-123.59619140625
-133.6669921875
-130.92041015625
-120.849609375
-118.10302734375
-129.08935546875
-126.3427734375
-117.1875
-115.3564453125
-118.10302734375
-128.173828125
-122.6806640625
-116.27197265625
-115.3564453125
-119.93408203125
-120.849609375
-109.86328125
-116.27197265625
-117.1875
-113.525390625
-122.6806640625
-130.92041015625
-131.8359375
-124.51171875
-121.76513671875
-120.849609375
-124.51171875
-123.59619140625
-121.76513671875
-128.173828125
-113.525390625
-114.44091796875
-132.75146484375
-123.59619140625
-122.6806640625
-129.08935546875
-131.8359375
-133.6669921875
-119.93408203125
-115.3564453125
-115.3564453125
-130.92041015625
-143.73779296875
-130.92041015625
-133.6669921875
-126.3427734375
-131.8359375
-124.51171875
-133.6669921875
-125.42724609375
-117.1875
-122.6806640625
-127.25830078125
-131.8359375
-123.59619140625
-114.44091796875
-113.525390625
-130.92041015625
-120.849609375
-116.27197265625
-116.27197265625
-115.3564453125
-113.525390625
-107.11669921875
-120.849609375
-127.25830078125
-129.08935546875
-121.76513671875
-120.849609375
-105.28564453125
-91.552734375
-75.98876953125
-65.00244140625
-64.0869140625
-68.66455078125
-75.0732421875
-80.56640625
-73.2421875
-67.7490234375
-73.2421875
-62.255859375
-45.7763671875
-26.55029296875
-23.8037109375
-26.55029296875
-12.8173828125
0
-1.8310546875
2.74658203125
6.40869140625
-5.4931640625
-21.05712890625
-8.23974609375
-10.07080078125
-18.310546875
-29.296875
-21.97265625
-16.4794921875
-25.634765625
-30.21240234375
-54.01611328125
-74.15771484375
-83.31298828125
-91.552734375
-86.97509765625
-95.21484375
-111.6943359375
-119.0185546875
-137.3291015625
-142.822265625
-149.23095703125
-147.39990234375
-148.3154296875
-153.80859375
-147.39990234375
-139.16015625
-143.73779296875
-150.146484375
-149.23095703125
-147.39990234375
-151.06201171875
-153.80859375
-154.72412109375
-155.6396484375
-160.21728515625
-167.54150390625
-162.9638671875
-153.80859375
-150.146484375
-150.146484375
-156.55517578125
-161.1328125
-158.38623046875
-161.1328125
-169.37255859375
-167.54150390625
-167.54150390625
-173.9501953125
-161.1328125
-171.20361328125
-171.20361328125
-167.54150390625
-158.38623046875
-132.75146484375
-98.876953125
-73.2421875
-38.4521484375
9.1552734375
70.49560546875
120.849609375
157.470703125
228.8818359375
312.19482421875
387.26806640625
468.75
563.96484375
636.29150390625
661.0107421875
614.31884765625
462.34130859375
327.7587890625
238.037109375
130.0048828125
-7.32421875
-72.32666015625
-78.7353515625
-81.48193359375
-75.98876953125
-91.552734375
-99.79248046875
-97.96142578125
-104.3701171875
-118.10302734375
-127.25830078125
-117.1875
-110.77880859375
-102.5390625
-86.0595703125
-73.2421875
-61.34033203125
-65.91796875
-63.17138671875
-72.32666015625
-71.4111328125
-64.0869140625
-65.00244140625
-69.580078125
-65.91796875
-68.66455078125
-75.98876953125
-72.32666015625
-71.4111328125
-67.7490234375
-70.49560546875
-68.66455078125
-58.59375
-61.34033203125
-64.0869140625
-65.91796875
-62.255859375
-67.7490234375
-70.49560546875
-65.00244140625
-54.01611328125
-53.1005859375
-62.255859375
-58.59375
-59.50927734375
-55.84716796875
-52.18505859375
-44.86083984375
-46.69189453125
-31.1279296875
-27.4658203125
-30.21240234375
-27.4658203125
-25.634765625
-19.22607421875
-13.73291015625
-9.1552734375
-11.90185546875
-15.56396484375
-21.05712890625
-10.986328125
0.91552734375
-0.91552734375
3.662109375
9.1552734375
10.986328125
19.22607421875
25.634765625
26.55029296875
21.97265625
26.55029296875
39.36767578125
49.4384765625
41.19873046875
49.4384765625
55.84716796875
42.1142578125
60.4248046875
74.15771484375
74.15771484375
79.65087890625
86.0595703125
91.552734375
88.80615234375
102.5390625
117.1875
118.10302734375
123.59619140625
132.75146484375
139.16015625
139.16015625
159.3017578125
162.04833984375
169.37255859375
173.03466796875
182.18994140625
193.17626953125
211.48681640625
220.64208984375
230.712890625
215.14892578125
214.2333984375
211.48681640625
205.99365234375
205.99365234375
211.48681640625
220.64208984375
221.5576171875
224.30419921875
225.2197265625
227.96630859375
238.037109375
231.62841796875
237.12158203125
232.5439453125
231.62841796875
217.8955078125
210.5712890625
199.5849609375
191.34521484375
184.02099609375
172.119140625
161.1328125
149.23095703125
133.6669921875
119.0185546875
107.11669921875
103.45458984375
89.7216796875
78.7353515625
67.7490234375
62.255859375
48.52294921875
39.36767578125
24.71923828125
10.986328125
5.4931640625
-6.40869140625
-19.22607421875
-22.88818359375
-28.38134765625
-46.69189453125
-36.62109375
-46.69189453125
-49.4384765625
-56.7626953125
-65.91796875
-67.7490234375
-66.83349609375
-55.84716796875
-67.7490234375
-81.48193359375
-94.29931640625
-91.552734375
-82.3974609375
-81.48193359375
-77.81982421875
-81.48193359375
-86.97509765625
-95.21484375
-93.3837890625
-94.29931640625
-93.3837890625
-86.0595703125
-89.7216796875
-91.552734375
-92.46826171875
-96.13037109375
-101.62353515625
-98.876953125
-103.45458984375
-96.13037109375
-92.46826171875
-94.29931640625
-94.29931640625
-103.45458984375
-97.96142578125
-94.29931640625
-97.0458984375
-93.3837890625
-96.13037109375
-93.3837890625
-87.890625
-88.80615234375
-90.63720703125
-93.3837890625
-81.48193359375
-89.7216796875
-93.3837890625
-94.29931640625
-100.7080078125
-90.63720703125
-95.21484375
-90.63720703125
-83.31298828125
-83.31298828125
-95.21484375
-94.29931640625
-87.890625
-95.21484375
-91.552734375
-83.31298828125
-83.31298828125
-83.31298828125
-92.46826171875
-92.46826171875
-94.29931640625
-86.97509765625
-87.890625
-91.552734375
-87.890625
-85.14404296875
-88.80615234375
-81.48193359375
-97.96142578125
-84.228515625
-81.48193359375
-87.890625
-88.80615234375
-86.0595703125
-87.890625
-80.56640625
-90.63720703125
-84.228515625
-82.3974609375
-75.98876953125
-86.0595703125
-89.7216796875
-86.0595703125
-85.14404296875
-82.3974609375
-81.48193359375
-85.14404296875
-85.14404296875
-71.4111328125
-71.4111328125
-75.0732421875
-75.0732421875
-78.7353515625
-84.228515625
-91.552734375
-97.0458984375
-92.46826171875
-101.62353515625
-105.28564453125
-88.80615234375
-92.46826171875
-91.552734375
-90.63720703125
-91.552734375
-88.80615234375
-101.62353515625
-97.0458984375
-91.552734375
-95.21484375
-105.28564453125
-108.94775390625
-102.5390625
-103.45458984375
-99.79248046875
-107.11669921875
-99.79248046875
-99.79248046875
-100.7080078125
-103.45458984375
-95.21484375
-102.5390625
-103.45458984375
-110.77880859375
-104.3701171875
-102.5390625
-101.62353515625
-101.62353515625
-106.201171875
-108.94775390625
-119.0185546875
-122.6806640625
-118.10302734375
-111.6943359375
-112.60986328125
-109.86328125
-101.62353515625
-101.62353515625
-104.3701171875
-117.1875
-115.3564453125
-116.27197265625
-98.876953125
-109.86328125
-113.525390625
-95.21484375
-98.876953125
-118.10302734375
-118.10302734375
-113.525390625
-116.27197265625
-111.6943359375
-107.11669921875
-105.28564453125
-106.201171875
-111.6943359375
-116.27197265625
-114.44091796875
-112.60986328125
-113.525390625
-111.6943359375
-104.3701171875
-115.3564453125
-117.1875
-116.27197265625
-119.0185546875
-117.1875
-118.10302734375
-120.849609375
-120.849609375
-117.1875
-115.3564453125
-110.77880859375
-114.44091796875
-117.1875
-124.51171875
-119.0185546875
-117.1875
-115.3564453125
-107.11669921875
-108.0322265625
-111.6943359375
-114.44091796875
-129.08935546875
-133.6669921875
-113.525390625
-102.5390625
-110.77880859375
-119.0185546875
-116.27197265625
-113.525390625
-111.6943359375
-119.0185546875
-110.77880859375
-107.11669921875
-108.94775390625
-105.28564453125
-108.0322265625
-100.7080078125
-97.96142578125
-103.45458984375
-94.29931640625
-80.56640625
-75.0732421875
-62.255859375
-56.7626953125
-60.4248046875
-69.580078125
-69.580078125
-64.0869140625
-63.17138671875
-54.931640625
-56.7626953125
-58.59375
-46.69189453125
-16.4794921875
-2.74658203125
-4.57763671875
0.91552734375
4.57763671875
5.4931640625
11.90185546875
10.07080078125
0
1.8310546875
0.91552734375
1.8310546875
-2.74658203125
-10.986328125
-26.55029296875
-40.283203125
-50.35400390625
-53.1005859375
-54.931640625
-51.26953125
-61.34033203125
-75.98876953125
-85.14404296875
-92.46826171875
-101.62353515625
-97.0458984375
-101.62353515625
-101.62353515625
-108.94775390625
-109.86328125
-115.3564453125
-123.59619140625
-119.0185546875
-128.173828125
-136.41357421875
-139.16015625
-138.24462890625
-138.24462890625
-140.07568359375
-137.3291015625
-143.73779296875
-134.58251953125
-126.3427734375
-130.0048828125
-131.8359375
-133.6669921875
-138.24462890625
-121.76513671875
-129.08935546875
-137.3291015625
-151.06201171875
-143.73779296875
-140.9912109375
-122.6806640625
-140.9912109375
-136.41357421875
-131.8359375
-146.484375
-144.6533203125
-119.0185546875
-116.27197265625
-121.76513671875
-86.0595703125
-37.53662109375
-27.4658203125
0
47.607421875
119.0185546875
152.89306640625
184.9365234375
278.3203125
373.53515625
459.5947265625
545.654296875
617.0654296875
673.828125
651.85546875
541.07666015625
392.76123046875
294.7998046875
201.416015625
66.83349609375
-27.4658203125
-55.84716796875
-60.4248046875
-28.38134765625
-30.21240234375
-47.607421875
-51.26953125
-78.7353515625
-95.21484375
-85.14404296875
-99.79248046875
-102.5390625
-83.31298828125
-68.66455078125
-50.35400390625
-52.18505859375
-29.296875
-37.53662109375
-38.4521484375
-48.52294921875
-54.931640625
-55.84716796875
-53.1005859375
-40.283203125
-36.62109375
-37.53662109375
-43.02978515625
-49.4384765625
-48.52294921875
-53.1005859375
-54.931640625
-52.18505859375
-53.1005859375
-48.52294921875
-43.9453125
-44.86083984375
-38.4521484375
-38.4521484375
-35.70556640625
-32.958984375
-35.70556640625
-39.36767578125
-40.283203125
-42.1142578125
-33.87451171875
-42.1142578125
-39.36767578125
-30.21240234375
-32.04345703125
-21.05712890625
-9.1552734375
-13.73291015625
-11.90185546875
-0.91552734375
4.57763671875
0
4.57763671875
11.90185546875
17.39501953125
16.4794921875
10.07080078125
16.4794921875
27.4658203125
26.55029296875
30.21240234375
36.62109375
35.70556640625
37.53662109375
38.4521484375
32.958984375
51.26953125
58.59375
61.34033203125
70.49560546875
87.890625
88.80615234375
95.21484375
98.876953125
86.97509765625
97.96142578125
100.7080078125
105.28564453125
109.86328125
113.525390625
127.25830078125
140.9912109375
142.822265625
156.55517578125
171.20361328125
168.45703125
174.86572265625
186.767578125
195.00732421875
194.091796875
199.5849609375
200.50048828125
205.078125
219.7265625
223.388671875
227.05078125
235.29052734375
235.29052734375
239.8681640625
250.8544921875
254.5166015625
250.8544921875
241.69921875
252.685546875
258.1787109375
249.0234375
251.77001953125
249.0234375
247.1923828125
250.8544921875
251.77001953125
239.8681640625
238.95263671875
233.45947265625
223.388671875
214.2333984375
205.99365234375
194.091796875
190.4296875
179.443359375
154.72412109375
144.6533203125
139.16015625
124.51171875
115.3564453125
108.0322265625
93.3837890625
75.98876953125
65.00244140625
64.0869140625
42.1142578125
32.958984375
16.4794921875
11.90185546875
6.40869140625
1.8310546875
-4.57763671875
-12.8173828125
-24.71923828125
-29.296875
-32.958984375
-39.36767578125
-29.296875
-32.958984375
-35.70556640625
-42.1142578125
-64.0869140625
-58.59375
-49.4384765625
-45.7763671875
-45.7763671875
-43.9453125
-59.50927734375
-64.0869140625
-61.34033203125
-58.59375
-55.84716796875
-62.255859375
-61.34033203125
-69.580078125
-65.91796875
-60.4248046875
-63.17138671875
-64.0869140625
-64.0869140625
-67.7490234375
-68.66455078125
-63.17138671875
-67.7490234375
-65.00244140625
-60.4248046875
-63.17138671875
-65.00244140625
-57.67822265625
-63.17138671875
-54.931640625
-45.7763671875
-62.255859375
-77.81982421875
-66.83349609375
-60.4248046875
-67.7490234375
-64.0869140625
-75.0732421875
-75.0732421875
-64.0869140625
-52.18505859375
-50.35400390625
-57.67822265625
-54.931640625
-63.17138671875
-59.50927734375
-55.84716796875
-51.26953125
-46.69189453125
-57.67822265625
-64.0869140625
-56.7626953125
-59.50927734375
-64.0869140625
-68.66455078125
-58.59375
-53.1005859375
-54.931640625
-58.59375
-53.1005859375
-57.67822265625
-63.17138671875
-60.4248046875
-66.83349609375
-71.4111328125
-66.83349609375
-59.50927734375
-52.18505859375
-53.1005859375
-57.67822265625
-54.01611328125
-54.931640625
-47.607421875
-47.607421875
-50.35400390625
-55.84716796875
-59.50927734375
-50.35400390625
-49.4384765625
-43.9453125
-61.34033203125
-73.2421875
-58.59375
-65.00244140625
-69.580078125
-68.66455078125
-67.7490234375
-65.00244140625
-63.17138671875
-61.34033203125
-63.17138671875
-56.7626953125
-44.86083984375
-50.35400390625
-58.59375
-65.00244140625
-68.66455078125
-80.56640625
-83.31298828125
-76.904296875
-72.32666015625
-71.4111328125
-68.66455078125
-71.4111328125
-73.2421875
-85.14404296875
-75.98876953125
-70.49560546875
-74.15771484375
-82.3974609375
-79.65087890625
-73.2421875
-80.56640625
-75.98876953125
-82.3974609375
-80.56640625
-77.81982421875
-88.80615234375
-77.81982421875
-72.32666015625
-77.81982421875
-83.31298828125
-81.48193359375
-81.48193359375
-73.2421875
-95.21484375
-92.46826171875
-78.7353515625
-79.65087890625
-87.890625
-83.31298828125
-84.228515625
-82.3974609375
-84.228515625
-79.65087890625
-76.904296875
-75.98876953125
-73.2421875
-64.0869140625
-76.904296875
-79.65087890625
-76.904296875
-78.7353515625
-76.904296875
-77.81982421875
-76.904296875
-74.15771484375
-81.48193359375
-84.228515625
-84.228515625
-78.7353515625
-76.904296875
-82.3974609375
-80.56640625
-86.0595703125
-85.14404296875
-81.48193359375
-79.65087890625
-77.81982421875
-71.4111328125
-65.91796875
-61.34033203125
-57.67822265625
-51.26953125
-32.958984375
-26.55029296875
-30.21240234375
-36.62109375
-49.4384765625
-41.19873046875
-43.02978515625
-43.9453125
-35.70556640625
-25.634765625
-4.57763671875
6.40869140625
11.90185546875
30.21240234375
35.70556640625
37.53662109375
45.7763671875
45.7763671875
44.86083984375
28.38134765625
28.38134765625
42.1142578125
49.4384765625
29.296875
16.4794921875
22.88818359375
19.22607421875
1.8310546875
0.91552734375
-7.32421875
-21.97265625
-32.04345703125
-39.36767578125
-52.18505859375
-67.7490234375
-60.4248046875
-76.904296875
-87.890625
-85.14404296875
-95.21484375
-94.29931640625
-99.79248046875
-95.21484375
-94.29931640625
-97.0458984375
-108.0322265625
-105.28564453125
-87.890625
-93.3837890625
-108.0322265625
-108.94775390625
-111.6943359375
-116.27197265625
-107.11669921875
-104.3701171875
-114.44091796875
-118.10302734375
-111.6943359375
-111.6943359375
-123.59619140625
-119.0185546875
-107.11669921875
-125.42724609375
-128.173828125
-124.51171875
-129.08935546875
-131.8359375
-131.8359375
-130.92041015625
-128.173828125
-123.59619140625
-123.59619140625
-96.13037109375
-73.2421875
-48.52294921875
-11.90185546875
30.21240234375
73.2421875
128.173828125
161.1328125
190.4296875
260.009765625
341.49169921875
415.6494140625
488.8916015625
566.71142578125
633.544921875
644.53125
572.20458984375
411.07177734375
298.4619140625
216.064453125
103.45458984375
30.21240234375
18.310546875
13.73291015625
18.310546875
25.634765625
15.56396484375
-8.23974609375
-31.1279296875
-56.7626953125
-83.31298828125
-99.79248046875
-112.60986328125
-104.3701171875
-88.80615234375
-65.00244140625
-54.931640625
-55.84716796875
-53.1005859375
-47.607421875
-35.70556640625
-34.7900390625
-39.36767578125
-38.4521484375
-35.70556640625
-32.04345703125
-42.1142578125
-53.1005859375
-39.36767578125
-40.283203125
-48.52294921875
-40.283203125
-33.87451171875
-43.02978515625
-39.36767578125
-43.9453125
-35.70556640625
-37.53662109375
-33.87451171875
-31.1279296875
-30.21240234375
-26.55029296875
-22.88818359375
-29.296875
-31.1279296875
-26.55029296875
-22.88818359375
-14.6484375
-12.8173828125
-10.986328125
-8.23974609375
-10.986328125
-7.32421875
-7.32421875
0.91552734375
3.662109375
5.4931640625
8.23974609375
13.73291015625
9.1552734375
20.1416015625
24.71923828125
20.1416015625
22.88818359375
24.71923828125
31.1279296875
39.36767578125
43.9453125
47.607421875
45.7763671875
43.02978515625
54.01611328125
62.255859375
65.91796875
80.56640625
81.48193359375
82.3974609375
90.63720703125
97.0458984375
98.876953125
105.28564453125
109.86328125
119.0185546875
119.93408203125
128.173828125
132.75146484375
136.41357421875
140.9912109375
151.06201171875
166.6259765625
175.78125
184.02099609375
187.68310546875
196.83837890625
200.50048828125
207.82470703125
217.8955078125
215.14892578125
216.97998046875
227.05078125
222.47314453125
228.8818359375
243.5302734375
247.1923828125
253.60107421875
251.77001953125
244.44580078125
241.69921875
244.44580078125
252.685546875
252.685546875
243.5302734375
245.361328125
245.361328125
248.10791015625
234.375
225.2197265625
209.65576171875
196.83837890625
204.16259765625
200.50048828125
195.9228515625
181.2744140625
172.119140625
153.80859375
149.23095703125
131.8359375
119.93408203125
102.5390625
87.890625
95.21484375
79.65087890625
54.931640625
40.283203125
36.62109375
27.4658203125
23.8037109375
20.1416015625
13.73291015625
2.74658203125
1.8310546875
-13.73291015625
-15.56396484375
-18.310546875
-30.21240234375
-29.296875
-33.87451171875
-45.7763671875
-36.62109375
-38.4521484375
-36.62109375
-47.607421875
-54.931640625
-52.18505859375
-55.84716796875
-61.34033203125
-65.00244140625
-67.7490234375
-67.7490234375
-72.32666015625
-71.4111328125
-59.50927734375
-74.15771484375
-70.49560546875
-77.81982421875
-73.2421875
-84.228515625
-74.15771484375
-65.91796875
-64.0869140625
-65.91796875
-67.7490234375
-73.2421875
-73.2421875
-75.98876953125
-84.228515625
-84.228515625
-75.98876953125
-67.7490234375
-66.83349609375
-76.904296875
-75.98876953125
-62.255859375
-64.0869140625
-70.49560546875
-79.65087890625
-78.7353515625
-73.2421875
-75.98876953125
-76.904296875
-80.56640625
-65.00244140625
-64.0869140625
-69.580078125
-72.32666015625
-71.4111328125
-77.81982421875
-84.228515625
-80.56640625
-67.7490234375
-66.83349609375
-75.0732421875
-69.580078125
-65.91796875
-73.2421875
-68.66455078125
-66.83349609375
-64.0869140625
-64.0869140625
-69.580078125
-61.34033203125
-59.50927734375
-65.00244140625
-70.49560546875
-75.0732421875
-72.32666015625
-65.91796875
-64.0869140625
-64.0869140625
-55.84716796875
-55.84716796875
-60.4248046875
-60.4248046875
-62.255859375
-63.17138671875
-65.00244140625
-62.255859375
-43.9453125
-42.1142578125
-61.34033203125
-70.49560546875
-75.0732421875
-66.83349609375
-61.34033203125
-68.66455078125
-80.56640625
-70.49560546875
-65.00244140625
-62.255859375
-65.00244140625
-59.50927734375
-63.17138671875
-62.255859375
-58.59375
-64.0869140625
-76.904296875
-75.0732421875
-73.2421875
-63.17138671875
-70.49560546875
-77.81982421875
-81.48193359375
-75.0732421875
-75.98876953125
-78.7353515625
-82.3974609375
-78.7353515625
-73.2421875
-75.0732421875
-72.32666015625
-75.98876953125
-75.98876953125
-76.904296875
-79.65087890625
-82.3974609375
-83.31298828125
-86.0595703125
-77.81982421875
-80.56640625
-85.14404296875
-81.48193359375
-76.904296875
-85.14404296875
-80.56640625
-82.3974609375
-78.7353515625
-85.14404296875
-93.3837890625
-91.552734375
-81.48193359375
-78.7353515625
-90.63720703125
-87.890625
-84.228515625
-90.63720703125
-86.0595703125
-84.228515625
-85.14404296875
-92.46826171875
-93.3837890625
-77.81982421875
-82.3974609375
-88.80615234375
-83.31298828125
-88.80615234375
-94.29931640625
-87.890625
-89.7216796875
-95.21484375
-97.96142578125
-86.0595703125
-92.46826171875
-97.96142578125
-97.96142578125
-94.29931640625
-94.29931640625
-94.29931640625
-88.80615234375
-82.3974609375
-81.48193359375
-76.904296875
-74.15771484375
-64.0869140625
-55.84716796875
-47.607421875
-50.35400390625
-51.26953125
-49.4384765625
-53.1005859375
-50.35400390625
-57.67822265625
-55.84716796875
-43.9453125
-31.1279296875
-26.55029296875
-8.23974609375
10.986328125
20.1416015625
18.310546875
23.8037109375
22.88818359375
32.04345703125
29.296875
26.55029296875
21.05712890625
20.1416015625
22.88818359375
28.38134765625
21.97265625
8.23974609375
1.8310546875
-14.6484375
-19.22607421875
-22.88818359375
-23.8037109375
-38.4521484375
-45.7763671875
-54.931640625
-75.98876953125
-82.3974609375
-84.228515625
-87.890625
-95.21484375
-96.13037109375
-104.3701171875
-113.525390625
-110.77880859375
-119.93408203125
-124.51171875
-119.93408203125
-120.849609375
-115.3564453125
-124.51171875
-119.0185546875
-117.1875
-110.77880859375
-116.27197265625
-126.3427734375
-130.92041015625
-125.42724609375
-121.76513671875
-125.42724609375
-127.25830078125
-127.25830078125
-123.59619140625
-130.0048828125
-130.0048828125
-131.8359375
-140.07568359375
-146.484375
-146.484375
-142.822265625
-140.07568359375
-137.3291015625
-130.0048828125
-128.173828125
-109.86328125
-77.81982421875
-47.607421875
-26.55029296875
6.40869140625
44.86083984375
106.201171875
141.90673828125
161.1328125
236.2060546875
327.7587890625
411.9873046875
502.62451171875
577.69775390625
634.46044921875
666.50390625
597.83935546875
433.04443359375
309.4482421875
233.45947265625
113.525390625
15.56396484375
-30.21240234375
-43.02978515625
-25.634765625
-31.1279296875
-47.607421875
-55.84716796875
-59.50927734375
-84.228515625
-102.5390625
-116.27197265625
-120.849609375
-104.3701171875
-82.3974609375
-65.91796875
-55.84716796875
-47.607421875
-52.18505859375
-57.67822265625
-58.59375
-58.59375
-52.18505859375
-61.34033203125
-55.84716796875
-55.84716796875
-58.59375
-59.50927734375
-50.35400390625
-46.69189453125
-51.26953125
-57.67822265625
-55.84716796875
-49.4384765625
-46.69189453125
-54.01611328125
-49.4384765625
-53.1005859375
-44.86083984375
-46.69189453125
-44.86083984375
-41.19873046875
-33.87451171875
-27.4658203125
-27.4658203125
-25.634765625
-23.8037109375
-21.97265625
-26.55029296875
-29.296875
-33.87451171875
-30.21240234375
-16.4794921875
-9.1552734375
-5.4931640625
-6.40869140625
-0.91552734375
-0.91552734375
-3.662109375
4.57763671875
6.40869140625
-1.8310546875
5.4931640625
14.6484375
21.97265625
27.4658203125
25.634765625
32.04345703125
41.19873046875
44.86083984375
47.607421875
51.26953125
54.931640625
65.91796875
64.0869140625
60.4248046875
69.580078125
75.98876953125
81.48193359375
83.31298828125
92.46826171875
95.21484375
104.3701171875
119.93408203125
128.173828125
130.92041015625
139.16015625
145.56884765625
148.3154296875
151.9775390625
165.71044921875
169.37255859375
178.52783203125
178.52783203125
191.34521484375
197.75390625
210.5712890625
219.7265625
218.81103515625
224.30419921875
233.45947265625
237.12158203125
238.037109375
239.8681640625
246.27685546875
252.685546875
255.43212890625
253.60107421875
249.93896484375
249.0234375
247.1923828125
254.5166015625
244.44580078125
241.69921875
246.27685546875
241.69921875
229.79736328125
227.96630859375
219.7265625
210.5712890625
205.078125
197.75390625
178.52783203125
167.54150390625
152.89306640625
135.498046875
143.73779296875
109.86328125
94.29931640625
94.29931640625
87.890625
72.32666015625
74.15771484375
58.59375
32.958984375
23.8037109375
21.97265625
20.1416015625
4.57763671875
-9.1552734375
-8.23974609375
-10.07080078125
-19.22607421875
-30.21240234375
-32.958984375
-37.53662109375
-40.283203125
-45.7763671875
-51.26953125
-51.26953125
-56.7626953125
-55.84716796875
-60.4248046875
-69.580078125
-79.65087890625
-76.904296875
-82.3974609375
-78.7353515625
-84.228515625
-81.48193359375
-83.31298828125
-79.65087890625
-79.65087890625
-73.2421875
-79.65087890625
-79.65087890625
-79.65087890625
-75.98876953125
-79.65087890625
-84.228515625
-78.7353515625
-81.48193359375
-74.15771484375
-78.7353515625
-83.31298828125
-85.14404296875
-88.80615234375
-87.890625
-84.228515625
-78.7353515625
-74.15771484375
-74.15771484375
-76.904296875
-82.3974609375
-84.228515625
-79.65087890625
-82.3974609375
-81.48193359375
-85.14404296875
-95.21484375
-86.97509765625
-79.65087890625
-75.0732421875
-86.97509765625
-85.14404296875
-64.0869140625
-69.580078125
-66.83349609375
-73.2421875
-77.81982421875
-74.15771484375
-76.904296875
-74.15771484375
-71.4111328125
-71.4111328125
-75.0732421875
-73.2421875
-73.2421875
-65.00244140625
-65.00244140625
-66.83349609375
-71.4111328125
-72.32666015625
-69.580078125
-68.66455078125
-64.0869140625
-65.91796875
-78.7353515625
-74.15771484375
-66.83349609375
-67.7490234375
-60.4248046875
-65.00244140625
-71.4111328125
-74.15771484375
-76.904296875
-75.98876953125
-65.00244140625
-61.34033203125
-70.49560546875
-75.98876953125
-64.0869140625
-57.67822265625
-68.66455078125
-75.98876953125
-79.65087890625
-72.32666015625
-78.7353515625
-86.97509765625
-76.904296875
-77.81982421875
-74.15771484375
-75.98876953125
-76.904296875
-74.15771484375
-82.3974609375
-87.890625
-81.48193359375
-82.3974609375
-76.904296875
-91.552734375
-88.80615234375
-80.56640625
-79.65087890625
-84.228515625
-93.3837890625
-92.46826171875
-88.80615234375
-73.2421875
-80.56640625
-86.0595703125
-86.0595703125
-75.0732421875
-86.0595703125
-85.14404296875
-92.46826171875
-88.80615234375
-86.0595703125
-82.3974609375
-88.80615234375
-97.0458984375
-89.7216796875
-82.3974609375
-105.28564453125
-119.93408203125
-116.27197265625
-116.27197265625
-114.44091796875
-113.525390625
-113.525390625
-108.0322265625
-108.0322265625
-94.29931640625
-86.97509765625
-100.7080078125
-97.96142578125
-94.29931640625
-92.46826171875
-95.21484375
-107.11669921875
-101.62353515625
-105.28564453125
-117.1875
-115.3564453125
-113.525390625
-102.5390625
-91.552734375
-89.7216796875
-96.13037109375
-97.0458984375
-97.96142578125
-100.7080078125
-100.7080078125
-105.28564453125
-107.11669921875
-97.96142578125
-116.27197265625
-110.77880859375
-111.6943359375
-106.201171875
-97.96142578125
-98.876953125
-96.13037109375
-95.21484375
-107.11669921875
-106.201171875
-100.7080078125
-104.3701171875
-108.94775390625
-108.0322265625
-101.62353515625
-105.28564453125
-119.93408203125
-122.6806640625
-119.93408203125
-119.93408203125
-116.27197265625
-112.60986328125
-104.3701171875
-100.7080078125
-84.228515625
-83.31298828125
-75.0732421875
-73.2421875
-63.17138671875
-65.00244140625
-65.00244140625
-56.7626953125
-48.52294921875
-48.52294921875
-47.607421875
-43.9453125
-40.283203125
-21.97265625
-32.04345703125
-31.1279296875
-5.4931640625
0.91552734375
6.40869140625
16.4794921875
9.1552734375
17.39501953125
16.4794921875
-3.662109375
-9.1552734375
10.986328125
30.21240234375
25.634765625
10.07080078125
-5.4931640625
-10.07080078125
-16.4794921875
-29.296875
-21.05712890625
-41.19873046875
-47.607421875
-42.1142578125
-76.904296875
-84.228515625
-81.48193359375
-77.81982421875
-82.3974609375
-97.96142578125
-103.45458984375
-119.93408203125
-113.525390625
-107.11669921875
-110.77880859375
-119.0185546875
-136.41357421875
-128.173828125
-116.27197265625
-128.173828125
-123.59619140625
-124.51171875
-120.849609375
-121.76513671875
-129.08935546875
-126.3427734375
-116.27197265625
-124.51171875
-128.173828125
-128.173828125
-135.498046875
-135.498046875
-139.16015625
-139.16015625
-130.0048828125
-135.498046875
-134.58251953125
-130.92041015625
-142.822265625
-150.146484375
-150.146484375
-137.3291015625
-132.75146484375
-121.76513671875
-103.45458984375
-91.552734375
-57.67822265625
-30.21240234375
6.40869140625
63.17138671875
125.42724609375
156.55517578125
195.9228515625
292.96875
378.11279296875
467.83447265625
574.03564453125
668.3349609375
731.50634765625
726.01318359375
625.30517578125
479.736328125
363.46435546875
249.0234375
94.29931640625
-25.634765625
-78.7353515625
-86.0595703125
-76.904296875
-83.31298828125
-86.97509765625
-78.7353515625
-75.0732421875
-92.46826171875
-104.3701171875
-108.94775390625
-108.0322265625
-83.31298828125
-70.49560546875
-57.67822265625
-43.02978515625
-43.9453125
-56.7626953125
-51.26953125
-44.86083984375
-69.580078125
-78.7353515625
-79.65087890625
-74.15771484375
-68.66455078125
-68.66455078125
-65.00244140625
-67.7490234375
-74.15771484375
-72.32666015625
-59.50927734375
-54.931640625
-57.67822265625
-57.67822265625
-54.931640625
-39.36767578125
-32.04345703125
-49.4384765625
-47.607421875
-49.4384765625
-43.02978515625
-42.1142578125
-41.19873046875
-35.70556640625
-38.4521484375
-47.607421875
-32.958984375
-34.7900390625
-31.1279296875
-28.38134765625
-29.296875
-26.55029296875
-27.4658203125
-12.8173828125
-11.90185546875
-9.1552734375
-10.07080078125
0.91552734375
6.40869140625
8.23974609375
10.07080078125
16.4794921875
27.4658203125
31.1279296875
31.1279296875
30.21240234375
43.02978515625
42.1142578125
44.86083984375
53.1005859375
54.01611328125
67.7490234375
69.580078125
62.255859375
74.15771484375
83.31298828125
80.56640625
81.48193359375
96.13037109375
118.10302734375
140.9912109375
122.6806640625
130.0048828125
132.75146484375
150.146484375
152.89306640625
152.89306640625
161.1328125
167.54150390625
173.9501953125
187.68310546875
203.2470703125
213.31787109375
214.2333984375
211.48681640625
222.47314453125
238.037109375
245.361328125
270.99609375
262.75634765625
256.34765625
265.5029296875
271.91162109375
268.24951171875
275.57373046875
277.40478515625
292.96875
284.72900390625
274.658203125
284.72900390625
282.89794921875
280.1513671875
281.06689453125
277.40478515625
275.57373046875
275.57373046875
253.60107421875
237.12158203125
241.69921875
228.8818359375
220.64208984375
212.40234375
192.2607421875
174.86572265625
161.1328125
151.9775390625
136.41357421875
129.08935546875
113.525390625
103.45458984375
118.10302734375
97.96142578125
81.48193359375
96.13037109375
48.52294921875
42.1142578125
37.53662109375
21.97265625
15.56396484375
12.8173828125
2.74658203125
-10.986328125
-5.4931640625
-19.22607421875
-26.55029296875
-32.958984375
-32.958984375
-36.62109375
-35.70556640625
-38.4521484375
-53.1005859375
-46.69189453125
-60.4248046875
-58.59375
-55.84716796875
-43.02978515625
-50.35400390625
-51.26953125
-60.4248046875
-48.52294921875
-52.18505859375
-45.7763671875
-54.931640625
-72.32666015625
-46.69189453125
-43.9453125
-17.39501953125
-47.607421875
-74.15771484375
-47.607421875
-47.607421875
-43.02978515625
-54.01611328125
-53.1005859375
-54.931640625
-59.50927734375
-61.34033203125
-50.35400390625
-47.607421875
-60.4248046875
-59.50927734375
-49.4384765625
-45.7763671875
-62.255859375
-58.59375
-57.67822265625
-57.67822265625
-52.18505859375
-54.931640625
-47.607421875
-54.931640625
-56.7626953125
-48.52294921875
-53.1005859375
-52.18505859375
-44.86083984375
-26.55029296875
-36.62109375
-54.931640625
-55.84716796875
-51.26953125
-48.52294921875
-53.1005859375
-42.1142578125
-25.634765625
-33.87451171875
-42.1142578125
-43.02978515625
-51.26953125
-47.607421875
-46.69189453125
-40.283203125
-47.607421875
-37.53662109375
-40.283203125
-41.19873046875
-45.7763671875
-45.7763671875
-45.7763671875
-34.7900390625
-34.7900390625
-41.19873046875
-43.02978515625
-43.9453125
-28.38134765625
-26.55029296875
-46.69189453125
-37.53662109375
-40.283203125
-41.19873046875
-51.26953125
-45.7763671875
-43.02978515625
-49.4384765625
-55.84716796875
-57.67822265625
-47.607421875
-43.9453125
-51.26953125
-51.26953125
-51.26953125
-57.67822265625
-55.84716796875
-43.9453125
-47.607421875
-46.69189453125
-46.69189453125
-46.69189453125
-61.34033203125
-52.18505859375
-53.1005859375
-57.67822265625
-57.67822265625
-53.1005859375
-49.4384765625
-50.35400390625
-44.86083984375
-49.4384765625
-59.50927734375
-65.00244140625
-69.580078125
-70.49560546875
-65.00244140625
-62.255859375
-63.17138671875
-59.50927734375
-58.59375
-65.00244140625
-64.0869140625
-56.7626953125
-74.15771484375
-71.4111328125
-64.0869140625
-62.255859375
-68.66455078125
-79.65087890625
-86.0595703125
-65.00244140625
-74.15771484375
-68.66455078125
-82.3974609375
-78.7353515625
-73.2421875
-69.580078125
-83.31298828125
-82.3974609375
-82.3974609375
-86.97509765625
-77.81982421875
-74.15771484375
-69.580078125
-86.0595703125
-86.0595703125
-75.0732421875
-70.49560546875
-64.0869140625
-69.580078125
-69.580078125
-73.2421875
-76.904296875
-70.49560546875
-75.98876953125
-82.3974609375
-76.904296875
-86.0595703125
-68.66455078125
-65.91796875
-76.904296875
-85.14404296875
-75.98876953125
-74.15771484375
-80.56640625
-91.552734375
-90.63720703125
-78.7353515625
-88.80615234375
-86.97509765625
-83.31298828125
-85.14404296875
-78.7353515625
-78.7353515625
-76.904296875
-85.14404296875
-82.3974609375
-79.65087890625
-82.3974609375
-91.552734375
-86.0595703125
-74.15771484375
-84.228515625
-86.97509765625
-79.65087890625
-77.81982421875
-86.0595703125
-80.56640625
-81.48193359375
-86.97509765625
-86.0595703125
-78.7353515625
-83.31298828125
-83.31298828125
-81.48193359375
-65.91796875
-71.4111328125
-89.7216796875
-85.14404296875
-72.32666015625
-66.83349609375
-75.98876953125
-63.17138671875
-50.35400390625
-30.21240234375
-24.71923828125
-30.21240234375
-29.296875
-21.05712890625
-26.55029296875
-32.04345703125
-33.87451171875
-36.62109375
-33.87451171875
-39.36767578125
-3.662109375
14.6484375
26.55029296875
31.1279296875
34.7900390625
26.55029296875
27.4658203125
31.1279296875
31.1279296875
23.8037109375
33.87451171875
37.53662109375
19.22607421875
21.05712890625
21.05712890625
17.39501953125
3.662109375
-3.662109375
-9.1552734375
-22.88818359375
-28.38134765625
-35.70556640625
-43.9453125
-65.00244140625
-81.48193359375
-90.63720703125
-97.0458984375
-90.63720703125
-85.14404296875
-97.0458984375
-98.876953125
-101.62353515625
-97.96142578125
-98.876953125
-87.890625
-101.62353515625
-104.3701171875
-102.5390625
-99.79248046875
-110.77880859375
-114.44091796875
-100.7080078125
-112.60986328125
-122.6806640625
-119.0185546875
-110.77880859375
-111.6943359375
-125.42724609375
-119.93408203125
-119.93408203125
-117.1875
-118.10302734375
-123.59619140625
-132.75146484375
-136.41357421875
-130.92041015625
-134.58251953125
-135.498046875
-129.08935546875
-128.173828125
-113.525390625
-109.86328125
-97.0458984375
-52.18505859375
-30.21240234375
10.986328125
51.26953125
107.11669921875
159.3017578125
196.83837890625
269.1650390625
354.30908203125
431.21337890625
524.59716796875
617.0654296875
708.6181640625
742.49267578125
682.06787109375
544.73876953125
411.07177734375
312.19482421875
185.85205078125
33.87451171875
-46.69189453125
-64.0869140625
-67.7490234375
-59.50927734375
-71.4111328125
-65.00244140625
-68.66455078125
-84.228515625
-91.552734375
-91.552734375
-87.890625
-68.66455078125
-55.84716796875
-53.1005859375
-38.4521484375
-34.7900390625
-39.36767578125
-27.4658203125
-27.4658203125
-32.958984375
-32.04345703125
-45.7763671875
-52.18505859375
-39.36767578125
-41.19873046875
-45.7763671875
-43.9453125
-41.19873046875
-39.36767578125
-38.4521484375
-27.4658203125
-32.04345703125
-40.283203125
-27.4658203125
-29.296875
-18.310546875
-19.22607421875
-22.88818359375
-17.39501953125
-18.310546875
-12.8173828125
-13.73291015625
-12.8173828125
-16.4794921875
-6.40869140625
-10.986328125
-7.32421875
2.74658203125
-2.74658203125
-0.91552734375
4.57763671875
3.662109375
11.90185546875
24.71923828125
27.4658203125
30.21240234375
29.296875
26.55029296875
39.36767578125
39.36767578125
32.04345703125
27.4658203125
31.1279296875
44.86083984375
51.26953125
49.4384765625
49.4384765625
57.67822265625
64.0869140625
69.580078125
75.0732421875
82.3974609375
86.97509765625
90.63720703125
100.7080078125
105.28564453125
111.6943359375
108.94775390625
113.525390625
123.59619140625
131.8359375
137.3291015625
141.90673828125
155.6396484375
146.484375
153.80859375
161.1328125
159.3017578125
182.18994140625
198.66943359375
197.75390625
210.5712890625
221.5576171875
221.5576171875
225.2197265625
229.79736328125
249.0234375
249.0234375
243.5302734375
248.10791015625
251.77001953125
263.671875
270.08056640625
272.8271484375
278.3203125
281.982421875
259.09423828125
272.8271484375
288.39111328125
286.56005859375
278.3203125
275.57373046875
266.41845703125
271.91162109375
264.58740234375
266.41845703125
251.77001953125
236.2060546875
232.5439453125
221.5576171875
211.48681640625
193.17626953125
178.52783203125
167.54150390625
159.3017578125
147.39990234375
138.24462890625
113.525390625
93.3837890625
95.21484375
81.48193359375
72.32666015625
66.83349609375
50.35400390625
43.02978515625
28.38134765625
21.05712890625
18.310546875
-0.91552734375
-10.07080078125
-8.23974609375
-12.8173828125
-17.39501953125
-20.1416015625
-26.55029296875
-33.87451171875
-34.7900390625
-37.53662109375
-40.283203125
-51.26953125
-51.26953125
-47.607421875
-47.607421875
-46.69189453125
-55.84716796875
-65.00244140625
-58.59375
-61.34033203125
-60.4248046875
-55.84716796875
-66.83349609375
-68.66455078125
-52.18505859375
-55.84716796875
-71.4111328125
-67.7490234375
-66.83349609375
-75.0732421875
-66.83349609375
-66.83349609375
-69.580078125
-63.17138671875
-54.931640625
-55.84716796875
-69.580078125
-68.66455078125
-65.00244140625
-68.66455078125
-68.66455078125
-66.83349609375
-70.49560546875
-77.81982421875
-56.7626953125
-62.255859375
-69.580078125
-60.4248046875
-65.91796875
-64.0869140625
-56.7626953125
-61.34033203125
-61.34033203125
-52.18505859375
-56.7626953125
-64.0869140625
-64.0869140625
-63.17138671875
-61.34033203125
-49.4384765625
-54.01611328125
-54.01611328125
-50.35400390625
-51.26953125
-55.84716796875
-64.0869140625
-56.7626953125
-54.01611328125
-57.67822265625
-61.34033203125
-56.7626953125
-50.35400390625
-52.18505859375
-54.931640625
-47.607421875
-49.4384765625
-53.1005859375
-58.59375
-58.59375
-56.7626953125
-51.26953125
-55.84716796875
-54.931640625
-51.26953125
-50.35400390625
-49.4384765625
-47.607421875
-46.69189453125
-51.26953125
-63.17138671875
-54.01611328125
-56.7626953125
-48.52294921875
-42.1142578125
-59.50927734375
-57.67822265625
-65.00244140625
-54.931640625
-52.18505859375
-66.83349609375
-65.91796875
-69.580078125
-74.15771484375
-67.7490234375
-61.34033203125
-54.931640625
-61.34033203125
-59.50927734375
-66.83349609375
-70.49560546875
-53.1005859375
-57.67822265625
-70.49560546875
-65.91796875
-73.2421875
-66.83349609375
-61.34033203125
-58.59375
-77.81982421875
-79.65087890625
-75.98876953125
-75.0732421875
-64.0869140625
-72.32666015625
-72.32666015625
-67.7490234375
-61.34033203125
-63.17138671875
-68.66455078125
-75.98876953125
-84.228515625
-87.890625
-77.81982421875
-72.32666015625
-67.7490234375
-67.7490234375
-75.98876953125
-79.65087890625
-65.91796875
-71.4111328125
-79.65087890625
-78.7353515625
-80.56640625
-78.7353515625
-79.65087890625
-78.7353515625
-73.2421875
-78.7353515625
-80.56640625
-74.15771484375
-85.14404296875
-85.14404296875
-86.97509765625
-75.0732421875
-73.2421875
-77.81982421875
-89.7216796875
-76.904296875
-84.228515625
-89.7216796875
-86.0595703125
-94.29931640625
-87.890625
-84.228515625
-83.31298828125
-81.48193359375
-79.65087890625
-86.97509765625
-81.48193359375
-95.21484375
-88.80615234375
-87.890625
-84.228515625
-79.65087890625
-77.81982421875
-80.56640625
-79.65087890625
-89.7216796875
-84.228515625
-81.48193359375
-80.56640625
-80.56640625
-92.46826171875
-86.97509765625
-79.65087890625
-75.98876953125
-77.81982421875
-77.81982421875
-88.80615234375
-88.80615234375
-84.228515625
-82.3974609375
-83.31298828125
-85.14404296875
-80.56640625
-79.65087890625
-79.65087890625
-90.63720703125
-89.7216796875
-86.0595703125
-89.7216796875
-88.80615234375
-80.56640625
-79.65087890625
-77.81982421875
-73.2421875
-83.31298828125
-82.3974609375
-71.4111328125
-65.00244140625
-63.17138671875
-51.26953125
-38.4521484375
-32.04345703125
-36.62109375
-42.1142578125
-29.296875
-30.21240234375
-32.958984375
-31.1279296875
-26.55029296875
-16.4794921875
-5.4931640625
11.90185546875
18.310546875
32.958984375
38.4521484375
29.296875
48.52294921875
53.1005859375
34.7900390625
21.05712890625
29.296875
33.87451171875
25.634765625
17.39501953125
6.40869140625
0
-7.32421875
-6.40869140625
-13.73291015625
-28.38134765625
-24.71923828125
-32.958984375
-39.36767578125
-57.67822265625
-69.580078125
-77.81982421875
-81.48193359375
-82.3974609375
-80.56640625
-89.7216796875
-99.79248046875
-107.11669921875
-109.86328125
-106.201171875
-98.876953125
-110.77880859375
-109.86328125
-108.94775390625
-102.5390625
-105.28564453125
-109.86328125
-104.3701171875
-107.11669921875
-112.60986328125
-108.94775390625
-124.51171875
-122.6806640625
-113.525390625
-111.6943359375
-108.0322265625
-108.94775390625
-110.77880859375
-116.27197265625
-120.849609375
-128.173828125
-128.173828125
-131.8359375
-123.59619140625
-119.93408203125
-130.92041015625
-123.59619140625
-118.10302734375
-102.5390625
-75.0732421875
-47.607421875
-18.310546875
20.1416015625
74.15771484375
135.498046875
165.71044921875
212.40234375
295.71533203125
371.7041015625
464.17236328125
552.978515625
639.95361328125
705.87158203125
699.462890625
590.51513671875
446.77734375
334.16748046875
232.5439453125
86.0595703125
-39.36767578125
-70.49560546875
-62.255859375
-49.4384765625
-52.18505859375
-49.4384765625
-46.69189453125
-51.26953125
-53.1005859375
-71.4111328125
-80.56640625
-75.0732421875
-60.4248046875
-52.18505859375
-35.70556640625
-24.71923828125
-24.71923828125
-31.1279296875
-32.04345703125
-35.70556640625
-30.21240234375
-35.70556640625
-24.71923828125
-21.05712890625
-28.38134765625
-36.62109375
-42.1142578125
-37.53662109375
-30.21240234375
-31.1279296875
-29.296875
-25.634765625
-27.4658203125
-29.296875
-24.71923828125
-21.97265625
-16.4794921875
-12.8173828125
-9.1552734375
-10.07080078125
-9.1552734375
-2.74658203125
-8.23974609375
-6.40869140625
-11.90185546875
-11.90185546875
-5.4931640625
3.662109375
10.07080078125
12.8173828125
10.986328125
17.39501953125
20.1416015625
15.56396484375
28.38134765625
19.22607421875
19.22607421875
23.8037109375
32.958984375
39.36767578125
42.1142578125
41.19873046875
47.607421875
55.84716796875
62.255859375
59.50927734375
63.17138671875
66.83349609375
65.00244140625
71.4111328125
80.56640625
81.48193359375
92.46826171875
100.7080078125
112.60986328125
105.28564453125
97.96142578125
105.28564453125
115.3564453125
127.25830078125
129.08935546875
128.173828125
145.56884765625
157.470703125
159.3017578125
167.54150390625
178.52783203125
187.68310546875
194.091796875
201.416015625
210.5712890625
212.40234375
224.30419921875
227.96630859375
238.95263671875
238.037109375
253.60107421875
258.1787109375
267.333984375
277.40478515625
270.99609375
271.91162109375
280.1513671875
276.4892578125
276.4892578125
284.72900390625
294.7998046875
289.306640625
288.39111328125
296.630859375
298.4619140625
293.88427734375
289.306640625
292.96875
286.56005859375
278.3203125
264.58740234375
244.44580078125
238.037109375
233.45947265625
217.8955078125
208.740234375
202.33154296875
194.091796875
187.68310546875
169.37255859375
154.72412109375
145.56884765625
132.75146484375
119.0185546875
102.5390625
90.63720703125
84.228515625
80.56640625
71.4111328125
55.84716796875
45.7763671875
30.21240234375
22.88818359375
16.4794921875
3.662109375
4.57763671875
5.4931640625
-0.91552734375
-10.07080078125
-15.56396484375
-19.22607421875
-23.8037109375
-16.4794921875
-25.634765625
-35.70556640625
-44.86083984375
-36.62109375
-33.87451171875
-39.36767578125
-42.1142578125
-46.69189453125
-47.607421875
-42.1142578125
-44.86083984375
-49.4384765625
-47.607421875
-49.4384765625
-51.26953125
-51.26953125
-54.01611328125
-56.7626953125
-50.35400390625
-48.52294921875
-48.52294921875
-44.86083984375
-47.607421875
-48.52294921875
-57.67822265625
-61.34033203125
-55.84716796875
-54.931640625
-49.4384765625
-48.52294921875
-53.1005859375
-48.52294921875
-52.18505859375
-48.52294921875
-39.36767578125
-43.02978515625
-46.69189453125
-54.931640625
-54.931640625
-39.36767578125
-33.87451171875
-41.19873046875
-46.69189453125
-46.69189453125
-48.52294921875
-47.607421875
-29.296875
-38.4521484375
-37.53662109375
-49.4384765625
-51.26953125
-39.36767578125
-33.87451171875
-45.7763671875
-37.53662109375
-37.53662109375
-43.9453125
-35.70556640625
-33.87451171875
-42.1142578125
-40.283203125
-42.1142578125
-40.283203125
-37.53662109375
-37.53662109375
-41.19873046875
-36.62109375
-39.36767578125
-36.62109375
-35.70556640625
-39.36767578125
-32.958984375
-33.87451171875
-34.7900390625
-30.21240234375
-38.4521484375
-32.958984375
-37.53662109375
-43.9453125
-46.69189453125
-39.36767578125
-38.4521484375
-36.62109375
-40.283203125
-40.283203125
-34.7900390625
-37.53662109375
-36.62109375
-33.87451171875
-32.958984375
-50.35400390625
-38.4521484375
-32.958984375
-42.1142578125
-48.52294921875
-44.86083984375
-50.35400390625
-49.4384765625
-50.35400390625
-54.931640625
-58.59375
-63.17138671875
-59.50927734375
-50.35400390625
-53.1005859375
-48.52294921875
-52.18505859375
-52.18505859375
-52.18505859375
-51.26953125
-55.84716796875
-53.1005859375
-54.931640625
-68.66455078125
-63.17138671875
-58.59375
-62.255859375
-59.50927734375
-57.67822265625
-62.255859375
-61.34033203125
-50.35400390625
-48.52294921875
-54.931640625
-59.50927734375
-59.50927734375
-58.59375
-46.69189453125
-45.7763671875
-52.18505859375
-58.59375
-53.1005859375
-47.607421875
-56.7626953125
-56.7626953125
-62.255859375
-56.7626953125
-59.50927734375
-61.34033203125
-66.83349609375
-72.32666015625
-67.7490234375
-68.66455078125
-66.83349609375
-58.59375
-61.34033203125
-59.50927734375
-66.83349609375
-70.49560546875
-73.2421875
-75.0732421875
-65.00244140625
-65.91796875
-64.0869140625
-64.0869140625
-66.83349609375
-71.4111328125
-69.580078125
-70.49560546875
-59.50927734375
-60.4248046875
-69.580078125
-72.32666015625
-68.66455078125
-65.00244140625
-66.83349609375
-63.17138671875
-65.00244140625
-61.34033203125
-61.34033203125
-69.580078125
-65.00244140625
-72.32666015625
-81.48193359375
-70.49560546875
-69.580078125
-73.2421875
-68.66455078125
-74.15771484375
-66.83349609375
-62.255859375
-64.0869140625
-63.17138671875
-68.66455078125
-69.580078125
-74.15771484375
-74.15771484375
-59.50927734375
-57.67822265625
-63.17138671875
-69.580078125
-78.7353515625
-77.81982421875
-73.2421875
-65.00244140625
-61.34033203125
-51.26953125
-49.4384765625
-54.01611328125
-46.69189453125
-41.19873046875
-28.38134765625
-24.71923828125
-23.8037109375
-13.73291015625
-26.55029296875
-26.55029296875
-24.71923828125
-34.7900390625
-24.71923828125
-13.73291015625
-2.74658203125
14.6484375
21.97265625
41.19873046875
43.02978515625
43.02978515625
53.1005859375
47.607421875
41.19873046875
42.1142578125
46.69189453125
49.4384765625
44.86083984375
38.4521484375
25.634765625
19.22607421875
10.07080078125
10.986328125
12.8173828125
-5.4931640625
-19.22607421875
-27.4658203125
-33.87451171875
-49.4384765625
-64.0869140625
-68.66455078125
-66.83349609375
-61.34033203125
-77.81982421875
-77.81982421875
-75.98876953125
-88.80615234375
-83.31298828125
-82.3974609375
-87.890625
-86.97509765625
-91.552734375
-100.7080078125
-94.29931640625
-87.890625
-96.13037109375
-103.45458984375
-99.79248046875
-93.3837890625
-103.45458984375
-104.3701171875
-103.45458984375
-100.7080078125
-92.46826171875
-91.552734375
-95.21484375
-102.5390625
-107.11669921875
-102.5390625
-106.201171875
-118.10302734375
-123.59619140625
-117.1875
-108.0322265625
-105.28564453125
-105.28564453125
-104.3701171875
-69.580078125
-36.62109375
-8.23974609375
11.90185546875
45.7763671875
96.13037109375
140.9912109375
169.37255859375
218.81103515625
302.1240234375
380.859375
460.51025390625
541.07666015625
603.33251953125
628.96728515625
606.0791015625
479.736328125
338.7451171875
266.41845703125
167.54150390625
67.7490234375
32.04345703125
10.986328125
23.8037109375
33.87451171875
17.39501953125
-4.57763671875
-13.73291015625
-30.21240234375
-52.18505859375
-79.65087890625
-97.0458984375
-87.890625
-76.904296875
-60.4248046875
-43.9453125
-36.62109375
-23.8037109375
-33.87451171875
-37.53662109375
-25.634765625
-27.4658203125
-32.958984375
-40.283203125
-43.9453125
-41.19873046875
-35.70556640625
-34.7900390625
-22.88818359375
-21.05712890625
-25.634765625
-32.04345703125
-32.04345703125
-23.8037109375
-23.8037109375
-28.38134765625
-36.62109375
-30.21240234375
-22.88818359375
-23.8037109375
-28.38134765625
-19.22607421875
-15.56396484375
-14.6484375
-21.97265625
-10.986328125
0
8.23974609375
5.4931640625
2.74658203125
7.32421875
1.8310546875
1.8310546875
14.6484375
18.310546875
22.88818359375
21.05712890625
25.634765625
32.958984375
34.7900390625
31.1279296875
27.4658203125
34.7900390625
40.283203125
40.283203125
46.69189453125
55.84716796875
55.84716796875
61.34033203125
62.255859375
75.0732421875
86.0595703125
77.81982421875
87.890625
90.63720703125
91.552734375
94.29931640625
97.0458984375
98.876953125
112.60986328125
120.849609375
126.3427734375
129.08935546875
130.92041015625
142.822265625
152.89306640625
156.55517578125
165.71044921875
169.37255859375
173.03466796875
182.18994140625
191.34521484375
196.83837890625
207.82470703125
196.83837890625
205.078125
216.97998046875
228.8818359375
239.8681640625
236.2060546875
246.27685546875
248.10791015625
249.0234375
246.27685546875
249.93896484375
259.09423828125
264.58740234375
261.8408203125
258.1787109375
254.5166015625
259.09423828125
249.0234375
249.93896484375
257.26318359375
258.1787109375
248.10791015625
238.037109375
231.62841796875
237.12158203125
226.13525390625
214.2333984375
216.064453125
195.00732421875
185.85205078125
175.78125
162.04833984375
151.9775390625
139.16015625
125.42724609375
106.201171875
97.0458984375
83.31298828125
70.49560546875
64.0869140625
68.66455078125
54.931640625
43.9453125
42.1142578125
23.8037109375
10.07080078125
5.4931640625
10.07080078125
1.8310546875
-9.1552734375
-24.71923828125
-24.71923828125
-21.05712890625
-29.296875
-20.1416015625
-24.71923828125
-33.87451171875
-34.7900390625
-43.02978515625
-48.52294921875
-46.69189453125
-48.52294921875
-46.69189453125
-53.1005859375
-49.4384765625
-45.7763671875
-56.7626953125
-68.66455078125
-62.255859375
-58.59375
-57.67822265625
-60.4248046875
-65.00244140625
-61.34033203125
-65.00244140625
-66.83349609375
-67.7490234375
-64.0869140625
-61.34033203125
-60.4248046875
-56.7626953125
-68.66455078125
-72.32666015625
-67.7490234375
-61.34033203125
-61.34033203125
-69.580078125
-71.4111328125
-65.00244140625
-58.59375
-55.84716796875
-58.59375
-57.67822265625
-56.7626953125
-51.26953125
-55.84716796875
-60.4248046875
-57.67822265625
-59.50927734375
-65.00244140625
-61.34033203125
-62.255859375
-50.35400390625
-52.18505859375
-54.931640625
-49.4384765625
-46.69189453125
-51.26953125
-55.84716796875
-53.1005859375
-43.02978515625
-41.19873046875
-42.1142578125
-47.607421875
-55.84716796875
-52.18505859375
-47.607421875
-48.52294921875
-52.18505859375
-54.01611328125
-42.1142578125
-42.1142578125
-41.19873046875
-48.52294921875
-46.69189453125
-53.1005859375
-53.1005859375
-47.607421875
-51.26953125
-49.4384765625
-49.4384765625
-45.7763671875
-45.7763671875
-53.1005859375
-58.59375
-59.50927734375
-54.931640625
-51.26953125
-49.4384765625
-43.02978515625
-54.931640625
-57.67822265625
-57.67822265625
-61.34033203125
-62.255859375
-59.50927734375
-61.34033203125
-65.91796875
-62.255859375
-55.84716796875
-59.50927734375
-60.4248046875
-55.84716796875
-60.4248046875
-62.255859375
-62.255859375
-60.4248046875
-58.59375
-67.7490234375
-65.00244140625
-64.0869140625
-66.83349609375
-68.66455078125
-62.255859375
-68.66455078125
-73.2421875
-75.0732421875
-75.98876953125
-76.904296875
-75.0732421875
-72.32666015625
-65.91796875
-68.66455078125
-70.49560546875
-81.48193359375
-69.580078125
-62.255859375
-72.32666015625
-75.98876953125
-82.3974609375
-76.904296875
-69.580078125
-79.65087890625
-86.0595703125
-79.65087890625
-78.7353515625
-75.0732421875
-86.0595703125
-75.0732421875
-86.97509765625
-86.97509765625
-82.3974609375
-77.81982421875
-75.98876953125
-82.3974609375
-75.98876953125
-79.65087890625
-83.31298828125
-83.31298828125
-76.904296875
-74.15771484375
-81.48193359375
-83.31298828125
-81.48193359375
-80.56640625
-77.81982421875
-90.63720703125
-95.21484375
-99.79248046875
-86.97509765625
-86.97509765625
-88.80615234375
-95.21484375
-85.14404296875
-78.7353515625
-90.63720703125
-89.7216796875
-86.0595703125
-84.228515625
-75.98876953125
-79.65087890625
-84.228515625
-92.46826171875
-84.228515625
-84.228515625
-85.14404296875
-92.46826171875
-99.79248046875
-99.79248046875
-98.876953125
-80.56640625
-74.15771484375
-78.7353515625
-82.3974609375
-79.65087890625
-87.890625
-93.3837890625
-94.29931640625
-87.890625
-90.63720703125
-93.3837890625
-86.97509765625
-82.3974609375
-80.56640625
-76.904296875
-68.66455078125
-65.91796875
-60.4248046875
-46.69189453125
-32.958984375
-29.296875
-32.958984375
-39.36767578125
-35.70556640625
-41.19873046875
-35.70556640625
-34.7900390625
-25.634765625
-16.4794921875
0
8.23974609375
17.39501953125
30.21240234375
32.958984375
33.87451171875
34.7900390625
18.310546875
16.4794921875
28.38134765625
27.4658203125
32.958984375
21.97265625
11.90185546875
0.91552734375
-3.662109375
-7.32421875
-14.6484375
-25.634765625
-24.71923828125
-37.53662109375
-56.7626953125
-63.17138671875
-76.904296875
-79.65087890625
-93.3837890625
-97.0458984375
-97.96142578125
-89.7216796875
-98.876953125
-98.876953125
-96.13037109375
-96.13037109375
-110.77880859375
-115.3564453125
-119.93408203125
-123.59619140625
-119.0185546875
-120.849609375
-118.10302734375
-123.59619140625
-120.849609375
-114.44091796875
-121.76513671875
-120.849609375
-116.27197265625
-122.6806640625
-127.25830078125
-124.51171875
-126.3427734375
-127.25830078125
-127.25830078125
-137.3291015625
-143.73779296875
-146.484375
-151.9775390625
-140.9912109375
-135.498046875
-132.75146484375
-133.6669921875
-132.75146484375
-114.44091796875
-79.65087890625
-54.931640625
-28.38134765625
17.39501953125
73.2421875
122.6806640625
140.9912109375
194.091796875
276.4892578125
351.5625
433.9599609375
517.27294921875
593.26171875
636.29150390625
628.0517578125
516.357421875
374.45068359375
284.72900390625
185.85205078125
64.0869140625
2.74658203125
-11.90185546875
-13.73291015625
-2.74658203125
-9.1552734375
-21.97265625
-29.296875
-54.01611328125
-82.3974609375
-106.201171875
-116.27197265625
-108.94775390625
-95.21484375
-78.7353515625
-69.580078125
-58.59375
-54.01611328125
-52.18505859375
-48.52294921875
-54.01611328125
-58.59375
-44.86083984375
-41.19873046875
-53.1005859375
-54.931640625
-48.52294921875
-45.7763671875
-48.52294921875
-58.59375
-61.34033203125
-60.4248046875
-43.02978515625
-43.02978515625
-43.9453125
-38.4521484375
-39.36767578125
-43.02978515625
-45.7763671875
-45.7763671875
-36.62109375
-34.7900390625
-39.36767578125
-32.958984375
-31.1279296875
-35.70556640625
-24.71923828125
-19.22607421875
-13.73291015625
-21.05712890625
-21.97265625
-19.22607421875
-19.22607421875
-11.90185546875
1.8310546875
0
1.8310546875
3.662109375
7.32421875
11.90185546875
11.90185546875
10.986328125
15.56396484375
19.22607421875
24.71923828125
30.21240234375
36.62109375
40.283203125
41.19873046875
46.69189453125
53.1005859375
47.607421875
54.01611328125
63.17138671875
69.580078125
70.49560546875
72.32666015625
88.80615234375
105.28564453125
93.3837890625
93.3837890625
106.201171875
116.27197265625
113.525390625
117.1875
128.173828125
139.16015625
143.73779296875
154.72412109375
161.1328125
181.2744140625
184.02099609375
184.9365234375
187.68310546875
195.00732421875
193.17626953125
195.9228515625
223.388671875
231.62841796875
231.62841796875
237.12158203125
237.12158203125
239.8681640625
237.12158203125
238.95263671875
245.361328125
246.27685546875
253.60107421875
259.09423828125
263.671875
259.09423828125
255.43212890625
246.27685546875
243.5302734375
252.685546875
246.27685546875
242.61474609375
230.712890625
218.81103515625
208.740234375
210.5712890625
198.66943359375
185.85205078125
172.119140625
159.3017578125
148.3154296875
129.08935546875
116.27197265625
103.45458984375
98.876953125
90.63720703125
72.32666015625
69.580078125
62.255859375
51.26953125
36.62109375
26.55029296875
14.6484375
7.32421875
1.8310546875
-0.91552734375
-10.986328125
-13.73291015625
-15.56396484375
-11.90185546875
-20.1416015625
-22.88818359375
-31.1279296875
-35.70556640625
-35.70556640625
-40.283203125
-43.9453125
-52.18505859375
-54.01611328125
-51.26953125
-52.18505859375
-57.67822265625
-51.26953125
-54.931640625
-66.83349609375
-68.66455078125
-67.7490234375
-66.83349609375
-68.66455078125
-73.2421875
-74.15771484375
-71.4111328125
-71.4111328125
-69.580078125
-65.91796875
-54.01611328125
-53.1005859375
-55.84716796875
-64.0869140625
-65.00244140625
-67.7490234375
-64.0869140625
-65.00244140625
-65.91796875
-63.17138671875
-64.0869140625
-68.66455078125
-70.49560546875
-72.32666015625
-79.65087890625
-75.0732421875
-65.00244140625
-63.17138671875
-56.7626953125
-59.50927734375
-63.17138671875
-61.34033203125
-65.00244140625
-59.50927734375
-57.67822265625
-62.255859375
-69.580078125
-72.32666015625
-73.2421875
-74.15771484375
-73.2421875
-72.32666015625
-68.66455078125
-67.7490234375
-68.66455078125
-65.00244140625
-70.49560546875
-68.66455078125
-67.7490234375
-61.34033203125
-62.255859375
-63.17138671875
-61.34033203125
-63.17138671875
-58.59375
-67.7490234375
-68.66455078125
-66.83349609375
-66.83349609375
-63.17138671875
-54.931640625
-50.35400390625
-60.4248046875
-59.50927734375
-58.59375
-56.7626953125
-54.01611328125
-60.4248046875
-57.67822265625
-65.00244140625
-76.904296875
-75.0732421875
-69.580078125
-70.49560546875
-66.83349609375
-69.580078125
-65.91796875
-68.66455078125
-71.4111328125
-73.2421875
-73.2421875
-74.15771484375
-73.2421875
-79.65087890625
-81.48193359375
-70.49560546875
-69.580078125
-73.2421875
-82.3974609375
-82.3974609375
-82.3974609375
-83.31298828125
-77.81982421875
-75.0732421875
-82.3974609375
-87.890625
-85.14404296875
-79.65087890625
-75.98876953125
-86.0595703125
-90.63720703125
-86.97509765625
-88.80615234375
-92.46826171875
-86.97509765625
-90.63720703125
-92.46826171875
-91.552734375
-94.29931640625
-97.96142578125
-95.21484375
-83.31298828125
-77.81982421875
-77.81982421875
-84.228515625
-80.56640625
-81.48193359375
-95.21484375
-92.46826171875
-86.97509765625
-82.3974609375
-86.97509765625
-94.29931640625
-97.0458984375
-88.80615234375
-88.80615234375
-94.29931640625
-98.876953125
-90.63720703125
-93.3837890625
-102.5390625
-105.28564453125
-97.96142578125
-91.552734375
-93.3837890625
-104.3701171875
-103.45458984375
-111.6943359375
-105.28564453125
-107.11669921875
-100.7080078125
-94.29931640625
-108.0322265625
-108.94775390625
-100.7080078125
-102.5390625
-101.62353515625
-97.96142578125
-103.45458984375
-107.11669921875
-101.62353515625
-91.552734375
-100.7080078125
-99.79248046875
-107.11669921875
-112.60986328125
-117.1875
-111.6943359375
-107.11669921875
-105.28564453125
-107.11669921875
-108.0322265625
-104.3701171875
-105.28564453125
-104.3701171875
-91.552734375
-95.21484375
-100.7080078125
-105.28564453125
-105.28564453125
-98.876953125
-100.7080078125
-97.0458984375
-94.29931640625
-101.62353515625
-103.45458984375
-96.13037109375
-93.3837890625
-98.876953125
-101.62353515625
-98.876953125
-101.62353515625
-97.0458984375
-95.21484375
-90.63720703125
-90.63720703125
-102.5390625
-106.201171875
-101.62353515625
-98.876953125
-100.7080078125
-100.7080078125
-91.552734375
-82.3974609375
-67.7490234375
-60.4248046875
-49.4384765625
-52.18505859375
-61.34033203125
-54.01611328125
-43.9453125
-42.1142578125
-38.4521484375
-41.19873046875
-43.9453125
-37.53662109375
-24.71923828125
-13.73291015625
0.91552734375
9.1552734375
12.8173828125
22.88818359375
