ECG
-10.986328125
-22.88818359375
-28.38134765625
-42.1142578125
-55.84716796875
-71.4111328125
-73.2421875
-80.56640625
-85.14404296875
-82.3974609375
-81.48193359375
-85.14404296875
-83.31298828125
-89.7216796875
-92.46826171875
-98.876953125
-94.29931640625
-92.46826171875
-97.96142578125
-97.0458984375
-97.96142578125
-97.0458984375
-100.7080078125
-97.96142578125
-107.11669921875
-106.201171875
-110.77880859375
-104.3701171875
-100.7080078125
-96.13037109375
-101.62353515625
-106.201171875
-110.77880859375
-110.77880859375
-114.44091796875
-114.44091796875
-107.11669921875
-108.94775390625
-118.10302734375
-115.3564453125
-108.94775390625
-106.201171875
-100.7080078125
-74.15771484375
-43.9453125
-21.97265625
4.57763671875
48.52294921875
96.13037109375
133.6669921875
153.80859375
240.78369140625
330.50537109375
404.6630859375
473.32763671875
559.38720703125
624.3896484375
641.78466796875
583.19091796875
428.466796875
296.630859375
200.50048828125
69.580078125
-53.1005859375
-111.6943359375
-118.10302734375
-103.45458984375
-87.890625
-77.81982421875
-81.48193359375
-82.3974609375
-90.63720703125
-108.94775390625
-116.27197265625
-108.0322265625
-87.890625
-65.00244140625
-51.26953125
-44.86083984375
-40.283203125
-43.9453125
-44.86083984375
-43.9453125
-45.7763671875
-45.7763671875
-49.4384765625
-44.86083984375
-43.02978515625
-43.9453125
-45.7763671875
-44.86083984375
-42.1142578125
-41.19873046875
-44.86083984375
-37.53662109375
-37.53662109375
-40.283203125
-32.04345703125
-29.296875
-39.36767578125
-34.7900390625
-35.70556640625
-21.97265625
-25.634765625
-27.4658203125
-24.71923828125
-19.22607421875
-15.56396484375
-16.4794921875
-23.8037109375
-15.56396484375
-8.23974609375
-5.4931640625
-6.40869140625
-5.4931640625
-1.8310546875
-6.40869140625
1.8310546875
-2.74658203125
3.662109375
10.986328125
15.56396484375
16.4794921875
14.6484375
16.4794921875
21.05712890625
18.310546875
21.05712890625
23.8037109375
24.71923828125
30.21240234375
35.70556640625
39.36767578125
43.02978515625
43.02978515625
43.9453125
49.4384765625
56.7626953125
59.50927734375
55.84716796875
61.34033203125
64.0869140625
65.00244140625
69.580078125
74.15771484375
84.228515625
81.48193359375
86.97509765625
88.80615234375
95.21484375
100.7080078125
109.86328125
105.28564453125
115.3564453125
112.60986328125
114.44091796875
123.59619140625
119.0185546875
119.93408203125
121.76513671875
123.59619140625
117.1875
115.3564453125
123.59619140625
118.10302734375
110.77880859375
109.86328125
116.27197265625
113.525390625
113.525390625
117.1875
105.28564453125
107.11669921875
108.94775390625
116.27197265625
111.6943359375
95.21484375
100.7080078125
95.21484375
91.552734375
86.97509765625
87.890625
78.7353515625
70.49560546875
65.00244140625
70.49560546875
62.255859375
55.84716796875
57.67822265625
49.4384765625
40.283203125
40.283203125
32.04345703125
31.1279296875
24.71923828125
21.05712890625
10.07080078125
12.8173828125
11.90185546875
9.1552734375
0.91552734375
-4.57763671875
-9.1552734375
-5.4931640625
-6.40869140625
-15.56396484375
-22.88818359375
-23.8037109375
-21.05712890625
-25.634765625
-28.38134765625
-28.38134765625
-24.71923828125
-29.296875
-37.53662109375
-34.7900390625
-35.70556640625
-35.70556640625
-40.283203125
-36.62109375
-37.53662109375
-36.62109375
-40.283203125
-31.1279296875
-35.70556640625
-36.62109375
-43.9453125
-32.04345703125
-31.1279296875
-39.36767578125
-36.62109375
-31.1279296875
-38.4521484375
-34.7900390625
-28.38134765625
-30.21240234375
-34.7900390625
-30.21240234375
-33.87451171875
-35.70556640625
-32.04345703125
-28.38134765625
-36.62109375
-28.38134765625
-26.55029296875
-30.21240234375
-27.4658203125
-23.8037109375
-30.21240234375
-25.634765625
-23.8037109375
-26.55029296875
-27.4658203125
-29.296875
-23.8037109375
-29.296875
-22.88818359375
-21.97265625
-28.38134765625
-26.55029296875
-21.97265625
-21.05712890625
-21.97265625
-21.05712890625
-25.634765625
-29.296875
-27.4658203125
-17.39501953125
-17.39501953125
-17.39501953125
-24.71923828125
-24.71923828125
-20.1416015625
-15.56396484375
-19.22607421875
-20.1416015625
-18.310546875
-22.88818359375
-20.1416015625
-19.22607421875
-25.634765625
-29.296875
-23.8037109375
-29.296875
-28.38134765625
-29.296875
-34.7900390625
-32.04345703125
-32.04345703125
-30.21240234375
-32.04345703125
-30.21240234375
-29.296875
-21.97265625
-34.7900390625
-38.4521484375
-39.36767578125
-32.958984375
-36.62109375
-39.36767578125
-47.607421875
-42.1142578125
-32.04345703125
-32.958984375
-34.7900390625
-37.53662109375
-47.607421875
-49.4384765625
-49.4384765625
-44.86083984375
-40.283203125
-39.36767578125
-45.7763671875
-42.1142578125
-46.69189453125
-43.9453125
-46.69189453125
-51.26953125
-48.52294921875
-48.52294921875
-42.1142578125
-41.19873046875
-43.9453125
-51.26953125
-54.931640625
-47.607421875
-48.52294921875
-54.931640625
-56.7626953125
-53.1005859375
-53.1005859375
-48.52294921875
-50.35400390625
-51.26953125
-48.52294921875
-51.26953125
-56.7626953125
-55.84716796875
-52.18505859375
-48.52294921875
-52.18505859375
-53.1005859375
-53.1005859375
-59.50927734375
-62.255859375
-61.34033203125
-56.7626953125
-57.67822265625
-52.18505859375
-49.4384765625
-47.607421875
-54.01611328125
-51.26953125
-44.86083984375
-43.02978515625
-32.04345703125
-26.55029296875
-10.07080078125
-0.91552734375
-3.662109375
-2.74658203125
10.07080078125
9.1552734375
9.1552734375
14.6484375
15.56396484375
10.986328125
16.4794921875
21.97265625
35.70556640625
57.67822265625
66.83349609375
62.255859375
67.7490234375
68.66455078125
62.255859375
59.50927734375
52.18505859375
56.7626953125
61.34033203125
53.1005859375
43.02978515625
31.1279296875
27.4658203125
11.90185546875
8.23974609375
9.1552734375
-1.8310546875
-9.1552734375
-16.4794921875
-25.634765625
-42.1142578125
-55.84716796875
-56.7626953125
-63.17138671875
-69.580078125
-73.2421875
-71.4111328125
-75.0732421875
-72.32666015625
-74.15771484375
-73.2421875
-79.65087890625
-77.81982421875
-81.48193359375
-81.48193359375
-84.228515625
-84.228515625
-90.63720703125
-93.3837890625
-93.3837890625
-93.3837890625
-91.552734375
-86.0595703125
-86.0595703125
-89.7216796875
-93.3837890625
-95.21484375
-98.876953125
-99.79248046875
-99.79248046875
-97.0458984375
-97.0458984375
-109.86328125
-108.0322265625
-109.86328125
-102.5390625
-98.876953125
-90.63720703125
-86.0595703125
-67.7490234375
-43.02978515625
-22.88818359375
-5.4931640625
41.19873046875
102.5390625
151.06201171875
171.20361328125
246.27685546875
332.33642578125
412.90283203125
498.046875
581.35986328125
651.85546875
670.166015625
609.7412109375
459.5947265625
326.84326171875
221.5576171875
76.904296875
-55.84716796875
-119.0185546875
-125.42724609375
-108.94775390625
-83.31298828125
-75.98876953125
-66.83349609375
-66.83349609375
-77.81982421875
-92.46826171875
-97.96142578125
-82.3974609375
-64.0869140625
-40.283203125
-29.296875
-27.4658203125
-22.88818359375
-25.634765625
-28.38134765625
-29.296875
-35.70556640625
-31.1279296875
-31.1279296875
-27.4658203125
-24.71923828125
-21.97265625
-23.8037109375
-26.55029296875
-22.88818359375
-19.22607421875
-21.97265625
-22.88818359375
-22.88818359375
-20.1416015625
-15.56396484375
-22.88818359375
-20.1416015625
-14.6484375
-15.56396484375
-8.23974609375
-8.23974609375
-8.23974609375
-7.32421875
5.4931640625
5.4931640625
-0.91552734375
0
1.8310546875
0
3.662109375
10.986328125
4.57763671875
6.40869140625
15.56396484375
23.8037109375
19.22607421875
17.39501953125
18.310546875
14.6484375
26.55029296875
31.1279296875
33.87451171875
32.04345703125
32.958984375
33.87451171875
37.53662109375
40.283203125
43.02978515625
43.02978515625
54.931640625
57.67822265625
57.67822265625
56.7626953125
65.00244140625
62.255859375
64.0869140625
67.7490234375
73.2421875
73.2421875
78.7353515625
85.14404296875
91.552734375
94.29931640625
95.21484375
104.3701171875
113.525390625
115.3564453125
115.3564453125
115.3564453125
121.76513671875
123.59619140625
124.51171875
124.51171875
119.93408203125
129.08935546875
127.25830078125
124.51171875
125.42724609375
134.58251953125
130.0048828125
125.42724609375
130.0048828125
127.25830078125
130.0048828125
126.3427734375
118.10302734375
115.3564453125
119.93408203125
117.1875
117.1875
119.93408203125
111.6943359375
109.86328125
106.201171875
102.5390625
90.63720703125
89.7216796875
86.97509765625
79.65087890625
80.56640625
75.98876953125
77.81982421875
72.32666015625
58.59375
56.7626953125
53.1005859375
48.52294921875
40.283203125
41.19873046875
35.70556640625
30.21240234375
34.7900390625
31.1279296875
20.1416015625
13.73291015625
7.32421875
2.74658203125
6.40869140625
2.74658203125
0.91552734375
-7.32421875
-8.23974609375
-16.4794921875
-19.22607421875
-21.97265625
-23.8037109375
-19.22607421875
-19.22607421875
-25.634765625
-28.38134765625
-24.71923828125
-23.8037109375
-33.87451171875
-31.1279296875
-35.70556640625
-40.283203125
-39.36767578125
-36.62109375
-41.19873046875
-37.53662109375
-35.70556640625
-33.87451171875
-38.4521484375
-33.87451171875
-40.283203125
-43.9453125
-37.53662109375
-36.62109375
-37.53662109375
-34.7900390625
-34.7900390625
-40.283203125
-39.36767578125
-31.1279296875
-28.38134765625
-33.87451171875
-32.04345703125
-34.7900390625
-36.62109375
-30.21240234375
-27.4658203125
-32.04345703125
-28.38134765625
-27.4658203125
-28.38134765625
-38.4521484375
-44.86083984375
-32.04345703125
-22.88818359375
-28.38134765625
-37.53662109375
-33.87451171875
-29.296875
-26.55029296875
-26.55029296875
-28.38134765625
-28.38134765625
-22.88818359375
-29.296875
-32.04345703125
-38.4521484375
-38.4521484375
-31.1279296875
-30.21240234375
-30.21240234375
-31.1279296875
-28.38134765625
-30.21240234375
-30.21240234375
-28.38134765625
-25.634765625
-39.36767578125
-34.7900390625
-38.4521484375
-47.607421875
-48.52294921875
-38.4521484375
-36.62109375
-41.19873046875
-40.283203125
-36.62109375
-43.9453125
-47.607421875
-46.69189453125
-46.69189453125
-40.283203125
-43.9453125
-45.7763671875
-44.86083984375
-49.4384765625
-50.35400390625
-52.18505859375
-54.931640625
-49.4384765625
-57.67822265625
-54.01611328125
-50.35400390625
-53.1005859375
-56.7626953125
-61.34033203125
-61.34033203125
-63.17138671875
-58.59375
-50.35400390625
-56.7626953125
-61.34033203125
-64.0869140625
-60.4248046875
-63.17138671875
-66.83349609375
-63.17138671875
-65.91796875
-67.7490234375
-67.7490234375
-70.49560546875
-77.81982421875
-72.32666015625
-68.66455078125
-65.00244140625
-67.7490234375
-69.580078125
-68.66455078125
-65.00244140625
-69.580078125
-66.83349609375
-67.7490234375
-70.49560546875
-72.32666015625
-73.2421875
-74.15771484375
-72.32666015625
-72.32666015625
-73.2421875
-71.4111328125
-72.32666015625
-72.32666015625
-73.2421875
-81.48193359375
-77.81982421875
-65.91796875
-76.904296875
-77.81982421875
-78.7353515625
-80.56640625
-84.228515625
-86.0595703125
-87.890625
-85.14404296875
-83.31298828125
-75.0732421875
-68.66455078125
-70.49560546875
-65.91796875
-52.18505859375
-40.283203125
-39.36767578125
-37.53662109375
-36.62109375
-39.36767578125
-33.87451171875
-28.38134765625
-32.04345703125
-34.7900390625
-30.21240234375
-23.8037109375
-7.32421875
5.4931640625
13.73291015625
35.70556640625
36.62109375
27.4658203125
25.634765625
28.38134765625
25.634765625
22.88818359375
18.310546875
25.634765625
24.71923828125
7.32421875
-6.40869140625
-18.310546875
-15.56396484375
-19.22607421875
-31.1279296875
-39.36767578125
-47.607421875
-47.607421875
-74.15771484375
-76.904296875
-84.228515625
-89.7216796875
-91.552734375
-97.0458984375
-100.7080078125
-104.3701171875
-101.62353515625
-100.7080078125
-102.5390625
-97.0458984375
-106.201171875
-114.44091796875
-108.0322265625
-108.94775390625
-105.28564453125
-111.6943359375
-108.0322265625
-115.3564453125
-117.1875
-109.86328125
-111.6943359375
-109.86328125
-119.0185546875
-118.10302734375
-116.27197265625
-123.59619140625
-122.6806640625
-123.59619140625
-126.3427734375
-124.51171875
-128.173828125
-128.173828125
-127.25830078125
-128.173828125
-125.42724609375
-120.849609375
-119.93408203125
-97.96142578125
-75.0732421875
-52.18505859375
-30.21240234375
-18.310546875
26.55029296875
80.56640625
99.79248046875
142.822265625
226.13525390625
302.1240234375
368.95751953125
443.115234375
533.75244140625
573.1201171875
572.20458984375
478.82080078125
321.35009765625
237.12158203125
161.1328125
52.18505859375
-25.634765625
-65.00244140625
-65.91796875
-38.4521484375
-35.70556640625
-36.62109375
-39.36767578125
-66.83349609375
-94.29931640625
-118.10302734375
-137.3291015625
-130.92041015625
-109.86328125
-87.890625
-65.91796875
-61.34033203125
-61.34033203125
-60.4248046875
-64.0869140625
-59.50927734375
-62.255859375
-53.1005859375
-61.34033203125
-62.255859375
-55.84716796875
-56.7626953125
-61.34033203125
-60.4248046875
-54.931640625
-57.67822265625
-54.01611328125
-54.01611328125
-49.4384765625
-49.4384765625
-47.607421875
-54.931640625
-51.26953125
-46.69189453125
-46.69189453125
-43.9453125
-46.69189453125
-47.607421875
-49.4384765625
-39.36767578125
-40.283203125
-43.02978515625
-35.70556640625
-32.958984375
-25.634765625
-17.39501953125
-20.1416015625
-32.04345703125
-30.21240234375
-31.1279296875
-30.21240234375
-25.634765625
-11.90185546875
-11.90185546875
-11.90185546875
-12.8173828125
-4.57763671875
-6.40869140625
-7.32421875
-12.8173828125
-8.23974609375
0
7.32421875
10.07080078125
0
3.662109375
10.986328125
10.986328125
15.56396484375
12.8173828125
16.4794921875
23.8037109375
26.55029296875
25.634765625
31.1279296875
35.70556640625
38.4521484375
45.7763671875
47.607421875
50.35400390625
46.69189453125
57.67822265625
58.59375
58.59375
66.83349609375
65.91796875
66.83349609375
64.0869140625
67.7490234375
73.2421875
74.15771484375
72.32666015625
69.580078125
70.49560546875
65.00244140625
69.580078125
68.66455078125
65.91796875
74.15771484375
71.4111328125
65.91796875
66.83349609375
58.59375
56.7626953125
55.84716796875
56.7626953125
57.67822265625
48.52294921875
48.52294921875
46.69189453125
49.4384765625
45.7763671875
43.9453125
43.02978515625
31.1279296875
27.4658203125
33.87451171875
27.4658203125
32.958984375
32.04345703125
25.634765625
13.73291015625
12.8173828125
8.23974609375
3.662109375
4.57763671875
5.4931640625
1.8310546875
-9.1552734375
-14.6484375
-18.310546875
-17.39501953125
-15.56396484375
-22.88818359375
-16.4794921875
-10.986328125
-39.36767578125
-41.19873046875
-39.36767578125
-32.958984375
-42.1142578125
-54.01611328125
-59.50927734375
-53.1005859375
-46.69189453125
-56.7626953125
-59.50927734375
-56.7626953125
-56.7626953125
-59.50927734375
-56.7626953125
-54.931640625
-61.34033203125
-67.7490234375
-69.580078125
-67.7490234375
-63.17138671875
-55.84716796875
-55.84716796875
-56.7626953125
-52.18505859375
-54.931640625
-57.67822265625
-59.50927734375
-61.34033203125
-56.7626953125
-54.931640625
-60.4248046875
-55.84716796875
-53.1005859375
-54.931640625
-53.1005859375
-48.52294921875
-58.59375
-61.34033203125
-55.84716796875
-49.4384765625
-58.59375
-58.59375
-61.34033203125
-59.50927734375
-53.1005859375
-48.52294921875
-49.4384765625
-52.18505859375
-52.18505859375
-58.59375
-51.26953125
-51.26953125
-49.4384765625
-54.01611328125
-56.7626953125
-48.52294921875
-40.283203125
-48.52294921875
-58.59375
-52.18505859375
-56.7626953125
-50.35400390625
-46.69189453125
-43.02978515625
-46.69189453125
-54.01611328125
-56.7626953125
-53.1005859375
-54.01611328125
-62.255859375
-58.59375
-52.18505859375
-57.67822265625
-62.255859375
-57.67822265625
-52.18505859375
-53.1005859375
-55.84716796875
-56.7626953125
-60.4248046875
-48.52294921875
-54.931640625
-56.7626953125
-65.00244140625
-68.66455078125
-71.4111328125
-76.904296875
-72.32666015625
-65.91796875
-71.4111328125
-73.2421875
-68.66455078125
-72.32666015625
-75.0732421875
-77.81982421875
-75.98876953125
-71.4111328125
-80.56640625
-83.31298828125
-80.56640625
-81.48193359375
-82.3974609375
-76.904296875
-75.98876953125
-80.56640625
-84.228515625
-86.97509765625
-89.7216796875
-94.29931640625
-92.46826171875
-88.80615234375
-84.228515625
-80.56640625
-75.98876953125
-83.31298828125
-89.7216796875
-88.80615234375
-86.97509765625
-91.552734375
-92.46826171875
-96.13037109375
-96.13037109375
-86.0595703125
-84.228515625
-88.80615234375
-81.48193359375
-78.7353515625
-75.0732421875
-72.32666015625
-65.00244140625
-63.17138671875
-50.35400390625
-39.36767578125
-33.87451171875
-38.4521484375
-35.70556640625
-35.70556640625
-44.86083984375
-39.36767578125
-37.53662109375
-35.70556640625
-24.71923828125
-17.39501953125
-6.40869140625
8.23974609375
12.8173828125
21.05712890625
23.8037109375
17.39501953125
16.4794921875
9.1552734375
4.57763671875
19.22607421875
25.634765625
20.1416015625
7.32421875
-6.40869140625
-21.97265625
-32.04345703125
-38.4521484375
-32.04345703125
-38.4521484375
-52.18505859375
-63.17138671875
-65.00244140625
-75.0732421875
-90.63720703125
-102.5390625
-106.201171875
-109.86328125
-104.3701171875
-108.0322265625
-108.0322265625
-100.7080078125
-99.79248046875
-102.5390625
-107.11669921875
-106.201171875
-119.0185546875
-113.525390625
-119.0185546875
-117.1875
-119.0185546875
-119.93408203125
-117.1875
-124.51171875
-130.0048828125
-126.3427734375
-126.3427734375
-129.08935546875
-131.8359375
-127.25830078125
-125.42724609375
-129.08935546875
-139.16015625
-134.58251953125
-133.6669921875
-140.07568359375
-140.9912109375
-136.41357421875
-131.8359375
-128.173828125
-125.42724609375
-116.27197265625
-92.46826171875
-68.66455078125
-45.7763671875
-31.1279296875
-3.662109375
46.69189453125
85.14404296875
95.21484375
142.822265625
228.8818359375
308.53271484375
357.97119140625
431.21337890625
501.708984375
529.1748046875
514.5263671875
398.25439453125
259.09423828125
212.40234375
133.6669921875
31.1279296875
-16.4794921875
-40.283203125
-45.7763671875
-25.634765625
-12.8173828125
-15.56396484375
-43.02978515625
-66.83349609375
-92.46826171875
-119.93408203125
-140.9912109375
-140.07568359375
-127.25830078125
-108.0322265625
-93.3837890625
-89.7216796875
-84.228515625
-75.98876953125
-78.7353515625
-71.4111328125
-75.98876953125
-75.98876953125
-71.4111328125
-78.7353515625
-74.15771484375
-71.4111328125
-75.0732421875
-66.83349609375
-69.580078125
-73.2421875
-72.32666015625
-68.66455078125
-65.91796875
-71.4111328125
-69.580078125
-67.7490234375
-62.255859375
-54.01611328125
-53.1005859375
-60.4248046875
-55.84716796875
-43.02978515625
-43.02978515625
-49.4384765625
-46.69189453125
-45.7763671875
-47.607421875
-40.283203125
-35.70556640625
-31.1279296875
-37.53662109375
-43.9453125
-37.53662109375
-25.634765625
-24.71923828125
-22.88818359375
-19.22607421875
-19.22607421875
-27.4658203125
-28.38134765625
-14.6484375
-10.07080078125
-9.1552734375
-8.23974609375
-6.40869140625
2.74658203125
-1.8310546875
0.91552734375
2.74658203125
1.8310546875
10.07080078125
11.90185546875
8.23974609375
13.73291015625
17.39501953125
12.8173828125
16.4794921875
27.4658203125
26.55029296875
25.634765625
25.634765625
33.87451171875
42.1142578125
47.607421875
41.19873046875
35.70556640625
41.19873046875
45.7763671875
50.35400390625
47.607421875
53.1005859375
59.50927734375
61.34033203125
62.255859375
66.83349609375
59.50927734375
53.1005859375
48.52294921875
46.69189453125
52.18505859375
55.84716796875
56.7626953125
50.35400390625
52.18505859375
53.1005859375
44.86083984375
45.7763671875
45.7763671875
45.7763671875
43.02978515625
41.19873046875
41.19873046875
39.36767578125
39.36767578125
27.4658203125
16.4794921875
23.8037109375
24.71923828125
19.22607421875
21.05712890625
16.4794921875
9.1552734375
0
2.74658203125
-3.662109375
3.662109375
4.57763671875
-3.662109375
-10.07080078125
-12.8173828125
-22.88818359375
-13.73291015625
-21.05712890625
-23.8037109375
-34.7900390625
-35.70556640625
-41.19873046875
-38.4521484375
-37.53662109375
-41.19873046875
-47.607421875
-57.67822265625
-55.84716796875
-53.1005859375
-58.59375
-57.67822265625
-55.84716796875
-53.1005859375
-53.1005859375
-59.50927734375
-57.67822265625
-66.83349609375
-70.49560546875
-75.98876953125
-65.91796875
-67.7490234375
-70.49560546875
-62.255859375
-63.17138671875
-62.255859375
-67.7490234375
-70.49560546875
-65.91796875
-69.580078125
-75.0732421875
-65.91796875
-67.7490234375
-70.49560546875
-63.17138671875
-67.7490234375
-72.32666015625
-67.7490234375
-65.91796875
-67.7490234375
-63.17138671875
-59.50927734375
-61.34033203125
-65.00244140625
-61.34033203125
-65.00244140625
-72.32666015625
-66.83349609375
-67.7490234375
-63.17138671875
-62.255859375
-62.255859375
-67.7490234375
-69.580078125
-62.255859375
-59.50927734375
-54.931640625
-55.84716796875
-54.01611328125
-59.50927734375
-58.59375
-61.34033203125
-61.34033203125
-55.84716796875
-54.931640625
-56.7626953125
-58.59375
-62.255859375
-56.7626953125
-59.50927734375
-63.17138671875
-65.91796875
-61.34033203125
-57.67822265625
-58.59375
-58.59375
-63.17138671875
-57.67822265625
-57.67822265625
-65.91796875
-68.66455078125
-60.4248046875
-66.83349609375
-66.83349609375
-68.66455078125
-65.00244140625
-66.83349609375
-65.00244140625
-67.7490234375
-71.4111328125
-72.32666015625
-70.49560546875
-74.15771484375
-72.32666015625
-73.2421875
-76.904296875
-68.66455078125
-68.66455078125
-74.15771484375
-74.15771484375
-78.7353515625
-81.48193359375
-79.65087890625
-80.56640625
-85.14404296875
-79.65087890625
-78.7353515625
-81.48193359375
-79.65087890625
-76.904296875
-86.97509765625
-84.228515625
-86.0595703125
-87.890625
-85.14404296875
-86.0595703125
-86.0595703125
-89.7216796875
-91.552734375
-92.46826171875
-93.3837890625
-88.80615234375
-86.97509765625
-83.31298828125
-75.98876953125
-76.904296875
-63.17138671875
-58.59375
-49.4384765625
-46.69189453125
-45.7763671875
-43.02978515625
-40.283203125
-42.1142578125
-50.35400390625
-35.70556640625
-25.634765625
-28.38134765625
-23.8037109375
-4.57763671875
9.1552734375
18.310546875
30.21240234375
38.4521484375
43.02978515625
54.01611328125
55.84716796875
45.7763671875
40.283203125
40.283203125
38.4521484375
30.21240234375
32.04345703125
34.7900390625
32.04345703125
30.21240234375
25.634765625
13.73291015625
-3.662109375
-22.88818359375
-24.71923828125
-43.9453125
-58.59375
-59.50927734375
-65.00244140625
-67.7490234375
-74.15771484375
-78.7353515625
-88.80615234375
-91.552734375
-102.5390625
-109.86328125
-113.525390625
-111.6943359375
-114.44091796875
-117.1875
-116.27197265625
-123.59619140625
-111.6943359375
-119.93408203125
-119.0185546875
-121.76513671875
-125.42724609375
-123.59619140625
-125.42724609375
-130.0048828125
-128.173828125
-130.92041015625
-137.3291015625
-135.498046875
-139.16015625
-140.9912109375
-148.3154296875
-152.89306640625
-147.39990234375
-134.58251953125
-134.58251953125
-132.75146484375
-126.3427734375
-128.173828125
-109.86328125
-88.80615234375
-69.580078125
-48.52294921875
-14.6484375
34.7900390625
80.56640625
99.79248046875
140.07568359375
227.96630859375
296.630859375
372.61962890625
451.35498046875
530.09033203125
574.951171875
560.302734375
457.763671875
299.37744140625
205.99365234375
116.27197265625
6.40869140625
-62.255859375
-98.876953125
-108.0322265625
-88.80615234375
-72.32666015625
-76.904296875
-76.904296875
-86.0595703125
-118.10302734375
-141.90673828125
-152.89306640625
-138.24462890625
-117.1875
-88.80615234375
-76.904296875
-72.32666015625
-74.15771484375
-71.4111328125
-71.4111328125
-84.228515625
-72.32666015625
-77.81982421875
-77.81982421875
-75.0732421875
-75.98876953125
-75.0732421875
-71.4111328125
-67.7490234375
-74.15771484375
-74.15771484375
-74.15771484375
-70.49560546875
-68.66455078125
-65.00244140625
-66.83349609375
-68.66455078125
-70.49560546875
-67.7490234375
-74.15771484375
-67.7490234375
-58.59375
-52.18505859375
-49.4384765625
-47.607421875
-41.19873046875
-45.7763671875
-48.52294921875
-46.69189453125
-44.86083984375
-49.4384765625
-33.87451171875
-38.4521484375
-34.7900390625
-37.53662109375
-36.62109375
-29.296875
-21.97265625
-36.62109375
-29.296875
-25.634765625
-24.71923828125
-18.310546875
-12.8173828125
-4.57763671875
-8.23974609375
-9.1552734375
-4.57763671875
0
2.74658203125
6.40869140625
8.23974609375
12.8173828125
9.1552734375
13.73291015625
19.22607421875
22.88818359375
23.8037109375
27.4658203125
34.7900390625
35.70556640625
26.55029296875
29.296875
45.7763671875
49.4384765625
54.01611328125
58.59375
65.91796875
68.66455078125
73.2421875
79.65087890625
71.4111328125
78.7353515625
80.56640625
81.48193359375
75.0732421875
77.81982421875
77.81982421875
73.2421875
80.56640625
75.98876953125
73.2421875
76.904296875
75.98876953125
72.32666015625
69.580078125
72.32666015625
66.83349609375
70.49560546875
70.49560546875
66.83349609375
61.34033203125
54.931640625
57.67822265625
51.26953125
49.4384765625
48.52294921875
45.7763671875
30.21240234375
26.55029296875
26.55029296875
21.05712890625
13.73291015625
13.73291015625
9.1552734375
9.1552734375
1.8310546875
0
1.8310546875
0
-11.90185546875
-15.56396484375
-15.56396484375
-21.97265625
-30.21240234375
-29.296875
-31.1279296875
-32.04345703125
-31.1279296875
-36.62109375
-48.52294921875
-46.69189453125
-47.607421875
-48.52294921875
-58.59375
-61.34033203125
-54.931640625
-54.01611328125
-58.59375
-58.59375
-60.4248046875
-62.255859375
-62.255859375
-66.83349609375
-62.255859375
-63.17138671875
-68.66455078125
-73.2421875
-71.4111328125
-72.32666015625
-71.4111328125
-79.65087890625
-74.15771484375
-73.2421875
-71.4111328125
-70.49560546875
-67.7490234375
-61.34033203125
-57.67822265625
-64.0869140625
-67.7490234375
-69.580078125
-75.0732421875
-72.32666015625
-60.4248046875
-62.255859375
-65.91796875
-66.83349609375
-64.0869140625
-62.255859375
-64.0869140625
-56.7626953125
-61.34033203125
-58.59375
-53.1005859375
-55.84716796875
-57.67822265625
-59.50927734375
-55.84716796875
-56.7626953125
-61.34033203125
-64.0869140625
-62.255859375
-61.34033203125
-54.01611328125
-54.931640625
-51.26953125
-50.35400390625
-59.50927734375
-54.931640625
-54.01611328125
-54.931640625
-56.7626953125
-55.84716796875
-53.1005859375
-61.34033203125
-60.4248046875
-57.67822265625
-54.931640625
-58.59375
-59.50927734375
-58.59375
-57.67822265625
-61.34033203125
-54.01611328125
-56.7626953125
-59.50927734375
-55.84716796875
-59.50927734375
-56.7626953125
-65.91796875
-64.0869140625
-66.83349609375
-66.83349609375
-63.17138671875
-64.0869140625
-64.0869140625
-69.580078125
-70.49560546875
-69.580078125
-72.32666015625
-75.0732421875
-72.32666015625
-73.2421875
-69.580078125
-68.66455078125
-68.66455078125
-68.66455078125
-71.4111328125
-78.7353515625
-78.7353515625
-82.3974609375
-85.14404296875
-83.31298828125
-84.228515625
-74.15771484375
-78.7353515625
-81.48193359375
-83.31298828125
-75.98876953125
-77.81982421875
-85.14404296875
-82.3974609375
-82.3974609375
-84.228515625
-77.81982421875
-76.904296875
-78.7353515625
-81.48193359375
-76.904296875
-75.0732421875
-68.66455078125
-59.50927734375
-56.7626953125
-46.69189453125
-40.283203125
-33.87451171875
-29.296875
-25.634765625
-14.6484375
-14.6484375
-15.56396484375
-21.05712890625
-21.05712890625
-19.22607421875
-10.07080078125
10.986328125
27.4658203125
39.36767578125
55.84716796875
57.67822265625
65.00244140625
57.67822265625
54.01611328125
55.84716796875
51.26953125
44.86083984375
55.84716796875
51.26953125
49.4384765625
49.4384765625
43.9453125
39.36767578125
34.7900390625
30.21240234375
12.8173828125
10.07080078125
-0.91552734375
-14.6484375
-33.87451171875
-49.4384765625
-57.67822265625
-60.4248046875
-64.0869140625
-73.2421875
-75.98876953125
-82.3974609375
-86.97509765625
-91.552734375
-96.13037109375
-109.86328125
-109.86328125
-104.3701171875
-103.45458984375
-109.86328125
-110.77880859375
-111.6943359375
-111.6943359375
-113.525390625
-119.0185546875
-119.93408203125
-123.59619140625
-124.51171875
-128.173828125
-125.42724609375
-120.849609375
-131.8359375
-126.3427734375
-126.3427734375
-139.16015625
-143.73779296875
-149.23095703125
-147.39990234375
-142.822265625
-143.73779296875
-139.16015625
-144.6533203125
-127.25830078125
-103.45458984375
-76.904296875
-59.50927734375
-22.88818359375
22.88818359375
73.2421875
108.0322265625
140.07568359375
227.96630859375
320.4345703125
402.83203125
491.63818359375
574.03564453125
635.3759765625
649.10888671875
564.88037109375
416.56494140625
290.22216796875
172.119140625
33.87451171875
-83.31298828125
-141.90673828125
-138.24462890625
-133.6669921875
-115.3564453125
-108.0322265625
-105.28564453125
-106.201171875
-123.59619140625
-137.3291015625
-136.41357421875
-122.6806640625
-103.45458984375
-85.14404296875
-74.15771484375
-63.17138671875
-68.66455078125
-65.00244140625
-66.83349609375
-67.7490234375
-69.580078125
-69.580078125
-72.32666015625
-66.83349609375
-61.34033203125
-65.00244140625
-68.66455078125
-70.49560546875
-67.7490234375
-62.255859375
-66.83349609375
-70.49560546875
-60.4248046875
-59.50927734375
-58.59375
-55.84716796875
-51.26953125
-49.4384765625
-48.52294921875
-43.02978515625
-43.9453125
-46.69189453125
-47.607421875
-48.52294921875
-43.9453125
-43.02978515625
-38.4521484375
-36.62109375
-30.21240234375
-22.88818359375
-30.21240234375
-31.1279296875
-23.8037109375
-22.88818359375
-20.1416015625
-20.1416015625
-21.05712890625
-12.8173828125
-10.07080078125
-13.73291015625
-16.4794921875
-7.32421875
-0.91552734375
0.91552734375
1.8310546875
4.57763671875
4.57763671875
4.57763671875
9.1552734375
12.8173828125
15.56396484375
21.05712890625
24.71923828125
25.634765625
32.958984375
47.607421875
36.62109375
41.19873046875
46.69189453125
50.35400390625
56.7626953125
65.91796875
62.255859375
61.34033203125
61.34033203125
73.2421875
76.904296875
77.81982421875
85.14404296875
90.63720703125
93.3837890625
95.21484375
96.13037109375
98.876953125
107.11669921875
102.5390625
104.3701171875
104.3701171875
103.45458984375
97.0458984375
93.3837890625
97.0458984375
95.21484375
90.63720703125
86.97509765625
81.48193359375
83.31298828125
86.97509765625
86.0595703125
84.228515625
82.3974609375
75.98876953125
70.49560546875
73.2421875
63.17138671875
65.91796875
66.83349609375
57.67822265625
49.4384765625
52.18505859375
50.35400390625
42.1142578125
31.1279296875
25.634765625
21.97265625
20.1416015625
12.8173828125
10.986328125
10.07080078125
5.4931640625
-1.8310546875
-7.32421875
-5.4931640625
-11.90185546875
-15.56396484375
-19.22607421875
-28.38134765625
-27.4658203125
-30.21240234375
-36.62109375
-40.283203125
-41.19873046875
-44.86083984375
-53.1005859375
-47.607421875
-51.26953125
-56.7626953125
-52.18505859375
-48.52294921875
-54.931640625
-55.84716796875
-58.59375
-59.50927734375
-66.83349609375
-65.00244140625
-64.0869140625
-60.4248046875
-63.17138671875
-65.00244140625
-64.0869140625
-62.255859375
-65.00244140625
-62.255859375
-62.255859375
-61.34033203125
-65.00244140625
-56.7626953125
-58.59375
-61.34033203125
-48.52294921875
-57.67822265625
-55.84716796875
-57.67822265625
-51.26953125
-54.931640625
-54.931640625
-50.35400390625
-48.52294921875
-45.7763671875
-46.69189453125
-46.69189453125
-51.26953125
-52.18505859375
-49.4384765625
-46.69189453125
-37.53662109375
-42.1142578125
-40.283203125
-46.69189453125
-48.52294921875
-49.4384765625
-48.52294921875
-49.4384765625
-54.01611328125
-53.1005859375
-50.35400390625
-45.7763671875
-39.36767578125
-53.1005859375
-48.52294921875
-46.69189453125
-49.4384765625
-45.7763671875
-43.02978515625
-45.7763671875
-45.7763671875
-43.9453125
-32.958984375
-45.7763671875
-47.607421875
-48.52294921875
-51.26953125
-52.18505859375
-54.01611328125
-58.59375
-62.255859375
-55.84716796875
-59.50927734375
-57.67822265625
-59.50927734375
-58.59375
-54.931640625
-56.7626953125
-64.0869140625
-59.50927734375
-61.34033203125
-65.00244140625
-62.255859375
-65.00244140625
-70.49560546875
-59.50927734375
-56.7626953125
-62.255859375
-68.66455078125
-66.83349609375
-69.580078125
-65.00244140625
-65.00244140625
-66.83349609375
-66.83349609375
-68.66455078125
-67.7490234375
-73.2421875
-77.81982421875
-73.2421875
-71.4111328125
-75.98876953125
-72.32666015625
-73.2421875
-72.32666015625
-66.83349609375
-72.32666015625
-74.15771484375
-76.904296875
-77.81982421875
-83.31298828125
-84.228515625
-76.904296875
-75.0732421875
-76.904296875
-68.66455078125
-71.4111328125
-77.81982421875
-81.48193359375
-75.98876953125
-76.904296875
-85.14404296875
-86.97509765625
-92.46826171875
-81.48193359375
-75.98876953125
-77.81982421875
-77.81982421875
-76.904296875
-69.580078125
-64.0869140625
-66.83349609375
-65.91796875
-53.1005859375
-42.1142578125
-34.7900390625
-24.71923828125
-32.04345703125
-26.55029296875
-22.88818359375
-26.55029296875
-15.56396484375
-5.4931640625
-16.4794921875
-21.05712890625
-0.91552734375
21.05712890625
32.958984375
51.26953125
55.84716796875
56.7626953125
61.34033203125
52.18505859375
52.18505859375
49.4384765625
52.18505859375
50.35400390625
53.1005859375
50.35400390625
50.35400390625
45.7763671875
33.87451171875
31.1279296875
29.296875
18.310546875
-4.57763671875
-24.71923828125
-30.21240234375
-37.53662109375
-44.86083984375
-59.50927734375
-67.7490234375
-74.15771484375
-73.2421875
-74.15771484375
-84.228515625
-89.7216796875
-96.13037109375
-103.45458984375
-106.201171875
-106.201171875
-115.3564453125
-108.0322265625
-107.11669921875
-110.77880859375
-112.60986328125
-118.10302734375
-117.1875
-114.44091796875
-122.6806640625
-123.59619140625
-114.44091796875
-116.27197265625
-119.93408203125
-123.59619140625
-130.92041015625
-129.08935546875
-135.498046875
-137.3291015625
-136.41357421875
-147.39990234375
-147.39990234375
-136.41357421875
-137.3291015625
-139.16015625
-142.822265625
-144.6533203125
-121.76513671875
-97.0458984375
-83.31298828125
-57.67822265625
-15.56396484375
49.4384765625
101.62353515625
124.51171875
187.68310546875
276.4892578125
369.873046875
458.67919921875
550.23193359375
632.62939453125
665.58837890625
616.14990234375
482.48291015625
335.0830078125
227.96630859375
92.46826171875
-67.7490234375
-162.9638671875
-173.9501953125
-151.9775390625
-130.92041015625
-123.59619140625
-114.44091796875
-111.6943359375
-117.1875
-133.6669921875
-140.07568359375
-136.41357421875
-119.0185546875
-92.46826171875
-76.904296875
-75.0732421875
-77.81982421875
-65.91796875
-68.66455078125
-69.580078125
-71.4111328125
-74.15771484375
-74.15771484375
-70.49560546875
-72.32666015625
-75.98876953125
-74.15771484375
-73.2421875
-64.0869140625
-65.91796875
-73.2421875
-71.4111328125
-67.7490234375
-65.91796875
-72.32666015625
-70.49560546875
-65.91796875
-62.255859375
-59.50927734375
-57.67822265625
-55.84716796875
-53.1005859375
-54.931640625
-57.67822265625
-56.7626953125
-48.52294921875
-42.1142578125
-39.36767578125
-42.1142578125
-39.36767578125
-37.53662109375
-38.4521484375
-37.53662109375
-35.70556640625
-27.4658203125
-23.8037109375
-23.8037109375
-26.55029296875
-23.8037109375
-12.8173828125
-9.1552734375
-6.40869140625
-13.73291015625
-8.23974609375
-2.74658203125
-2.74658203125
-1.8310546875
8.23974609375
12.8173828125
10.07080078125
16.4794921875
16.4794921875
16.4794921875
24.71923828125
34.7900390625
37.53662109375
38.4521484375
40.283203125
47.607421875
56.7626953125
62.255859375
61.34033203125
61.34033203125
65.91796875
77.81982421875
84.228515625
79.65087890625
80.56640625
85.14404296875
93.3837890625
95.21484375
95.21484375
97.96142578125
97.96142578125
99.79248046875
102.5390625
104.3701171875
104.3701171875
99.79248046875
99.79248046875
97.96142578125
96.13037109375
97.0458984375
92.46826171875
93.3837890625
91.552734375
88.80615234375
86.0595703125
84.228515625
87.890625
83.31298828125
81.48193359375
74.15771484375
71.4111328125
69.580078125
67.7490234375
65.91796875
64.0869140625
53.1005859375
51.26953125
57.67822265625
56.7626953125
34.7900390625
19.22607421875
27.4658203125
27.4658203125
24.71923828125
26.55029296875
21.97265625
10.986328125
8.23974609375
1.8310546875
-2.74658203125
-8.23974609375
-15.56396484375
-19.22607421875
-20.1416015625
-19.22607421875
-23.8037109375
-31.1279296875
-28.38134765625
-29.296875
-34.7900390625
-33.87451171875
-43.02978515625
-42.1142578125
-42.1142578125
-47.607421875
-51.26953125
-50.35400390625
-52.18505859375
-50.35400390625
-52.18505859375
-49.4384765625
-48.52294921875
-56.7626953125
-58.59375
-54.01611328125
-48.52294921875
-54.931640625
-59.50927734375
-53.1005859375
-54.931640625
-53.1005859375
-54.931640625
-54.01611328125
-58.59375
-49.4384765625
-52.18505859375
-54.01611328125
-54.01611328125
-55.84716796875
-55.84716796875
-58.59375
-50.35400390625
-48.52294921875
-44.86083984375
-48.52294921875
-46.69189453125
-43.9453125
-46.69189453125
-54.01611328125
-47.607421875
-46.69189453125
-43.02978515625
-46.69189453125
-43.02978515625
-45.7763671875
-46.69189453125
-43.02978515625
-43.9453125
-37.53662109375
-41.19873046875
-36.62109375
-42.1142578125
-45.7763671875
-47.607421875
-46.69189453125
-43.9453125
-42.1142578125
-44.86083984375
-38.4521484375
-43.9453125
-43.02978515625
-44.86083984375
-47.607421875
-43.02978515625
-44.86083984375
-44.86083984375
-43.02978515625
-42.1142578125
-44.86083984375
-45.7763671875
-41.19873046875
-43.9453125
-53.1005859375
-51.26953125
-53.1005859375
-50.35400390625
-49.4384765625
-46.69189453125
-54.01611328125
-54.01611328125
-57.67822265625
-48.52294921875
-56.7626953125
-59.50927734375
-57.67822265625
-59.50927734375
-59.50927734375
-59.50927734375
-66.83349609375
-58.59375
-64.0869140625
-60.4248046875
-62.255859375
-57.67822265625
-58.59375
-57.67822265625
-63.17138671875
-67.7490234375
-65.91796875
-66.83349609375
-66.83349609375
-61.34033203125
-60.4248046875
-64.0869140625
-61.34033203125
-67.7490234375
-75.98876953125
-75.98876953125
-68.66455078125
-69.580078125
-65.00244140625
-72.32666015625
-76.904296875
-75.98876953125
-74.15771484375
-74.15771484375
-72.32666015625
-79.65087890625
-77.81982421875
-73.2421875
-72.32666015625
-73.2421875
-77.81982421875
-75.98876953125
-72.32666015625
-74.15771484375
-75.98876953125
-78.7353515625
-83.31298828125
-80.56640625
-76.904296875
-79.65087890625
-85.14404296875
-86.0595703125
-75.98876953125
-75.98876953125
-80.56640625
-76.904296875
-76.904296875
-78.7353515625
-77.81982421875
-78.7353515625
-81.48193359375
-79.65087890625
-80.56640625
-78.7353515625
-71.4111328125
-68.66455078125
-66.83349609375
-57.67822265625
-42.1142578125
-38.4521484375
-33.87451171875
-23.8037109375
-20.1416015625
-17.39501953125
-21.97265625
-21.97265625
-4.57763671875
-10.07080078125
-11.90185546875
-8.23974609375
14.6484375
19.22607421875
39.36767578125
60.4248046875
57.67822265625
56.7626953125
58.59375
53.1005859375
54.931640625
46.69189453125
45.7763671875
52.18505859375
45.7763671875
44.86083984375
41.19873046875
36.62109375
21.97265625
8.23974609375
0
-6.40869140625
-20.1416015625
-19.22607421875
-35.70556640625
-46.69189453125
-58.59375
-59.50927734375
-67.7490234375
-75.98876953125
-83.31298828125
-81.48193359375
-82.3974609375
-89.7216796875
-97.96142578125
-102.5390625
-100.7080078125
-107.11669921875
-110.77880859375
-106.201171875
-103.45458984375
-97.0458984375
-104.3701171875
-108.0322265625
-106.201171875
-107.11669921875
-109.86328125
-111.6943359375
-111.6943359375
-107.11669921875
-113.525390625
-112.60986328125
-113.525390625
-121.76513671875
-119.0185546875
-112.60986328125
-120.849609375
-126.3427734375
-126.3427734375
-129.08935546875
-127.25830078125
-124.51171875
-120.849609375
-123.59619140625
-101.62353515625
-79.65087890625
-58.59375
-24.71923828125
14.6484375
69.580078125
114.44091796875
139.16015625
217.8955078125
302.1240234375
382.6904296875
462.34130859375
550.23193359375
622.55859375
640.869140625
587.7685546875
442.19970703125
302.1240234375
195.00732421875
56.7626953125
-81.48193359375
-150.146484375
-143.73779296875
-135.498046875
-119.0185546875
-106.201171875
-96.13037109375
-99.79248046875
-118.10302734375
-126.3427734375
-126.3427734375
-117.1875
-99.79248046875
-74.15771484375
-54.931640625
-51.26953125
-49.4384765625
-49.4384765625
-56.7626953125
-58.59375
-56.7626953125
-58.59375
-58.59375
-58.59375
-52.18505859375
-58.59375
-53.1005859375
-53.1005859375
-51.26953125
-50.35400390625
-51.26953125
-49.4384765625
-49.4384765625
-35.70556640625
-32.958984375
-49.4384765625
-46.69189453125
-37.53662109375
-45.7763671875
-35.70556640625
-35.70556640625
-31.1279296875
-25.634765625
-37.53662109375
-39.36767578125
-33.87451171875
-30.21240234375
-28.38134765625
-22.88818359375
-19.22607421875
-21.97265625
-22.88818359375
-17.39501953125
-9.1552734375
-13.73291015625
-15.56396484375
-9.1552734375
-17.39501953125
-10.07080078125
0
-0.91552734375
13.73291015625
9.1552734375
5.4931640625
2.74658203125
4.57763671875
20.1416015625
21.97265625
20.1416015625
32.958984375
30.21240234375
31.1279296875
24.71923828125
29.296875
33.87451171875
29.296875
46.69189453125
54.01611328125
53.1005859375
54.01611328125
53.1005859375
63.17138671875
72.32666015625
76.904296875
75.0732421875
76.904296875
77.81982421875
83.31298828125
84.228515625
87.890625
97.0458984375
111.6943359375
98.876953125
97.96142578125
94.29931640625
97.96142578125
89.7216796875
84.228515625
94.29931640625
95.21484375
94.29931640625
86.0595703125
91.552734375
87.890625
80.56640625
75.0732421875
71.4111328125
81.48193359375
82.3974609375
80.56640625
74.15771484375
71.4111328125
71.4111328125
64.0869140625
64.0869140625
54.01611328125
55.84716796875
54.931640625
50.35400390625
48.52294921875
46.69189453125
40.283203125
23.8037109375
32.04345703125
21.05712890625
21.97265625
16.4794921875
10.986328125
6.40869140625
1.8310546875
0.91552734375
-0.91552734375
-10.07080078125
-6.40869140625
-3.662109375
-5.4931640625
-12.8173828125
-18.310546875
-17.39501953125
-29.296875
-32.958984375
-32.958984375
-29.296875
-42.1142578125
-36.62109375
-35.70556640625
-43.9453125
-54.01611328125
-54.931640625
-42.1142578125
-43.9453125
-46.69189453125
-47.607421875
-47.607421875
-43.9453125
-48.52294921875
-56.7626953125
-50.35400390625
-56.7626953125
-54.931640625
-52.18505859375
-49.4384765625
-56.7626953125
-51.26953125
-51.26953125
-45.7763671875
-54.01611328125
-47.607421875
-52.18505859375
-44.86083984375
-46.69189453125
-51.26953125
-51.26953125
-50.35400390625
-51.26953125
-57.67822265625
-62.255859375
-52.18505859375
-49.4384765625
-43.9453125
-51.26953125
-43.9453125
-50.35400390625
-42.1142578125
-34.7900390625
-42.1142578125
-43.9453125
-39.36767578125
-32.04345703125
-40.283203125
-31.1279296875
-37.53662109375
-32.958984375
-32.958984375
-43.02978515625
-48.52294921875
-42.1142578125
-32.958984375
-27.4658203125
-34.7900390625
-37.53662109375
-41.19873046875
-45.7763671875
-29.296875
-36.62109375
-40.283203125
-43.9453125
-47.607421875
-53.1005859375
-47.607421875
-46.69189453125
-39.36767578125
-39.36767578125
-44.86083984375
-48.52294921875
-45.7763671875
-40.283203125
-32.04345703125
-42.1142578125
-46.69189453125
-47.607421875
-48.52294921875
-58.59375
-55.84716796875
-59.50927734375
-59.50927734375
-52.18505859375
-54.01611328125
-58.59375
-63.17138671875
-57.67822265625
-49.4384765625
-53.1005859375
-57.67822265625
-63.17138671875
-61.34033203125
-63.17138671875
-61.34033203125
-57.67822265625
-63.17138671875
-60.4248046875
-62.255859375
-60.4248046875
-70.49560546875
-72.32666015625
-69.580078125
-64.0869140625
-68.66455078125
-73.2421875
-65.00244140625
-65.91796875
-70.49560546875
-65.91796875
-77.81982421875
-71.4111328125
-78.7353515625
-85.14404296875
-77.81982421875
-70.49560546875
-68.66455078125
-67.7490234375
-71.4111328125
-75.0732421875
-73.2421875
-76.904296875
-76.904296875
-77.81982421875
-74.15771484375
-75.98876953125
-75.98876953125
-78.7353515625
-85.14404296875
-82.3974609375
-78.7353515625
-74.15771484375
-72.32666015625
-77.81982421875
-79.65087890625
-75.98876953125
-73.2421875
-76.904296875
-69.580078125
-74.15771484375
-70.49560546875
-62.255859375
-57.67822265625
-40.283203125
-24.71923828125
-29.296875
-32.04345703125
-31.1279296875
-28.38134765625
-34.7900390625
-32.04345703125
-20.1416015625
-26.55029296875
-14.6484375
-10.07080078125
5.4931640625
32.04345703125
38.4521484375
50.35400390625
54.01611328125
49.4384765625
39.36767578125
33.87451171875
32.958984375
36.62109375
32.958984375
32.04345703125
22.88818359375
19.22607421875
5.4931640625
1.8310546875
8.23974609375
-12.8173828125
-16.4794921875
-28.38134765625
-41.19873046875
-47.607421875
-43.9453125
-60.4248046875
-75.98876953125
-76.904296875
-76.904296875
-80.56640625
-83.31298828125
-86.97509765625
-94.29931640625
-95.21484375
-101.62353515625
-96.13037109375
-98.876953125
-95.21484375
-104.3701171875
-97.0458984375
-104.3701171875
-107.11669921875
-105.28564453125
-109.86328125
-108.94775390625
-108.94775390625
-108.0322265625
-108.94775390625
-108.0322265625
-120.849609375
-121.76513671875
-122.6806640625
-120.849609375
-125.42724609375
-122.6806640625
-127.25830078125
-131.8359375
-127.25830078125
-133.6669921875
-121.76513671875
-107.11669921875
-108.94775390625
-107.11669921875
-89.7216796875
-66.83349609375
-36.62109375
-19.22607421875
20.1416015625
77.81982421875
113.525390625
122.6806640625
170.2880859375
257.26318359375
322.265625
386.3525390625
466.00341796875
531.005859375
552.06298828125
521.8505859375
390.93017578125
268.24951171875
216.064453125
120.849609375
24.71923828125
-21.97265625
-38.4521484375
-34.7900390625
-5.4931640625
-3.662109375
-15.56396484375
-36.62109375
-57.67822265625
-97.96142578125
-116.27197265625
-126.3427734375
-121.76513671875
-102.5390625
-89.7216796875
-82.3974609375
-63.17138671875
-55.84716796875
-61.34033203125
-61.34033203125
-59.50927734375
-45.7763671875
-47.607421875
-60.4248046875
-48.52294921875
-59.50927734375
-68.66455078125
-65.00244140625
-54.01611328125
-56.7626953125
-54.01611328125
-54.01611328125
-50.35400390625
-55.84716796875
-46.69189453125
-55.84716796875
-50.35400390625
-44.86083984375
-52.18505859375
-50.35400390625
-44.86083984375
-46.69189453125
-43.9453125
-36.62109375
-32.958984375
-39.36767578125
-33.87451171875
-38.4521484375
-37.53662109375
-36.62109375
-29.296875
-21.97265625
-21.05712890625
-13.73291015625
-21.05712890625
-28.38134765625
-21.05712890625
-22.88818359375
-13.73291015625
-12.8173828125
-6.40869140625
-10.07080078125
-10.07080078125
-7.32421875
-5.4931640625
5.4931640625
6.40869140625
1.8310546875
2.74658203125
11.90185546875
12.8173828125
20.1416015625
23.8037109375
23.8037109375
21.97265625
16.4794921875
30.21240234375
39.36767578125
30.21240234375
30.21240234375
36.62109375
43.9453125
46.69189453125
50.35400390625
54.01611328125
53.1005859375
59.50927734375
53.1005859375
63.17138671875
53.1005859375
64.0869140625
70.49560546875
71.4111328125
68.66455078125
65.00244140625
54.931640625
52.18505859375
62.255859375
66.83349609375
67.7490234375
62.255859375
66.83349609375
68.66455078125
65.00244140625
64.0869140625
60.4248046875
54.931640625
57.67822265625
56.7626953125
46.69189453125
46.69189453125
43.9453125
43.9453125
43.9453125
34.7900390625
31.1279296875
24.71923828125
23.8037109375
29.296875
31.1279296875
21.97265625
19.22607421875
15.56396484375
15.56396484375
10.07080078125
11.90185546875
3.662109375
9.1552734375
-3.662109375
-3.662109375
-7.32421875
-8.23974609375
-5.4931640625
-10.07080078125
-15.56396484375
-16.4794921875
-17.39501953125
-16.4794921875
-27.4658203125
-23.8037109375
-27.4658203125
-32.04345703125
-33.87451171875
-43.02978515625
-43.02978515625
-36.62109375
-39.36767578125
-40.283203125
-45.7763671875
-53.1005859375
-50.35400390625
-50.35400390625
-55.84716796875
-54.931640625
-43.9453125
-43.9453125
-54.931640625
-53.1005859375
-53.1005859375
-45.7763671875
-47.607421875
-56.7626953125
-56.7626953125
-53.1005859375
-54.01611328125
-52.18505859375
-54.931640625
-57.67822265625
-52.18505859375
-53.1005859375
-49.4384765625
-52.18505859375
-47.607421875
-47.607421875
-55.84716796875
-48.52294921875
-45.7763671875
-43.9453125
-46.69189453125
-42.1142578125
-48.52294921875
-50.35400390625
-40.283203125
-40.283203125
-38.4521484375
-39.36767578125
-43.02978515625
-42.1142578125
-39.36767578125
-39.36767578125
-44.86083984375
-33.87451171875
-35.70556640625
-36.62109375
-34.7900390625
-28.38134765625
-36.62109375
-32.958984375
-39.36767578125
-33.87451171875
-32.04345703125
-28.38134765625
-35.70556640625
-32.04345703125
-32.04345703125
-33.87451171875
-43.02978515625
-38.4521484375
-33.87451171875
-42.1142578125
-38.4521484375
-30.21240234375
-41.19873046875
-43.02978515625
-45.7763671875
-42.1142578125
-41.19873046875
-41.19873046875
-45.7763671875
-47.607421875
-48.52294921875
-49.4384765625
-36.62109375
-51.26953125
-54.931640625
-50.35400390625
-45.7763671875
-43.02978515625
-47.607421875
-54.01611328125
-51.26953125
-55.84716796875
-55.84716796875
-60.4248046875
-55.84716796875
-52.18505859375
-51.26953125
-50.35400390625
-55.84716796875
-58.59375
-62.255859375
-62.255859375
-52.18505859375
-56.7626953125
-63.17138671875
-64.0869140625
-59.50927734375
-74.15771484375
-74.15771484375
-65.00244140625
-71.4111328125
-74.15771484375
-71.4111328125
-67.7490234375
-68.66455078125
-69.580078125
-71.4111328125
-71.4111328125
-75.0732421875
-67.7490234375
-71.4111328125
-76.904296875
-74.15771484375
-64.0869140625
-71.4111328125
-67.7490234375
-73.2421875
-80.56640625
-76.904296875
-74.15771484375
-70.49560546875
-63.17138671875
-65.00244140625
-55.84716796875
-46.69189453125
-36.62109375
-33.87451171875
-31.1279296875
-25.634765625
-22.88818359375
-22.88818359375
-24.71923828125
-15.56396484375
-22.88818359375
-19.22607421875
-5.4931640625
10.986328125
24.71923828125
32.958984375
47.607421875
50.35400390625
52.18505859375
55.84716796875
58.59375
61.34033203125
50.35400390625
46.69189453125
49.4384765625
54.01611328125
51.26953125
42.1142578125
42.1142578125
40.283203125
33.87451171875
32.04345703125
20.1416015625
-1.8310546875
-21.97265625
-28.38134765625
-32.958984375
-40.283203125
-50.35400390625
-56.7626953125
-62.255859375
-65.91796875
-75.98876953125
-75.98876953125
-90.63720703125
-90.63720703125
-96.13037109375
-100.7080078125
-100.7080078125
-97.96142578125
-95.21484375
-98.876953125
-100.7080078125
-104.3701171875
-109.86328125
-112.60986328125
-104.3701171875
-103.45458984375
-108.94775390625
-106.201171875
-107.11669921875
-113.525390625
-115.3564453125
-110.77880859375
-114.44091796875
-112.60986328125
-119.93408203125
-128.173828125
-133.6669921875
-133.6669921875
-122.6806640625
-114.44091796875
-110.77880859375
-112.60986328125
-102.5390625
-76.904296875
-48.52294921875
-34.7900390625
-12.8173828125
21.05712890625
70.49560546875
107.11669921875
114.44091796875
167.54150390625
250.8544921875
328.67431640625
390.93017578125
470.5810546875
528.25927734375
559.38720703125
531.92138671875
392.76123046875
271.91162109375
206.9091796875
114.44091796875
26.55029296875
-24.71923828125
-53.1005859375
-46.69189453125
-25.634765625
-17.39501953125
-21.97265625
-43.02978515625
-74.15771484375
-108.94775390625
-127.25830078125
-140.07568359375
-131.8359375
-115.3564453125
-91.552734375
-75.0732421875
-72.32666015625
-64.0869140625
-73.2421875
-72.32666015625
-65.91796875
-68.66455078125
-65.00244140625
-63.17138671875
-74.15771484375
-63.17138671875
-65.91796875
-70.49560546875
-62.255859375
-58.59375
-66.83349609375
-61.34033203125
-64.0869140625
-58.59375
-59.50927734375
-54.931640625
-56.7626953125
-56.7626953125
-53.1005859375
-52.18505859375
-55.84716796875
-54.01611328125
-52.18505859375
-43.9453125
-45.7763671875
-43.9453125
-43.9453125
-39.36767578125
-32.04345703125
-32.04345703125
-35.70556640625
-34.7900390625
-32.04345703125
-25.634765625
-21.97265625
-19.22607421875
-26.55029296875
-21.97265625
-20.1416015625
-19.22607421875
-8.23974609375
0
-7.32421875
-9.1552734375
-9.1552734375
2.74658203125
6.40869140625
1.8310546875
-0.91552734375
-1.8310546875
12.8173828125
13.73291015625
14.6484375
23.8037109375
22.88818359375
21.05712890625
31.1279296875
24.71923828125
32.958984375
42.1142578125
46.69189453125
38.4521484375
39.36767578125
54.931640625
61.34033203125
50.35400390625
61.34033203125
55.84716796875
54.01611328125
59.50927734375
63.17138671875
70.49560546875
67.7490234375
68.66455078125
72.32666015625
65.91796875
71.4111328125
67.7490234375
68.66455078125
65.91796875
70.49560546875
66.83349609375
69.580078125
69.580078125
69.580078125
65.00244140625
64.0869140625
54.931640625
53.1005859375
54.931640625
52.18505859375
51.26953125
46.69189453125
45.7763671875
46.69189453125
38.4521484375
35.70556640625
34.7900390625
37.53662109375
38.4521484375
24.71923828125
31.1279296875
21.97265625
10.07080078125
10.986328125
-0.91552734375
13.73291015625
11.90185546875
0
-1.8310546875
-7.32421875
-11.90185546875
-16.4794921875
-14.6484375
-11.90185546875
-17.39501953125
-19.22607421875
-21.97265625
-23.8037109375
-27.4658203125
-31.1279296875
-34.7900390625
-41.19873046875
-43.02978515625
-46.69189453125
-45.7763671875
-44.86083984375
-44.86083984375
-49.4384765625
-47.607421875
-52.18505859375
-59.50927734375
-54.01611328125
-54.01611328125
-49.4384765625
-54.931640625
-60.4248046875
-66.83349609375
-63.17138671875
-54.931640625
-52.18505859375
-51.26953125
-54.01611328125
-54.931640625
-64.0869140625
-64.0869140625
-65.00244140625
-59.50927734375
-65.00244140625
-57.67822265625
-55.84716796875
-52.18505859375
-53.1005859375
-54.01611328125
-54.01611328125
-49.4384765625
-61.34033203125
-60.4248046875
-56.7626953125
-55.84716796875
-55.84716796875
-55.84716796875
-54.01611328125
-49.4384765625
-54.931640625
-54.01611328125
-45.7763671875
-48.52294921875
-54.01611328125
-64.0869140625
-54.01611328125
-51.26953125
-46.69189453125
-47.607421875
-50.35400390625
-56.7626953125
-57.67822265625
-53.1005859375
-57.67822265625
-53.1005859375
-49.4384765625
-51.26953125
-52.18505859375
-50.35400390625
-48.52294921875
-42.1142578125
-51.26953125
-52.18505859375
-52.18505859375
-57.67822265625
-57.67822265625
-56.7626953125
-56.7626953125
-54.931640625
-54.931640625
-48.52294921875
-54.931640625
-58.59375
-65.00244140625
-64.0869140625
-59.50927734375
-58.59375
-62.255859375
-66.83349609375
-68.66455078125
-65.00244140625
-67.7490234375
-65.91796875
-67.7490234375
-70.49560546875
-64.0869140625
-70.49560546875
-71.4111328125
-68.66455078125
-68.66455078125
-79.65087890625
-81.48193359375
-71.4111328125
-69.580078125
-75.0732421875
-79.65087890625
-75.0732421875
-72.32666015625
-74.15771484375
-80.56640625
-77.81982421875
-84.228515625
-77.81982421875
-75.98876953125
-76.904296875
-77.81982421875
-80.56640625
-72.32666015625
-68.66455078125
-79.65087890625
-86.97509765625
-79.65087890625
-74.15771484375
-75.0732421875
-85.14404296875
-83.31298828125
-83.31298828125
-86.0595703125
-85.14404296875
-83.31298828125
-77.81982421875
-80.56640625
-85.14404296875
-89.7216796875
-88.80615234375
-78.7353515625
-86.0595703125
-86.0595703125
-82.3974609375
-84.228515625
-82.3974609375
-72.32666015625
-74.15771484375
-76.904296875
-70.49560546875
-61.34033203125
-49.4384765625
-39.36767578125
-33.87451171875
-28.38134765625
-29.296875
-22.88818359375
-26.55029296875
-27.4658203125
-21.05712890625
-13.73291015625
-16.4794921875
-10.07080078125
8.23974609375
33.87451171875
43.02978515625
48.52294921875
50.35400390625
52.18505859375
54.931640625
56.7626953125
46.69189453125
37.53662109375
49.4384765625
54.931640625
54.931640625
46.69189453125
50.35400390625
43.02978515625
31.1279296875
29.296875
28.38134765625
8.23974609375
0.91552734375
-10.07080078125
-20.1416015625
-33.87451171875
-43.9453125
-60.4248046875
-60.4248046875
-65.91796875
-71.4111328125
-75.0732421875
-77.81982421875
-86.0595703125
-97.96142578125
-103.45458984375
-91.552734375
-100.7080078125
-106.201171875
-108.94775390625
-113.525390625
-106.201171875
-109.86328125
-116.27197265625
-118.10302734375
-114.44091796875
-120.849609375
-118.10302734375
-114.44091796875
-118.10302734375
-120.849609375
-120.849609375
-118.10302734375
-127.25830078125
-131.8359375
-135.498046875
-137.3291015625
-139.16015625
-135.498046875
-132.75146484375
-128.173828125
-124.51171875
-121.76513671875
-101.62353515625
-72.32666015625
-39.36767578125
-15.56396484375
5.4931640625
62.255859375
97.96142578125
127.25830078125
167.54150390625
259.09423828125
326.84326171875
405.57861328125
476.07421875
552.06298828125
592.34619140625
574.951171875
449.52392578125
296.630859375
216.064453125
125.42724609375
18.310546875
-56.7626953125
-102.5390625
-98.876953125
-75.98876953125
-68.66455078125
-72.32666015625
-86.97509765625
-95.21484375
-117.1875
-134.58251953125
-141.90673828125
-121.76513671875
-107.11669921875
-87.890625
-74.15771484375
-76.904296875
-76.904296875
-68.66455078125
-65.00244140625
-65.00244140625
-71.4111328125
-65.00244140625
-66.83349609375
-69.580078125
-71.4111328125
-76.904296875
-71.4111328125
-73.2421875
-66.83349609375
-68.66455078125
-62.255859375
-60.4248046875
-61.34033203125
-59.50927734375
-63.17138671875
-62.255859375
-52.18505859375
-53.1005859375
-54.931640625
-54.931640625
-52.18505859375
-49.4384765625
-52.18505859375
-49.4384765625
-56.7626953125
-43.9453125
-42.1142578125
-38.4521484375
-44.86083984375
-39.36767578125
-28.38134765625
-24.71923828125
-28.38134765625
-32.04345703125
-26.55029296875
-21.97265625
-21.97265625
-26.55029296875
-13.73291015625
-10.07080078125
-13.73291015625
-7.32421875
-5.4931640625
-10.986328125
-4.57763671875
0
8.23974609375
1.8310546875
4.57763671875
5.4931640625
12.8173828125
18.310546875
21.05712890625
15.56396484375
20.1416015625
29.296875
29.296875
34.7900390625
42.1142578125
40.283203125
40.283203125
42.1142578125
44.86083984375
50.35400390625
56.7626953125
64.0869140625
75.98876953125
70.49560546875
75.98876953125
80.56640625
78.7353515625
78.7353515625
82.3974609375
85.14404296875
83.31298828125
83.31298828125
86.97509765625
86.97509765625
86.0595703125
87.890625
82.3974609375
75.98876953125
83.31298828125
82.3974609375
72.32666015625
73.2421875
71.4111328125
65.91796875
65.91796875
66.83349609375
61.34033203125
64.0869140625
63.17138671875
57.67822265625
46.69189453125
43.02978515625
54.01611328125
54.01611328125
44.86083984375
40.283203125
32.04345703125
26.55029296875
25.634765625
21.05712890625
9.1552734375
9.1552734375
9.1552734375
10.986328125
0.91552734375
-1.8310546875
1.8310546875
-10.07080078125
-13.73291015625
-11.90185546875
-15.56396484375
-22.88818359375
-26.55029296875
-31.1279296875
-26.55029296875
-24.71923828125
-36.62109375
-38.4521484375
-40.283203125
-42.1142578125
-45.7763671875
-47.607421875
-48.52294921875
-45.7763671875
-49.4384765625
-47.607421875
-53.1005859375
-53.1005859375
-58.59375
-49.4384765625
-54.01611328125
-58.59375
-57.67822265625
-57.67822265625
-50.35400390625
-54.01611328125
-56.7626953125
-51.26953125
-52.18505859375
-60.4248046875
-61.34033203125
-57.67822265625
-52.18505859375
-60.4248046875
-54.931640625
-49.4384765625
-54.931640625
-54.01611328125
-50.35400390625
-63.17138671875
-58.59375
-44.86083984375
-49.4384765625
-48.52294921875
-45.7763671875
-49.4384765625
-43.9453125
-46.69189453125
-50.35400390625
-54.01611328125
-50.35400390625
-49.4384765625
-45.7763671875
-40.283203125
-44.86083984375
-43.02978515625
-46.69189453125
-46.69189453125
-42.1142578125
-39.36767578125
-45.7763671875
-51.26953125
-41.19873046875
-36.62109375
-31.1279296875
-39.36767578125
-40.283203125
-47.607421875
-54.01611328125
-48.52294921875
-51.26953125
-48.52294921875
-46.69189453125
-48.52294921875
-47.607421875
-43.9453125
-39.36767578125
-43.02978515625
-47.607421875
-52.18505859375
-44.86083984375
-51.26953125
-53.1005859375
-50.35400390625
-54.931640625
-50.35400390625
-52.18505859375
-47.607421875
-46.69189453125
-53.1005859375
-54.931640625
-57.67822265625
-59.50927734375
-60.4248046875
-60.4248046875
-61.34033203125
-61.34033203125
-58.59375
-62.255859375
-57.67822265625
-61.34033203125
-64.0869140625
-72.32666015625
-67.7490234375
-65.00244140625
-71.4111328125
-68.66455078125
-66.83349609375
-67.7490234375
-68.66455078125
-68.66455078125
-71.4111328125
-73.2421875
-68.66455078125
-67.7490234375
-66.83349609375
-71.4111328125
-75.98876953125
-79.65087890625
-80.56640625
-78.7353515625
-81.48193359375
-77.81982421875
-80.56640625
-84.228515625
-81.48193359375
-82.3974609375
-86.0595703125
-80.56640625
-75.0732421875
-80.56640625
-92.46826171875
-94.29931640625
-87.890625
-80.56640625
-87.890625
-79.65087890625
-85.14404296875
-89.7216796875
-86.97509765625
-82.3974609375
-80.56640625
-86.0595703125
-81.48193359375
-73.2421875
-81.48193359375
-92.46826171875
-87.890625
-86.0595703125
-83.31298828125
-75.98876953125
-70.49560546875
-65.00244140625
-66.83349609375
-65.91796875
-60.4248046875
-49.4384765625
-36.62109375
-43.9453125
-32.958984375
-27.4658203125
-21.97265625
-16.4794921875
-20.1416015625
-13.73291015625
-16.4794921875
-19.22607421875
-3.662109375
4.57763671875
22.88818359375
41.19873046875
45.7763671875
54.931640625
52.18505859375
51.26953125
55.84716796875
51.26953125
39.36767578125
46.69189453125
52.18505859375
51.26953125
52.18505859375
45.7763671875
40.283203125
28.38134765625
27.4658203125
15.56396484375
5.4931640625
-7.32421875
-19.22607421875
-34.7900390625
-46.69189453125
-56.7626953125
-55.84716796875
-64.0869140625
-73.2421875
-77.81982421875
-79.65087890625
-88.80615234375
-97.0458984375
-98.876953125
-97.0458984375
-108.0322265625
-108.0322265625
-103.45458984375
-97.96142578125
-103.45458984375
-101.62353515625
-110.77880859375
-109.86328125
-116.27197265625
-114.44091796875
-111.6943359375
-116.27197265625
-117.1875
-119.0185546875
-121.76513671875
-116.27197265625
-107.11669921875
-122.6806640625
-132.75146484375
-132.75146484375
-130.92041015625
-135.498046875
-130.0048828125
-129.08935546875
-131.8359375
-119.93408203125
-118.10302734375
-110.77880859375
-85.14404296875
-62.255859375
-45.7763671875
-17.39501953125
23.8037109375
79.65087890625
128.173828125
156.55517578125
226.13525390625
306.70166015625
379.94384765625
462.34130859375
542.90771484375
609.7412109375
630.79833984375
578.61328125
433.04443359375
292.96875
196.83837890625
79.65087890625
-38.4521484375
-113.525390625
-131.8359375
-116.27197265625
-94.29931640625
-95.21484375
-94.29931640625
-92.46826171875
-105.28564453125
-111.6943359375
-130.92041015625
-116.27197265625
-92.46826171875
-76.904296875
-67.7490234375
-58.59375
-59.50927734375
-61.34033203125
-57.67822265625
-63.17138671875
-64.0869140625
-66.83349609375
-58.59375
-57.67822265625
-60.4248046875
-60.4248046875
-61.34033203125
-60.4248046875
-58.59375
-54.931640625
-54.931640625
-51.26953125
-52.18505859375
-49.4384765625
-48.52294921875
-45.7763671875
-48.52294921875
-36.62109375
-40.283203125
-44.86083984375
-42.1142578125
-44.86083984375
-42.1142578125
-43.9453125
-34.7900390625
-27.4658203125
-27.4658203125
-31.1279296875
-24.71923828125
-22.88818359375
-26.55029296875
-27.4658203125
-21.05712890625
-19.22607421875
-13.73291015625
-12.8173828125
-13.73291015625
-7.32421875
-0.91552734375
-4.57763671875
-1.8310546875
4.57763671875
10.07080078125
10.986328125
8.23974609375
17.39501953125
17.39501953125
10.07080078125
10.07080078125
20.1416015625
24.71923828125
27.4658203125
35.70556640625
43.9453125
37.53662109375
39.36767578125
43.9453125
50.35400390625
56.7626953125
59.50927734375
65.91796875
59.50927734375
66.83349609375
75.0732421875
76.904296875
83.31298828125
87.890625
88.80615234375
88.80615234375
89.7216796875
100.7080078125
96.13037109375
99.79248046875
108.94775390625
108.0322265625
104.3701171875
106.201171875
109.86328125
106.201171875
102.5390625
104.3701171875
106.201171875
101.62353515625
101.62353515625
98.876953125
97.0458984375
97.0458984375
98.876953125
93.3837890625
88.80615234375
86.97509765625
84.228515625
79.65087890625
79.65087890625
77.81982421875
78.7353515625
72.32666015625
64.0869140625
63.17138671875
56.7626953125
53.1005859375
52.18505859375
48.52294921875
40.283203125
42.1142578125
37.53662109375
32.04345703125
32.04345703125
30.21240234375
17.39501953125
15.56396484375
14.6484375
10.07080078125
7.32421875
-2.74658203125
-9.1552734375
-4.57763671875
-5.4931640625
-9.1552734375
-17.39501953125
-23.8037109375
-23.8037109375
-28.38134765625
-33.87451171875
-37.53662109375
-39.36767578125
-39.36767578125
-34.7900390625
-36.62109375
-38.4521484375
-43.02978515625
-44.86083984375
-41.19873046875
-37.53662109375
-44.86083984375
-54.01611328125
-46.69189453125
-41.19873046875
-42.1142578125
-50.35400390625
-47.607421875
-47.607421875
-43.02978515625
-44.86083984375
-45.7763671875
-38.4521484375
-47.607421875
-44.86083984375
-43.9453125
-41.19873046875
-43.02978515625
-39.36767578125
-41.19873046875
-46.69189453125
-38.4521484375
-33.87451171875
-41.19873046875
-40.283203125
-43.02978515625
-40.283203125
-41.19873046875
-43.9453125
-40.283203125
-40.283203125
-34.7900390625
-37.53662109375
-37.53662109375
-36.62109375
-32.958984375
-31.1279296875
-31.1279296875
-32.958984375
-42.1142578125
-48.52294921875
-37.53662109375
-28.38134765625
-27.4658203125
-28.38134765625
-37.53662109375
-35.70556640625
-34.7900390625
-37.53662109375
-32.958984375
-39.36767578125
-32.04345703125
-32.04345703125
-31.1279296875
-36.62109375
-40.283203125
-42.1142578125
-36.62109375
-37.53662109375
-48.52294921875
-44.86083984375
-30.21240234375
-34.7900390625
-36.62109375
-37.53662109375
-43.9453125
-39.36767578125
-37.53662109375
-50.35400390625
-43.9453125
-42.1142578125
-44.86083984375
-47.607421875
-49.4384765625
-45.7763671875
-50.35400390625
-52.18505859375
-52.18505859375
-51.26953125
-50.35400390625
-54.01611328125
-57.67822265625
-52.18505859375
-50.35400390625
-54.01611328125
-51.26953125
-52.18505859375
-57.67822265625
-62.255859375
-59.50927734375
-54.01611328125
-56.7626953125
-60.4248046875
-61.34033203125
-55.84716796875
-58.59375
-65.91796875
-68.66455078125
-66.83349609375
-64.0869140625
-67.7490234375
-62.255859375
-61.34033203125
-53.1005859375
-66.83349609375
-72.32666015625
-67.7490234375
-67.7490234375
-64.0869140625
-64.0869140625
-64.0869140625
-64.0869140625
-67.7490234375
-72.32666015625
-70.49560546875
-67.7490234375
-65.91796875
-63.17138671875
-65.91796875
-69.580078125
-75.0732421875
-68.66455078125
-66.83349609375
-73.2421875
-68.66455078125
-70.49560546875
-72.32666015625
-72.32666015625
-69.580078125
-75.0732421875
-75.98876953125
-74.15771484375
-65.91796875
-71.4111328125
-69.580078125
-70.49560546875
-73.2421875
-73.2421875
-73.2421875
-68.66455078125
-76.904296875
-78.7353515625
-70.49560546875
-67.7490234375
-77.81982421875
-78.7353515625
-73.2421875
-71.4111328125
-74.15771484375
-66.83349609375
-63.17138671875
-69.580078125
-69.580078125
-65.00244140625
-63.17138671875
-52.18505859375
-43.02978515625
-40.283203125
-42.1142578125
-26.55029296875
-12.8173828125
-14.6484375
-21.97265625
-17.39501953125
-9.1552734375
-7.32421875
-7.32421875
-5.4931640625
-4.57763671875
-2.74658203125
8.23974609375
29.296875
50.35400390625
50.35400390625
59.50927734375
49.4384765625
48.52294921875
49.4384765625
45.7763671875
41.19873046875
48.52294921875
45.7763671875
39.36767578125
22.88818359375
10.07080078125
12.8173828125
-0.91552734375
-4.57763671875
-7.32421875
-12.8173828125
-23.8037109375
-33.87451171875
-36.62109375
-54.01611328125
-67.7490234375
-75.98876953125
-76.904296875
-75.98876953125
-83.31298828125
-90.63720703125
-90.63720703125
-90.63720703125
-93.3837890625
-97.0458984375
-90.63720703125
-90.63720703125
-97.0458984375
-92.46826171875
-92.46826171875
-93.3837890625
-87.890625
-93.3837890625
-101.62353515625
-106.201171875
-99.79248046875
-97.96142578125
-97.0458984375
-101.62353515625
-103.45458984375
-103.45458984375
-104.3701171875
-108.0322265625
-106.201171875
-112.60986328125
-109.86328125
-116.27197265625
-114.44091796875
-109.86328125
-119.0185546875
-111.6943359375
-114.44091796875
-104.3701171875
-84.228515625
-55.84716796875
-41.19873046875
-13.73291015625
28.38134765625
87.890625
125.42724609375
152.89306640625
229.79736328125
310.36376953125
393.6767578125
476.98974609375
565.7958984375
632.62939453125
647.27783203125
585.9375
436.70654296875
306.70166015625
195.00732421875
53.1005859375
-71.4111328125
-129.08935546875
-130.0048828125
-105.28564453125
-89.7216796875
-86.0595703125
-75.0732421875
-73.2421875
-84.228515625
-101.62353515625
-107.11669921875
-101.62353515625
-73.2421875
-54.931640625
-44.86083984375
-40.283203125
-36.62109375
-33.87451171875
-40.283203125
-44.86083984375
-34.7900390625
-38.4521484375
-35.70556640625
-40.283203125
-40.283203125
-33.87451171875
-33.87451171875
-32.04345703125
-30.21240234375
-28.38134765625
-30.21240234375
-31.1279296875
-35.70556640625
-31.1279296875
-29.296875
-29.296875
-21.05712890625
-23.8037109375
-23.8037109375
-21.05712890625
-14.6484375
-19.22607421875
-15.56396484375
-10.986328125
-11.90185546875
-15.56396484375
-15.56396484375
-10.07080078125
-2.74658203125
-8.23974609375
0
5.4931640625
4.57763671875
8.23974609375
6.40869140625
5.4931640625
9.1552734375
14.6484375
11.90185546875
14.6484375
16.4794921875
15.56396484375
21.05712890625
20.1416015625
27.4658203125
31.1279296875
30.21240234375
34.7900390625
33.87451171875
38.4521484375
40.283203125
46.69189453125
44.86083984375
53.1005859375
58.59375
62.255859375
59.50927734375
70.49560546875
69.580078125
75.0732421875
76.904296875
83.31298828125
88.80615234375
87.890625
94.29931640625
97.0458984375
93.3837890625
104.3701171875
115.3564453125
112.60986328125
113.525390625
114.44091796875
116.27197265625
119.0185546875
122.6806640625
124.51171875
120.849609375
128.173828125
124.51171875
125.42724609375
126.3427734375
121.76513671875
119.93408203125
119.93408203125
114.44091796875
119.93408203125
112.60986328125
108.0322265625
113.525390625
106.201171875
105.28564453125
102.5390625
101.62353515625
101.62353515625
95.21484375
86.97509765625
78.7353515625
80.56640625
76.904296875
81.48193359375
81.48193359375
69.580078125
69.580078125
65.91796875
56.7626953125
58.59375
49.4384765625
46.69189453125
31.1279296875
32.04345703125
34.7900390625
30.21240234375
27.4658203125
18.310546875
10.07080078125
9.1552734375
10.07080078125
0.91552734375
1.8310546875
-3.662109375
-5.4931640625
-7.32421875
-15.56396484375
-18.310546875
-16.4794921875
-21.05712890625
-25.634765625
-28.38134765625
-31.1279296875
-24.71923828125
-23.8037109375
-30.21240234375
-25.634765625
-26.55029296875
-32.04345703125
-28.38134765625
-32.958984375
-31.1279296875
-29.296875
-32.958984375
-25.634765625
-32.04345703125
-36.62109375
-33.87451171875
-29.296875
-35.70556640625
-32.04345703125
-26.55029296875
-27.4658203125
-28.38134765625
-28.38134765625
-31.1279296875
-26.55029296875
-22.88818359375
-24.71923828125
-26.55029296875
-25.634765625
-31.1279296875
-26.55029296875
-20.1416015625
-24.71923828125
-31.1279296875
-30.21240234375
-21.97265625
-22.88818359375
-27.4658203125
-26.55029296875
-25.634765625
-23.8037109375
-26.55029296875
-22.88818359375
-24.71923828125
-28.38134765625
-22.88818359375
-21.97265625
-22.88818359375
-22.88818359375
-14.6484375
-19.22607421875
-21.05712890625
-20.1416015625
-21.97265625
-27.4658203125
-21.05712890625
-24.71923828125
-21.05712890625
-24.71923828125
-25.634765625
-23.8037109375
-22.88818359375
-26.55029296875
-26.55029296875
-21.05712890625
-30.21240234375
-26.55029296875
-27.4658203125
-28.38134765625
-24.71923828125
-27.4658203125
-30.21240234375
-29.296875
-40.283203125
-32.04345703125
-36.62109375
-39.36767578125
-43.9453125
-41.19873046875
-42.1142578125
-39.36767578125
-42.1142578125
-42.1142578125
-32.04345703125
-37.53662109375
-38.4521484375
-43.02978515625
-47.607421875
-47.607421875
-45.7763671875
-44.86083984375
-43.02978515625
-42.1142578125
-48.52294921875
-45.7763671875
-49.4384765625
-48.52294921875
-47.607421875
-52.18505859375
-45.7763671875
-46.69189453125
-47.607421875
-40.283203125
-56.7626953125
-47.607421875
-49.4384765625
-54.931640625
-57.67822265625
-56.7626953125
-54.01611328125
-55.84716796875
-54.01611328125
-57.67822265625
-54.931640625
-58.59375
-57.67822265625
-57.67822265625
-62.255859375
-63.17138671875
-60.4248046875
-54.931640625
-56.7626953125
-59.50927734375
-69.580078125
-68.66455078125
-54.01611328125
-54.931640625
-56.7626953125
-61.34033203125
-57.67822265625
-63.17138671875
-62.255859375
-63.17138671875
-61.34033203125
-67.7490234375
-69.580078125
-65.00244140625
-65.91796875
-69.580078125
-71.4111328125
-68.66455078125
-64.0869140625
-62.255859375
-56.7626953125
-53.1005859375
-51.26953125
-48.52294921875
-38.4521484375
-32.04345703125
-14.6484375
-8.23974609375
-9.1552734375
-10.986328125
-5.4931640625
2.74658203125
7.32421875
5.4931640625
2.74658203125
2.74658203125
14.6484375
27.4658203125
38.4521484375
55.84716796875
62.255859375
64.0869140625
58.59375
53.1005859375
50.35400390625
50.35400390625
43.9453125
46.69189453125
45.7763671875
43.02978515625
33.87451171875
20.1416015625
5.4931640625
5.4931640625
8.23974609375
-1.8310546875
-13.73291015625
-28.38134765625
-36.62109375
-45.7763671875
-63.17138671875
-74.15771484375
-71.4111328125
-75.0732421875
-77.81982421875
-81.48193359375
-79.65087890625
-82.3974609375
-85.14404296875
-96.13037109375
-84.228515625
-84.228515625
-93.3837890625
-86.97509765625
-95.21484375
-96.13037109375
-102.5390625
-98.876953125
-100.7080078125
-98.876953125
-100.7080078125
-109.86328125
-103.45458984375
-103.45458984375
-100.7080078125
-100.7080078125
-100.7080078125
-104.3701171875
-102.5390625
-106.201171875
-112.60986328125
-115.3564453125
-109.86328125
-110.77880859375
-110.77880859375
-114.44091796875
-109.86328125
-102.5390625
-92.46826171875
-68.66455078125
-44.86083984375
-31.1279296875
-2.74658203125
44.86083984375
95.21484375
121.76513671875
162.9638671875
251.77001953125
334.16748046875
416.56494140625
495.30029296875
581.35986328125
631.7138671875
622.55859375
515.44189453125
356.14013671875
243.5302734375
134.58251953125
8.23974609375
-85.14404296875
-121.76513671875
-115.3564453125
-94.29931640625
-88.80615234375
-81.48193359375
-80.56640625
-88.80615234375
-99.79248046875
-111.6943359375
-119.93408203125
-103.45458984375
-80.56640625
-66.83349609375
-43.9453125
-35.70556640625
-39.36767578125
-45.7763671875
-48.52294921875
-44.86083984375
-44.86083984375
-37.53662109375
-39.36767578125
-43.9453125
-47.607421875
-47.607421875
-53.1005859375
-46.69189453125
-43.02978515625
-36.62109375
-36.62109375
-37.53662109375
-37.53662109375
-33.87451171875
-36.62109375
-38.4521484375
-39.36767578125
-33.87451171875
-35.70556640625
-32.04345703125
-29.296875
-25.634765625
-26.55029296875
-17.39501953125
-21.05712890625
-19.22607421875
-17.39501953125
-19.22607421875
-11.90185546875
-14.6484375
-17.39501953125
-14.6484375
-6.40869140625
-6.40869140625
-5.4931640625
-10.986328125
-12.8173828125
-1.8310546875
0
6.40869140625
3.662109375
6.40869140625
9.1552734375
14.6484375
21.05712890625
22.88818359375
22.88818359375
30.21240234375
27.4658203125
36.62109375
39.36767578125
41.19873046875
43.9453125
43.02978515625
37.53662109375
43.9453125
42.1142578125
47.607421875
53.1005859375
65.91796875
65.91796875
71.4111328125
72.32666015625
66.83349609375
79.65087890625
80.56640625
81.48193359375
85.14404296875
79.65087890625
87.890625
100.7080078125
107.11669921875
94.29931640625
93.3837890625
97.0458984375
106.201171875
105.28564453125
97.0458984375
103.45458984375
94.29931640625
96.13037109375
94.29931640625
93.3837890625
87.890625
86.0595703125
79.65087890625
82.3974609375
86.0595703125
87.890625
74.15771484375
75.98876953125
82.3974609375
80.56640625
68.66455078125
63.17138671875
65.91796875
64.0869140625
55.84716796875
54.01611328125
46.69189453125
43.9453125
40.283203125
35.70556640625
42.1142578125
39.36767578125
35.70556640625
28.38134765625
22.88818359375
15.56396484375
10.07080078125
10.07080078125
10.986328125
0.91552734375
-0.91552734375
-1.8310546875
-5.4931640625
-9.1552734375
2.74658203125
-7.32421875
-15.56396484375
-19.22607421875
-21.97265625
-25.634765625
-34.7900390625
-36.62109375
-34.7900390625
-37.53662109375
-37.53662109375
-34.7900390625
-32.958984375
-41.19873046875
-35.70556640625
-32.04345703125
-40.283203125
-43.9453125
-37.53662109375
-48.52294921875
-42.1142578125
-37.53662109375
-40.283203125
-37.53662109375
-47.607421875
-51.26953125
-43.9453125
-41.19873046875
-43.02978515625
-42.1142578125
-51.26953125
-48.52294921875
-38.4521484375
-42.1142578125
-42.1142578125
-40.283203125
-42.1142578125
-38.4521484375
-39.36767578125
-32.04345703125
-43.02978515625
-38.4521484375
-36.62109375
-37.53662109375
-34.7900390625
-39.36767578125
-38.4521484375
-36.62109375
-32.04345703125
-43.9453125
-38.4521484375
-45.7763671875
-40.283203125
-42.1142578125
-37.53662109375
-37.53662109375
-34.7900390625
-31.1279296875
-30.21240234375
-34.7900390625
-34.7900390625
-42.1142578125
-37.53662109375
-32.04345703125
-27.4658203125
-34.7900390625
-39.36767578125
-42.1142578125
-36.62109375
-39.36767578125
-42.1142578125
-36.62109375
-43.02978515625
-37.53662109375
-43.9453125
-42.1142578125
-44.86083984375
-50.35400390625
-48.52294921875
-46.69189453125
-54.01611328125
-47.607421875
-38.4521484375
-37.53662109375
-43.02978515625
-53.1005859375
-51.26953125
-44.86083984375
-54.01611328125
-52.18505859375
-52.18505859375
-48.52294921875
-58.59375
-62.255859375
-44.86083984375
-50.35400390625
-56.7626953125
-60.4248046875
-67.7490234375
-64.0869140625
-63.17138671875
-65.91796875
-62.255859375
-65.91796875
-66.83349609375
-66.83349609375
-64.0869140625
-68.66455078125
-65.00244140625
-63.17138671875
-58.59375
-64.0869140625
-68.66455078125
-63.17138671875
-67.7490234375
-73.2421875
-72.32666015625
-70.49560546875
-71.4111328125
-74.15771484375
-74.15771484375
-75.0732421875
-75.98876953125
-74.15771484375
-72.32666015625
-84.228515625
-76.904296875
-72.32666015625
-78.7353515625
-74.15771484375
-79.65087890625
-82.3974609375
-74.15771484375
-78.7353515625
-71.4111328125
-70.49560546875
-67.7490234375
-74.15771484375
-73.2421875
-62.255859375
-54.931640625
-48.52294921875
-47.607421875
-28.38134765625
-21.05712890625
-21.97265625
-24.71923828125
-30.21240234375
-26.55029296875
-24.71923828125
-20.1416015625
-23.8037109375
-20.1416015625
-14.6484375
-8.23974609375
3.662109375
24.71923828125
32.958984375
37.53662109375
40.283203125
32.958984375
35.70556640625
32.958984375
30.21240234375
32.958984375
27.4658203125
22.88818359375
21.05712890625
10.986328125
-4.57763671875
-15.56396484375
-22.88818359375
-11.90185546875
-16.4794921875
-32.958984375
-44.86083984375
-52.18505859375
-67.7490234375
-77.81982421875
-79.65087890625
-88.80615234375
-91.552734375
-94.29931640625
-98.876953125
-87.890625
-89.7216796875
-86.97509765625
-90.63720703125
-95.21484375
-107.11669921875
-112.60986328125
-102.5390625
-104.3701171875
-106.201171875
-100.7080078125
-97.96142578125
-93.3837890625
-105.28564453125
-111.6943359375
-111.6943359375
-115.3564453125
-115.3564453125
-110.77880859375
-112.60986328125
-110.77880859375
-106.201171875
-116.27197265625
-119.93408203125
-125.42724609375
-131.8359375
-128.173828125
-131.8359375
-121.76513671875
-106.201171875
-106.201171875
-102.5390625
-74.15771484375
-47.607421875
-38.4521484375
-12.8173828125
28.38134765625
85.14404296875
115.3564453125
125.42724609375
185.85205078125
261.8408203125
327.7587890625
392.76123046875
466.9189453125
529.1748046875
545.654296875
524.59716796875
392.76123046875
275.57373046875
220.64208984375
119.93408203125
27.4658203125
0.91552734375
-18.310546875
-10.986328125
13.73291015625
16.4794921875
0
-20.1416015625
-51.26953125
-87.890625
-102.5390625
-117.1875
-110.77880859375
-100.7080078125
-85.14404296875
-64.0869140625
-54.931640625
-51.26953125
-55.84716796875
-57.67822265625
-50.35400390625
-45.7763671875
-46.69189453125
-47.607421875
-48.52294921875
-53.1005859375
-53.1005859375
-52.18505859375
-51.26953125
-53.1005859375
-55.84716796875
-54.01611328125
-49.4384765625
-46.69189453125
-45.7763671875
-43.02978515625
-40.283203125
-40.283203125
-40.283203125
-35.70556640625
-33.87451171875
-39.36767578125
-30.21240234375
-27.4658203125
-32.958984375
-35.70556640625
-28.38134765625
-27.4658203125
-25.634765625
-22.88818359375
-23.8037109375
-14.6484375
-20.1416015625
-27.4658203125
-24.71923828125
-19.22607421875
-14.6484375
-7.32421875
-4.57763671875
-5.4931640625
-7.32421875
-2.74658203125
-8.23974609375
0
8.23974609375
1.8310546875
2.74658203125
7.32421875
8.23974609375
13.73291015625
26.55029296875
20.1416015625
20.1416015625
35.70556640625
40.283203125
32.04345703125
35.70556640625
30.21240234375
32.958984375
35.70556640625
40.283203125
48.52294921875
53.1005859375
51.26953125
54.931640625
60.4248046875
62.255859375
69.580078125
70.49560546875
58.59375
65.00244140625
66.83349609375
65.91796875
66.83349609375
60.4248046875
65.91796875
78.7353515625
75.98876953125
73.2421875
69.580078125
63.17138671875
66.83349609375
63.17138671875
70.49560546875
65.00244140625
64.0869140625
58.59375
56.7626953125
66.83349609375
55.84716796875
52.18505859375
49.4384765625
55.84716796875
39.36767578125
32.958984375
43.02978515625
49.4384765625
38.4521484375
27.4658203125
21.97265625
19.22607421875
29.296875
26.55029296875
16.4794921875
22.88818359375
16.4794921875
23.8037109375
12.8173828125
5.4931640625
1.8310546875
-2.74658203125
-12.8173828125
-9.1552734375
-4.57763671875
-9.1552734375
-10.986328125
-13.73291015625
-15.56396484375
-14.6484375
-11.90185546875
-20.1416015625
-28.38134765625
-37.53662109375
-40.283203125
-41.19873046875
-38.4521484375
-43.02978515625
-46.69189453125
-43.9453125
-43.9453125
-47.607421875
-46.69189453125
-50.35400390625
-60.4248046875
-50.35400390625
-51.26953125
-46.69189453125
-48.52294921875
-45.7763671875
-50.35400390625
-54.01611328125
-53.1005859375
-45.7763671875
-43.02978515625
-47.607421875
-49.4384765625
-53.1005859375
-45.7763671875
-46.69189453125
-48.52294921875
-48.52294921875
-50.35400390625
-54.931640625
-51.26953125
-48.52294921875
-45.7763671875
-48.52294921875
-49.4384765625
-49.4384765625
-46.69189453125
-50.35400390625
-43.9453125
-47.607421875
-53.1005859375
-49.4384765625
-46.69189453125
-36.62109375
-36.62109375
-39.36767578125
-44.86083984375
-36.62109375
-43.02978515625
-43.02978515625
-44.86083984375
-40.283203125
-42.1142578125
-41.19873046875
-43.9453125
-38.4521484375
-40.283203125
-38.4521484375
-36.62109375
-37.53662109375
-47.607421875
-50.35400390625
-43.02978515625
-37.53662109375
-37.53662109375
-43.02978515625
-45.7763671875
-52.18505859375
-42.1142578125
-40.283203125
-43.02978515625
-45.7763671875
-48.52294921875
-53.1005859375
-54.01611328125
-50.35400390625
-54.931640625
-50.35400390625
-46.69189453125
-51.26953125
-57.67822265625
-55.84716796875
-59.50927734375
-53.1005859375
-63.17138671875
-63.17138671875
-58.59375
-60.4248046875
-62.255859375
-66.83349609375
-61.34033203125
-66.83349609375
-71.4111328125
-61.34033203125
-61.34033203125
-66.83349609375
-70.49560546875
-69.580078125
-77.81982421875
-71.4111328125
-71.4111328125
-68.66455078125
-68.66455078125
-72.32666015625
-60.4248046875
-54.931640625
-55.84716796875
-69.580078125
-70.49560546875
-65.91796875
-56.7626953125
-43.9453125
-38.4521484375
-33.87451171875
-32.958984375
-26.55029296875
-32.958984375
-30.21240234375
-21.97265625
-31.1279296875
-23.8037109375
-10.986328125
0.91552734375
15.56396484375
25.634765625
40.283203125
51.26953125
54.01611328125
52.18505859375
57.67822265625
60.4248046875
54.01611328125
54.01611328125
54.931640625
58.59375
50.35400390625
49.4384765625
51.26953125
45.7763671875
32.04345703125
30.21240234375
17.39501953125
0
-18.310546875
-24.71923828125
-34.7900390625
-51.26953125
-47.607421875
-49.4384765625
-56.7626953125
-65.91796875
-70.49560546875
-66.83349609375
-72.32666015625
-85.14404296875
-98.876953125
-101.62353515625
-102.5390625
-100.7080078125
-101.62353515625
-98.876953125
-99.79248046875
-106.201171875
-112.60986328125
-116.27197265625
-115.3564453125
-112.60986328125
-111.6943359375
-120.849609375
-116.27197265625
-120.849609375
-124.51171875
-119.93408203125
-127.25830078125
-125.42724609375
-134.58251953125
-135.498046875
-124.51171875
-125.42724609375
-130.92041015625
-132.75146484375
-114.44091796875
-108.0322265625
-95.21484375
-75.98876953125
-54.931640625
-36.62109375
-21.97265625
16.4794921875
67.7490234375
111.6943359375
120.849609375
172.119140625
253.60107421875
325.927734375
391.845703125
460.51025390625
522.76611328125
548.40087890625
532.8369140625
403.74755859375
267.333984375
199.5849609375
108.94775390625
19.22607421875
-25.634765625
-49.4384765625
-47.607421875
-24.71923828125
-14.6484375
-28.38134765625
-45.7763671875
-69.580078125
-99.79248046875
-122.6806640625
-136.41357421875
-132.75146484375
-104.3701171875
-84.228515625
-75.0732421875
-68.66455078125
-65.91796875
-64.0869140625
-73.2421875
-73.2421875
-69.580078125
-65.91796875
-69.580078125
-63.17138671875
-67.7490234375
-68.66455078125
-64.0869140625
-62.255859375
-68.66455078125
-65.91796875
-62.255859375
-58.59375
-59.50927734375
-57.67822265625
-58.59375
-62.255859375
-57.67822265625
-53.1005859375
-53.1005859375
-54.01611328125
-50.35400390625
-50.35400390625
-45.7763671875
-41.19873046875
-38.4521484375
-37.53662109375
-41.19873046875
-35.70556640625
-30.21240234375
-35.70556640625
-32.958984375
-30.21240234375
-26.55029296875
-24.71923828125
-25.634765625
-21.97265625
-18.310546875
-16.4794921875
-10.986328125
-10.07080078125
-14.6484375
-17.39501953125
-14.6484375
-2.74658203125
9.1552734375
4.57763671875
0
1.8310546875
5.4931640625
18.310546875
15.56396484375
24.71923828125
25.634765625
16.4794921875
19.22607421875
30.21240234375
30.21240234375
40.283203125
44.86083984375
39.36767578125
41.19873046875
43.9453125
58.59375
57.67822265625
54.01611328125
57.67822265625
65.00244140625
59.50927734375
64.0869140625
68.66455078125
65.91796875
64.0869140625
67.7490234375
71.4111328125
69.580078125
66.83349609375
75.0732421875
74.15771484375
71.4111328125
71.4111328125
72.32666015625
65.91796875
65.00244140625
62.255859375
62.255859375
62.255859375
59.50927734375
57.67822265625
53.1005859375
60.4248046875
58.59375
49.4384765625
44.86083984375
47.607421875
46.69189453125
30.21240234375
26.55029296875
30.21240234375
31.1279296875
36.62109375
27.4658203125
20.1416015625
18.310546875
11.90185546875
12.8173828125
9.1552734375
5.4931640625
-2.74658203125
-13.73291015625
-6.40869140625
-4.57763671875
-12.8173828125
-18.310546875
-20.1416015625
-26.55029296875
-31.1279296875
-29.296875
-30.21240234375
-32.958984375
-42.1142578125
-38.4521484375
-43.02978515625
-47.607421875
-53.1005859375
-54.931640625
-54.931640625
-50.35400390625
-55.84716796875
-57.67822265625
-54.931640625
-57.67822265625
-59.50927734375
-62.255859375
-54.01611328125
-54.931640625
-64.0869140625
-61.34033203125
-57.67822265625
-62.255859375
-60.4248046875
-62.255859375
-56.7626953125
-64.0869140625
-59.50927734375
-63.17138671875
-62.255859375
-61.34033203125
-58.59375
-62.255859375
-63.17138671875
-65.00244140625
-63.17138671875
-62.255859375
-59.50927734375
-63.17138671875
-63.17138671875
-59.50927734375
-61.34033203125
-60.4248046875
-54.01611328125
-52.18505859375
-49.4384765625
-59.50927734375
-64.0869140625
-60.4248046875
-52.18505859375
-61.34033203125
-59.50927734375
-54.931640625
-51.26953125
-49.4384765625
-52.18505859375
-50.35400390625
-54.01611328125
-47.607421875
-51.26953125
-49.4384765625
-46.69189453125
-44.86083984375
-52.18505859375
-48.52294921875
-37.53662109375
-43.9453125
-43.02978515625
-51.26953125
-53.1005859375
-49.4384765625
-53.1005859375
-57.67822265625
-55.84716796875
-51.26953125
-54.01611328125
-51.26953125
-56.7626953125
-53.1005859375
-50.35400390625
-45.7763671875
-50.35400390625
-63.17138671875
-53.1005859375
-54.931640625
-54.931640625
-61.34033203125
-65.91796875
-63.17138671875
-65.00244140625
-66.83349609375
-66.83349609375
-70.49560546875
-72.32666015625
-68.66455078125
-65.91796875
-63.17138671875
-75.98876953125
-71.4111328125
-58.59375
-63.17138671875
-62.255859375
-67.7490234375
-60.4248046875
-43.9453125
-40.283203125
-32.04345703125
-23.8037109375
-24.71923828125
-22.88818359375
-23.8037109375
-21.05712890625
-17.39501953125
-18.310546875
-21.05712890625
-12.8173828125
-4.57763671875
10.986328125
29.296875
42.1142578125
57.67822265625
60.4248046875
62.255859375
66.83349609375
67.7490234375
61.34033203125
61.34033203125
65.91796875
65.00244140625
53.1005859375
68.66455078125
64.0869140625
58.59375
57.67822265625
45.7763671875
32.958984375
21.05712890625
8.23974609375
-0.91552734375
-20.1416015625
-32.04345703125
-38.4521484375
-45.7763671875
-50.35400390625
-54.01611328125
-63.17138671875
-65.00244140625
-77.81982421875
-88.80615234375
-91.552734375
-96.13037109375
-107.11669921875
-108.0322265625
-105.28564453125
-106.201171875
-109.86328125
-107.11669921875
-103.45458984375
-107.11669921875
-112.60986328125
-119.93408203125
-125.42724609375
-122.6806640625
-121.76513671875
-127.25830078125
-128.173828125
-123.59619140625
-119.93408203125
-125.42724609375
-132.75146484375
-134.58251953125
-134.58251953125
-132.75146484375
-136.41357421875
-139.16015625
-132.75146484375
-119.93408203125
-125.42724609375
-120.849609375
-95.21484375
-68.66455078125
-54.931640625
-19.22607421875
33.87451171875
91.552734375
124.51171875
152.89306640625
235.29052734375
319.51904296875
392.76123046875
479.736328125
567.626953125
620.7275390625
638.12255859375
565.7958984375
401.0009765625
278.3203125
173.9501953125
54.01611328125
-54.01611328125
-112.60986328125
-127.25830078125
-105.28564453125
-88.80615234375
-86.97509765625
-86.97509765625
-93.3837890625
-107.11669921875
-124.51171875
-134.58251953125
-130.0048828125
-100.7080078125
-81.48193359375
-68.66455078125
-70.49560546875
-65.00244140625
-66.83349609375
-55.84716796875
-54.931640625
-61.34033203125
-63.17138671875
-61.34033203125
-59.50927734375
-60.4248046875
-61.34033203125
-60.4248046875
-62.255859375
-59.50927734375
-62.255859375
-60.4248046875
-54.01611328125
-54.01611328125
-48.52294921875
-56.7626953125
-51.26953125
-52.18505859375
-43.9453125
-44.86083984375
-43.9453125
-34.7900390625
-44.86083984375
-44.86083984375
-43.02978515625
-38.4521484375
-36.62109375
-40.283203125
-25.634765625
-27.4658203125
-28.38134765625
-31.1279296875
-26.55029296875
-25.634765625
-26.55029296875
-22.88818359375
-18.310546875
-11.90185546875
-13.73291015625
-11.90185546875
-10.07080078125
-9.1552734375
-7.32421875
-2.74658203125
-1.8310546875
-0.91552734375
10.986328125
16.4794921875
10.986328125
18.310546875
16.4794921875
20.1416015625
24.71923828125
35.70556640625
37.53662109375
36.62109375
47.607421875
53.1005859375
49.4384765625
57.67822265625
62.255859375
61.34033203125
61.34033203125
68.66455078125
80.56640625
80.56640625
79.65087890625
86.0595703125
97.0458984375
98.876953125
96.13037109375
103.45458984375
95.21484375
105.28564453125
103.45458984375
100.7080078125
100.7080078125
108.0322265625
104.3701171875
102.5390625
106.201171875
102.5390625
104.3701171875
100.7080078125
97.0458984375
96.13037109375
89.7216796875
97.96142578125
94.29931640625
85.14404296875
86.0595703125
85.14404296875
81.48193359375
76.904296875
72.32666015625
67.7490234375
61.34033203125
55.84716796875
54.01611328125
50.35400390625
53.1005859375
45.7763671875
38.4521484375
34.7900390625
29.296875
24.71923828125
26.55029296875
18.310546875
11.90185546875
10.07080078125
7.32421875
2.74658203125
-7.32421875
-7.32421875
-2.74658203125
-5.4931640625
-19.22607421875
-20.1416015625
-27.4658203125
-30.21240234375
-33.87451171875
-33.87451171875
-36.62109375
-44.86083984375
-43.02978515625
-39.36767578125
-43.9453125
-47.607421875
-58.59375
-56.7626953125
-51.26953125
-55.84716796875
-49.4384765625
-52.18505859375
-56.7626953125
-52.18505859375
-56.7626953125
-65.00244140625
-59.50927734375
-54.01611328125
-52.18505859375
-54.01611328125
-54.931640625
-53.1005859375
-52.18505859375
-47.607421875
-47.607421875
-56.7626953125
-59.50927734375
-54.01611328125
-46.69189453125
-45.7763671875
-42.1142578125
-44.86083984375
-44.86083984375
-49.4384765625
-47.607421875
-42.1142578125
-43.02978515625
-41.19873046875
-43.9453125
-42.1142578125
-43.02978515625
-43.9453125
-38.4521484375
-34.7900390625
-37.53662109375
-38.4521484375
-43.02978515625
-39.36767578125
-38.4521484375
-36.62109375
-43.02978515625
-38.4521484375
-33.87451171875
-42.1142578125
-39.36767578125
-35.70556640625
-35.70556640625
-38.4521484375
-46.69189453125
-48.52294921875
-43.02978515625
-47.607421875
-45.7763671875
-47.607421875
-43.9453125
-43.9453125
-38.4521484375
-41.19873046875
-48.52294921875
-46.69189453125
-50.35400390625
-47.607421875
-43.9453125
-45.7763671875
-40.283203125
-43.9453125
-44.86083984375
-45.7763671875
-51.26953125
-54.931640625
-53.1005859375
-55.84716796875
-54.931640625
-56.7626953125
-53.1005859375
-55.84716796875
-44.86083984375
-50.35400390625
-51.26953125
-54.01611328125
-53.1005859375
-39.36767578125
-40.283203125
-50.35400390625
-41.19873046875
-17.39501953125
-14.6484375
-13.73291015625
-8.23974609375
-3.662109375
-8.23974609375
-10.07080078125
-0.91552734375
-2.74658203125
-7.32421875
-1.8310546875
2.74658203125
16.4794921875
34.7900390625
53.1005859375
59.50927734375
65.00244140625
78.7353515625
85.14404296875
88.80615234375
84.228515625
77.81982421875
75.0732421875
71.4111328125
74.15771484375
70.49560546875
67.7490234375
66.83349609375
66.83349609375
70.49560546875
56.7626953125
34.7900390625
22.88818359375
11.90185546875
-4.57763671875
-21.05712890625
-25.634765625
-22.88818359375
-34.7900390625
-44.86083984375
-56.7626953125
-62.255859375
-68.66455078125
-75.98876953125
-81.48193359375
-84.228515625
-85.14404296875
-86.97509765625
-92.46826171875
-95.21484375
-98.876953125
-103.45458984375
-101.62353515625
-102.5390625
-107.11669921875
-107.11669921875
-115.3564453125
-115.3564453125
-117.1875
-117.1875
-110.77880859375
-119.0185546875
-121.76513671875
-121.76513671875
-120.849609375
-133.6669921875
-137.3291015625
-134.58251953125
-138.24462890625
-142.822265625
-136.41357421875
-127.25830078125
-125.42724609375
-126.3427734375
-110.77880859375
-80.56640625
-64.0869140625
-33.87451171875
5.4931640625
70.49560546875
123.59619140625
151.9775390625
220.64208984375
315.85693359375
405.57861328125
509.94873046875
600.5859375
675.6591796875
704.9560546875
643.61572265625
494.384765625
364.3798828125
248.10791015625
98.876953125
-54.01611328125
-138.24462890625
-139.16015625
-124.51171875
-110.77880859375
-112.60986328125
-94.29931640625
-92.46826171875
-109.86328125
-122.6806640625
-130.92041015625
-120.849609375
-95.21484375
-80.56640625
-65.91796875
-65.00244140625
-61.34033203125
-63.17138671875
-65.91796875
-66.83349609375
-63.17138671875
-65.00244140625
-65.91796875
-71.4111328125
-61.34033203125
-56.7626953125
-60.4248046875
-57.67822265625
-50.35400390625
-52.18505859375
-58.59375
-53.1005859375
-46.69189453125
-48.52294921875
-48.52294921875
-52.18505859375
-43.9453125
-41.19873046875
-42.1142578125
-35.70556640625
-39.36767578125
-41.19873046875
-39.36767578125
-38.4521484375
-37.53662109375
-31.1279296875
-34.7900390625
-32.04345703125
-22.88818359375
-21.05712890625
-27.4658203125
-24.71923828125
-22.88818359375
-18.310546875
-21.05712890625
-18.310546875
-9.1552734375
6.40869140625
2.74658203125
-4.57763671875
-0.91552734375
1.8310546875
10.986328125
6.40869140625
6.40869140625
10.07080078125
10.986328125
14.6484375
23.8037109375
24.71923828125
32.04345703125
32.958984375
39.36767578125
42.1142578125
44.86083984375
56.7626953125
57.67822265625
54.931640625
64.0869140625
71.4111328125
66.83349609375
74.15771484375
77.81982421875
81.48193359375
87.890625
96.13037109375
96.13037109375
108.0322265625
102.5390625
103.45458984375
114.44091796875
116.27197265625
119.0185546875
119.0185546875
121.76513671875
118.10302734375
118.10302734375
120.849609375
122.6806640625
125.42724609375
118.10302734375
112.60986328125
110.77880859375
108.0322265625
103.45458984375
108.0322265625
105.28564453125
102.5390625
97.96142578125
100.7080078125
98.876953125
91.552734375
82.3974609375
81.48193359375
74.15771484375
76.904296875
74.15771484375
58.59375
59.50927734375
55.84716796875
49.4384765625
41.19873046875
40.283203125
39.36767578125
32.958984375
21.05712890625
23.8037109375
16.4794921875
13.73291015625
8.23974609375
10.986328125
5.4931640625
-8.23974609375
-8.23974609375
-0.91552734375
-5.4931640625
-16.4794921875
-18.310546875
-24.71923828125
-28.38134765625
-29.296875
-31.1279296875
-31.1279296875
-42.1142578125
-48.52294921875
-44.86083984375
-43.02978515625
-45.7763671875
-52.18505859375
-53.1005859375
-50.35400390625
-51.26953125
-48.52294921875
-51.26953125
-51.26953125
-51.26953125
-51.26953125
-51.26953125
-60.4248046875
-57.67822265625
-49.4384765625
-54.01611328125
-60.4248046875
-59.50927734375
-56.7626953125
-54.01611328125
-52.18505859375
-49.4384765625
-48.52294921875
-50.35400390625
-49.4384765625
-47.607421875
-47.607421875
-48.52294921875
-48.52294921875
-43.9453125
-43.9453125
-40.283203125
-37.53662109375
-39.36767578125
-37.53662109375
-35.70556640625
-38.4521484375
-36.62109375
-42.1142578125
-35.70556640625
-33.87451171875
-36.62109375
-38.4521484375
-33.87451171875
-34.7900390625
-38.4521484375
-34.7900390625
-39.36767578125
-34.7900390625
-32.958984375
-33.87451171875
-29.296875
-32.04345703125
-34.7900390625
-39.36767578125
-41.19873046875
-44.86083984375
-43.9453125
-34.7900390625
-32.04345703125
-38.4521484375
-34.7900390625
-32.04345703125
-38.4521484375
-40.283203125
-38.4521484375
-43.9453125
-43.9453125
-40.283203125
-39.36767578125
-43.9453125
-44.86083984375
-43.02978515625
-46.69189453125
-43.9453125
-46.69189453125
-48.52294921875
-44.86083984375
-45.7763671875
-49.4384765625
-59.50927734375
-49.4384765625
-49.4384765625
-55.84716796875
-57.67822265625
-51.26953125
-51.26953125
-52.18505859375
-54.931640625
-55.84716796875
-43.9453125
-43.02978515625
-43.9453125
-49.4384765625
-50.35400390625
-39.36767578125
-32.04345703125
-21.05712890625
-15.56396484375
-9.1552734375
-12.8173828125
0
4.57763671875
3.662109375
3.662109375
-2.74658203125
0.91552734375
8.23974609375
18.310546875
43.02978515625
63.17138671875
75.98876953125
87.890625
79.65087890625
86.0595703125
89.7216796875
92.46826171875
85.14404296875
81.48193359375
77.81982421875
84.228515625
72.32666015625
76.904296875
69.580078125
66.83349609375
55.84716796875
46.69189453125
37.53662109375
31.1279296875
25.634765625
6.40869140625
-18.310546875
-32.958984375
-43.02978515625
-40.283203125
-48.52294921875
-61.34033203125
-62.255859375
-66.83349609375
-75.0732421875
-74.15771484375
-82.3974609375
-85.14404296875
-94.29931640625
-92.46826171875
-97.96142578125
-110.77880859375
-105.28564453125
-102.5390625
-100.7080078125
-108.0322265625
-105.28564453125
-103.45458984375
-108.94775390625
-116.27197265625
-117.1875
-114.44091796875
-112.60986328125
-111.6943359375
-120.849609375
-120.849609375
-128.173828125
-132.75146484375
-132.75146484375
-141.90673828125
-139.16015625
-147.39990234375
-142.822265625
-135.498046875
-126.3427734375
-114.44091796875
-91.552734375
-74.15771484375
-51.26953125
-5.4931640625
60.4248046875
114.44091796875
144.6533203125
218.81103515625
306.70166015625
401.0009765625
496.2158203125
588.68408203125
659.1796875
686.6455078125
613.4033203125
460.51025390625
333.251953125
227.05078125
76.904296875
-63.17138671875
-136.41357421875
-144.6533203125
-133.6669921875
-119.0185546875
-110.77880859375
-106.201171875
-104.3701171875
-118.10302734375
-128.173828125
-140.9912109375
-125.42724609375
-96.13037109375
-76.904296875
-66.83349609375
-59.50927734375
-62.255859375
-71.4111328125
-54.931640625
-55.84716796875
-61.34033203125
-56.7626953125
-59.50927734375
-55.84716796875
-62.255859375
-66.83349609375
-67.7490234375
-64.0869140625
-66.83349609375
-70.49560546875
-70.49560546875
-54.01611328125
-52.18505859375
-54.01611328125
-51.26953125
-51.26953125
-47.607421875
-47.607421875
-46.69189453125
-40.283203125
-37.53662109375
-36.62109375
-33.87451171875
-42.1142578125
-48.52294921875
-45.7763671875
-37.53662109375
-34.7900390625
-36.62109375
-36.62109375
-31.1279296875
-26.55029296875
-26.55029296875
-22.88818359375
-18.310546875
-19.22607421875
-10.07080078125
-15.56396484375
-20.1416015625
-21.05712890625
-7.32421875
-0.91552734375
-1.8310546875
6.40869140625
4.57763671875
9.1552734375
14.6484375
13.73291015625
11.90185546875
20.1416015625
20.1416015625
23.8037109375
24.71923828125
32.04345703125
32.04345703125
38.4521484375
45.7763671875
43.9453125
49.4384765625
49.4384765625
61.34033203125
62.255859375
58.59375
70.49560546875
74.15771484375
78.7353515625
75.98876953125
83.31298828125
91.552734375
84.228515625
85.14404296875
93.3837890625
95.21484375
100.7080078125
97.96142578125
96.13037109375
90.63720703125
84.228515625
83.31298828125
87.890625
86.97509765625
85.14404296875
84.228515625
82.3974609375
85.14404296875
76.904296875
74.15771484375
67.7490234375
70.49560546875
76.904296875
58.59375
59.50927734375
63.17138671875
60.4248046875
57.67822265625
48.52294921875
46.69189453125
43.02978515625
35.70556640625
26.55029296875
31.1279296875
25.634765625
24.71923828125
18.310546875
10.986328125
9.1552734375
-5.4931640625
-3.662109375
-5.4931640625
-10.07080078125
-7.32421875
-5.4931640625
-19.22607421875
-23.8037109375
-21.97265625
-24.71923828125
-33.87451171875
-38.4521484375
-32.958984375
-41.19873046875
-43.9453125
-50.35400390625
-46.69189453125
-46.69189453125
-53.1005859375
-55.84716796875
-54.931640625
-58.59375
-71.4111328125
-67.7490234375
-57.67822265625
-65.91796875
-68.66455078125
-75.0732421875
-75.98876953125
-76.904296875
-72.32666015625
-68.66455078125
-72.32666015625
-65.91796875
-70.49560546875
-61.34033203125
-63.17138671875
-68.66455078125
-67.7490234375
-62.255859375
-69.580078125
-67.7490234375
-70.49560546875
-60.4248046875
-59.50927734375
-58.59375
-60.4248046875
-59.50927734375
-59.50927734375
-53.1005859375
-59.50927734375
-64.0869140625
-55.84716796875
-47.607421875
-55.84716796875
-48.52294921875
-47.607421875
-51.26953125
-54.01611328125
-53.1005859375
-59.50927734375
-65.91796875
-55.84716796875
-53.1005859375
-46.69189453125
-51.26953125
-54.931640625
-49.4384765625
-53.1005859375
-53.1005859375
-54.931640625
-45.7763671875
-54.01611328125
-52.18505859375
-44.86083984375
-52.18505859375
-57.67822265625
-54.01611328125
-51.26953125
-55.84716796875
-60.4248046875
-66.83349609375
-64.0869140625
-61.34033203125
-54.01611328125
-56.7626953125
-56.7626953125
-53.1005859375
-55.84716796875
-56.7626953125
-56.7626953125
-58.59375
-53.1005859375
-58.59375
-60.4248046875
-58.59375
-58.59375
-61.34033203125
-66.83349609375
-60.4248046875
-64.0869140625
-68.66455078125
-63.17138671875
-62.255859375
-69.580078125
-64.0869140625
-75.98876953125
-78.7353515625
-75.0732421875
-70.49560546875
-76.904296875
-75.98876953125
-67.7490234375
-75.98876953125
-72.32666015625
-75.98876953125
-69.580078125
-59.50927734375
-66.83349609375
-71.4111328125
-60.4248046875
-51.26953125
-50.35400390625
-47.607421875
-41.19873046875
-38.4521484375
-32.958984375
-32.958984375
-38.4521484375
-26.55029296875
-28.38134765625
-28.38134765625
-27.4658203125
-17.39501953125
5.4931640625
19.22607421875
31.1279296875
45.7763671875
43.9453125
52.18505859375
57.67822265625
51.26953125
54.01611328125
54.01611328125
54.931640625
64.0869140625
55.84716796875
54.931640625
48.52294921875
51.26953125
42.1142578125
39.36767578125
29.296875
10.07080078125
0
-16.4794921875
-32.958984375
-44.86083984375
-50.35400390625
-57.67822265625
-62.255859375
-65.91796875
-70.49560546875
-78.7353515625
-85.14404296875
-93.3837890625
-99.79248046875
-103.45458984375
-110.77880859375
-114.44091796875
-108.94775390625
-115.3564453125
-120.849609375
-129.08935546875
-130.92041015625
-120.849609375
-119.93408203125
-125.42724609375
-132.75146484375
-130.92041015625
-127.25830078125
-133.6669921875
-140.07568359375
-132.75146484375
-132.75146484375
-130.92041015625
-146.484375
-152.89306640625
-149.23095703125
-151.9775390625
-152.89306640625
-162.04833984375
-149.23095703125
-147.39990234375
-138.24462890625
-119.0185546875
-93.3837890625
-75.0732421875
-55.84716796875
-13.73291015625
27.4658203125
71.4111328125
97.0458984375
146.484375
235.29052734375
325.01220703125
389.09912109375
481.5673828125
560.302734375
570.37353515625
535.58349609375
403.74755859375
275.57373046875
199.5849609375
97.0458984375
-12.8173828125
-56.7626953125
-86.0595703125
-99.79248046875
-72.32666015625
-63.17138671875
-65.00244140625
-80.56640625
-102.5390625
-123.59619140625
-150.146484375
-159.3017578125
-150.146484375
-133.6669921875
-114.44091796875
-97.0458984375
-88.80615234375
-91.552734375
-80.56640625
-78.7353515625
-80.56640625
-80.56640625
-89.7216796875
-86.0595703125
-86.97509765625
-84.228515625
-89.7216796875
-92.46826171875
-92.46826171875
-80.56640625
-87.890625
-77.81982421875
-68.66455078125
-75.98876953125
-75.98876953125
-71.4111328125
-82.3974609375
-75.98876953125
-72.32666015625
-68.66455078125
-67.7490234375
-65.91796875
-63.17138671875
-62.255859375
-61.34033203125
-58.59375
-59.50927734375
-53.1005859375
-56.7626953125
-55.84716796875
-44.86083984375
-43.02978515625
-47.607421875
-49.4384765625
-48.52294921875
-41.19873046875
-44.86083984375
-47.607421875
-42.1142578125
-32.04345703125
-26.55029296875
-20.1416015625
-21.05712890625
-32.958984375
-20.1416015625
-20.1416015625
-13.73291015625
-8.23974609375
-10.986328125
-16.4794921875
-6.40869140625
-3.662109375
0
0.91552734375
4.57763671875
10.07080078125
10.986328125
13.73291015625
19.22607421875
26.55029296875
26.55029296875
27.4658203125
33.87451171875
29.296875
30.21240234375
40.283203125
30.21240234375
33.87451171875
49.4384765625
49.4384765625
43.9453125
43.9453125
48.52294921875
51.26953125
56.7626953125
58.59375
42.1142578125
38.4521484375
50.35400390625
47.607421875
47.607421875
43.02978515625
47.607421875
50.35400390625
43.9453125
32.958984375
36.62109375
31.1279296875
30.21240234375
21.97265625
11.90185546875
23.8037109375
21.05712890625
18.310546875
13.73291015625
10.986328125
11.90185546875
0
-6.40869140625
2.74658203125
10.07080078125
-1.8310546875
-8.23974609375
-21.97265625
-17.39501953125
-12.8173828125
-6.40869140625
-19.22607421875
-23.8037109375
-27.4658203125
-35.70556640625
-36.62109375
-45.7763671875
-37.53662109375
-33.87451171875
-42.1142578125
-39.36767578125
-42.1142578125
-52.18505859375
-48.52294921875
-54.931640625
-63.17138671875
-61.34033203125
-58.59375
-64.0869140625
-68.66455078125
-75.98876953125
-80.56640625
-77.81982421875
-79.65087890625
-75.98876953125
-85.14404296875
-75.98876953125
-78.7353515625
-67.7490234375
-72.32666015625
-82.3974609375
-86.0595703125
-86.0595703125
-80.56640625
-78.7353515625
-77.81982421875
-76.904296875
-70.49560546875
-65.91796875
-64.0869140625
-71.4111328125
-70.49560546875
-71.4111328125
-69.580078125
-72.32666015625
-67.7490234375
-72.32666015625
-64.0869140625
-63.17138671875
-66.83349609375
-71.4111328125
-65.91796875
-68.66455078125
-67.7490234375
-60.4248046875
-58.59375
-65.91796875
-67.7490234375
-66.83349609375
-59.50927734375
-53.1005859375
-53.1005859375
-55.84716796875
-55.84716796875
-52.18505859375
-57.67822265625
-56.7626953125
-55.84716796875
-54.01611328125
-56.7626953125
-57.67822265625
-54.01611328125
-50.35400390625
-54.01611328125
-53.1005859375
-54.931640625
-56.7626953125
-53.1005859375
-59.50927734375
-57.67822265625
-61.34033203125
-64.0869140625
-70.49560546875
-62.255859375
-64.0869140625
-56.7626953125
-54.931640625
-58.59375
-62.255859375
-52.18505859375
-53.1005859375
-62.255859375
-65.91796875
-65.91796875
-63.17138671875
-65.91796875
-60.4248046875
-64.0869140625
-58.59375
-75.98876953125
-75.98876953125
-65.00244140625
-74.15771484375
-69.580078125
-72.32666015625
-71.4111328125
-66.83349609375
-70.49560546875
-76.904296875
-83.31298828125
-86.0595703125
-76.904296875
-76.904296875
-82.3974609375
-77.81982421875
-70.49560546875
-70.49560546875
-71.4111328125
-57.67822265625
-49.4384765625
-45.7763671875
-36.62109375
-27.4658203125
-36.62109375
-34.7900390625
-27.4658203125
-14.6484375
-28.38134765625
-44.86083984375
-33.87451171875
-19.22607421875
-0.91552734375
13.73291015625
26.55029296875
33.87451171875
39.36767578125
38.4521484375
46.69189453125
58.59375
53.1005859375
47.607421875
46.69189453125
56.7626953125
51.26953125
43.02978515625
44.86083984375
51.26953125
48.52294921875
33.87451171875
23.8037109375
16.4794921875
-5.4931640625
-19.22607421875
-25.634765625
-34.7900390625
-45.7763671875
-54.01611328125
-64.0869140625
-69.580078125
-69.580078125
-73.2421875
-75.98876953125
-90.63720703125
-96.13037109375
-105.28564453125
-109.86328125
-120.849609375
-118.10302734375
-124.51171875
-111.6943359375
-115.3564453125
-113.525390625
-124.51171875
-120.849609375
-118.10302734375
-126.3427734375
-128.173828125
-125.42724609375
-125.42724609375
-123.59619140625
-129.08935546875
-136.41357421875
-138.24462890625
-140.9912109375
-140.9912109375
-139.16015625
-144.6533203125
-147.39990234375
-148.3154296875
-134.58251953125
-126.3427734375
-130.92041015625
-112.60986328125
-83.31298828125
-56.7626953125
-46.69189453125
-19.22607421875
26.55029296875
76.904296875
111.6943359375
151.9775390625
226.13525390625
300.29296875
379.0283203125
460.51025390625
532.8369140625
561.21826171875
552.978515625
443.115234375
295.71533203125
223.388671875
138.24462890625
39.36767578125
-22.88818359375
-65.00244140625
-68.66455078125
-38.4521484375
-40.283203125
-52.18505859375
-60.4248046875
-80.56640625
-108.94775390625
-135.498046875
-147.39990234375
-143.73779296875
-121.76513671875
-113.525390625
-91.552734375
-83.31298828125
-71.4111328125
-75.0732421875
-76.904296875
-82.3974609375
-82.3974609375
-74.15771484375
-75.0732421875
-80.56640625
-77.81982421875
-86.0595703125
-81.48193359375
-80.56640625
-74.15771484375
-68.66455078125
-67.7490234375
-73.2421875
-75.0732421875
-80.56640625
-68.66455078125
-75.98876953125
-80.56640625
-71.4111328125
-63.17138671875
-56.7626953125
-65.00244140625
-60.4248046875
-58.59375
-52.18505859375
-61.34033203125
-61.34033203125
-65.91796875
-54.01611328125
-43.9453125
-43.9453125
-48.52294921875
-44.86083984375
-37.53662109375
-38.4521484375
-35.70556640625
-36.62109375
-30.21240234375
-30.21240234375
-29.296875
-22.88818359375
-18.310546875
-21.97265625
-21.97265625
-15.56396484375
-9.1552734375
-15.56396484375
-10.07080078125
-6.40869140625
2.74658203125
2.74658203125
11.90185546875
5.4931640625
4.57763671875
17.39501953125
21.05712890625
18.310546875
22.88818359375
16.4794921875
18.310546875
21.05712890625
32.04345703125
38.4521484375
36.62109375
39.36767578125
41.19873046875
43.9453125
46.69189453125
46.69189453125
54.01611328125
57.67822265625
65.91796875
54.01611328125
50.35400390625
54.931640625
64.0869140625
60.4248046875
58.59375
62.255859375
54.931640625
54.01611328125
52.18505859375
53.1005859375
49.4384765625
43.9453125
39.36767578125
39.36767578125
37.53662109375
28.38134765625
34.7900390625
37.53662109375
29.296875
23.8037109375
26.55029296875
29.296875
21.05712890625
15.56396484375
6.40869140625
0
0
-1.8310546875
-4.57763671875
-3.662109375
-6.40869140625
-11.90185546875
-11.90185546875
-8.23974609375
-12.8173828125
-17.39501953125
-16.4794921875
-30.21240234375
-36.62109375
-25.634765625
-32.958984375
-32.04345703125
-37.53662109375
-46.69189453125
-39.36767578125
-48.52294921875
-57.67822265625
-57.67822265625
-53.1005859375
-46.69189453125
-49.4384765625
-57.67822265625
-65.91796875
-65.91796875
-64.0869140625
-62.255859375
-64.0869140625
-73.2421875
-64.0869140625
-60.4248046875
-63.17138671875
-72.32666015625
-72.32666015625
-71.4111328125
-68.66455078125
-72.32666015625
-72.32666015625
-73.2421875
-66.83349609375
-65.00244140625
-63.17138671875
-59.50927734375
-61.34033203125
-67.7490234375
-73.2421875
-70.49560546875
-70.49560546875
-62.255859375
-68.66455078125
-75.0732421875
-66.83349609375
-58.59375
-61.34033203125
-61.34033203125
-69.580078125
-59.50927734375
-51.26953125
-54.931640625
-51.26953125
-54.931640625
-54.01611328125
-54.01611328125
-53.1005859375
-59.50927734375
-57.67822265625
-54.01611328125
-51.26953125
-51.26953125
-57.67822265625
-57.67822265625
-58.59375
-51.26953125
-54.01611328125
-48.52294921875
-47.607421875
-51.26953125
-46.69189453125
-47.607421875
-45.7763671875
-43.02978515625
-44.86083984375
-46.69189453125
-43.02978515625
-47.607421875
-45.7763671875
-54.931640625
-55.84716796875
-54.931640625
-61.34033203125
-48.52294921875
-53.1005859375
-49.4384765625
-55.84716796875
-54.01611328125
-55.84716796875
-57.67822265625
-54.01611328125
-56.7626953125
-53.1005859375
-63.17138671875
-58.59375
-65.91796875
-63.17138671875
-61.34033203125
-61.34033203125
-61.34033203125
-61.34033203125
-57.67822265625
-61.34033203125
-65.91796875
-68.66455078125
-67.7490234375
-69.580078125
-67.7490234375
-77.81982421875
-80.56640625
-83.31298828125
-82.3974609375
-80.56640625
-76.904296875
-74.15771484375
-71.4111328125
-84.228515625
-82.3974609375
-75.0732421875
-74.15771484375
-74.15771484375
-81.48193359375
-80.56640625
-74.15771484375
-68.66455078125
-65.91796875
-64.0869140625
-49.4384765625
-41.19873046875
-37.53662109375
-39.36767578125
-32.04345703125
-27.4658203125
-23.8037109375
-28.38134765625
-26.55029296875
-25.634765625
-17.39501953125
-16.4794921875
-5.4931640625
11.90185546875
39.36767578125
43.9453125
45.7763671875
53.1005859375
53.1005859375
62.255859375
60.4248046875
53.1005859375
46.69189453125
41.19873046875
46.69189453125
45.7763671875
44.86083984375
48.52294921875
46.69189453125
39.36767578125
34.7900390625
24.71923828125
11.90185546875
0.91552734375
-19.22607421875
-33.87451171875
-49.4384765625
-61.34033203125
-65.91796875
-63.17138671875
-70.49560546875
-76.904296875
-82.3974609375
-93.3837890625
-98.876953125
-104.3701171875
-105.28564453125
-106.201171875
-104.3701171875
-108.0322265625
-106.201171875
-106.201171875
-109.86328125
-111.6943359375
-113.525390625
-119.93408203125
-116.27197265625
-113.525390625
-119.93408203125
-125.42724609375
-126.3427734375
-122.6806640625
-130.0048828125
-136.41357421875
-135.498046875
-132.75146484375
-137.3291015625
-136.41357421875
-140.9912109375
-144.6533203125
-146.484375
-132.75146484375
-130.92041015625
-128.173828125
-113.525390625
-82.3974609375
-62.255859375
-41.19873046875
-5.4931640625
51.26953125
99.79248046875
120.849609375
166.6259765625
255.43212890625
335.0830078125
424.8046875
515.44189453125
584.1064453125
612.48779296875
559.38720703125
406.494140625
278.3203125
191.34521484375
90.63720703125
-19.22607421875
-84.228515625
-111.6943359375
-105.28564453125
-96.13037109375
-92.46826171875
-93.3837890625
-88.80615234375
-107.11669921875
-120.849609375
-132.75146484375
-135.498046875
-120.849609375
-97.0458984375
-79.65087890625
-75.0732421875
-67.7490234375
-67.7490234375
-68.66455078125
-70.49560546875
-67.7490234375
-69.580078125
-72.32666015625
-75.98876953125
-74.15771484375
-69.580078125
-65.91796875
-69.580078125
-67.7490234375
-70.49560546875
-66.83349609375
-62.255859375
-60.4248046875
-65.91796875
-62.255859375
-66.83349609375
-65.00244140625
-62.255859375
-57.67822265625
-55.84716796875
-65.00244140625
-60.4248046875
-65.00244140625
-54.01611328125
-48.52294921875
-54.01611328125
-57.67822265625
-47.607421875
-39.36767578125
-47.607421875
-45.7763671875
-42.1142578125
-34.7900390625
-36.62109375
-32.958984375
-32.04345703125
-29.296875
-24.71923828125
-25.634765625
-27.4658203125
-25.634765625
-22.88818359375
-12.8173828125
-3.662109375
-0.91552734375
-6.40869140625
-7.32421875
4.57763671875
4.57763671875
5.4931640625
12.8173828125
4.57763671875
18.310546875
16.4794921875
12.8173828125
14.6484375
24.71923828125
33.87451171875
39.36767578125
36.62109375
32.04345703125
37.53662109375
51.26953125
55.84716796875
51.26953125
54.01611328125
62.255859375
65.91796875
65.91796875
73.2421875
78.7353515625
80.56640625
72.32666015625
75.98876953125
80.56640625
82.3974609375
81.48193359375
80.56640625
76.904296875
71.4111328125
73.2421875
67.7490234375
75.0732421875
74.15771484375
75.0732421875
65.91796875
73.2421875
68.66455078125
73.2421875
66.83349609375
57.67822265625
57.67822265625
54.01611328125
50.35400390625
47.607421875
45.7763671875
42.1142578125
33.87451171875
32.04345703125
34.7900390625
27.4658203125
17.39501953125
13.73291015625
7.32421875
7.32421875
1.8310546875
0.91552734375
-10.07080078125
-15.56396484375
-10.986328125
-13.73291015625
-21.05712890625
-27.4658203125
-21.05712890625
-16.4794921875
-26.55029296875
-27.4658203125
-32.04345703125
-32.958984375
-32.04345703125
-34.7900390625
-34.7900390625
-33.87451171875
-41.19873046875
-43.02978515625
-40.283203125
-48.52294921875
-49.4384765625
-53.1005859375
-56.7626953125
-62.255859375
-58.59375
-56.7626953125
-48.52294921875
-48.52294921875
-52.18505859375
-55.84716796875
-66.83349609375
-53.1005859375
-51.26953125
-51.26953125
-49.4384765625
-49.4384765625
-51.26953125
-50.35400390625
-47.607421875
-56.7626953125
-54.01611328125
-53.1005859375
-44.86083984375
-50.35400390625
-50.35400390625
-54.01611328125
-45.7763671875
-49.4384765625
-51.26953125
-42.1142578125
-43.02978515625
-43.9453125
-53.1005859375
-47.607421875
-42.1142578125
-44.86083984375
-40.283203125
-37.53662109375
-34.7900390625
-41.19873046875
-39.36767578125
-34.7900390625
-41.19873046875
-44.86083984375
-49.4384765625
-44.86083984375
-43.02978515625
-44.86083984375
-44.86083984375
-48.52294921875
-44.86083984375
-45.7763671875
-48.52294921875
-54.931640625
-50.35400390625
-50.35400390625
-51.26953125
-49.4384765625
-45.7763671875
-48.52294921875
-45.7763671875
-46.69189453125
-50.35400390625
-50.35400390625
-54.01611328125
-48.52294921875
-49.4384765625
-48.52294921875
-50.35400390625
-46.69189453125
-51.26953125
-51.26953125
-48.52294921875
-54.01611328125
-52.18505859375
-53.1005859375
-54.931640625
-59.50927734375
-55.84716796875
-52.18505859375
-53.1005859375
-59.50927734375
-58.59375
-56.7626953125
-60.4248046875
-58.59375
-63.17138671875
-64.0869140625
-67.7490234375
-64.0869140625
-59.50927734375
-64.0869140625
-65.91796875
-64.0869140625
-65.00244140625
-59.50927734375
-58.59375
-62.255859375
-65.91796875
-73.2421875
-70.49560546875
-73.2421875
-75.98876953125
-70.49560546875
-79.65087890625
-72.32666015625
-68.66455078125
-75.0732421875
-76.904296875
-69.580078125
-74.15771484375
-76.904296875
-84.228515625
-82.3974609375
-84.228515625
-93.3837890625
-83.31298828125
-82.3974609375
-76.904296875
-75.98876953125
-74.15771484375
-80.56640625
-81.48193359375
-68.66455078125
-56.7626953125
-51.26953125
-48.52294921875
-35.70556640625
-26.55029296875
-25.634765625
-19.22607421875
-21.97265625
-21.05712890625
-20.1416015625
-27.4658203125
-24.71923828125
-16.4794921875
-16.4794921875
-3.662109375
18.310546875
37.53662109375
46.69189453125
50.35400390625
58.59375
61.34033203125
63.17138671875
62.255859375
59.50927734375
52.18505859375
50.35400390625
60.4248046875
63.17138671875
54.931640625
52.18505859375
54.01611328125
43.02978515625
23.8037109375
24.71923828125
12.8173828125
3.662109375
-10.07080078125
-25.634765625
-38.4521484375
-45.7763671875
-51.26953125
-56.7626953125
-60.4248046875
-68.66455078125
-70.49560546875
-77.81982421875
-92.46826171875
-90.63720703125
-90.63720703125
-103.45458984375
-100.7080078125
-102.5390625
-108.0322265625
-101.62353515625
-103.45458984375
-113.525390625
-116.27197265625
-112.60986328125
-120.849609375
-114.44091796875
-108.94775390625
-111.6943359375
-104.3701171875
-108.94775390625
-116.27197265625
-125.42724609375
-128.173828125
-129.08935546875
-130.0048828125
-129.08935546875
-140.9912109375
-140.9912109375
-137.3291015625
-135.498046875
-122.6806640625
-130.0048828125
-124.51171875
-100.7080078125
-72.32666015625
-52.18505859375
-21.05712890625
41.19873046875
97.96142578125
126.3427734375
163.87939453125
254.5166015625
330.50537109375
421.142578125
515.44189453125
603.33251953125
652.77099609375
649.10888671875
546.56982421875
396.42333984375
284.72900390625
162.04833984375
20.1416015625
-101.62353515625
-142.822265625
-143.73779296875
-129.08935546875
-116.27197265625
-118.10302734375
-111.6943359375
-117.1875
