ECG
52.18505859375
51.26953125
54.01611328125
48.52294921875
37.53662109375
28.38134765625
27.4658203125
10.986328125
4.57763671875
-4.57763671875
-12.8173828125
-7.32421875
-3.662109375
-19.22607421875
-28.38134765625
-36.62109375
-43.9453125
-52.18505859375
-53.1005859375
-55.84716796875
-51.26953125
-55.84716796875
-65.91796875
-63.17138671875
-65.00244140625
-69.580078125
-73.2421875
-79.65087890625
-65.91796875
-59.50927734375
-68.66455078125
-70.49560546875
-73.2421875
-76.904296875
-75.0732421875
-77.81982421875
-86.0595703125
-87.890625
-77.81982421875
-81.48193359375
-87.890625
-88.80615234375
-83.31298828125
-75.0732421875
-79.65087890625
-82.3974609375
-83.31298828125
-87.890625
-87.890625
-84.228515625
-80.56640625
-75.98876953125
-77.81982421875
-78.7353515625
-64.0869140625
-46.69189453125
-29.296875
-14.6484375
5.4931640625
14.6484375
65.00244140625
112.60986328125
137.3291015625
183.10546875
230.712890625
278.3203125
329.58984375
383.60595703125
448.6083984375
467.83447265625
411.9873046875
270.08056640625
156.55517578125
90.63720703125
-12.8173828125
-94.29931640625
-159.3017578125
-191.34521484375
-183.10546875
-153.80859375
-115.3564453125
-104.3701171875
-92.46826171875
-102.5390625
-117.1875
-122.6806640625
-132.75146484375
-120.849609375
-100.7080078125
-85.14404296875
-59.50927734375
-43.02978515625
-35.70556640625
-32.04345703125
-34.7900390625
-34.7900390625
-27.4658203125
-19.22607421875
-27.4658203125
-27.4658203125
-20.1416015625
-9.1552734375
-14.6484375
-23.8037109375
-13.73291015625
-16.4794921875
-20.1416015625
-12.8173828125
-10.986328125
-10.07080078125
-3.662109375
-9.1552734375
-15.56396484375
-10.986328125
-7.32421875
4.57763671875
2.74658203125
8.23974609375
10.07080078125
1.8310546875
0
7.32421875
6.40869140625
10.07080078125
22.88818359375
18.310546875
9.1552734375
15.56396484375
19.22607421875
18.310546875
26.55029296875
29.296875
27.4658203125
27.4658203125
38.4521484375
35.70556640625
36.62109375
37.53662109375
36.62109375
45.7763671875
52.18505859375
51.26953125
54.931640625
55.84716796875
65.00244140625
70.49560546875
61.34033203125
68.66455078125
86.0595703125
76.904296875
79.65087890625
88.80615234375
93.3837890625
105.28564453125
112.60986328125
109.86328125
111.6943359375
119.93408203125
125.42724609375
121.76513671875
130.0048828125
135.498046875
134.58251953125
136.41357421875
144.6533203125
151.9775390625
151.06201171875
150.146484375
160.21728515625
171.20361328125
169.37255859375
169.37255859375
172.119140625
172.119140625
171.20361328125
183.10546875
173.9501953125
170.2880859375
167.54150390625
168.45703125
174.86572265625
176.69677734375
172.119140625
172.119140625
176.69677734375
170.2880859375
160.21728515625
158.38623046875
157.470703125
149.23095703125
143.73779296875
141.90673828125
130.0048828125
118.10302734375
116.27197265625
123.59619140625
109.86328125
104.3701171875
97.96142578125
96.13037109375
81.48193359375
80.56640625
75.98876953125
62.255859375
60.4248046875
53.1005859375
43.02978515625
36.62109375
29.296875
26.55029296875
21.05712890625
15.56396484375
14.6484375
10.07080078125
4.57763671875
3.662109375
7.32421875
1.8310546875
-10.07080078125
-15.56396484375
-8.23974609375
-7.32421875
-11.90185546875
-18.310546875
-24.71923828125
-23.8037109375
-20.1416015625
-33.87451171875
-30.21240234375
-25.634765625
-30.21240234375
-26.55029296875
-28.38134765625
-20.1416015625
-21.97265625
-21.97265625
-31.1279296875
-43.02978515625
-26.55029296875
-25.634765625
-32.958984375
-24.71923828125
-21.97265625
-19.22607421875
-21.05712890625
-25.634765625
-20.1416015625
-19.22607421875
-25.634765625
-32.958984375
-32.04345703125
-23.8037109375
-12.8173828125
-21.97265625
-30.21240234375
-28.38134765625
-26.55029296875
-26.55029296875
-18.310546875
-19.22607421875
-14.6484375
-11.90185546875
-19.22607421875
-21.97265625
-15.56396484375
-9.1552734375
-15.56396484375
-21.97265625
-22.88818359375
-22.88818359375
-24.71923828125
-14.6484375
-16.4794921875
-18.310546875
-12.8173828125
-8.23974609375
-14.6484375
-20.1416015625
-26.55029296875
-19.22607421875
-1.8310546875
-9.1552734375
-19.22607421875
-5.4931640625
0
-9.1552734375
-18.310546875
-19.22607421875
-15.56396484375
-13.73291015625
-10.986328125
-12.8173828125
-18.310546875
-25.634765625
-17.39501953125
-12.8173828125
-16.4794921875
-17.39501953125
-20.1416015625
-24.71923828125
-29.296875
-23.8037109375
-30.21240234375
-30.21240234375
-28.38134765625
-28.38134765625
-27.4658203125
-31.1279296875
-35.70556640625
-30.21240234375
-32.04345703125
-35.70556640625
-41.19873046875
-36.62109375
-36.62109375
-38.4521484375
-37.53662109375
-32.04345703125
-34.7900390625
-36.62109375
-41.19873046875
-47.607421875
-46.69189453125
-51.26953125
-49.4384765625
-43.9453125
-37.53662109375
-41.19873046875
-38.4521484375
-47.607421875
-50.35400390625
-50.35400390625
-51.26953125
-43.02978515625
-41.19873046875
-42.1142578125
-42.1142578125
-45.7763671875
-45.7763671875
-45.7763671875
-43.9453125
-50.35400390625
-49.4384765625
-54.01611328125
-51.26953125
-44.86083984375
-49.4384765625
-55.84716796875
-51.26953125
-43.02978515625
-43.02978515625
-47.607421875
-45.7763671875
-44.86083984375
-52.18505859375
-57.67822265625
-44.86083984375
-45.7763671875
-45.7763671875
-45.7763671875
-47.607421875
-46.69189453125
-47.607421875
-54.01611328125
-50.35400390625
-50.35400390625
-54.01611328125
-59.50927734375
-63.17138671875
-59.50927734375
-54.01611328125
-49.4384765625
-53.1005859375
-59.50927734375
-54.01611328125
-43.9453125
-48.52294921875
-52.18505859375
-42.1142578125
-43.9453125
-32.958984375
-15.56396484375
-11.90185546875
-9.1552734375
2.74658203125
2.74658203125
-3.662109375
0
2.74658203125
4.57763671875
1.8310546875
-6.40869140625
3.662109375
14.6484375
28.38134765625
41.19873046875
47.607421875
53.1005859375
45.7763671875
43.9453125
58.59375
57.67822265625
55.84716796875
47.607421875
38.4521484375
32.04345703125
21.05712890625
12.8173828125
11.90185546875
7.32421875
0.91552734375
-0.91552734375
0
-14.6484375
-28.38134765625
-44.86083984375
-47.607421875
-50.35400390625
-63.17138671875
-65.00244140625
-64.0869140625
-66.83349609375
-71.4111328125
-64.0869140625
-63.17138671875
-67.7490234375
-73.2421875
-77.81982421875
-70.49560546875
-73.2421875
-76.904296875
-78.7353515625
-75.98876953125
-64.0869140625
-75.0732421875
-80.56640625
-75.0732421875
-67.7490234375
-70.49560546875
-86.97509765625
-86.97509765625
-76.904296875
-78.7353515625
-76.904296875
-73.2421875
-72.32666015625
-75.0732421875
-73.2421875
-81.48193359375
-75.0732421875
-74.15771484375
-79.65087890625
-77.81982421875
-68.66455078125
-66.83349609375
-48.52294921875
-21.97265625
-10.986328125
-0.91552734375
23.8037109375
75.98876953125
124.51171875
150.146484375
205.078125
255.43212890625
305.7861328125
368.0419921875
430.2978515625
492.5537109375
499.8779296875
420.22705078125
274.658203125
161.1328125
68.66455078125
-45.7763671875
-147.39990234375
-217.8955078125
-251.77001953125
-236.2060546875
-194.091796875
-156.55517578125
-146.484375
-130.0048828125
-125.42724609375
-125.42724609375
-136.41357421875
-122.6806640625
-100.7080078125
-73.2421875
-54.01611328125
-40.283203125
-29.296875
-26.55029296875
-31.1279296875
-32.958984375
-20.1416015625
-12.8173828125
-13.73291015625
-20.1416015625
-17.39501953125
-19.22607421875
-15.56396484375
-11.90185546875
-11.90185546875
-5.4931640625
-14.6484375
-12.8173828125
-3.662109375
-4.57763671875
0
4.57763671875
-3.662109375
-6.40869140625
4.57763671875
1.8310546875
5.4931640625
0.91552734375
0
6.40869140625
1.8310546875
-0.91552734375
9.1552734375
1.8310546875
8.23974609375
24.71923828125
21.05712890625
10.07080078125
10.986328125
21.97265625
25.634765625
25.634765625
34.7900390625
31.1279296875
32.958984375
40.283203125
44.86083984375
44.86083984375
41.19873046875
41.19873046875
48.52294921875
53.1005859375
57.67822265625
62.255859375
65.00244140625
68.66455078125
75.0732421875
75.0732421875
80.56640625
83.31298828125
98.876953125
102.5390625
103.45458984375
108.94775390625
113.525390625
115.3564453125
128.173828125
132.75146484375
128.173828125
140.9912109375
150.146484375
153.80859375
149.23095703125
158.38623046875
168.45703125
176.69677734375
175.78125
181.2744140625
179.443359375
183.10546875
187.68310546875
190.4296875
203.2470703125
200.50048828125
195.00732421875
191.34521484375
194.091796875
195.00732421875
196.83837890625
198.66943359375
200.50048828125
192.2607421875
195.00732421875
202.33154296875
194.091796875
184.02099609375
185.85205078125
184.02099609375
179.443359375
173.03466796875
163.87939453125
161.1328125
158.38623046875
147.39990234375
141.90673828125
140.07568359375
123.59619140625
115.3564453125
110.77880859375
106.201171875
98.876953125
98.876953125
97.96142578125
85.14404296875
76.904296875
61.34033203125
51.26953125
49.4384765625
47.607421875
42.1142578125
34.7900390625
32.04345703125
33.87451171875
26.55029296875
26.55029296875
22.88818359375
11.90185546875
6.40869140625
3.662109375
0.91552734375
-6.40869140625
-10.986328125
-11.90185546875
-11.90185546875
-2.74658203125
-9.1552734375
-19.22607421875
-19.22607421875
-18.310546875
-17.39501953125
-21.97265625
-20.1416015625
-21.05712890625
-21.05712890625
-13.73291015625
-13.73291015625
-23.8037109375
-26.55029296875
-24.71923828125
-21.97265625
-20.1416015625
-16.4794921875
-16.4794921875
-16.4794921875
-15.56396484375
-18.310546875
-16.4794921875
-26.55029296875
-21.05712890625
-19.22607421875
-13.73291015625
-16.4794921875
-20.1416015625
-17.39501953125
-11.90185546875
-11.90185546875
-18.310546875
-6.40869140625
-7.32421875
-18.310546875
-12.8173828125
-12.8173828125
-10.986328125
-11.90185546875
-20.1416015625
-10.986328125
-6.40869140625
-1.8310546875
-8.23974609375
-20.1416015625
-10.986328125
-1.8310546875
-0.91552734375
2.74658203125
-3.662109375
-9.1552734375
-6.40869140625
-3.662109375
-6.40869140625
-9.1552734375
-7.32421875
-7.32421875
-3.662109375
-2.74658203125
3.662109375
-1.8310546875
-4.57763671875
-6.40869140625
-6.40869140625
-2.74658203125
-1.8310546875
-7.32421875
-3.662109375
3.662109375
2.74658203125
-0.91552734375
-8.23974609375
-9.1552734375
-1.8310546875
-9.1552734375
-11.90185546875
-7.32421875
-4.57763671875
-7.32421875
-13.73291015625
-19.22607421875
-11.90185546875
-13.73291015625
-16.4794921875
-21.05712890625
-15.56396484375
-20.1416015625
-20.1416015625
-23.8037109375
-21.97265625
-14.6484375
-20.1416015625
-27.4658203125
-25.634765625
-26.55029296875
-23.8037109375
-23.8037109375
-20.1416015625
-14.6484375
-25.634765625
-31.1279296875
-26.55029296875
-24.71923828125
-32.04345703125
-27.4658203125
-29.296875
-32.958984375
-24.71923828125
-22.88818359375
-23.8037109375
-24.71923828125
-34.7900390625
-34.7900390625
-32.04345703125
-34.7900390625
-43.02978515625
-32.958984375
-35.70556640625
-33.87451171875
-21.05712890625
-23.8037109375
-37.53662109375
-37.53662109375
-30.21240234375
-39.36767578125
-35.70556640625
-31.1279296875
-27.4658203125
-34.7900390625
-29.296875
-27.4658203125
-31.1279296875
-37.53662109375
-39.36767578125
-39.36767578125
-43.02978515625
-40.283203125
-37.53662109375
-38.4521484375
-42.1142578125
-41.19873046875
-33.87451171875
-43.02978515625
-41.19873046875
-39.36767578125
-38.4521484375
-36.62109375
-42.1142578125
-52.18505859375
-52.18505859375
-48.52294921875
-41.19873046875
-40.283203125
-35.70556640625
-43.02978515625
-43.9453125
-43.9453125
-41.19873046875
-32.04345703125
-22.88818359375
-22.88818359375
-22.88818359375
-16.4794921875
-9.1552734375
3.662109375
10.07080078125
9.1552734375
14.6484375
17.39501953125
21.97265625
25.634765625
24.71923828125
11.90185546875
18.310546875
28.38134765625
44.86083984375
59.50927734375
72.32666015625
79.65087890625
70.49560546875
69.580078125
79.65087890625
78.7353515625
70.49560546875
70.49560546875
68.66455078125
61.34033203125
46.69189453125
34.7900390625
31.1279296875
26.55029296875
22.88818359375
21.97265625
23.8037109375
8.23974609375
2.74658203125
-5.4931640625
-26.55029296875
-41.19873046875
-50.35400390625
-48.52294921875
-52.18505859375
-54.931640625
-61.34033203125
-58.59375
-55.84716796875
-54.931640625
-54.931640625
-55.84716796875
-56.7626953125
-60.4248046875
-60.4248046875
-57.67822265625
-56.7626953125
-64.0869140625
-68.66455078125
-65.91796875
-61.34033203125
-69.580078125
-65.00244140625
-65.00244140625
-77.81982421875
-71.4111328125
-70.49560546875
-70.49560546875
-74.15771484375
-68.66455078125
-53.1005859375
-63.17138671875
-65.00244140625
-64.0869140625
-67.7490234375
-74.15771484375
-61.34033203125
-59.50927734375
-47.607421875
-28.38134765625
-10.986328125
5.4931640625
30.21240234375
54.01611328125
97.96142578125
164.794921875
202.33154296875
262.75634765625
308.53271484375
359.80224609375
432.12890625
507.2021484375
566.71142578125
586.85302734375
509.94873046875
353.3935546875
218.81103515625
97.0458984375
-25.634765625
-166.6259765625
-258.1787109375
-287.4755859375
-265.5029296875
-241.69921875
-210.5712890625
-169.37255859375
-146.484375
-130.92041015625
-119.0185546875
-115.3564453125
-109.86328125
-81.48193359375
-49.4384765625
-26.55029296875
-19.22607421875
-12.8173828125
-13.73291015625
-10.07080078125
-7.32421875
-7.32421875
-10.986328125
-10.986328125
-1.8310546875
5.4931640625
0.91552734375
-2.74658203125
-4.57763671875
-4.57763671875
4.57763671875
10.986328125
9.1552734375
13.73291015625
10.986328125
11.90185546875
16.4794921875
22.88818359375
23.8037109375
19.22607421875
16.4794921875
21.05712890625
26.55029296875
25.634765625
19.22607421875
25.634765625
36.62109375
43.02978515625
47.607421875
36.62109375
40.283203125
40.283203125
44.86083984375
41.19873046875
47.607421875
52.18505859375
54.01611328125
54.931640625
50.35400390625
60.4248046875
61.34033203125
62.255859375
69.580078125
75.98876953125
75.98876953125
76.904296875
75.0732421875
77.81982421875
91.552734375
94.29931640625
88.80615234375
98.876953125
110.77880859375
108.94775390625
110.77880859375
118.10302734375
127.25830078125
130.92041015625
137.3291015625
140.07568359375
142.822265625
157.470703125
159.3017578125
172.119140625
174.86572265625
186.767578125
189.51416015625
193.17626953125
199.5849609375
204.16259765625
205.99365234375
206.9091796875
219.7265625
232.5439453125
228.8818359375
231.62841796875
229.79736328125
236.2060546875
238.95263671875
242.61474609375
232.5439453125
236.2060546875
244.44580078125
249.93896484375
238.95263671875
238.95263671875
244.44580078125
244.44580078125
234.375
225.2197265625
228.8818359375
234.375
227.96630859375
216.064453125
198.66943359375
195.9228515625
196.83837890625
189.51416015625
177.6123046875
173.03466796875
162.9638671875
162.9638671875
155.6396484375
145.56884765625
138.24462890625
123.59619140625
119.0185546875
111.6943359375
101.62353515625
90.63720703125
86.0595703125
80.56640625
74.15771484375
75.0732421875
63.17138671875
48.52294921875
44.86083984375
45.7763671875
42.1142578125
34.7900390625
29.296875
29.296875
25.634765625
14.6484375
12.8173828125
14.6484375
11.90185546875
2.74658203125
2.74658203125
0
2.74658203125
4.57763671875
-0.91552734375
-2.74658203125
-1.8310546875
-7.32421875
-5.4931640625
-4.57763671875
-4.57763671875
-12.8173828125
-8.23974609375
-11.90185546875
-12.8173828125
-8.23974609375
-9.1552734375
-16.4794921875
-12.8173828125
-14.6484375
-10.986328125
-2.74658203125
-8.23974609375
-14.6484375
-10.986328125
-3.662109375
-3.662109375
-10.07080078125
-7.32421875
-4.57763671875
-1.8310546875
-11.90185546875
-8.23974609375
-2.74658203125
-4.57763671875
-7.32421875
1.8310546875
-0.91552734375
-7.32421875
0
0.91552734375
-4.57763671875
-2.74658203125
3.662109375
10.986328125
7.32421875
7.32421875
3.662109375
2.74658203125
1.8310546875
15.56396484375
5.4931640625
8.23974609375
7.32421875
4.57763671875
14.6484375
19.22607421875
7.32421875
0.91552734375
9.1552734375
10.986328125
8.23974609375
3.662109375
3.662109375
12.8173828125
19.22607421875
9.1552734375
8.23974609375
12.8173828125
4.57763671875
8.23974609375
6.40869140625
4.57763671875
5.4931640625
8.23974609375
-0.91552734375
3.662109375
1.8310546875
6.40869140625
2.74658203125
0.91552734375
-2.74658203125
-2.74658203125
0
-3.662109375
-1.8310546875
-5.4931640625
-10.986328125
-16.4794921875
-10.986328125
-5.4931640625
-3.662109375
-7.32421875
-6.40869140625
-20.1416015625
-13.73291015625
0
-8.23974609375
-17.39501953125
-11.90185546875
-14.6484375
-11.90185546875
-11.90185546875
-14.6484375
-12.8173828125
-11.90185546875
-17.39501953125
-18.310546875
-10.986328125
-7.32421875
-17.39501953125
-19.22607421875
-18.310546875
-20.1416015625
-18.310546875
-14.6484375
-18.310546875
-19.22607421875
-23.8037109375
-16.4794921875
-14.6484375
-26.55029296875
-28.38134765625
-24.71923828125
-15.56396484375
-23.8037109375
-25.634765625
-22.88818359375
-23.8037109375
-25.634765625
-25.634765625
-24.71923828125
-21.97265625
-19.22607421875
-22.88818359375
-24.71923828125
-27.4658203125
-28.38134765625
-25.634765625
-28.38134765625
-26.55029296875
-21.05712890625
-22.88818359375
-24.71923828125
-29.296875
-29.296875
-27.4658203125
-34.7900390625
-34.7900390625
-29.296875
-28.38134765625
-35.70556640625
-30.21240234375
-31.1279296875
-27.4658203125
-20.1416015625
-25.634765625
-23.8037109375
-25.634765625
-34.7900390625
-33.87451171875
-37.53662109375
-30.21240234375
-28.38134765625
-28.38134765625
-15.56396484375
-25.634765625
-17.39501953125
-5.4931640625
-0.91552734375
-3.662109375
5.4931640625
24.71923828125
33.87451171875
22.88818359375
21.97265625
30.21240234375
27.4658203125
21.05712890625
25.634765625
26.55029296875
27.4658203125
43.9453125
48.52294921875
62.255859375
69.580078125
69.580078125
76.904296875
82.3974609375
90.63720703125
87.890625
83.31298828125
75.98876953125
66.83349609375
53.1005859375
47.607421875
44.86083984375
36.62109375
29.296875
21.05712890625
23.8037109375
21.97265625
14.6484375
6.40869140625
-8.23974609375
-23.8037109375
-32.958984375
-34.7900390625
-39.36767578125
-38.4521484375
-49.4384765625
-46.69189453125
-47.607421875
-47.607421875
-46.69189453125
-39.36767578125
-45.7763671875
-53.1005859375
-60.4248046875
-65.00244140625
-57.67822265625
-47.607421875
-54.01611328125
-60.4248046875
-64.0869140625
-60.4248046875
-56.7626953125
-59.50927734375
-57.67822265625
-66.83349609375
-58.59375
-56.7626953125
-56.7626953125
-57.67822265625
-59.50927734375
-60.4248046875
-65.00244140625
-63.17138671875
-62.255859375
-70.49560546875
-70.49560546875
-71.4111328125
-65.00244140625
-48.52294921875
-36.62109375
-21.97265625
-10.986328125
11.90185546875
44.86083984375
105.28564453125
162.9638671875
201.416015625
256.34765625
303.03955078125
363.46435546875
443.115234375
518.1884765625
569.4580078125
567.626953125
480.65185546875
323.18115234375
198.66943359375
88.80615234375
-52.18505859375
-195.9228515625
-285.64453125
-297.54638671875
-275.57373046875
-245.361328125
-205.078125
-162.9638671875
-141.90673828125
-125.42724609375
-117.1875
-118.10302734375
-100.7080078125
-69.580078125
-42.1142578125
-19.22607421875
-16.4794921875
-9.1552734375
-12.8173828125
-4.57763671875
-3.662109375
-2.74658203125
-7.32421875
-7.32421875
-0.91552734375
6.40869140625
11.90185546875
9.1552734375
8.23974609375
10.986328125
8.23974609375
10.986328125
3.662109375
13.73291015625
9.1552734375
11.90185546875
13.73291015625
14.6484375
20.1416015625
18.310546875
23.8037109375
20.1416015625
29.296875
36.62109375
28.38134765625
31.1279296875
34.7900390625
39.36767578125
33.87451171875
40.283203125
45.7763671875
49.4384765625
52.18505859375
49.4384765625
45.7763671875
55.84716796875
54.931640625
57.67822265625
65.00244140625
62.255859375
61.34033203125
67.7490234375
71.4111328125
75.0732421875
74.15771484375
75.0732421875
78.7353515625
92.46826171875
88.80615234375
94.29931640625
95.21484375
97.0458984375
100.7080078125
104.3701171875
119.93408203125
121.76513671875
127.25830078125
128.173828125
135.498046875
145.56884765625
150.146484375
160.21728515625
163.87939453125
165.71044921875
177.6123046875
178.52783203125
179.443359375
184.02099609375
202.33154296875
213.31787109375
210.5712890625
215.14892578125
220.64208984375
224.30419921875
230.712890625
230.712890625
230.712890625
234.375
240.78369140625
235.29052734375
236.2060546875
238.95263671875
241.69921875
240.78369140625
239.8681640625
235.29052734375
236.2060546875
229.79736328125
225.2197265625
231.62841796875
225.2197265625
218.81103515625
217.8955078125
214.2333984375
203.2470703125
197.75390625
195.9228515625
187.68310546875
183.10546875
174.86572265625
159.3017578125
151.06201171875
151.9775390625
141.90673828125
131.8359375
119.0185546875
117.1875
109.86328125
96.13037109375
81.48193359375
82.3974609375
85.14404296875
70.49560546875
64.0869140625
63.17138671875
54.931640625
43.9453125
35.70556640625
32.04345703125
29.296875
22.88818359375
23.8037109375
12.8173828125
12.8173828125
15.56396484375
7.32421875
3.662109375
8.23974609375
5.4931640625
-0.91552734375
0
-4.57763671875
-5.4931640625
-7.32421875
-16.4794921875
-11.90185546875
-13.73291015625
-18.310546875
-16.4794921875
-11.90185546875
-10.986328125
-13.73291015625
-18.310546875
-21.05712890625
-13.73291015625
-13.73291015625
-12.8173828125
-13.73291015625
-16.4794921875
-16.4794921875
-13.73291015625
-12.8173828125
-9.1552734375
-14.6484375
-10.986328125
-16.4794921875
-16.4794921875
-10.07080078125
-6.40869140625
0
-4.57763671875
-8.23974609375
-8.23974609375
-9.1552734375
-1.8310546875
-0.91552734375
-0.91552734375
-8.23974609375
-4.57763671875
4.57763671875
-1.8310546875
-3.662109375
3.662109375
-0.91552734375
-0.91552734375
4.57763671875
1.8310546875
0.91552734375
6.40869140625
8.23974609375
-0.91552734375
-6.40869140625
-7.32421875
3.662109375
10.986328125
1.8310546875
3.662109375
10.07080078125
6.40869140625
0.91552734375
8.23974609375
1.8310546875
8.23974609375
-2.74658203125
-3.662109375
3.662109375
6.40869140625
0.91552734375
1.8310546875
1.8310546875
6.40869140625
0
-3.662109375
-4.57763671875
3.662109375
0
-3.662109375
-3.662109375
3.662109375
3.662109375
-6.40869140625
-5.4931640625
-6.40869140625
-4.57763671875
-14.6484375
-19.22607421875
-10.986328125
-10.986328125
-17.39501953125
-14.6484375
-10.07080078125
-15.56396484375
-7.32421875
-10.986328125
-21.97265625
-21.97265625
-18.310546875
-14.6484375
-21.05712890625
-28.38134765625
-22.88818359375
-18.310546875
-10.986328125
-17.39501953125
-29.296875
-26.55029296875
-14.6484375
-23.8037109375
-28.38134765625
-24.71923828125
-32.04345703125
-30.21240234375
-22.88818359375
-25.634765625
-23.8037109375
-24.71923828125
-32.958984375
-23.8037109375
-15.56396484375
-21.05712890625
-23.8037109375
-34.7900390625
-32.04345703125
-26.55029296875
-23.8037109375
-22.88818359375
-29.296875
-32.958984375
-31.1279296875
-31.1279296875
-32.04345703125
-28.38134765625
-26.55029296875
-29.296875
-38.4521484375
-27.4658203125
-29.296875
-30.21240234375
-29.296875
-28.38134765625
-33.87451171875
-35.70556640625
-40.283203125
-43.02978515625
-34.7900390625
-30.21240234375
-35.70556640625
-32.04345703125
-32.958984375
-34.7900390625
-34.7900390625
-33.87451171875
-32.04345703125
-34.7900390625
-40.283203125
-40.283203125
-38.4521484375
-38.4521484375
-29.296875
-43.02978515625
-41.19873046875
-33.87451171875
-36.62109375
-38.4521484375
-44.86083984375
-47.607421875
-43.02978515625
-30.21240234375
-32.958984375
-32.958984375
-33.87451171875
-28.38134765625
-26.55029296875
-21.97265625
-14.6484375
-11.90185546875
1.8310546875
15.56396484375
20.1416015625
21.05712890625
21.05712890625
20.1416015625
21.05712890625
20.1416015625
22.88818359375
18.310546875
21.97265625
37.53662109375
42.1142578125
34.7900390625
41.19873046875
64.0869140625
74.15771484375
77.81982421875
80.56640625
82.3974609375
75.0732421875
56.7626953125
49.4384765625
35.70556640625
32.958984375
32.04345703125
31.1279296875
13.73291015625
14.6484375
8.23974609375
-0.91552734375
-10.07080078125
-18.310546875
-21.97265625
-21.05712890625
-32.04345703125
-49.4384765625
-54.01611328125
-49.4384765625
-48.52294921875
-54.01611328125
-51.26953125
-54.01611328125
-54.931640625
-49.4384765625
-54.01611328125
-59.50927734375
-55.84716796875
-57.67822265625
-54.931640625
-58.59375
-59.50927734375
-62.255859375
-61.34033203125
-61.34033203125
-61.34033203125
-60.4248046875
-60.4248046875
-66.83349609375
-65.91796875
-63.17138671875
-65.00244140625
-61.34033203125
-64.0869140625
-65.91796875
-70.49560546875
-73.2421875
-62.255859375
-75.0732421875
-85.14404296875
-64.0869140625
-73.2421875
-64.0869140625
-36.62109375
-24.71923828125
-10.986328125
13.73291015625
46.69189453125
96.13037109375
152.89306640625
188.5986328125
239.8681640625
290.22216796875
351.5625
420.22705078125
502.62451171875
552.978515625
560.302734375
480.65185546875
315.85693359375
187.68310546875
86.0595703125
-54.931640625
-191.34521484375
-287.4755859375
-297.54638671875
-270.99609375
-237.12158203125
-212.40234375
-171.20361328125
-147.39990234375
-141.90673828125
-131.8359375
-129.08935546875
-112.60986328125
-89.7216796875
-61.34033203125
-33.87451171875
-20.1416015625
-20.1416015625
-15.56396484375
-13.73291015625
-8.23974609375
-8.23974609375
-12.8173828125
-14.6484375
0
-6.40869140625
-9.1552734375
-7.32421875
-14.6484375
-5.4931640625
-3.662109375
0.91552734375
2.74658203125
9.1552734375
8.23974609375
9.1552734375
8.23974609375
21.05712890625
13.73291015625
16.4794921875
21.97265625
21.97265625
24.71923828125
22.88818359375
23.8037109375
21.05712890625
21.97265625
21.97265625
26.55029296875
26.55029296875
24.71923828125
32.958984375
27.4658203125
32.958984375
40.283203125
36.62109375
40.283203125
42.1142578125
45.7763671875
49.4384765625
51.26953125
55.84716796875
58.59375
55.84716796875
54.931640625
59.50927734375
61.34033203125
60.4248046875
63.17138671875
78.7353515625
75.0732421875
75.98876953125
78.7353515625
88.80615234375
90.63720703125
90.63720703125
102.5390625
110.77880859375
112.60986328125
108.94775390625
119.0185546875
130.0048828125
130.92041015625
137.3291015625
143.73779296875
141.90673828125
151.06201171875
167.54150390625
170.2880859375
173.03466796875
167.54150390625
180.35888671875
186.767578125
190.4296875
195.9228515625
195.9228515625
194.091796875
201.416015625
205.078125
200.50048828125
212.40234375
212.40234375
208.740234375
208.740234375
202.33154296875
200.50048828125
195.9228515625
205.99365234375
200.50048828125
193.17626953125
184.02099609375
185.85205078125
183.10546875
175.78125
173.9501953125
165.71044921875
162.9638671875
152.89306640625
138.24462890625
129.08935546875
130.0048828125
128.173828125
119.0185546875
109.86328125
106.201171875
95.21484375
86.0595703125
75.98876953125
69.580078125
66.83349609375
62.255859375
47.607421875
43.02978515625
39.36767578125
32.04345703125
21.97265625
19.22607421875
8.23974609375
11.90185546875
9.1552734375
11.90185546875
7.32421875
-2.74658203125
-8.23974609375
-17.39501953125
-17.39501953125
-22.88818359375
-28.38134765625
-22.88818359375
-29.296875
-31.1279296875
-32.958984375
-37.53662109375
-36.62109375
-32.04345703125
-34.7900390625
-37.53662109375
-33.87451171875
-38.4521484375
-34.7900390625
-47.607421875
-51.26953125
-46.69189453125
-42.1142578125
-44.86083984375
-47.607421875
-44.86083984375
-42.1142578125
-45.7763671875
-43.02978515625
-40.283203125
-38.4521484375
-38.4521484375
-37.53662109375
-40.283203125
-47.607421875
-48.52294921875
-38.4521484375
-38.4521484375
-39.36767578125
-46.69189453125
-45.7763671875
-32.04345703125
-30.21240234375
-41.19873046875
-33.87451171875
-43.02978515625
-40.283203125
-40.283203125
-39.36767578125
-32.04345703125
-31.1279296875
-31.1279296875
-36.62109375
-40.283203125
-37.53662109375
-41.19873046875
-35.70556640625
-29.296875
-30.21240234375
-32.04345703125
-35.70556640625
-36.62109375
-33.87451171875
-32.04345703125
-39.36767578125
-32.04345703125
-41.19873046875
-30.21240234375
-22.88818359375
-22.88818359375
-24.71923828125
-22.88818359375
-32.04345703125
-29.296875
-34.7900390625
-41.19873046875
-32.04345703125
-29.296875
-24.71923828125
-33.87451171875
-35.70556640625
-32.04345703125
-38.4521484375
-30.21240234375
-27.4658203125
-35.70556640625
-43.9453125
-43.9453125
-43.02978515625
-43.9453125
-49.4384765625
-45.7763671875
-53.1005859375
-53.1005859375
-52.18505859375
-54.931640625
-47.607421875
-51.26953125
-48.52294921875
-43.9453125
-43.9453125
-50.35400390625
-60.4248046875
-60.4248046875
-47.607421875
-48.52294921875
-55.84716796875
-57.67822265625
-61.34033203125
-58.59375
-61.34033203125
-63.17138671875
-62.255859375
-63.17138671875
-64.0869140625
-66.83349609375
-64.0869140625
-53.1005859375
-61.34033203125
-72.32666015625
-64.0869140625
-69.580078125
-72.32666015625
-68.66455078125
-72.32666015625
-70.49560546875
-66.83349609375
-71.4111328125
-77.81982421875
-65.91796875
-68.66455078125
-67.7490234375
-63.17138671875
-67.7490234375
-78.7353515625
-78.7353515625
-72.32666015625
-74.15771484375
-68.66455078125
-65.91796875
-67.7490234375
-67.7490234375
-69.580078125
-73.2421875
-68.66455078125
-75.0732421875
-80.56640625
-73.2421875
-68.66455078125
-75.0732421875
-77.81982421875
-75.0732421875
-68.66455078125
-69.580078125
-76.904296875
-75.98876953125
-78.7353515625
-70.49560546875
-65.91796875
-73.2421875
-72.32666015625
-75.0732421875
-76.904296875
-75.0732421875
-76.904296875
-76.904296875
-75.98876953125
-66.83349609375
-65.91796875
-63.17138671875
-60.4248046875
-59.50927734375
-58.59375
-41.19873046875
-30.21240234375
-30.21240234375
-32.958984375
-28.38134765625
-31.1279296875
-30.21240234375
-35.70556640625
-43.9453125
-38.4521484375
-35.70556640625
-30.21240234375
-32.04345703125
-15.56396484375
-10.07080078125
4.57763671875
13.73291015625
21.05712890625
31.1279296875
34.7900390625
20.1416015625
0.91552734375
-8.23974609375
-13.73291015625
-30.21240234375
-36.62109375
-29.296875
-29.296875
-30.21240234375
-37.53662109375
-45.7763671875
-54.931640625
-57.67822265625
-61.34033203125
-71.4111328125
-77.81982421875
-87.890625
-80.56640625
-82.3974609375
-86.0595703125
-88.80615234375
-82.3974609375
-86.0595703125
-89.7216796875
-88.80615234375
-96.13037109375
-98.876953125
-99.79248046875
-97.96142578125
-95.21484375
-87.890625
-99.79248046875
-107.11669921875
-102.5390625
-102.5390625
-99.79248046875
-101.62353515625
-107.11669921875
-106.201171875
-110.77880859375
-110.77880859375
-99.79248046875
-98.876953125
-108.94775390625
-108.94775390625
-103.45458984375
-100.7080078125
-111.6943359375
-106.201171875
-97.0458984375
-99.79248046875
-99.79248046875
-82.3974609375
-54.01611328125
-39.36767578125
-26.55029296875
-15.56396484375
15.56396484375
63.17138671875
100.7080078125
133.6669921875
198.66943359375
247.1923828125
294.7998046875
342.4072265625
399.169921875
440.36865234375
421.142578125
315.85693359375
181.2744140625
105.28564453125
12.8173828125
-86.97509765625
-164.794921875
-217.8955078125
-223.388671875
-192.2607421875
-151.06201171875
-123.59619140625
-119.0185546875
-120.849609375
-130.0048828125
-145.56884765625
-157.470703125
-151.9775390625
-127.25830078125
-110.77880859375
-93.3837890625
-65.91796875
-54.931640625
-49.4384765625
-54.01611328125
-55.84716796875
-41.19873046875
-38.4521484375
-51.26953125
-42.1142578125
-43.02978515625
-49.4384765625
-43.02978515625
-37.53662109375
-36.62109375
-42.1142578125
-48.52294921875
-40.283203125
-36.62109375
-40.283203125
-36.62109375
-40.283203125
-31.1279296875
-30.21240234375
-37.53662109375
-30.21240234375
-29.296875
-24.71923828125
-19.22607421875
-14.6484375
-18.310546875
-21.05712890625
-11.90185546875
-15.56396484375
-11.90185546875
-13.73291015625
-4.57763671875
-1.8310546875
-2.74658203125
-1.8310546875
0.91552734375
-0.91552734375
11.90185546875
9.1552734375
5.4931640625
5.4931640625
4.57763671875
10.986328125
14.6484375
13.73291015625
22.88818359375
20.1416015625
18.310546875
26.55029296875
30.21240234375
33.87451171875
50.35400390625
52.18505859375
46.69189453125
55.84716796875
63.17138671875
59.50927734375
63.17138671875
79.65087890625
79.65087890625
79.65087890625
93.3837890625
97.0458984375
97.96142578125
107.11669921875
109.86328125
109.86328125
116.27197265625
127.25830078125
137.3291015625
138.24462890625
140.9912109375
136.41357421875
134.58251953125
136.41357421875
141.90673828125
151.9775390625
155.6396484375
147.39990234375
153.80859375
158.38623046875
159.3017578125
150.146484375
157.470703125
160.21728515625
152.89306640625
155.6396484375
161.1328125
153.80859375
147.39990234375
147.39990234375
144.6533203125
140.07568359375
142.822265625
134.58251953125
121.76513671875
110.77880859375
102.5390625
108.0322265625
105.28564453125
88.80615234375
80.56640625
75.0732421875
72.32666015625
61.34033203125
40.283203125
41.19873046875
54.931640625
54.01611328125
41.19873046875
21.97265625
13.73291015625
12.8173828125
9.1552734375
0.91552734375
-0.91552734375
-10.986328125
-10.07080078125
-13.73291015625
-21.97265625
-27.4658203125
-17.39501953125
-30.21240234375
-32.04345703125
-36.62109375
-32.958984375
-47.607421875
-50.35400390625
-49.4384765625
-49.4384765625
-58.59375
-61.34033203125
-63.17138671875
-56.7626953125
-54.931640625
-58.59375
-62.255859375
-58.59375
-56.7626953125
-62.255859375
-66.83349609375
-59.50927734375
-63.17138671875
-60.4248046875
-66.83349609375
-70.49560546875
-70.49560546875
-69.580078125
-59.50927734375
-58.59375
-60.4248046875
-59.50927734375
-59.50927734375
-62.255859375
-54.931640625
-54.931640625
-52.18505859375
-58.59375
-63.17138671875
-64.0869140625
-64.0869140625
-58.59375
-46.69189453125
-50.35400390625
-57.67822265625
-52.18505859375
-47.607421875
-45.7763671875
-50.35400390625
-53.1005859375
-50.35400390625
-48.52294921875
-44.86083984375
-44.86083984375
-49.4384765625
-43.02978515625
-41.19873046875
-47.607421875
-48.52294921875
-45.7763671875
-44.86083984375
-48.52294921875
-50.35400390625
-45.7763671875
-41.19873046875
-35.70556640625
-34.7900390625
-38.4521484375
-46.69189453125
-48.52294921875
-52.18505859375
-44.86083984375
-37.53662109375
-43.02978515625
-40.283203125
-39.36767578125
-47.607421875
-43.9453125
-44.86083984375
-45.7763671875
-49.4384765625
-53.1005859375
-51.26953125
-44.86083984375
-51.26953125
-45.7763671875
-40.283203125
-41.19873046875
-48.52294921875
-50.35400390625
-54.01611328125
-54.931640625
-43.9453125
-55.84716796875
-62.255859375
-55.84716796875
-54.931640625
-55.84716796875
-64.0869140625
-62.255859375
-66.83349609375
-63.17138671875
-58.59375
-62.255859375
-61.34033203125
-60.4248046875
-63.17138671875
-63.17138671875
-64.0869140625
-61.34033203125
-66.83349609375
-65.00244140625
-65.91796875
-70.49560546875
-66.83349609375
-69.580078125
-60.4248046875
-67.7490234375
-72.32666015625
-69.580078125
-64.0869140625
-72.32666015625
-70.49560546875
-74.15771484375
-79.65087890625
-77.81982421875
-68.66455078125
-69.580078125
-71.4111328125
-78.7353515625
-74.15771484375
-74.15771484375
-71.4111328125
-69.580078125
-69.580078125
-73.2421875
-76.904296875
-76.904296875
-76.904296875
-75.0732421875
-72.32666015625
-83.31298828125
-75.98876953125
-73.2421875
-75.98876953125
-75.98876953125
-73.2421875
-82.3974609375
-84.228515625
-74.15771484375
-78.7353515625
-77.81982421875
-75.0732421875
-66.83349609375
-60.4248046875
-58.59375
-62.255859375
-54.01611328125
-46.69189453125
-38.4521484375
-28.38134765625
-31.1279296875
-32.958984375
-30.21240234375
-31.1279296875
-33.87451171875
-28.38134765625
-22.88818359375
-32.958984375
-29.296875
-4.57763671875
1.8310546875
6.40869140625
10.07080078125
18.310546875
20.1416015625
23.8037109375
26.55029296875
30.21240234375
28.38134765625
7.32421875
4.57763671875
-0.91552734375
-11.90185546875
-17.39501953125
-21.97265625
-28.38134765625
-28.38134765625
-32.958984375
-48.52294921875
-59.50927734375
-61.34033203125
-64.0869140625
-77.81982421875
-94.29931640625
-88.80615234375
-90.63720703125
-92.46826171875
-96.13037109375
-94.29931640625
-94.29931640625
-97.0458984375
-100.7080078125
-109.86328125
-106.201171875
-108.0322265625
-113.525390625
-105.28564453125
-108.94775390625
-110.77880859375
-110.77880859375
-100.7080078125
-108.0322265625
-115.3564453125
-110.77880859375
-100.7080078125
-99.79248046875
-100.7080078125
-111.6943359375
-111.6943359375
-115.3564453125
-113.525390625
-107.11669921875
-110.77880859375
-103.45458984375
-108.94775390625
-104.3701171875
-111.6943359375
-103.45458984375
-103.45458984375
-102.5390625
-79.65087890625
-50.35400390625
-47.607421875
-31.1279296875
-6.40869140625
26.55029296875
78.7353515625
119.93408203125
142.822265625
196.83837890625
238.037109375
286.56005859375
344.23828125
414.73388671875
456.84814453125
423.88916015625
314.02587890625
169.37255859375
86.0595703125
2.74658203125
-97.0458984375
-184.9365234375
-237.12158203125
-237.12158203125
-218.81103515625
-188.5986328125
-157.470703125
-132.75146484375
-126.3427734375
-136.41357421875
-142.822265625
-153.80859375
-144.6533203125
-125.42724609375
-101.62353515625
-86.97509765625
-67.7490234375
-64.0869140625
-64.0869140625
-51.26953125
-56.7626953125
-51.26953125
-49.4384765625
-49.4384765625
-54.01611328125
-47.607421875
-40.283203125
-46.69189453125
-44.86083984375
-48.52294921875
-49.4384765625
-37.53662109375
-38.4521484375
-32.04345703125
-30.21240234375
-41.19873046875
-46.69189453125
-45.7763671875
-41.19873046875
-40.283203125
-30.21240234375
-24.71923828125
-37.53662109375
-34.7900390625
-21.05712890625
-19.22607421875
-17.39501953125
-17.39501953125
-16.4794921875
-11.90185546875
-14.6484375
-15.56396484375
-11.90185546875
-9.1552734375
-6.40869140625
6.40869140625
5.4931640625
2.74658203125
7.32421875
11.90185546875
16.4794921875
13.73291015625
16.4794921875
17.39501953125
26.55029296875
19.22607421875
27.4658203125
39.36767578125
40.283203125
39.36767578125
37.53662109375
40.283203125
50.35400390625
51.26953125
55.84716796875
63.17138671875
71.4111328125
68.66455078125
66.83349609375
77.81982421875
85.14404296875
91.552734375
97.96142578125
115.3564453125
119.93408203125
122.6806640625
126.3427734375
132.75146484375
135.498046875
140.07568359375
144.6533203125
144.6533203125
144.6533203125
151.9775390625
156.55517578125
160.21728515625
163.87939453125
166.6259765625
163.87939453125
167.54150390625
168.45703125
169.37255859375
164.794921875
160.21728515625
164.794921875
163.87939453125
172.119140625
173.03466796875
164.794921875
158.38623046875
157.470703125
150.146484375
153.80859375
151.06201171875
148.3154296875
130.92041015625
121.76513671875
120.849609375
114.44091796875
108.94775390625
95.21484375
90.63720703125
86.97509765625
75.0732421875
70.49560546875
54.931640625
41.19873046875
37.53662109375
28.38134765625
20.1416015625
19.22607421875
21.05712890625
7.32421875
3.662109375
3.662109375
4.57763671875
-2.74658203125
-7.32421875
-13.73291015625
-20.1416015625
-24.71923828125
-25.634765625
-27.4658203125
-37.53662109375
-32.04345703125
-37.53662109375
-44.86083984375
-43.02978515625
-47.607421875
-44.86083984375
-49.4384765625
-48.52294921875
-53.1005859375
-54.931640625
-55.84716796875
-50.35400390625
-49.4384765625
-60.4248046875
-62.255859375
-56.7626953125
-56.7626953125
-57.67822265625
-65.00244140625
-67.7490234375
-57.67822265625
-50.35400390625
-56.7626953125
-61.34033203125
-58.59375
-54.931640625
-53.1005859375
-48.52294921875
-51.26953125
-59.50927734375
-61.34033203125
-59.50927734375
-52.18505859375
-55.84716796875
-58.59375
-63.17138671875
-54.01611328125
-50.35400390625
-49.4384765625
-64.0869140625
-58.59375
-52.18505859375
-53.1005859375
-53.1005859375
-59.50927734375
-65.00244140625
-56.7626953125
-48.52294921875
-46.69189453125
-50.35400390625
-51.26953125
-43.9453125
-43.9453125
-45.7763671875
-48.52294921875
-41.19873046875
-43.02978515625
-46.69189453125
-46.69189453125
-43.02978515625
-43.9453125
-42.1142578125
-45.7763671875
-43.02978515625
-48.52294921875
-49.4384765625
-43.9453125
-45.7763671875
-43.9453125
-45.7763671875
-43.02978515625
-39.36767578125
-42.1142578125
-40.283203125
-41.19873046875
-46.69189453125
-43.02978515625
-44.86083984375
-44.86083984375
-43.9453125
-39.36767578125
-39.36767578125
-42.1142578125
-45.7763671875
-49.4384765625
-49.4384765625
-49.4384765625
-50.35400390625
-54.931640625
-52.18505859375
-53.1005859375
-61.34033203125
-67.7490234375
-56.7626953125
-53.1005859375
-56.7626953125
-62.255859375
-61.34033203125
-62.255859375
-63.17138671875
-60.4248046875
-59.50927734375
-67.7490234375
-68.66455078125
-65.00244140625
-60.4248046875
-70.49560546875
-62.255859375
-67.7490234375
-67.7490234375
-65.00244140625
-66.83349609375
-75.0732421875
-76.904296875
-70.49560546875
-75.0732421875
-77.81982421875
-78.7353515625
-70.49560546875
-66.83349609375
-65.91796875
-68.66455078125
-72.32666015625
-73.2421875
-70.49560546875
-79.65087890625
-82.3974609375
-82.3974609375
-84.228515625
-79.65087890625
-82.3974609375
-76.904296875
-75.0732421875
-71.4111328125
-81.48193359375
-79.65087890625
-79.65087890625
-85.14404296875
-80.56640625
-77.81982421875
-83.31298828125
-78.7353515625
-79.65087890625
-75.0732421875
-75.98876953125
-80.56640625
-81.48193359375
-74.15771484375
-68.66455078125
-72.32666015625
-79.65087890625
-79.65087890625
-69.580078125
-76.904296875
-75.0732421875
-80.56640625
-82.3974609375
-73.2421875
-63.17138671875
-58.59375
-61.34033203125
-57.67822265625
-50.35400390625
-35.70556640625
-19.22607421875
-18.310546875
-21.97265625
-19.22607421875
-25.634765625
-20.1416015625
-23.8037109375
-20.1416015625
-19.22607421875
-23.8037109375
-10.986328125
8.23974609375
16.4794921875
18.310546875
30.21240234375
32.04345703125
27.4658203125
34.7900390625
36.62109375
31.1279296875
22.88818359375
27.4658203125
21.97265625
11.90185546875
4.57763671875
-8.23974609375
-8.23974609375
-14.6484375
-17.39501953125
-25.634765625
-36.62109375
-40.283203125
-45.7763671875
-60.4248046875
-75.0732421875
-83.31298828125
-80.56640625
-89.7216796875
-86.0595703125
-92.46826171875
-93.3837890625
-86.0595703125
-87.890625
-90.63720703125
-104.3701171875
-103.45458984375
-88.80615234375
-101.62353515625
-108.0322265625
-99.79248046875
-97.96142578125
-101.62353515625
-98.876953125
-102.5390625
-102.5390625
-98.876953125
-101.62353515625
-106.201171875
-113.525390625
-109.86328125
-109.86328125
-108.0322265625
-104.3701171875
-103.45458984375
-108.94775390625
-111.6943359375
-105.28564453125
-109.86328125
-111.6943359375
-104.3701171875
-95.21484375
-98.876953125
-78.7353515625
-51.26953125
-32.04345703125
-20.1416015625
2.74658203125
49.4384765625
118.10302734375
144.6533203125
189.51416015625
248.10791015625
294.7998046875
361.63330078125
432.12890625
497.13134765625
505.37109375
444.03076171875
303.955078125
168.45703125
63.17138671875
-45.7763671875
-160.21728515625
-260.92529296875
-303.03955078125
-289.306640625
-264.58740234375
-228.8818359375
-195.9228515625
-173.9501953125
-167.54150390625
-166.6259765625
-171.20361328125
-151.06201171875
-124.51171875
-99.79248046875
-80.56640625
-62.255859375
-49.4384765625
-46.69189453125
-54.01611328125
-54.931640625
-59.50927734375
-53.1005859375
-44.86083984375
-48.52294921875
-41.19873046875
-45.7763671875
-43.02978515625
-45.7763671875
-47.607421875
-47.607421875
-44.86083984375
-42.1142578125
-32.04345703125
-34.7900390625
-35.70556640625
-30.21240234375
-29.296875
-36.62109375
-29.296875
-30.21240234375
-22.88818359375
-12.8173828125
-14.6484375
-18.310546875
-14.6484375
-17.39501953125
-14.6484375
-10.986328125
-8.23974609375
-19.22607421875
-16.4794921875
1.8310546875
2.74658203125
1.8310546875
-1.8310546875
7.32421875
18.310546875
19.22607421875
9.1552734375
11.90185546875
19.22607421875
22.88818359375
22.88818359375
22.88818359375
26.55029296875
33.87451171875
36.62109375
33.87451171875
34.7900390625
44.86083984375
46.69189453125
53.1005859375
60.4248046875
66.83349609375
72.32666015625
75.98876953125
86.0595703125
85.14404296875
86.97509765625
98.876953125
104.3701171875
107.11669921875
108.94775390625
125.42724609375
136.41357421875
138.24462890625
144.6533203125
148.3154296875
150.146484375
157.470703125
165.71044921875
176.69677734375
181.2744140625
187.68310546875
190.4296875
194.091796875
196.83837890625
197.75390625
197.75390625
203.2470703125
203.2470703125
199.5849609375
200.50048828125
194.091796875
195.9228515625
194.091796875
198.66943359375
193.17626953125
196.83837890625
195.00732421875
191.34521484375
181.2744140625
173.9501953125
163.87939453125
163.87939453125
162.9638671875
149.23095703125
139.16015625
138.24462890625
129.08935546875
124.51171875
109.86328125
99.79248046875
93.3837890625
86.97509765625
76.904296875
80.56640625
65.00244140625
53.1005859375
43.02978515625
40.283203125
33.87451171875
22.88818359375
21.05712890625
24.71923828125
11.90185546875
-1.8310546875
-7.32421875
-6.40869140625
-15.56396484375
-11.90185546875
-21.05712890625
-20.1416015625
-23.8037109375
-32.04345703125
-32.958984375
-27.4658203125
-33.87451171875
-38.4521484375
-41.19873046875
-41.19873046875
-37.53662109375
-41.19873046875
-49.4384765625
-37.53662109375
-39.36767578125
-44.86083984375
-45.7763671875
-49.4384765625
-54.01611328125
-58.59375
-54.931640625
-45.7763671875
-43.02978515625
-42.1142578125
-44.86083984375
-47.607421875
-48.52294921875
-53.1005859375
-52.18505859375
-50.35400390625
-43.9453125
-37.53662109375
-48.52294921875
-42.1142578125
-40.283203125
-45.7763671875
-45.7763671875
-46.69189453125
-41.19873046875
-45.7763671875
-37.53662109375
-32.958984375
-33.87451171875
-32.04345703125
-32.958984375
-41.19873046875
-37.53662109375
-32.04345703125
-34.7900390625
-31.1279296875
-32.04345703125
-32.958984375
-34.7900390625
-32.04345703125
-25.634765625
-29.296875
-33.87451171875
-39.36767578125
-30.21240234375
-31.1279296875
-35.70556640625
-28.38134765625
-25.634765625
-25.634765625
-24.71923828125
-24.71923828125
-27.4658203125
-27.4658203125
-21.05712890625
-24.71923828125
-23.8037109375
-20.1416015625
-20.1416015625
-21.05712890625
-24.71923828125
-25.634765625
-21.97265625
-25.634765625
-26.55029296875
-21.05712890625
-21.05712890625
-21.97265625
-29.296875
-31.1279296875
-28.38134765625
-21.05712890625
-29.296875
-23.8037109375
-25.634765625
-32.04345703125
-32.04345703125
-36.62109375
-34.7900390625
-25.634765625
-25.634765625
-33.87451171875
-37.53662109375
-37.53662109375
-38.4521484375
-42.1142578125
-38.4521484375
-30.21240234375
-38.4521484375
-35.70556640625
-35.70556640625
-40.283203125
-35.70556640625
-41.19873046875
-43.9453125
-43.9453125
-44.86083984375
-40.283203125
-38.4521484375
-47.607421875
-46.69189453125
-46.69189453125
-47.607421875
-46.69189453125
-45.7763671875
-41.19873046875
-41.19873046875
-48.52294921875
-53.1005859375
-52.18505859375
-40.283203125
-43.02978515625
-40.283203125
-45.7763671875
-43.9453125
-53.1005859375
-54.931640625
-53.1005859375
-55.84716796875
-51.26953125
-46.69189453125
-47.607421875
-47.607421875
-56.7626953125
-60.4248046875
-54.931640625
-52.18505859375
-57.67822265625
-56.7626953125
-45.7763671875
-45.7763671875
-43.02978515625
-43.9453125
-43.02978515625
-43.02978515625
-46.69189453125
-52.18505859375
-52.18505859375
-43.9453125
-43.9453125
-51.26953125
-52.18505859375
-53.1005859375
-59.50927734375
-55.84716796875
-42.1142578125
-52.18505859375
-54.931640625
-46.69189453125
-45.7763671875
-45.7763671875
-50.35400390625
-48.52294921875
-51.26953125
-53.1005859375
-43.9453125
-44.86083984375
-44.86083984375
-50.35400390625
-47.607421875
-52.18505859375
-50.35400390625
-46.69189453125
-48.52294921875
-43.02978515625
-36.62109375
-32.04345703125
-23.8037109375
-16.4794921875
-7.32421875
-2.74658203125
-5.4931640625
-3.662109375
6.40869140625
9.1552734375
11.90185546875
10.986328125
9.1552734375
8.23974609375
9.1552734375
25.634765625
35.70556640625
51.26953125
57.67822265625
64.0869140625
71.4111328125
75.0732421875
75.0732421875
70.49560546875
65.91796875
63.17138671875
58.59375
56.7626953125
47.607421875
34.7900390625
30.21240234375
24.71923828125
23.8037109375
24.71923828125
18.310546875
3.662109375
-1.8310546875
-4.57763671875
-28.38134765625
-43.9453125
-47.607421875
-50.35400390625
-52.18505859375
-53.1005859375
-54.01611328125
-57.67822265625
-58.59375
-59.50927734375
-65.91796875
-66.83349609375
-65.91796875
-65.91796875
-62.255859375
-63.17138671875
-64.0869140625
-68.66455078125
-75.98876953125
-69.580078125
-65.91796875
-74.15771484375
-79.65087890625
-78.7353515625
-77.81982421875
-69.580078125
-75.0732421875
-76.904296875
-71.4111328125
-74.15771484375
-75.98876953125
-71.4111328125
-70.49560546875
-75.98876953125
-74.15771484375
-74.15771484375
-79.65087890625
-72.32666015625
-76.904296875
-65.91796875
-39.36767578125
-10.986328125
5.4931640625
27.4658203125
68.66455078125
129.08935546875
179.443359375
220.64208984375
275.57373046875
339.66064453125
410.15625
483.3984375
554.8095703125
595.0927734375
574.03564453125
449.52392578125
290.22216796875
172.119140625
54.931640625
-98.876953125
-231.62841796875
-306.70166015625
-304.87060546875
-294.7998046875
-266.41845703125
-223.388671875
-178.52783203125
-157.470703125
-131.8359375
-127.25830078125
-118.10302734375
-96.13037109375
-74.15771484375
-53.1005859375
-35.70556640625
-22.88818359375
-21.97265625
-22.88818359375
-24.71923828125
-21.97265625
-12.8173828125
-21.05712890625
-18.310546875
-11.90185546875
-17.39501953125
-8.23974609375
-12.8173828125
-8.23974609375
-7.32421875
-12.8173828125
-7.32421875
-0.91552734375
-4.57763671875
-4.57763671875
1.8310546875
2.74658203125
2.74658203125
8.23974609375
11.90185546875
10.986328125
12.8173828125
8.23974609375
10.07080078125
18.310546875
15.56396484375
12.8173828125
20.1416015625
21.97265625
27.4658203125
30.21240234375
32.04345703125
33.87451171875
32.04345703125
40.283203125
34.7900390625
34.7900390625
41.19873046875
48.52294921875
50.35400390625
53.1005859375
52.18505859375
49.4384765625
61.34033203125
62.255859375
65.91796875
71.4111328125
68.66455078125
68.66455078125
77.81982421875
83.31298828125
98.876953125
101.62353515625
94.29931640625
100.7080078125
110.77880859375
117.1875
123.59619140625
132.75146484375
138.24462890625
132.75146484375
131.8359375
152.89306640625
158.38623046875
166.6259765625
173.9501953125
181.2744140625
191.34521484375
192.2607421875
198.66943359375
208.740234375
212.40234375
223.388671875
223.388671875
226.13525390625
238.037109375
237.12158203125
230.712890625
239.8681640625
248.10791015625
247.1923828125
245.361328125
242.61474609375
243.5302734375
246.27685546875
241.69921875
248.10791015625
245.361328125
245.361328125
243.5302734375
239.8681640625
232.5439453125
226.13525390625
220.64208984375
211.48681640625
208.740234375
205.99365234375
199.5849609375
183.10546875
177.6123046875
168.45703125
152.89306640625
143.73779296875
136.41357421875
134.58251953125
128.173828125
109.86328125
106.201171875
95.21484375
86.97509765625
75.0732421875
65.91796875
62.255859375
58.59375
41.19873046875
38.4521484375
45.7763671875
42.1142578125
32.958984375
22.88818359375
16.4794921875
15.56396484375
14.6484375
6.40869140625
-0.91552734375
1.8310546875
10.986328125
-6.40869140625
-1.8310546875
-3.662109375
-10.07080078125
-17.39501953125
-14.6484375
-13.73291015625
-15.56396484375
-13.73291015625
-19.22607421875
-15.56396484375
-23.8037109375
-21.05712890625
-27.4658203125
-36.62109375
-32.04345703125
-27.4658203125
-19.22607421875
-12.8173828125
-21.05712890625
-21.05712890625
-21.05712890625
-23.8037109375
-21.05712890625
-26.55029296875
-22.88818359375
-23.8037109375
-28.38134765625
-23.8037109375
-21.05712890625
-21.05712890625
-23.8037109375
-24.71923828125
-23.8037109375
-22.88818359375
-26.55029296875
-21.05712890625
-10.986328125
-9.1552734375
-17.39501953125
-13.73291015625
-11.90185546875
-10.07080078125
-11.90185546875
-9.1552734375
-5.4931640625
-3.662109375
-3.662109375
-4.57763671875
-13.73291015625
-11.90185546875
-5.4931640625
-2.74658203125
-6.40869140625
-5.4931640625
-11.90185546875
-3.662109375
-2.74658203125
-11.90185546875
-9.1552734375
-10.07080078125
-6.40869140625
-0.91552734375
0
-9.1552734375
-3.662109375
-0.91552734375
-3.662109375
-6.40869140625
-10.07080078125
-10.986328125
-15.56396484375
-3.662109375
-5.4931640625
-9.1552734375
-10.07080078125
-14.6484375
-10.986328125
-8.23974609375
-13.73291015625
-10.986328125
-14.6484375
-17.39501953125
-19.22607421875
-19.22607421875
-13.73291015625
-15.56396484375
-10.986328125
-21.05712890625
-19.22607421875
-9.1552734375
-12.8173828125
-17.39501953125
-27.4658203125
-22.88818359375
-21.05712890625
-28.38134765625
-19.22607421875
-30.21240234375
-27.4658203125
-24.71923828125
-20.1416015625
-23.8037109375
-33.87451171875
-32.958984375
-27.4658203125
-22.88818359375
-25.634765625
-22.88818359375
-25.634765625
-24.71923828125
-29.296875
-31.1279296875
-33.87451171875
-24.71923828125
-29.296875
-32.04345703125
-30.21240234375
-27.4658203125
-32.958984375
-32.958984375
-32.958984375
-32.958984375
-31.1279296875
-28.38134765625
-28.38134765625
-33.87451171875
-32.04345703125
-29.296875
-38.4521484375
-34.7900390625
-35.70556640625
-33.87451171875
-30.21240234375
-35.70556640625
-42.1142578125
-34.7900390625
-37.53662109375
-33.87451171875
-39.36767578125
-39.36767578125
-40.283203125
-36.62109375
-31.1279296875
-33.87451171875
-37.53662109375
-44.86083984375
-40.283203125
-33.87451171875
-31.1279296875
-31.1279296875
-35.70556640625
-41.19873046875
-51.26953125
-48.52294921875
-40.283203125
-40.283203125
-43.02978515625
-34.7900390625
-33.87451171875
-39.36767578125
-43.02978515625
-42.1142578125
-43.9453125
-41.19873046875
-42.1142578125
-43.02978515625
-41.19873046875
-34.7900390625
-40.283203125
-45.7763671875
-35.70556640625
-37.53662109375
-40.283203125
-40.283203125
-46.69189453125
-46.69189453125
-43.02978515625
-31.1279296875
-44.86083984375
-47.607421875
-40.283203125
-43.02978515625
-43.9453125
-43.02978515625
-46.69189453125
-37.53662109375
-24.71923828125
-17.39501953125
-13.73291015625
-10.07080078125
3.662109375
7.32421875
9.1552734375
10.07080078125
14.6484375
11.90185546875
13.73291015625
13.73291015625
12.8173828125
3.662109375
10.07080078125
25.634765625
43.9453125
53.1005859375
59.50927734375
72.32666015625
70.49560546875
75.0732421875
72.32666015625
70.49560546875
79.65087890625
66.83349609375
56.7626953125
41.19873046875
27.4658203125
21.97265625
23.8037109375
24.71923828125
23.8037109375
17.39501953125
14.6484375
-1.8310546875
-2.74658203125
-11.90185546875
-36.62109375
-42.1142578125
-47.607421875
-49.4384765625
-48.52294921875
-50.35400390625
-58.59375
-55.84716796875
-60.4248046875
-65.00244140625
-57.67822265625
-52.18505859375
-54.01611328125
-61.34033203125
-61.34033203125
-56.7626953125
-61.34033203125
-66.83349609375
-72.32666015625
-64.0869140625
-67.7490234375
-69.580078125
-68.66455078125
-66.83349609375
-68.66455078125
-58.59375
-65.91796875
-69.580078125
-68.66455078125
-71.4111328125
-74.15771484375
-72.32666015625
-69.580078125
-65.00244140625
-68.66455078125
-78.7353515625
-71.4111328125
-74.15771484375
-73.2421875
-56.7626953125
-25.634765625
-5.4931640625
7.32421875
36.62109375
86.97509765625
150.146484375
196.83837890625
237.12158203125
290.22216796875
348.81591796875
425.72021484375
497.13134765625
560.302734375
579.52880859375
511.77978515625
369.873046875
229.79736328125
115.3564453125
-13.73291015625
-171.20361328125
-286.56005859375
-322.265625
-296.630859375
-277.40478515625
-239.8681640625
-192.2607421875
-164.794921875
-138.24462890625
-130.92041015625
-130.92041015625
-108.0322265625
-78.7353515625
-52.18505859375
-31.1279296875
-22.88818359375
-19.22607421875
-14.6484375
-8.23974609375
-15.56396484375
-17.39501953125
-15.56396484375
-14.6484375
-15.56396484375
-5.4931640625
-0.91552734375
-4.57763671875
-5.4931640625
-0.91552734375
-0.91552734375
-4.57763671875
-1.8310546875
-2.74658203125
3.662109375
3.662109375
2.74658203125
16.4794921875
6.40869140625
1.8310546875
1.8310546875
13.73291015625
10.07080078125
17.39501953125
19.22607421875
21.97265625
18.310546875
21.97265625
17.39501953125
23.8037109375
25.634765625
28.38134765625
30.21240234375
37.53662109375
36.62109375
33.87451171875
39.36767578125
47.607421875
37.53662109375
46.69189453125
55.84716796875
56.7626953125
58.59375
65.91796875
74.15771484375
74.15771484375
68.66455078125
71.4111328125
79.65087890625
84.228515625
84.228515625
80.56640625
98.876953125
106.201171875
106.201171875
110.77880859375
115.3564453125
126.3427734375
132.75146484375
133.6669921875
133.6669921875
143.73779296875
151.06201171875
152.89306640625
165.71044921875
171.20361328125
181.2744140625
184.02099609375
188.5986328125
198.66943359375
196.83837890625
197.75390625
213.31787109375
219.7265625
232.5439453125
238.037109375
236.2060546875
242.61474609375
248.10791015625
254.5166015625
240.78369140625
242.61474609375
239.8681640625
246.27685546875
242.61474609375
244.44580078125
249.0234375
239.8681640625
240.78369140625
239.8681640625
238.037109375
234.375
216.97998046875
215.14892578125
223.388671875
221.5576171875
205.99365234375
201.416015625
191.34521484375
179.443359375
181.2744140625
173.9501953125
163.87939453125
156.55517578125
139.16015625
128.173828125
115.3564453125
110.77880859375
107.11669921875
93.3837890625
86.0595703125
80.56640625
67.7490234375
64.0869140625
61.34033203125
50.35400390625
40.283203125
35.70556640625
32.04345703125
27.4658203125
19.22607421875
11.90185546875
10.986328125
6.40869140625
3.662109375
2.74658203125
0
-2.74658203125
-3.662109375
-14.6484375
-16.4794921875
-14.6484375
-13.73291015625
-19.22607421875
-27.4658203125
-25.634765625
-32.958984375
-27.4658203125
-25.634765625
-22.88818359375
-16.4794921875
-26.55029296875
-26.55029296875
-22.88818359375
-27.4658203125
-26.55029296875
-31.1279296875
-36.62109375
-32.04345703125
-31.1279296875
-19.22607421875
-21.05712890625
-20.1416015625
-19.22607421875
-22.88818359375
-21.97265625
-21.05712890625
-24.71923828125
-21.05712890625
-28.38134765625
-29.296875
-27.4658203125
-20.1416015625
-23.8037109375
-20.1416015625
-9.1552734375
-10.07080078125
-14.6484375
-15.56396484375
-21.05712890625
-19.22607421875
-20.1416015625
-15.56396484375
-9.1552734375
-13.73291015625
-21.05712890625
-24.71923828125
-21.97265625
-25.634765625
-21.05712890625
-28.38134765625
-21.97265625
-12.8173828125
-14.6484375
-19.22607421875
-25.634765625
-18.310546875
-19.22607421875
-28.38134765625
-22.88818359375
-20.1416015625
-21.97265625
-21.97265625
-20.1416015625
-19.22607421875
-24.71923828125
-21.97265625
-29.296875
-33.87451171875
-27.4658203125
-24.71923828125
-24.71923828125
-25.634765625
-25.634765625
-25.634765625
-14.6484375
-29.296875
-31.1279296875
-32.958984375
-37.53662109375
-38.4521484375
-32.04345703125
-33.87451171875
-32.958984375
-30.21240234375
-32.04345703125
-35.70556640625
-33.87451171875
-35.70556640625
-42.1142578125
-38.4521484375
-43.02978515625
-50.35400390625
-45.7763671875
-46.69189453125
-43.9453125
-50.35400390625
-54.01611328125
-47.607421875
-38.4521484375
-40.283203125
-49.4384765625
-54.931640625
-65.91796875
-60.4248046875
-54.01611328125
-53.1005859375
-53.1005859375
-56.7626953125
-54.931640625
-55.84716796875
-57.67822265625
-62.255859375
-65.91796875
-63.17138671875
-60.4248046875
-53.1005859375
-55.84716796875
-61.34033203125
-54.931640625
-62.255859375
-61.34033203125
-61.34033203125
-71.4111328125
-66.83349609375
-58.59375
-62.255859375
-59.50927734375
-65.91796875
-77.81982421875
-69.580078125
-67.7490234375
-65.00244140625
-63.17138671875
-62.255859375
-64.0869140625
-59.50927734375
-62.255859375
-64.0869140625
-68.66455078125
-76.904296875
-80.56640625
-66.83349609375
-68.66455078125
-65.00244140625
-72.32666015625
-77.81982421875
-73.2421875
-68.66455078125
-76.904296875
-70.49560546875
-57.67822265625
-72.32666015625
-71.4111328125
-67.7490234375
-67.7490234375
-65.91796875
-76.904296875
-83.31298828125
-77.81982421875
-83.31298828125
-80.56640625
-73.2421875
-67.7490234375
-64.0869140625
-63.17138671875
-69.580078125
-77.81982421875
-77.81982421875
-68.66455078125
-69.580078125
-67.7490234375
-75.98876953125
-69.580078125
-61.34033203125
-69.580078125
-75.98876953125
-78.7353515625
-69.580078125
-75.98876953125
-74.15771484375
-73.2421875
-75.98876953125
-64.0869140625
-62.255859375
-65.91796875
-54.01611328125
-53.1005859375
-50.35400390625
-35.70556640625
-41.19873046875
-30.21240234375
-23.8037109375
-33.87451171875
-22.88818359375
-20.1416015625
-27.4658203125
-30.21240234375
-24.71923828125
-31.1279296875
-22.88818359375
-2.74658203125
11.90185546875
15.56396484375
14.6484375
30.21240234375
35.70556640625
44.86083984375
37.53662109375
31.1279296875
27.4658203125
21.05712890625
11.90185546875
0
-7.32421875
-7.32421875
-10.986328125
-14.6484375
-19.22607421875
-22.88818359375
-34.7900390625
-39.36767578125
-35.70556640625
-54.01611328125
-72.32666015625
-81.48193359375
-84.228515625
-83.31298828125
-87.890625
-93.3837890625
-81.48193359375
-82.3974609375
-88.80615234375
-86.0595703125
-93.3837890625
-102.5390625
-95.21484375
-90.63720703125
-95.21484375
-96.13037109375
-91.552734375
-103.45458984375
-103.45458984375
-101.62353515625
-102.5390625
-100.7080078125
-96.13037109375
-101.62353515625
-113.525390625
-109.86328125
-108.0322265625
-102.5390625
-102.5390625
-98.876953125
-102.5390625
-105.28564453125
-101.62353515625
-98.876953125
-100.7080078125
-106.201171875
-100.7080078125
-107.11669921875
-94.29931640625
-72.32666015625
-45.7763671875
-38.4521484375
-25.634765625
13.73291015625
74.15771484375
104.3701171875
142.822265625
203.2470703125
246.27685546875
292.96875
363.46435546875
438.53759765625
469.66552734375
440.36865234375
315.85693359375
174.86572265625
92.46826171875
-10.07080078125
-114.44091796875
-188.5986328125
-249.0234375
-243.5302734375
-222.47314453125
-194.091796875
-174.86572265625
-153.80859375
-142.822265625
-143.73779296875
-155.6396484375
-154.72412109375
-149.23095703125
-122.6806640625
-101.62353515625
-80.56640625
-69.580078125
-55.84716796875
-49.4384765625
-53.1005859375
-53.1005859375
-54.931640625
-50.35400390625
-50.35400390625
-43.9453125
-37.53662109375
-38.4521484375
-44.86083984375
-41.19873046875
-34.7900390625
-36.62109375
-36.62109375
-41.19873046875
-43.9453125
-40.283203125
-27.4658203125
-32.04345703125
-30.21240234375
-36.62109375
-29.296875
-32.04345703125
-21.97265625
-21.05712890625
-19.22607421875
-16.4794921875
-21.05712890625
-15.56396484375
-12.8173828125
-10.07080078125
-17.39501953125
-3.662109375
-10.07080078125
-7.32421875
-10.07080078125
-4.57763671875
5.4931640625
6.40869140625
5.4931640625
-2.74658203125
2.74658203125
8.23974609375
11.90185546875
15.56396484375
21.05712890625
20.1416015625
21.05712890625
27.4658203125
26.55029296875
28.38134765625
35.70556640625
41.19873046875
48.52294921875
53.1005859375
56.7626953125
60.4248046875
54.01611328125
56.7626953125
73.2421875
81.48193359375
83.31298828125
89.7216796875
103.45458984375
106.201171875
106.201171875
106.201171875
117.1875
124.51171875
115.3564453125
124.51171875
135.498046875
144.6533203125
148.3154296875
153.80859375
168.45703125
163.87939453125
167.54150390625
172.119140625
173.03466796875
172.119140625
168.45703125
171.20361328125
178.52783203125
184.9365234375
174.86572265625
173.03466796875
168.45703125
166.6259765625
173.03466796875
170.2880859375
170.2880859375
168.45703125
159.3017578125
159.3017578125
158.38623046875
151.06201171875
148.3154296875
143.73779296875
123.59619140625
120.849609375
116.27197265625
115.3564453125
104.3701171875
88.80615234375
87.890625
82.3974609375
75.98876953125
65.91796875
58.59375
53.1005859375
52.18505859375
35.70556640625
23.8037109375
17.39501953125
12.8173828125
16.4794921875
4.57763671875
-7.32421875
-2.74658203125
-3.662109375
-10.986328125
-19.22607421875
-23.8037109375
-20.1416015625
-24.71923828125
-25.634765625
-27.4658203125
-27.4658203125
-36.62109375
-45.7763671875
-45.7763671875
-47.607421875
-54.01611328125
-53.1005859375
-46.69189453125
-53.1005859375
-60.4248046875
-63.17138671875
-54.931640625
-62.255859375
-59.50927734375
-55.84716796875
-51.26953125
-49.4384765625
-63.17138671875
-61.34033203125
-61.34033203125
-64.0869140625
-60.4248046875
-61.34033203125
-60.4248046875
-57.67822265625
-66.83349609375
-66.83349609375
-64.0869140625
-64.0869140625
-65.91796875
-59.50927734375
-58.59375
-58.59375
-65.00244140625
-58.59375
-52.18505859375
-53.1005859375
-57.67822265625
-55.84716796875
-56.7626953125
-52.18505859375
-52.18505859375
-53.1005859375
-53.1005859375
-47.607421875
-48.52294921875
-53.1005859375
-52.18505859375
-46.69189453125
-54.931640625
-50.35400390625
-49.4384765625
-48.52294921875
-45.7763671875
-43.9453125
-49.4384765625
-42.1142578125
-42.1142578125
-45.7763671875
-43.9453125
-37.53662109375
-43.9453125
-45.7763671875
-50.35400390625
-44.86083984375
-39.36767578125
-39.36767578125
-38.4521484375
-41.19873046875
-43.9453125
-55.84716796875
-55.84716796875
-42.1142578125
-34.7900390625
-48.52294921875
-49.4384765625
-54.931640625
-55.84716796875
-52.18505859375
-48.52294921875
-52.18505859375
-50.35400390625
-53.1005859375
-54.01611328125
-55.84716796875
-60.4248046875
-62.255859375
-61.34033203125
-67.7490234375
-76.904296875
-71.4111328125
-60.4248046875
-58.59375
-63.17138671875
-62.255859375
-57.67822265625
-63.17138671875
-73.2421875
-68.66455078125
-61.34033203125
-65.91796875
-72.32666015625
-70.49560546875
-73.2421875
-71.4111328125
-73.2421875
-72.32666015625
-67.7490234375
-58.59375
-65.91796875
-73.2421875
-70.49560546875
-72.32666015625
-77.81982421875
-73.2421875
-74.15771484375
-70.49560546875
-78.7353515625
-75.0732421875
-79.65087890625
-75.0732421875
-76.904296875
-84.228515625
-86.97509765625
-87.890625
-78.7353515625
-82.3974609375
-86.0595703125
-75.0732421875
-75.98876953125
-79.65087890625
-83.31298828125
-86.0595703125
-79.65087890625
-81.48193359375
-86.0595703125
-88.80615234375
-86.0595703125
-82.3974609375
-81.48193359375
-85.14404296875
-84.228515625
-79.65087890625
-84.228515625
-91.552734375
-82.3974609375
-79.65087890625
-79.65087890625
-79.65087890625
-84.228515625
-87.890625
-85.14404296875
-86.0595703125
-91.552734375
-84.228515625
-79.65087890625
-79.65087890625
-81.48193359375
-80.56640625
-83.31298828125
-85.14404296875
-89.7216796875
-81.48193359375
-77.81982421875
-85.14404296875
-91.552734375
-73.2421875
-63.17138671875
-64.0869140625
-56.7626953125
-44.86083984375
-40.283203125
-44.86083984375
-45.7763671875
-38.4521484375
-41.19873046875
-36.62109375
-32.958984375
-32.04345703125
-35.70556640625
-23.8037109375
-17.39501953125
1.8310546875
10.986328125
11.90185546875
17.39501953125
18.310546875
21.05712890625
31.1279296875
21.97265625
17.39501953125
14.6484375
20.1416015625
16.4794921875
-6.40869140625
-21.05712890625
-16.4794921875
-20.1416015625
-19.22607421875
-21.05712890625
-33.87451171875
-45.7763671875
-49.4384765625
-56.7626953125
-69.580078125
-86.0595703125
-91.552734375
-92.46826171875
-92.46826171875
-99.79248046875
-107.11669921875
-105.28564453125
-96.13037109375
-105.28564453125
-102.5390625
-95.21484375
-101.62353515625
-111.6943359375
-112.60986328125
-111.6943359375
-102.5390625
-110.77880859375
-117.1875
-111.6943359375
-108.0322265625
-116.27197265625
-120.849609375
-118.10302734375
-116.27197265625
-124.51171875
-107.11669921875
-106.201171875
-116.27197265625
-114.44091796875
-117.1875
-114.44091796875
-111.6943359375
-114.44091796875
-112.60986328125
-116.27197265625
-111.6943359375
-114.44091796875
-106.201171875
-83.31298828125
-74.15771484375
-53.1005859375
-39.36767578125
-23.8037109375
12.8173828125
65.91796875
103.45458984375
138.24462890625
193.17626953125
240.78369140625
290.22216796875
344.23828125
411.07177734375
455.01708984375
429.38232421875
311.279296875
160.21728515625
71.4111328125
-21.05712890625
-119.93408203125
-214.2333984375
-266.41845703125
-264.58740234375
-241.69921875
-205.99365234375
-174.86572265625
-149.23095703125
-148.3154296875
-152.89306640625
-165.71044921875
-173.03466796875
-153.80859375
-134.58251953125
-121.76513671875
-96.13037109375
-75.98876953125
-65.00244140625
-70.49560546875
-65.00244140625
-68.66455078125
-62.255859375
-51.26953125
-54.01611328125
-52.18505859375
-52.18505859375
-47.607421875
-51.26953125
-58.59375
-60.4248046875
-51.26953125
-44.86083984375
-50.35400390625
-50.35400390625
-39.36767578125
-36.62109375
-42.1142578125
-41.19873046875
-40.283203125
-42.1142578125
-32.04345703125
-28.38134765625
-24.71923828125
-24.71923828125
-27.4658203125
-24.71923828125
-24.71923828125
-23.8037109375
-22.88818359375
-26.55029296875
-16.4794921875
-10.07080078125
-8.23974609375
-13.73291015625
-8.23974609375
-10.07080078125
-4.57763671875
-0.91552734375
-6.40869140625
-2.74658203125
1.8310546875
0
-0.91552734375
5.4931640625
12.8173828125
12.8173828125
21.05712890625
30.21240234375
32.04345703125
31.1279296875
32.958984375
39.36767578125
53.1005859375
51.26953125
47.607421875
53.1005859375
62.255859375
71.4111328125
72.32666015625
73.2421875
82.3974609375
83.31298828125
88.80615234375
98.876953125
112.60986328125
111.6943359375
118.10302734375
130.0048828125
130.92041015625
130.92041015625
144.6533203125
153.80859375
155.6396484375
155.6396484375
165.71044921875
163.87939453125
166.6259765625
170.2880859375
173.03466796875
171.20361328125
166.6259765625
174.86572265625
172.119140625
174.86572265625
179.443359375
177.6123046875
179.443359375
170.2880859375
166.6259765625
161.1328125
168.45703125
163.87939453125
152.89306640625
156.55517578125
150.146484375
146.484375
140.07568359375
139.16015625
124.51171875
115.3564453125
109.86328125
103.45458984375
94.29931640625
83.31298828125
75.98876953125
70.49560546875
62.255859375
58.59375
58.59375
45.7763671875
31.1279296875
22.88818359375
16.4794921875
18.310546875
10.986328125
-1.8310546875
-2.74658203125
-9.1552734375
-12.8173828125
-21.05712890625
-22.88818359375
-29.296875
-29.296875
-28.38134765625
-38.4521484375
-47.607421875
-51.26953125
-44.86083984375
-50.35400390625
-46.69189453125
-53.1005859375
-61.34033203125
-54.01611328125
-48.52294921875
-53.1005859375
-62.255859375
-62.255859375
-64.0869140625
-62.255859375
-63.17138671875
-65.00244140625
-58.59375
-62.255859375
-62.255859375
-66.83349609375
-60.4248046875
-58.59375
-65.91796875
-62.255859375
-70.49560546875
-66.83349609375
-64.0869140625
-64.0869140625
-66.83349609375
-61.34033203125
-62.255859375
-55.84716796875
-60.4248046875
-60.4248046875
-65.00244140625
-63.17138671875
-60.4248046875
-57.67822265625
-56.7626953125
-46.69189453125
-45.7763671875
-53.1005859375
-56.7626953125
-55.84716796875
-47.607421875
-46.69189453125
-47.607421875
-48.52294921875
-56.7626953125
-54.01611328125
-56.7626953125
-53.1005859375
-53.1005859375
-45.7763671875
-48.52294921875
-48.52294921875
-48.52294921875
-49.4384765625
-43.9453125
-43.02978515625
-38.4521484375
-39.36767578125
-44.86083984375
-48.52294921875
-45.7763671875
-47.607421875
-47.607421875
-41.19873046875
-40.283203125
-47.607421875
-43.9453125
-51.26953125
-62.255859375
-59.50927734375
-54.01611328125
-51.26953125
-47.607421875
-48.52294921875
-53.1005859375
-52.18505859375
-60.4248046875
-52.18505859375
-48.52294921875
-54.931640625
-56.7626953125
-51.26953125
-57.67822265625
-57.67822265625
-58.59375
-58.59375
-54.931640625
-54.931640625
-59.50927734375
-59.50927734375
-58.59375
-60.4248046875
-58.59375
-65.91796875
-72.32666015625
-74.15771484375
-63.17138671875
-64.0869140625
-62.255859375
-58.59375
-58.59375
-64.0869140625
-64.0869140625
-63.17138671875
-67.7490234375
-75.0732421875
-70.49560546875
-72.32666015625
-70.49560546875
-71.4111328125
-71.4111328125
-72.32666015625
-73.2421875
-76.904296875
-73.2421875
-75.98876953125
-72.32666015625
-74.15771484375
-72.32666015625
-77.81982421875
-81.48193359375
-81.48193359375
-75.98876953125
-75.98876953125
-76.904296875
-80.56640625
-73.2421875
-75.98876953125
-70.49560546875
-65.91796875
-73.2421875
-74.15771484375
-74.15771484375
-76.904296875
-75.0732421875
-75.0732421875
-76.904296875
-77.81982421875
-74.15771484375
-70.49560546875
-75.0732421875
-75.0732421875
-76.904296875
-74.15771484375
-77.81982421875
-75.0732421875
-75.98876953125
-74.15771484375
-82.3974609375
-85.14404296875
-75.98876953125
-78.7353515625
-75.98876953125
-78.7353515625
-75.98876953125
-76.904296875
-74.15771484375
-77.81982421875
-84.228515625
-80.56640625
-86.97509765625
-79.65087890625
-78.7353515625
-79.65087890625
-76.904296875
-80.56640625
-83.31298828125
-76.904296875
-80.56640625
-76.904296875
-70.49560546875
-67.7490234375
-60.4248046875
-60.4248046875
-60.4248046875
-47.607421875
-31.1279296875
-21.05712890625
-28.38134765625
-29.296875
-21.97265625
-15.56396484375
-14.6484375
-17.39501953125
-21.97265625
-17.39501953125
-12.8173828125
2.74658203125
13.73291015625
19.22607421875
25.634765625
29.296875
32.958984375
43.9453125
39.36767578125
35.70556640625
28.38134765625
30.21240234375
24.71923828125
7.32421875
-7.32421875
-11.90185546875
-19.22607421875
-21.97265625
-20.1416015625
-18.310546875
-24.71923828125
-36.62109375
-47.607421875
-57.67822265625
-65.00244140625
-69.580078125
-83.31298828125
-89.7216796875
-94.29931640625
-103.45458984375
-98.876953125
-92.46826171875
-91.552734375
-88.80615234375
-107.11669921875
-108.0322265625
-106.201171875
-99.79248046875
-105.28564453125
-117.1875
-106.201171875
-103.45458984375
-110.77880859375
-108.0322265625
-103.45458984375
-116.27197265625
-117.1875
-112.60986328125
-108.94775390625
-111.6943359375
-117.1875
-114.44091796875
-111.6943359375
-108.0322265625
-107.11669921875
-104.3701171875
-108.94775390625
-108.94775390625
-112.60986328125
-119.93408203125
-117.1875
-111.6943359375
-103.45458984375
-86.97509765625
-66.83349609375
-49.4384765625
-15.56396484375
7.32421875
54.01611328125
120.849609375
149.23095703125
203.2470703125
253.60107421875
307.6171875
380.859375
460.51025390625
531.005859375
552.06298828125
493.46923828125
356.14013671875
207.82470703125
91.552734375
-26.55029296875
-161.1328125
-283.8134765625
-331.4208984375
-323.18115234375
-284.72900390625
-243.5302734375
-214.2333984375
-183.10546875
-172.119140625
-161.1328125
-163.87939453125
-152.89306640625
-126.3427734375
-94.29931640625
-68.66455078125
-54.01611328125
-57.67822265625
-58.59375
-55.84716796875
-45.7763671875
-47.607421875
-49.4384765625
-45.7763671875
-50.35400390625
-43.02978515625
-44.86083984375
-41.19873046875
-45.7763671875
-48.52294921875
-51.26953125
-48.52294921875
-32.04345703125
-33.87451171875
-37.53662109375
-34.7900390625
-33.87451171875
-26.55029296875
-27.4658203125
-26.55029296875
-24.71923828125
-18.310546875
-19.22607421875
-14.6484375
-14.6484375
-15.56396484375
-17.39501953125
-15.56396484375
-18.310546875
-7.32421875
-3.662109375
-8.23974609375
-1.8310546875
1.8310546875
3.662109375
-1.8310546875
1.8310546875
3.662109375
8.23974609375
8.23974609375
11.90185546875
19.22607421875
22.88818359375
22.88818359375
26.55029296875
29.296875
35.70556640625
39.36767578125
35.70556640625
41.19873046875
43.02978515625
43.9453125
48.52294921875
57.67822265625
61.34033203125
71.4111328125
78.7353515625
81.48193359375
86.97509765625
93.3837890625
97.96142578125
99.79248046875
108.94775390625
118.10302734375
125.42724609375
134.58251953125
142.822265625
145.56884765625
145.56884765625
152.89306640625
162.9638671875
169.37255859375
174.86572265625
175.78125
187.68310546875
190.4296875
197.75390625
195.9228515625
197.75390625
205.99365234375
204.16259765625
204.16259765625
209.65576171875
208.740234375
209.65576171875
200.50048828125
205.99365234375
209.65576171875
215.14892578125
206.9091796875
195.00732421875
199.5849609375
192.2607421875
191.34521484375
189.51416015625
184.9365234375
176.69677734375
163.87939453125
160.21728515625
156.55517578125
144.6533203125
134.58251953125
127.25830078125
127.25830078125
117.1875
115.3564453125
93.3837890625
85.14404296875
77.81982421875
65.00244140625
57.67822265625
56.7626953125
46.69189453125
30.21240234375
19.22607421875
21.05712890625
21.97265625
12.8173828125
10.986328125
7.32421875
1.8310546875
-10.986328125
-18.310546875
-9.1552734375
-14.6484375
-27.4658203125
-33.87451171875
-27.4658203125
-32.958984375
-32.958984375
-36.62109375
-38.4521484375
-35.70556640625
-42.1142578125
-48.52294921875
-51.26953125
-53.1005859375
-52.18505859375
-54.931640625
-54.01611328125
-48.52294921875
-45.7763671875
-44.86083984375
-54.01611328125
-54.01611328125
-44.86083984375
-41.19873046875
-52.18505859375
-54.931640625
-50.35400390625
-53.1005859375
-57.67822265625
-55.84716796875
-54.01611328125
-51.26953125
-48.52294921875
-42.1142578125
-41.19873046875
-37.53662109375
-43.02978515625
-44.86083984375
-43.02978515625
-43.9453125
-39.36767578125
-40.283203125
-35.70556640625
-30.21240234375
-31.1279296875
-36.62109375
-37.53662109375
-42.1142578125
-38.4521484375
-38.4521484375
-32.958984375
-30.21240234375
-30.21240234375
-26.55029296875
-33.87451171875
-36.62109375
-33.87451171875
-33.87451171875
-32.958984375
-30.21240234375
-30.21240234375
-25.634765625
-24.71923828125
-28.38134765625
-35.70556640625
-33.87451171875
-33.87451171875
-32.04345703125
-27.4658203125
-22.88818359375
-29.296875
-27.4658203125
-27.4658203125
-33.87451171875
-37.53662109375
-36.62109375
-33.87451171875
-32.958984375
-39.36767578125
-38.4521484375
-34.7900390625
-29.296875
-34.7900390625
-32.958984375
-32.04345703125
-38.4521484375
-40.283203125
-43.9453125
-43.02978515625
-33.87451171875
-29.296875
-31.1279296875
-38.4521484375
-40.283203125
-38.4521484375
-39.36767578125
-45.7763671875
-44.86083984375
-42.1142578125
-35.70556640625
-38.4521484375
-46.69189453125
-35.70556640625
-37.53662109375
-46.69189453125
-52.18505859375
-40.283203125
-40.283203125
-47.607421875
-54.931640625
-66.83349609375
-62.255859375
-48.52294921875
-56.7626953125
-55.84716796875
-55.84716796875
-58.59375
-56.7626953125
-58.59375
-60.4248046875
-54.931640625
-47.607421875
-52.18505859375
-58.59375
-56.7626953125
-50.35400390625
-53.1005859375
-54.01611328125
-58.59375
-55.84716796875
-55.84716796875
-65.91796875
-62.255859375
-65.00244140625
-61.34033203125
-63.17138671875
-55.84716796875
-58.59375
-61.34033203125
-65.00244140625
-63.17138671875
-58.59375
-62.255859375
-74.15771484375
-65.00244140625
-54.931640625
-54.01611328125
-65.00244140625
-61.34033203125
-61.34033203125
-60.4248046875
-66.83349609375
-65.00244140625
-58.59375
-59.50927734375
-61.34033203125
-66.83349609375
-68.66455078125
-60.4248046875
-69.580078125
-70.49560546875
-62.255859375
-63.17138671875
-71.4111328125
-72.32666015625
-64.0869140625
-66.83349609375
-62.255859375
-65.91796875
-64.0869140625
-61.34033203125
-61.34033203125
-63.17138671875
-64.0869140625
-68.66455078125
-65.91796875
-64.0869140625
-58.59375
-49.4384765625
-49.4384765625
-47.607421875
-41.19873046875
-31.1279296875
-14.6484375
-7.32421875
-4.57763671875
-10.07080078125
-10.07080078125
0
1.8310546875
-3.662109375
-9.1552734375
-8.23974609375
8.23974609375
18.310546875
22.88818359375
29.296875
42.1142578125
39.36767578125
45.7763671875
55.84716796875
51.26953125
50.35400390625
42.1142578125
30.21240234375
21.97265625
12.8173828125
0
-9.1552734375
-6.40869140625
-5.4931640625
7.32421875
4.57763671875
-16.4794921875
-33.87451171875
-43.02978515625
-53.1005859375
-62.255859375
-68.66455078125
-76.904296875
-75.0732421875
-78.7353515625
-78.7353515625
-81.48193359375
-77.81982421875
-81.48193359375
-81.48193359375
-82.3974609375
-79.65087890625
-79.65087890625
-86.0595703125
-80.56640625
-80.56640625
-84.228515625
-84.228515625
-84.228515625
-89.7216796875
-87.890625
-86.97509765625
-89.7216796875
-87.890625
-93.3837890625
-100.7080078125
-97.0458984375
-92.46826171875
-91.552734375
-93.3837890625
-93.3837890625
-92.46826171875
-92.46826171875
-89.7216796875
-92.46826171875
-99.79248046875
-95.21484375
-94.29931640625
-79.65087890625
-55.84716796875
-26.55029296875
-29.296875
-19.22607421875
31.1279296875
89.7216796875
149.23095703125
185.85205078125
239.8681640625
297.54638671875
363.46435546875
437.6220703125
509.94873046875
563.96484375
554.8095703125
466.00341796875
312.19482421875
178.52783203125
69.580078125
-75.98876953125
-220.64208984375
-320.4345703125
-331.4208984375
-305.7861328125
-274.658203125
-238.95263671875
-190.4296875
-166.6259765625
-152.89306640625
-145.56884765625
-143.73779296875
-121.76513671875
-89.7216796875
-60.4248046875
-47.607421875
-34.7900390625
-28.38134765625
-28.38134765625
-39.36767578125
-36.62109375
-27.4658203125
-36.62109375
-42.1142578125
-35.70556640625
-37.53662109375
-32.04345703125
-28.38134765625
-21.97265625
-17.39501953125
-31.1279296875
-24.71923828125
-19.22607421875
-10.986328125
-11.90185546875
-15.56396484375
-8.23974609375
-4.57763671875
-8.23974609375
-7.32421875
2.74658203125
2.74658203125
0
-0.91552734375
4.57763671875
-2.74658203125
-3.662109375
0
11.90185546875
14.6484375
12.8173828125
9.1552734375
20.1416015625
17.39501953125
20.1416015625
27.4658203125
28.38134765625
24.71923828125
29.296875
26.55029296875
32.958984375
37.53662109375
35.70556640625
40.283203125
46.69189453125
46.69189453125
54.01611328125
55.84716796875
56.7626953125
73.2421875
80.56640625
67.7490234375
77.81982421875
91.552734375
84.228515625
93.3837890625
92.46826171875
88.80615234375
101.62353515625
118.10302734375
119.0185546875
121.76513671875
127.25830078125
140.9912109375
152.89306640625
160.21728515625
157.470703125
159.3017578125
162.9638671875
178.52783203125
183.10546875
198.66943359375
203.2470703125
205.99365234375
209.65576171875
208.740234375
215.14892578125
211.48681640625
214.2333984375
223.388671875
223.388671875
220.64208984375
226.13525390625
229.79736328125
231.62841796875
226.13525390625
227.96630859375
227.96630859375
227.96630859375
224.30419921875
222.47314453125
212.40234375
208.740234375
203.2470703125
199.5849609375
195.9228515625
195.00732421875
185.85205078125
176.69677734375
170.2880859375
162.04833984375
156.55517578125
144.6533203125
130.0048828125
122.6806640625
108.94775390625
99.79248046875
89.7216796875
85.14404296875
85.14404296875
73.2421875
63.17138671875
57.67822265625
46.69189453125
32.04345703125
18.310546875
22.88818359375
19.22607421875
7.32421875
4.57763671875
0
-12.8173828125
-18.310546875
-16.4794921875
-20.1416015625
-24.71923828125
-21.97265625
-24.71923828125
-31.1279296875
-33.87451171875
-39.36767578125
-36.62109375
-39.36767578125
-38.4521484375
-40.283203125
-48.52294921875
-43.02978515625
-41.19873046875
-40.283203125
-37.53662109375
-41.19873046875
-53.1005859375
-54.01611328125
-55.84716796875
-50.35400390625
-57.67822265625
-59.50927734375
-46.69189453125
-43.9453125
-52.18505859375
-55.84716796875
-54.931640625
-43.02978515625
-44.86083984375
-47.607421875
-47.607421875
-44.86083984375
-48.52294921875
-46.69189453125
-47.607421875
-47.607421875
-41.19873046875
-40.283203125
-33.87451171875
-36.62109375
-43.02978515625
-48.52294921875
-45.7763671875
-35.70556640625
-38.4521484375
-38.4521484375
-48.52294921875
-40.283203125
-34.7900390625
-35.70556640625
-34.7900390625
-30.21240234375
-22.88818359375
-23.8037109375
-25.634765625
-26.55029296875
-26.55029296875
-30.21240234375
-23.8037109375
-20.1416015625
-26.55029296875
-30.21240234375
-27.4658203125
-21.05712890625
-22.88818359375
-26.55029296875
-32.958984375
-32.04345703125
-30.21240234375
-33.87451171875
-27.4658203125
-33.87451171875
-37.53662109375
-26.55029296875
-27.4658203125
-30.21240234375
-32.04345703125
-40.283203125
-33.87451171875
-30.21240234375
-34.7900390625
-28.38134765625
-34.7900390625
-33.87451171875
-36.62109375
-33.87451171875
-34.7900390625
-30.21240234375
-31.1279296875
-37.53662109375
-38.4521484375
-40.283203125
-37.53662109375
-36.62109375
-39.36767578125
-41.19873046875
-41.19873046875
-38.4521484375
-41.19873046875
-40.283203125
-49.4384765625
-51.26953125
-48.52294921875
-45.7763671875
-45.7763671875
-42.1142578125
-44.86083984375
-42.1142578125
-40.283203125
-47.607421875
-57.67822265625
-54.01611328125
-52.18505859375
-56.7626953125
-55.84716796875
-56.7626953125
-54.01611328125
-52.18505859375
-56.7626953125
-53.1005859375
-54.931640625
-54.01611328125
-54.931640625
-58.59375
-55.84716796875
-57.67822265625
-54.01611328125
-51.26953125
-64.0869140625
-64.0869140625
-56.7626953125
-62.255859375
-66.83349609375
-67.7490234375
-65.00244140625
-66.83349609375
-58.59375
-53.1005859375
-48.52294921875
-56.7626953125
-54.01611328125
-58.59375
-58.59375
-54.01611328125
-55.84716796875
-61.34033203125
-64.0869140625
-64.0869140625
-63.17138671875
-63.17138671875
-64.0869140625
-60.4248046875
-54.931640625
-55.84716796875
-63.17138671875
-62.255859375
-72.32666015625
-67.7490234375
-62.255859375
-57.67822265625
-59.50927734375
-62.255859375
-62.255859375
-59.50927734375
-56.7626953125
-61.34033203125
-55.84716796875
-42.1142578125
-32.958984375
-34.7900390625
-24.71923828125
-1.8310546875
-0.91552734375
-3.662109375
-0.91552734375
2.74658203125
2.74658203125
8.23974609375
5.4931640625
2.74658203125
3.662109375
2.74658203125
8.23974609375
21.97265625
32.958984375
43.02978515625
48.52294921875
39.36767578125
53.1005859375
62.255859375
48.52294921875
31.1279296875
21.05712890625
16.4794921875
5.4931640625
5.4931640625
-0.91552734375
-7.32421875
-11.90185546875
-7.32421875
-16.4794921875
-20.1416015625
-37.53662109375
-42.1142578125
-43.02978515625
-54.931640625
-65.91796875
-65.91796875
-66.83349609375
-76.904296875
-75.0732421875
-78.7353515625
-71.4111328125
-74.15771484375
-76.904296875
-86.0595703125
-79.65087890625
-79.65087890625
-75.98876953125
-83.31298828125
-85.14404296875
-80.56640625
-78.7353515625
-82.3974609375
-83.31298828125
-83.31298828125
-91.552734375
-95.21484375
-97.96142578125
-90.63720703125
-88.80615234375
-90.63720703125
-91.552734375
-94.29931640625
-89.7216796875
-91.552734375
-88.80615234375
-89.7216796875
-92.46826171875
-100.7080078125
-96.13037109375
-93.3837890625
-96.13037109375
-76.904296875
-62.255859375
-44.86083984375
-27.4658203125
-1.8310546875
38.4521484375
95.21484375
140.9912109375
183.10546875
246.27685546875
293.88427734375
350.64697265625
426.6357421875
501.708984375
541.9921875
519.10400390625
398.25439453125
239.8681640625
134.58251953125
14.6484375
-138.24462890625
-264.58740234375
-327.7587890625
-320.4345703125
-292.05322265625
-259.09423828125
-216.064453125
-179.443359375
-154.72412109375
-146.484375
-148.3154296875
-140.9912109375
-108.94775390625
-82.3974609375
-51.26953125
-34.7900390625
-33.87451171875
-34.7900390625
-41.19873046875
-38.4521484375
-30.21240234375
-25.634765625
-27.4658203125
-33.87451171875
-30.21240234375
-21.05712890625
-14.6484375
-21.05712890625
-18.310546875
-14.6484375
-19.22607421875
-23.8037109375
-20.1416015625
-13.73291015625
-11.90185546875
-9.1552734375
-7.32421875
-2.74658203125
-4.57763671875
-1.8310546875
-3.662109375
-1.8310546875
5.4931640625
1.8310546875
2.74658203125
5.4931640625
1.8310546875
4.57763671875
16.4794921875
10.986328125
15.56396484375
13.73291015625
18.310546875
20.1416015625
21.05712890625
21.97265625
23.8037109375
24.71923828125
27.4658203125
32.04345703125
29.296875
35.70556640625
40.283203125
48.52294921875
45.7763671875
50.35400390625
45.7763671875
53.1005859375
56.7626953125
63.17138671875
67.7490234375
73.2421875
76.904296875
80.56640625
81.48193359375
86.0595703125
92.46826171875
97.96142578125
99.79248046875
108.94775390625
117.1875
113.525390625
121.76513671875
129.08935546875
130.0048828125
128.173828125
141.90673828125
156.55517578125
160.21728515625
167.54150390625
179.443359375
172.119140625
178.52783203125
177.6123046875
179.443359375
188.5986328125
195.9228515625
197.75390625
197.75390625
199.5849609375
205.078125
205.078125
202.33154296875
205.99365234375
205.99365234375
196.83837890625
197.75390625
195.9228515625
189.51416015625
184.02099609375
183.10546875
186.767578125
186.767578125
184.9365234375
172.119140625
160.21728515625
154.72412109375
165.71044921875
147.39990234375
130.92041015625
130.0048828125
120.849609375
106.201171875
106.201171875
103.45458984375
89.7216796875
77.81982421875
84.228515625
72.32666015625
53.1005859375
47.607421875
47.607421875
34.7900390625
32.04345703125
11.90185546875
13.73291015625
3.662109375
-9.1552734375
-11.90185546875
-7.32421875
-14.6484375
-16.4794921875
-20.1416015625
-25.634765625
-30.21240234375
-34.7900390625
-36.62109375
-33.87451171875
-34.7900390625
-43.02978515625
-40.283203125
-48.52294921875
-48.52294921875
-52.18505859375
-52.18505859375
-46.69189453125
-48.52294921875
-51.26953125
-56.7626953125
-50.35400390625
-57.67822265625
-64.0869140625
-66.83349609375
-57.67822265625
-55.84716796875
-65.00244140625
-60.4248046875
-59.50927734375
-61.34033203125
-53.1005859375
-56.7626953125
-50.35400390625
-48.52294921875
-54.01611328125
-57.67822265625
-53.1005859375
-44.86083984375
-51.26953125
-62.255859375
-56.7626953125
-54.931640625
-56.7626953125
-55.84716796875
-56.7626953125
-52.18505859375
-43.9453125
-50.35400390625
-46.69189453125
-43.02978515625
-48.52294921875
-53.1005859375
-52.18505859375
-36.62109375
-42.1142578125
-44.86083984375
-45.7763671875
-46.69189453125
-44.86083984375
-40.283203125
-33.87451171875
-37.53662109375
-41.19873046875
-47.607421875
-44.86083984375
-44.86083984375
-41.19873046875
-40.283203125
-41.19873046875
-43.9453125
-49.4384765625
-42.1142578125
-40.283203125
-49.4384765625
-50.35400390625
-42.1142578125
-41.19873046875
-47.607421875
-44.86083984375
-51.26953125
-41.19873046875
-36.62109375
-46.69189453125
-51.26953125
-57.67822265625
-57.67822265625
-60.4248046875
-48.52294921875
-55.84716796875
-60.4248046875
-62.255859375
-54.931640625
-61.34033203125
-65.00244140625
-56.7626953125
-48.52294921875
-42.1142578125
-54.01611328125
-63.17138671875
-55.84716796875
-60.4248046875
-63.17138671875
-64.0869140625
-65.00244140625
-64.0869140625
-69.580078125
-68.66455078125
-66.83349609375
-65.00244140625
-69.580078125
-69.580078125
-68.66455078125
-74.15771484375
-79.65087890625
-79.65087890625
-72.32666015625
-72.32666015625
-64.0869140625
-66.83349609375
-66.83349609375
-63.17138671875
-68.66455078125
-82.3974609375
-85.14404296875
-69.580078125
-66.83349609375
-73.2421875
-79.65087890625
-75.98876953125
-74.15771484375
-84.228515625
-79.65087890625
-81.48193359375
-81.48193359375
-78.7353515625
-80.56640625
-80.56640625
-73.2421875
-72.32666015625
-75.98876953125
-75.98876953125
-83.31298828125
-85.14404296875
-86.0595703125
-80.56640625
-81.48193359375
-79.65087890625
-80.56640625
-76.904296875
-75.98876953125
-73.2421875
-74.15771484375
-70.49560546875
-69.580078125
-71.4111328125
-68.66455078125
-68.66455078125
-54.931640625
-52.18505859375
-37.53662109375
-31.1279296875
-32.958984375
-33.87451171875
-38.4521484375
-34.7900390625
-38.4521484375
-42.1142578125
-37.53662109375
-32.958984375
-23.8037109375
-18.310546875
-18.310546875
-7.32421875
7.32421875
13.73291015625
14.6484375
20.1416015625
30.21240234375
25.634765625
10.986328125
-1.8310546875
-12.8173828125
-12.8173828125
-15.56396484375
-22.88818359375
-29.296875
-38.4521484375
-39.36767578125
-43.02978515625
-47.607421875
-63.17138671875
-72.32666015625
-71.4111328125
-86.97509765625
-92.46826171875
-89.7216796875
-97.96142578125
-96.13037109375
-91.552734375
-94.29931640625
-98.876953125
-97.96142578125
-97.0458984375
-103.45458984375
-112.60986328125
-108.94775390625
-103.45458984375
-99.79248046875
-104.3701171875
-104.3701171875
-105.28564453125
-100.7080078125
-108.0322265625
-112.60986328125
-118.10302734375
-105.28564453125
-105.28564453125
-107.11669921875
-103.45458984375
-108.94775390625
-114.44091796875
-115.3564453125
-115.3564453125
-110.77880859375
-106.201171875
-108.0322265625
-103.45458984375
-118.10302734375
-130.92041015625
-111.6943359375
-99.79248046875
-89.7216796875
-73.2421875
-54.931640625
-48.52294921875
-33.87451171875
-10.07080078125
43.9453125
94.29931640625
115.3564453125
165.71044921875
216.064453125
272.8271484375
334.16748046875
400.08544921875
434.87548828125
430.2978515625
349.7314453125
199.5849609375
110.77880859375
31.1279296875
-70.49560546875
-140.9912109375
-209.65576171875
-238.037109375
-209.65576171875
-171.20361328125
-147.39990234375
-137.3291015625
-140.07568359375
-142.822265625
-152.89306640625
-169.37255859375
-162.04833984375
-144.6533203125
-125.42724609375
-97.96142578125
-80.56640625
-61.34033203125
-61.34033203125
-64.0869140625
-60.4248046875
-51.26953125
-54.01611328125
-60.4248046875
-54.931640625
-50.35400390625
-53.1005859375
-54.01611328125
-55.84716796875
-46.69189453125
-52.18505859375
-52.18505859375
-54.01611328125
-47.607421875
-46.69189453125
-43.9453125
-47.607421875
-42.1142578125
-37.53662109375
-36.62109375
-29.296875
-43.02978515625
-50.35400390625
-35.70556640625
-29.296875
-27.4658203125
-21.97265625
-16.4794921875
-21.05712890625
-24.71923828125
-16.4794921875
-19.22607421875
-21.97265625
-16.4794921875
-11.90185546875
-10.07080078125
-2.74658203125
-8.23974609375
-6.40869140625
-6.40869140625
5.4931640625
6.40869140625
0.91552734375
3.662109375
7.32421875
12.8173828125
10.07080078125
21.05712890625
25.634765625
21.05712890625
27.4658203125
31.1279296875
36.62109375
38.4521484375
37.53662109375
50.35400390625
60.4248046875
58.59375
67.7490234375
73.2421875
77.81982421875
80.56640625
85.14404296875
86.0595703125
87.890625
100.7080078125
108.0322265625
109.86328125
122.6806640625
127.25830078125
126.3427734375
129.08935546875
130.92041015625
134.58251953125
142.822265625
157.470703125
158.38623046875
144.6533203125
149.23095703125
154.72412109375
154.72412109375
155.6396484375
156.55517578125
151.9775390625
152.89306640625
152.89306640625
158.38623046875
163.87939453125
162.04833984375
161.1328125
151.06201171875
141.90673828125
132.75146484375
128.173828125
139.16015625
129.08935546875
111.6943359375
113.525390625
109.86328125
103.45458984375
97.0458984375
88.80615234375
72.32666015625
73.2421875
69.580078125
57.67822265625
54.01611328125
45.7763671875
35.70556640625
27.4658203125
20.1416015625
13.73291015625
14.6484375
10.07080078125
5.4931640625
-2.74658203125
-3.662109375
-10.07080078125
-21.05712890625
-26.55029296875
-24.71923828125
-32.04345703125
-35.70556640625
-39.36767578125
-45.7763671875
-43.9453125
-34.7900390625
-50.35400390625
-54.01611328125
-51.26953125
-59.50927734375
-65.00244140625
-66.83349609375
-65.91796875
-61.34033203125
-70.49560546875
-72.32666015625
-68.66455078125
-54.931640625
-65.00244140625
-69.580078125
-59.50927734375
-66.83349609375
-71.4111328125
-81.48193359375
-80.56640625
-73.2421875
-71.4111328125
-75.0732421875
-67.7490234375
-67.7490234375
-75.98876953125
-68.66455078125
-65.00244140625
-66.83349609375
-62.255859375
-62.255859375
-63.17138671875
-65.91796875
-69.580078125
-74.15771484375
-68.66455078125
-62.255859375
-64.0869140625
-61.34033203125
-54.931640625
-55.84716796875
-65.91796875
-63.17138671875
-58.59375
-58.59375
-58.59375
-62.255859375
-59.50927734375
-56.7626953125
-54.931640625
-54.931640625
-59.50927734375
-58.59375
-58.59375
-59.50927734375
-55.84716796875
-54.01611328125
-57.67822265625
-58.59375
-55.84716796875
-46.69189453125
-52.18505859375
-58.59375
-59.50927734375
-65.91796875
-62.255859375
-55.84716796875
-54.01611328125
-54.931640625
-56.7626953125
-61.34033203125
-57.67822265625
-56.7626953125
-55.84716796875
-60.4248046875
-68.66455078125
-60.4248046875
-59.50927734375
-57.67822265625
-69.580078125
-65.91796875
-57.67822265625
-59.50927734375
-63.17138671875
-66.83349609375
-74.15771484375
-78.7353515625
-80.56640625
-73.2421875
-64.0869140625
-65.00244140625
-72.32666015625
-71.4111328125
-73.2421875
-75.0732421875
-71.4111328125
-77.81982421875
-84.228515625
-83.31298828125
-79.65087890625
-77.81982421875
-81.48193359375
-82.3974609375
-76.904296875
-78.7353515625
-82.3974609375
-88.80615234375
-87.890625
-91.552734375
-87.890625
-86.0595703125
-90.63720703125
-92.46826171875
-88.80615234375
-92.46826171875
-103.45458984375
-97.96142578125
-97.96142578125
-94.29931640625
-90.63720703125
-79.65087890625
-79.65087890625
-87.890625
-90.63720703125
-82.3974609375
-86.97509765625
-83.31298828125
-84.228515625
-91.552734375
-89.7216796875
-87.890625
-78.7353515625
-68.66455078125
-68.66455078125
-58.59375
-55.84716796875
-53.1005859375
-48.52294921875
-43.02978515625
-43.02978515625
-43.02978515625
-46.69189453125
-37.53662109375
-34.7900390625
-39.36767578125
-26.55029296875
-15.56396484375
1.8310546875
11.90185546875
11.90185546875
8.23974609375
4.57763671875
16.4794921875
25.634765625
21.05712890625
18.310546875
18.310546875
10.07080078125
-2.74658203125
-18.310546875
-22.88818359375
-29.296875
-33.87451171875
-40.283203125
-48.52294921875
-54.01611328125
-67.7490234375
-76.904296875
-77.81982421875
-87.890625
-93.3837890625
-99.79248046875
-98.876953125
-99.79248046875
-99.79248046875
-108.0322265625
-111.6943359375
-99.79248046875
-108.0322265625
-118.10302734375
-104.3701171875
-103.45458984375
-123.59619140625
-126.3427734375
-109.86328125
-114.44091796875
-115.3564453125
-121.76513671875
-118.10302734375
-114.44091796875
-119.0185546875
-119.93408203125
-117.1875
-122.6806640625
-117.1875
-125.42724609375
-127.25830078125
-127.25830078125
-119.0185546875
-123.59619140625
-128.173828125
-123.59619140625
-120.849609375
-130.0048828125
-131.8359375
-121.76513671875
-122.6806640625
-114.44091796875
-91.552734375
-67.7490234375
-51.26953125
-39.36767578125
-32.958984375
4.57763671875
59.50927734375
82.3974609375
133.6669921875
184.02099609375
231.62841796875
280.1513671875
344.23828125
403.74755859375
417.48046875
358.88671875
234.375
121.76513671875
47.607421875
-52.18505859375
-143.73779296875
-216.064453125
-253.60107421875
-244.44580078125
-216.064453125
-174.86572265625
-148.3154296875
-140.07568359375
-143.73779296875
-169.37255859375
-186.767578125
-178.52783203125
-163.87939453125
-140.07568359375
-113.525390625
-97.96142578125
-83.31298828125
-75.0732421875
-76.904296875
-73.2421875
-67.7490234375
-65.00244140625
-74.15771484375
-70.49560546875
-71.4111328125
-71.4111328125
-67.7490234375
-67.7490234375
-69.580078125
-65.91796875
-65.00244140625
-65.91796875
-63.17138671875
-61.34033203125
-59.50927734375
-54.01611328125
-46.69189453125
-49.4384765625
-50.35400390625
-54.01611328125
-54.01611328125
-54.01611328125
-43.02978515625
-41.19873046875
-39.36767578125
-39.36767578125
-40.283203125
-49.4384765625
-41.19873046875
-38.4521484375
-28.38134765625
-26.55029296875
-34.7900390625
-38.4521484375
-37.53662109375
-35.70556640625
-22.88818359375
-15.56396484375
-16.4794921875
-10.986328125
-10.986328125
-9.1552734375
-6.40869140625
-0.91552734375
10.07080078125
9.1552734375
4.57763671875
4.57763671875
15.56396484375
14.6484375
26.55029296875
26.55029296875
21.05712890625
30.21240234375
34.7900390625
39.36767578125
45.7763671875
53.1005859375
50.35400390625
60.4248046875
73.2421875
78.7353515625
77.81982421875
84.228515625
90.63720703125
90.63720703125
97.0458984375
97.0458984375
109.86328125
119.0185546875
122.6806640625
125.42724609375
130.0048828125
130.0048828125
130.92041015625
136.41357421875
146.484375
150.146484375
152.89306640625
148.3154296875
142.822265625
154.72412109375
153.80859375
149.23095703125
156.55517578125
154.72412109375
146.484375
135.498046875
138.24462890625
149.23095703125
142.822265625
141.90673828125
135.498046875
133.6669921875
120.849609375
110.77880859375
105.28564453125
99.79248046875
89.7216796875
91.552734375
86.97509765625
81.48193359375
73.2421875
67.7490234375
59.50927734375
50.35400390625
29.296875
25.634765625
23.8037109375
23.8037109375
15.56396484375
1.8310546875
-2.74658203125
-1.8310546875
-9.1552734375
-18.310546875
-26.55029296875
-32.04345703125
-30.21240234375
-34.7900390625
-46.69189453125
-54.931640625
-54.01611328125
-50.35400390625
-50.35400390625
-58.59375
-54.01611328125
-64.0869140625
-67.7490234375
-65.00244140625
-65.91796875
-71.4111328125
-61.34033203125
-70.49560546875
-77.81982421875
-76.904296875
-85.14404296875
-84.228515625
-71.4111328125
-71.4111328125
-74.15771484375
-76.904296875
-74.15771484375
-76.904296875
-82.3974609375
-76.904296875
-71.4111328125
-77.81982421875
-75.0732421875
-72.32666015625
-71.4111328125
-81.48193359375
-81.48193359375
-71.4111328125
-73.2421875
-75.0732421875
-77.81982421875
-72.32666015625
-73.2421875
-72.32666015625
-80.56640625
-75.0732421875
-71.4111328125
-72.32666015625
-61.34033203125
-60.4248046875
-70.49560546875
-71.4111328125
-66.83349609375
-71.4111328125
-75.0732421875
-75.98876953125
-69.580078125
-72.32666015625
-75.0732421875
-67.7490234375
-58.59375
-63.17138671875
-66.83349609375
-71.4111328125
-67.7490234375
-59.50927734375
-59.50927734375
-59.50927734375
-61.34033203125
-60.4248046875
-61.34033203125
-58.59375
-58.59375
-53.1005859375
-54.01611328125
-59.50927734375
-66.83349609375
-58.59375
-58.59375
-63.17138671875
-59.50927734375
-52.18505859375
-68.66455078125
-64.0869140625
-63.17138671875
-63.17138671875
-67.7490234375
-61.34033203125
-68.66455078125
-75.0732421875
-65.00244140625
-65.00244140625
-69.580078125
-70.49560546875
-72.32666015625
-65.91796875
-75.0732421875
-68.66455078125
-74.15771484375
-75.98876953125
-76.904296875
-75.0732421875
-75.0732421875
-81.48193359375
-85.14404296875
-86.97509765625
-80.56640625
-82.3974609375
-84.228515625
-82.3974609375
-76.904296875
-86.0595703125
-86.97509765625
-77.81982421875
-75.0732421875
-86.0595703125
-75.98876953125
-90.63720703125
-88.80615234375
-87.890625
-84.228515625
-92.46826171875
-94.29931640625
-94.29931640625
-86.0595703125
-81.48193359375
-82.3974609375
-86.0595703125
-89.7216796875
-90.63720703125
-85.14404296875
-88.80615234375
-88.80615234375
-88.80615234375
-92.46826171875
-90.63720703125
-86.97509765625
-90.63720703125
-92.46826171875
-97.96142578125
-98.876953125
-90.63720703125
-94.29931640625
-100.7080078125
-86.97509765625
-82.3974609375
-83.31298828125
-75.98876953125
-76.904296875
-67.7490234375
-52.18505859375
-43.02978515625
-46.69189453125
-54.931640625
-47.607421875
-48.52294921875
-47.607421875
-37.53662109375
-36.62109375
-30.21240234375
-21.97265625
-22.88818359375
-10.07080078125
-0.91552734375
8.23974609375
21.05712890625
32.04345703125
30.21240234375
25.634765625
18.310546875
19.22607421875
18.310546875
10.07080078125
16.4794921875
15.56396484375
4.57763671875
-2.74658203125
-14.6484375
-24.71923828125
-22.88818359375
-25.634765625
-33.87451171875
-49.4384765625
-60.4248046875
-60.4248046875
-66.83349609375
-81.48193359375
-90.63720703125
-100.7080078125
-106.201171875
-112.60986328125
-109.86328125
-108.0322265625
-113.525390625
-111.6943359375
-108.94775390625
-107.11669921875
-110.77880859375
-117.1875
-119.93408203125
-128.173828125
-120.849609375
-117.1875
-125.42724609375
-130.0048828125
-126.3427734375
-130.0048828125
-121.76513671875
-121.76513671875
-125.42724609375
-126.3427734375
-124.51171875
-122.6806640625
-128.173828125
-132.75146484375
-125.42724609375
-120.849609375
-132.75146484375
-140.9912109375
-132.75146484375
-134.58251953125
-133.6669921875
-133.6669921875
-124.51171875
-108.0322265625
-77.81982421875
-60.4248046875
-37.53662109375
-10.986328125
36.62109375
96.13037109375
125.42724609375
161.1328125
218.81103515625
269.1650390625
332.33642578125
403.74755859375
471.49658203125
502.62451171875
445.86181640625
300.29296875
167.54150390625
71.4111328125
-43.02978515625
-183.10546875
-291.1376953125
-335.0830078125
-326.84326171875
-296.630859375
-259.09423828125
-228.8818359375
-201.416015625
-189.51416015625
-183.10546875
-187.68310546875
-170.2880859375
-149.23095703125
-124.51171875
-100.7080078125
-78.7353515625
-72.32666015625
-68.66455078125
-75.0732421875
-74.15771484375
-75.98876953125
-69.580078125
-66.83349609375
-76.904296875
-73.2421875
-77.81982421875
-66.83349609375
-65.00244140625
-67.7490234375
-69.580078125
-63.17138671875
-66.83349609375
-59.50927734375
-55.84716796875
-48.52294921875
-55.84716796875
-52.18505859375
-47.607421875
-47.607421875
-49.4384765625
-43.9453125
-43.9453125
-41.19873046875
-41.19873046875
-34.7900390625
-28.38134765625
-27.4658203125
-32.04345703125
-24.71923828125
-24.71923828125
-29.296875
-22.88818359375
-16.4794921875
-11.90185546875
-15.56396484375
-18.310546875
-21.97265625
-13.73291015625
-6.40869140625
-10.986328125
4.57763671875
11.90185546875
12.8173828125
9.1552734375
13.73291015625
16.4794921875
21.97265625
20.1416015625
26.55029296875
29.296875
37.53662109375
39.36767578125
45.7763671875
52.18505859375
46.69189453125
54.01611328125
63.17138671875
66.83349609375
68.66455078125
80.56640625
75.98876953125
86.97509765625
97.96142578125
108.0322265625
122.6806640625
120.849609375
119.0185546875
131.8359375
140.07568359375
147.39990234375
155.6396484375
164.794921875
166.6259765625
165.71044921875
175.78125
176.69677734375
174.86572265625
175.78125
179.443359375
191.34521484375
191.34521484375
189.51416015625
188.5986328125
198.66943359375
196.83837890625
200.50048828125
195.00732421875
189.51416015625
188.5986328125
184.02099609375
182.18994140625
179.443359375
177.6123046875
162.04833984375
167.54150390625
161.1328125
147.39990234375
127.25830078125
126.3427734375
127.25830078125
113.525390625
105.28564453125
94.29931640625
79.65087890625
68.66455078125
69.580078125
60.4248046875
46.69189453125
40.283203125
34.7900390625
28.38134765625
27.4658203125
18.310546875
11.90185546875
0
-4.57763671875
-3.662109375
-24.71923828125
-21.97265625
-23.8037109375
-16.4794921875
-28.38134765625
-46.69189453125
-38.4521484375
-44.86083984375
-54.931640625
-56.7626953125
-53.1005859375
-49.4384765625
-48.52294921875
-51.26953125
-59.50927734375
-64.0869140625
-60.4248046875
-62.255859375
-55.84716796875
-67.7490234375
-65.91796875
-68.66455078125
-70.49560546875
-67.7490234375
-60.4248046875
-69.580078125
-68.66455078125
-69.580078125
-73.2421875
-71.4111328125
-66.83349609375
-64.0869140625
-66.83349609375
-58.59375
-61.34033203125
-60.4248046875
-69.580078125
-74.15771484375
-69.580078125
-65.91796875
-60.4248046875
-52.18505859375
-60.4248046875
-64.0869140625
-59.50927734375
-58.59375
-61.34033203125
-60.4248046875
-55.84716796875
-55.84716796875
-52.18505859375
-50.35400390625
-44.86083984375
-48.52294921875
-46.69189453125
-53.1005859375
-57.67822265625
-48.52294921875
-41.19873046875
-51.26953125
-51.26953125
-39.36767578125
-44.86083984375
-49.4384765625
-48.52294921875
-50.35400390625
-51.26953125
-47.607421875
-40.283203125
-45.7763671875
-45.7763671875
-43.9453125
-43.9453125
-46.69189453125
-39.36767578125
-43.9453125
-47.607421875
-46.69189453125
-44.86083984375
-52.18505859375
-52.18505859375
-46.69189453125
-48.52294921875
-51.26953125
-46.69189453125
-46.69189453125
-43.9453125
-48.52294921875
-57.67822265625
-51.26953125
-44.86083984375
-47.607421875
-47.607421875
-55.84716796875
-49.4384765625
-50.35400390625
-52.18505859375
-52.18505859375
-51.26953125
-59.50927734375
-56.7626953125
-54.931640625
-64.0869140625
-61.34033203125
-59.50927734375
-60.4248046875
-66.83349609375
-62.255859375
-65.00244140625
-64.0869140625
-62.255859375
-69.580078125
-64.0869140625
-68.66455078125
-70.49560546875
-59.50927734375
-68.66455078125
-65.00244140625
-70.49560546875
-69.580078125
-71.4111328125
-71.4111328125
-73.2421875
-74.15771484375
-68.66455078125
-72.32666015625
-73.2421875
-72.32666015625
-75.0732421875
-80.56640625
-75.0732421875
-80.56640625
-84.228515625
-77.81982421875
-71.4111328125
-81.48193359375
-74.15771484375
-75.0732421875
-76.904296875
-78.7353515625
-80.56640625
-79.65087890625
-73.2421875
-76.904296875
-75.98876953125
-82.3974609375
-77.81982421875
-71.4111328125
-83.31298828125
-84.228515625
-81.48193359375
-78.7353515625
-80.56640625
-87.890625
-86.97509765625
-87.890625
-81.48193359375
-75.98876953125
-85.14404296875
-82.3974609375
-79.65087890625
-82.3974609375
-76.904296875
-77.81982421875
-85.14404296875
-78.7353515625
-72.32666015625
-67.7490234375
-58.59375
-58.59375
-42.1142578125
-33.87451171875
-31.1279296875
-22.88818359375
-20.1416015625
-23.8037109375
-24.71923828125
-19.22607421875
-10.986328125
-13.73291015625
-20.1416015625
-12.8173828125
-1.8310546875
18.310546875
36.62109375
39.36767578125
38.4521484375
31.1279296875
35.70556640625
35.70556640625
39.36767578125
25.634765625
26.55029296875
32.958984375
13.73291015625
2.74658203125
-2.74658203125
-7.32421875
-14.6484375
-17.39501953125
-19.22607421875
-27.4658203125
-37.53662109375
-54.931640625
-67.7490234375
-65.91796875
-72.32666015625
-82.3974609375
-81.48193359375
-91.552734375
-94.29931640625
-94.29931640625
-96.13037109375
-97.96142578125
-97.96142578125
-100.7080078125
-97.0458984375
-90.63720703125
-102.5390625
-102.5390625
-101.62353515625
-101.62353515625
-101.62353515625
-105.28564453125
-108.94775390625
-102.5390625
-101.62353515625
-108.0322265625
-109.86328125
-109.86328125
-119.0185546875
-112.60986328125
-110.77880859375
-108.0322265625
-110.77880859375
-108.0322265625
-104.3701171875
-108.94775390625
-101.62353515625
-111.6943359375
-116.27197265625
-116.27197265625
-106.201171875
-105.28564453125
-86.0595703125
-61.34033203125
-54.01611328125
-33.87451171875
0
38.4521484375
107.11669921875
153.80859375
201.416015625
260.92529296875
315.85693359375
381.77490234375
456.84814453125
524.59716796875
555.72509765625
496.2158203125
352.47802734375
215.14892578125
108.94775390625
-16.4794921875
-168.45703125
-291.1376953125
-344.23828125
-327.7587890625
-303.03955078125
-273.74267578125
-230.712890625
-201.416015625
-180.35888671875
-164.794921875
-169.37255859375
-151.06201171875
-120.849609375
-83.31298828125
-70.49560546875
-63.17138671875
-57.67822265625
-50.35400390625
-56.7626953125
-49.4384765625
-48.52294921875
-48.52294921875
-51.26953125
-49.4384765625
-55.84716796875
-46.69189453125
-40.283203125
-42.1142578125
-48.52294921875
-36.62109375
-30.21240234375
-36.62109375
-35.70556640625
-37.53662109375
-37.53662109375
-26.55029296875
-29.296875
-20.1416015625
-12.8173828125
-17.39501953125
-15.56396484375
-15.56396484375
-21.97265625
-10.986328125
-15.56396484375
-24.71923828125
-15.56396484375
-9.1552734375
-8.23974609375
-1.8310546875
-3.662109375
-0.91552734375
-1.8310546875
3.662109375
1.8310546875
7.32421875
14.6484375
11.90185546875
9.1552734375
18.310546875
21.05712890625
25.634765625
26.55029296875
34.7900390625
33.87451171875
34.7900390625
27.4658203125
43.9453125
54.01611328125
51.26953125
54.931640625
54.01611328125
62.255859375
60.4248046875
72.32666015625
86.97509765625
84.228515625
90.63720703125
97.0458984375
103.45458984375
111.6943359375
118.10302734375
116.27197265625
128.173828125
139.16015625
148.3154296875
162.9638671875
162.9638671875
167.54150390625
172.119140625
187.68310546875
188.5986328125
188.5986328125
197.75390625
205.99365234375
207.82470703125
205.078125
212.40234375
217.8955078125
220.64208984375
216.97998046875
225.2197265625
222.47314453125
218.81103515625
216.064453125
224.30419921875
223.388671875
222.47314453125
218.81103515625
223.388671875
214.2333984375
208.740234375
206.9091796875
197.75390625
184.02099609375
174.86572265625
176.69677734375
171.20361328125
155.6396484375
151.06201171875
150.146484375
128.173828125
113.525390625
111.6943359375
109.86328125
92.46826171875
85.14404296875
84.228515625
76.904296875
59.50927734375
53.1005859375
40.283203125
32.958984375
28.38134765625
25.634765625
10.07080078125
11.90185546875
3.662109375
-8.23974609375
-0.91552734375
-7.32421875
-13.73291015625
-20.1416015625
-27.4658203125
-22.88818359375
-17.39501953125
-28.38134765625
-37.53662109375
-33.87451171875
-30.21240234375
-30.21240234375
-37.53662109375
-44.86083984375
-46.69189453125
-43.9453125
-49.4384765625
-54.01611328125
-59.50927734375
-50.35400390625
-45.7763671875
-51.26953125
-45.7763671875
-55.84716796875
-62.255859375
-58.59375
-62.255859375
-58.59375
-56.7626953125
-54.931640625
-50.35400390625
-54.01611328125
-50.35400390625
-50.35400390625
-55.84716796875
-54.931640625
-47.607421875
-53.1005859375
-57.67822265625
-51.26953125
-52.18505859375
-52.18505859375
-44.86083984375
-37.53662109375
-45.7763671875
-38.4521484375
-39.36767578125
-46.69189453125
-46.69189453125
-44.86083984375
-40.283203125
-38.4521484375
-43.02978515625
-41.19873046875
-35.70556640625
-38.4521484375
-38.4521484375
-37.53662109375
-40.283203125
-32.04345703125
-31.1279296875
-32.958984375
-31.1279296875
-28.38134765625
-34.7900390625
-41.19873046875
-32.958984375
-32.958984375
-37.53662109375
-28.38134765625
-29.296875
-31.1279296875
-28.38134765625
-25.634765625
-28.38134765625
-33.87451171875
-32.958984375
-33.87451171875
-32.04345703125
-32.958984375
-35.70556640625
-33.87451171875
-32.958984375
-29.296875
-33.87451171875
-39.36767578125
-39.36767578125
-34.7900390625
-38.4521484375
-40.283203125
-39.36767578125
-41.19873046875
-42.1142578125
-43.02978515625
-43.02978515625
-44.86083984375
-46.69189453125
-47.607421875
-47.607421875
-44.86083984375
-43.02978515625
-48.52294921875
-54.931640625
-50.35400390625
-43.02978515625
-46.69189453125
-45.7763671875
-48.52294921875
-43.9453125
-51.26953125
-54.931640625
-57.67822265625
-48.52294921875
-50.35400390625
-59.50927734375
-53.1005859375
-54.01611328125
-51.26953125
-55.84716796875
-58.59375
-65.91796875
-65.00244140625
-65.00244140625
-65.00244140625
-61.34033203125
-56.7626953125
-60.4248046875
-58.59375
-63.17138671875
-62.255859375
-51.26953125
-61.34033203125
-64.0869140625
-58.59375
-63.17138671875
-69.580078125
-68.66455078125
-65.91796875
-70.49560546875
-66.83349609375
-55.84716796875
-60.4248046875
-62.255859375
-75.0732421875
-75.98876953125
-72.32666015625
-71.4111328125
-66.83349609375
-65.00244140625
-70.49560546875
-65.00244140625
-65.91796875
-68.66455078125
-69.580078125
-68.66455078125
-73.2421875
-70.49560546875
-65.00244140625
-76.904296875
-75.98876953125
-65.00244140625
-62.255859375
-62.255859375
-58.59375
-50.35400390625
-43.02978515625
-46.69189453125
-34.7900390625
-17.39501953125
-11.90185546875
-21.97265625
-7.32421875
-3.662109375
-7.32421875
-12.8173828125
-5.4931640625
-12.8173828125
-16.4794921875
-5.4931640625
6.40869140625
22.88818359375
38.4521484375
54.01611328125
51.26953125
34.7900390625
51.26953125
60.4248046875
47.607421875
38.4521484375
30.21240234375
35.70556640625
27.4658203125
20.1416015625
11.90185546875
5.4931640625
2.74658203125
0
-10.07080078125
-21.05712890625
-37.53662109375
-37.53662109375
-32.958984375
-43.9453125
-69.580078125
-85.14404296875
-82.3974609375
-81.48193359375
-85.14404296875
-86.97509765625
-86.0595703125
-89.7216796875
-88.80615234375
-86.97509765625
-95.21484375
-92.46826171875
-95.21484375
-99.79248046875
-97.0458984375
-97.96142578125
-99.79248046875
-93.3837890625
-100.7080078125
-101.62353515625
-101.62353515625
-102.5390625
-105.28564453125
-108.94775390625
-108.94775390625
-111.6943359375
-104.3701171875
-97.96142578125
-107.11669921875
-97.96142578125
-99.79248046875
-100.7080078125
-97.0458984375
-100.7080078125
-109.86328125
-110.77880859375
-108.0322265625
-97.96142578125
-86.97509765625
-72.32666015625
-55.84716796875
-34.7900390625
-13.73291015625
28.38134765625
86.0595703125
133.6669921875
173.03466796875
229.79736328125
274.658203125
337.82958984375
414.73388671875
497.13134765625
538.330078125
507.2021484375
378.11279296875
229.79736328125
119.93408203125
10.986328125
-140.9912109375
-273.74267578125
-344.23828125
-337.82958984375
-299.37744140625
-271.91162109375
-235.29052734375
-201.416015625
-185.85205078125
-173.9501953125
-178.52783203125
-164.794921875
-135.498046875
-108.0322265625
-76.904296875
-58.59375
-53.1005859375
-49.4384765625
-60.4248046875
-55.84716796875
-50.35400390625
-50.35400390625
-50.35400390625
-43.9453125
-43.02978515625
-41.19873046875
-42.1142578125
-49.4384765625
-38.4521484375
-42.1142578125
-36.62109375
-43.9453125
-40.283203125
-35.70556640625
-31.1279296875
-29.296875
-31.1279296875
-22.88818359375
-27.4658203125
-31.1279296875
-31.1279296875
-28.38134765625
-21.97265625
-27.4658203125
-24.71923828125
-26.55029296875
-10.986328125
-10.986328125
-12.8173828125
-11.90185546875
-8.23974609375
-10.07080078125
-6.40869140625
-2.74658203125
-8.23974609375
3.662109375
18.310546875
11.90185546875
19.22607421875
10.986328125
12.8173828125
20.1416015625
19.22607421875
23.8037109375
26.55029296875
31.1279296875
44.86083984375
37.53662109375
45.7763671875
51.26953125
42.1142578125
47.607421875
60.4248046875
73.2421875
69.580078125
60.4248046875
70.49560546875
80.56640625
93.3837890625
98.876953125
101.62353515625
99.79248046875
101.62353515625
110.77880859375
121.76513671875
122.6806640625
140.9912109375
143.73779296875
152.89306640625
154.72412109375
167.54150390625
168.45703125
172.119140625
176.69677734375
189.51416015625
178.52783203125
189.51416015625
192.2607421875
188.5986328125
184.02099609375
194.091796875
197.75390625
197.75390625
205.99365234375
205.078125
197.75390625
195.00732421875
193.17626953125
196.83837890625
190.4296875
179.443359375
182.18994140625
180.35888671875
174.86572265625
167.54150390625
166.6259765625
165.71044921875
147.39990234375
137.3291015625
133.6669921875
124.51171875
119.93408203125
117.1875
97.0458984375
91.552734375
76.904296875
62.255859375
58.59375
54.01611328125
45.7763671875
42.1142578125
35.70556640625
16.4794921875
12.8173828125
6.40869140625
13.73291015625
-3.662109375
-10.986328125
-15.56396484375
-21.05712890625
-15.56396484375
-24.71923828125
-28.38134765625
-33.87451171875
-38.4521484375
-43.9453125
-52.18505859375
-54.931640625
-55.84716796875
-52.18505859375
-53.1005859375
-65.91796875
-55.84716796875
-55.84716796875
-66.83349609375
-71.4111328125
-66.83349609375
-78.7353515625
-74.15771484375
-73.2421875
-68.66455078125
-65.00244140625
-65.91796875
-58.59375
-55.84716796875
-60.4248046875
-64.0869140625
-73.2421875
-81.48193359375
-70.49560546875
-68.66455078125
-65.00244140625
-60.4248046875
-57.67822265625
-65.00244140625
-65.91796875
-64.0869140625
-71.4111328125
-73.2421875
-74.15771484375
-65.00244140625
-65.00244140625
-66.83349609375
-61.34033203125
-71.4111328125
-75.0732421875
-70.49560546875
-63.17138671875
-56.7626953125
-56.7626953125
-66.83349609375
-59.50927734375
-63.17138671875
-61.34033203125
-54.01611328125
-61.34033203125
-59.50927734375
-60.4248046875
-57.67822265625
-66.83349609375
-64.0869140625
-59.50927734375
-56.7626953125
-50.35400390625
-57.67822265625
-52.18505859375
-53.1005859375
-51.26953125
-56.7626953125
-58.59375
-44.86083984375
-54.01611328125
-54.01611328125
-54.01611328125
-62.255859375
-52.18505859375
-57.67822265625
-65.00244140625
-60.4248046875
-57.67822265625
-57.67822265625
-54.01611328125
-68.66455078125
-71.4111328125
-49.4384765625
-54.01611328125
-55.84716796875
-62.255859375
-65.91796875
-52.18505859375
-64.0869140625
-63.17138671875
-68.66455078125
-75.0732421875
-67.7490234375
-60.4248046875
-65.91796875
-70.49560546875
-75.98876953125
-70.49560546875
-78.7353515625
-84.228515625
-72.32666015625
-67.7490234375
-74.15771484375
-75.0732421875
-80.56640625
-86.97509765625
-75.0732421875
-76.904296875
-65.91796875
-76.904296875
-75.98876953125
-79.65087890625
-74.15771484375
-85.14404296875
-86.0595703125
-76.904296875
-85.14404296875
-86.97509765625
-80.56640625
-82.3974609375
-75.98876953125
-72.32666015625
-75.98876953125
-86.97509765625
-94.29931640625
-90.63720703125
-81.48193359375
-81.48193359375
-91.552734375
-88.80615234375
-92.46826171875
-95.21484375
-86.97509765625
-94.29931640625
-89.7216796875
-77.81982421875
-86.0595703125
-84.228515625
-84.228515625
-97.96142578125
-94.29931640625
-83.31298828125
-88.80615234375
-88.80615234375
-91.552734375
-96.13037109375
-83.31298828125
-88.80615234375
-85.14404296875
-84.228515625
-92.46826171875
-97.0458984375
-85.14404296875
-88.80615234375
-96.13037109375
-87.890625
-78.7353515625
-76.904296875
-75.0732421875
-71.4111328125
-62.255859375
-48.52294921875
-50.35400390625
-45.7763671875
-49.4384765625
-48.52294921875
-42.1142578125
-36.62109375
-43.02978515625
-45.7763671875
-36.62109375
-29.296875
-25.634765625
-19.22607421875
-0.91552734375
12.8173828125
21.97265625
19.22607421875
20.1416015625
21.97265625
14.6484375
17.39501953125
18.310546875
15.56396484375
19.22607421875
0
-13.73291015625
