ECG
-119.0185546875
-113.525390625
-107.11669921875
-111.6943359375
-108.0322265625
-107.11669921875
-104.3701171875
-105.28564453125
-108.0322265625
-105.28564453125
-109.86328125
-110.77880859375
-106.201171875
-119.93408203125
-139.16015625
-147.39990234375
-139.16015625
-107.11669921875
-64.0869140625
-27.4658203125
21.97265625
80.56640625
155.6396484375
303.955078125
480.65185546875
687.56103515625
903.62548828125
1099.54833984375
1248.779296875
1365.05126953125
1416.32080078125
1331.1767578125
1188.3544921875
1031.79931640625
755.31005859375
421.142578125
146.484375
-21.97265625
-116.27197265625
-128.173828125
-87.890625
-33.87451171875
1.8310546875
21.05712890625
33.87451171875
36.62109375
29.296875
22.88818359375
18.310546875
11.90185546875
-7.32421875
-13.73291015625
-18.310546875
-20.1416015625
-31.1279296875
-39.36767578125
-28.38134765625
-41.19873046875
-37.53662109375
-36.62109375
-38.4521484375
-41.19873046875
-39.36767578125
-42.1142578125
-39.36767578125
-40.283203125
-43.9453125
-38.4521484375
-37.53662109375
-34.7900390625
-39.36767578125
-45.7763671875
-32.04345703125
-33.87451171875
-38.4521484375
-35.70556640625
-32.958984375
-28.38134765625
-21.05712890625
-21.05712890625
-26.55029296875
-31.1279296875
-17.39501953125
-20.1416015625
-21.97265625
-12.8173828125
-11.90185546875
-17.39501953125
-8.23974609375
-8.23974609375
-5.4931640625
-0.91552734375
2.74658203125
-5.4931640625
1.8310546875
4.57763671875
4.57763671875
13.73291015625
19.22607421875
22.88818359375
27.4658203125
29.296875
38.4521484375
41.19873046875
42.1142578125
49.4384765625
56.7626953125
57.67822265625
65.91796875
76.904296875
79.65087890625
85.14404296875
89.7216796875
94.29931640625
98.876953125
119.93408203125
119.93408203125
121.76513671875
131.8359375
148.3154296875
157.470703125
162.04833984375
166.6259765625
173.9501953125
176.69677734375
193.17626953125
197.75390625
200.50048828125
210.5712890625
218.81103515625
222.47314453125
227.05078125
236.2060546875
242.61474609375
244.44580078125
254.5166015625
251.77001953125
260.92529296875
260.92529296875
257.26318359375
261.8408203125
259.09423828125
250.8544921875
257.26318359375
252.685546875
237.12158203125
237.12158203125
226.13525390625
212.40234375
200.50048828125
195.00732421875
183.10546875
166.6259765625
157.470703125
140.07568359375
119.93408203125
107.11669921875
97.96142578125
82.3974609375
68.66455078125
60.4248046875
44.86083984375
31.1279296875
20.1416015625
1.8310546875
-4.57763671875
-6.40869140625
-14.6484375
-20.1416015625
-30.21240234375
-36.62109375
-45.7763671875
-51.26953125
-52.18505859375
-60.4248046875
-65.00244140625
-67.7490234375
-65.91796875
-63.17138671875
-68.66455078125
-77.81982421875
-79.65087890625
-79.65087890625
-84.228515625
-86.0595703125
-83.31298828125
-86.97509765625
-84.228515625
-86.0595703125
-85.14404296875
-79.65087890625
-84.228515625
-85.14404296875
-80.56640625
-83.31298828125
-86.0595703125
-83.31298828125
-84.228515625
-77.81982421875
-78.7353515625
-81.48193359375
-76.904296875
-79.65087890625
-82.3974609375
-74.15771484375
-75.98876953125
-75.98876953125
-74.15771484375
-79.65087890625
-74.15771484375
-73.2421875
-71.4111328125
-67.7490234375
-71.4111328125
-79.65087890625
-72.32666015625
-67.7490234375
-69.580078125
-72.32666015625
-73.2421875
-73.2421875
-77.81982421875
-75.98876953125
-70.49560546875
-74.15771484375
-75.0732421875
-73.2421875
-73.2421875
-79.65087890625
-77.81982421875
-79.65087890625
-77.81982421875
-76.904296875
-66.83349609375
-69.580078125
-68.66455078125
-68.66455078125
-75.98876953125
-71.4111328125
-71.4111328125
-66.83349609375
-74.15771484375
-75.0732421875
-73.2421875
-71.4111328125
-72.32666015625
-73.2421875
-71.4111328125
-72.32666015625
-70.49560546875
-71.4111328125
-71.4111328125
-72.32666015625
-75.98876953125
-72.32666015625
-75.98876953125
-73.2421875
-75.0732421875
-80.56640625
-75.98876953125
-82.3974609375
-82.3974609375
-79.65087890625
-76.904296875
-75.0732421875
-79.65087890625
-83.31298828125
-83.31298828125
-89.7216796875
-81.48193359375
-79.65087890625
-84.228515625
-87.890625
-88.80615234375
-87.890625
-89.7216796875
-87.890625
-92.46826171875
-91.552734375
-91.552734375
-85.14404296875
-86.0595703125
-87.890625
-93.3837890625
-86.0595703125
-84.228515625
-88.80615234375
-93.3837890625
-88.80615234375
-91.552734375
-93.3837890625
-89.7216796875
-92.46826171875
-91.552734375
-96.13037109375
-91.552734375
-90.63720703125
-93.3837890625
-89.7216796875
-86.97509765625
-86.0595703125
-82.3974609375
-88.80615234375
-92.46826171875
-92.46826171875
-99.79248046875
-105.28564453125
-96.13037109375
-89.7216796875
-91.552734375
-95.21484375
-93.3837890625
-90.63720703125
-91.552734375
-90.63720703125
-92.46826171875
-87.890625
-87.890625
-85.14404296875
-86.97509765625
-88.80615234375
-89.7216796875
-86.0595703125
-90.63720703125
-94.29931640625
-93.3837890625
-94.29931640625
-86.97509765625
-94.29931640625
-92.46826171875
-95.21484375
-92.46826171875
-85.14404296875
-83.31298828125
-86.0595703125
-92.46826171875
-91.552734375
-86.97509765625
-90.63720703125
-91.552734375
-87.890625
-87.890625
-97.0458984375
-96.13037109375
-98.876953125
-87.890625
-91.552734375
-90.63720703125
-99.79248046875
-99.79248046875
-98.876953125
-95.21484375
-95.21484375
-99.79248046875
-101.62353515625
-97.96142578125
-97.0458984375
-97.96142578125
-95.21484375
-91.552734375
-97.0458984375
-95.21484375
-92.46826171875
-93.3837890625
-95.21484375
-100.7080078125
-93.3837890625
-97.0458984375
-96.13037109375
-95.21484375
-94.29931640625
-96.13037109375
-94.29931640625
-94.29931640625
-89.7216796875
-93.3837890625
-92.46826171875
-94.29931640625
-92.46826171875
-90.63720703125
-91.552734375
-91.552734375
-90.63720703125
-90.63720703125
-86.97509765625
-90.63720703125
-92.46826171875
-93.3837890625
-97.96142578125
-90.63720703125
-80.56640625
-82.3974609375
-82.3974609375
-78.7353515625
-79.65087890625
-81.48193359375
-73.2421875
-74.15771484375
-74.15771484375
-81.48193359375
-77.81982421875
-65.00244140625
-54.01611328125
-39.36767578125
-45.7763671875
-54.931640625
-52.18505859375
-48.52294921875
-54.01611328125
-55.84716796875
-49.4384765625
-47.607421875
-36.62109375
-37.53662109375
-37.53662109375
-32.04345703125
-27.4658203125
-25.634765625
-29.296875
-36.62109375
-45.7763671875
-44.86083984375
-46.69189453125
-44.86083984375
-36.62109375
-38.4521484375
-33.87451171875
-40.283203125
-51.26953125
-52.18505859375
-59.50927734375
-69.580078125
-74.15771484375
-83.31298828125
-83.31298828125
-86.0595703125
-89.7216796875
-92.46826171875
-88.80615234375
-90.63720703125
-102.5390625
-113.525390625
-114.44091796875
-109.86328125
-108.0322265625
-103.45458984375
-104.3701171875
-99.79248046875
-98.876953125
-99.79248046875
-108.94775390625
-105.28564453125
-105.28564453125
-106.201171875
-103.45458984375
-102.5390625
-100.7080078125
-95.21484375
-96.13037109375
-96.13037109375
-97.0458984375
-101.62353515625
-100.7080078125
-98.876953125
-98.876953125
-101.62353515625
-102.5390625
-100.7080078125
-102.5390625
-121.76513671875
-130.92041015625
-112.60986328125
-77.81982421875
-31.1279296875
16.4794921875
52.18505859375
108.0322265625
210.5712890625
368.0419921875
546.56982421875
748.9013671875
954.89501953125
1133.4228515625
1271.66748046875
1363.22021484375
1356.8115234375
1251.52587890625
1117.85888671875
944.82421875
622.55859375
342.4072265625
116.27197265625
-21.05712890625
-89.7216796875
-103.45458984375
-76.904296875
-34.7900390625
1.8310546875
27.4658203125
34.7900390625
30.21240234375
34.7900390625
32.04345703125
22.88818359375
17.39501953125
-1.8310546875
-9.1552734375
-12.8173828125
-14.6484375
-23.8037109375
-25.634765625
-35.70556640625
-40.283203125
-34.7900390625
-35.70556640625
-32.04345703125
-28.38134765625
-32.04345703125
-32.04345703125
-36.62109375
-35.70556640625
-32.04345703125
-36.62109375
-26.55029296875
-21.97265625
-22.88818359375
-17.39501953125
-10.986328125
-23.8037109375
-25.634765625
-20.1416015625
-19.22607421875
-15.56396484375
-8.23974609375
-12.8173828125
-15.56396484375
-21.97265625
-16.4794921875
-8.23974609375
-0.91552734375
3.662109375
6.40869140625
12.8173828125
16.4794921875
14.6484375
20.1416015625
19.22607421875
25.634765625
24.71923828125
23.8037109375
30.21240234375
42.1142578125
42.1142578125
40.283203125
34.7900390625
46.69189453125
52.18505859375
56.7626953125
65.91796875
66.83349609375
66.83349609375
67.7490234375
77.81982421875
83.31298828125
87.890625
92.46826171875
100.7080078125
108.0322265625
116.27197265625
118.10302734375
124.51171875
128.173828125
134.58251953125
150.146484375
154.72412109375
159.3017578125
170.2880859375
177.6123046875
191.34521484375
182.18994140625
198.66943359375
198.66943359375
217.8955078125
222.47314453125
219.7265625
232.5439453125
244.44580078125
245.361328125
247.1923828125
249.0234375
249.0234375
256.34765625
263.671875
265.5029296875
268.24951171875
269.1650390625
257.26318359375
251.77001953125
260.92529296875
250.8544921875
238.037109375
230.712890625
219.7265625
205.99365234375
199.5849609375
190.4296875
171.20361328125
161.1328125
156.55517578125
141.90673828125
124.51171875
109.86328125
103.45458984375
88.80615234375
72.32666015625
65.00244140625
54.01611328125
41.19873046875
24.71923828125
19.22607421875
13.73291015625
3.662109375
-10.07080078125
-13.73291015625
-24.71923828125
-24.71923828125
-24.71923828125
-31.1279296875
-39.36767578125
-48.52294921875
-48.52294921875
-46.69189453125
-57.67822265625
-59.50927734375
-59.50927734375
-64.0869140625
-68.66455078125
-72.32666015625
-70.49560546875
-67.7490234375
-70.49560546875
-70.49560546875
-71.4111328125
-67.7490234375
-66.83349609375
-75.0732421875
-71.4111328125
-70.49560546875
-67.7490234375
-70.49560546875
-78.7353515625
-69.580078125
-71.4111328125
-73.2421875
-64.0869140625
-72.32666015625
-63.17138671875
-65.00244140625
-66.83349609375
-65.91796875
-72.32666015625
-64.0869140625
-64.0869140625
-66.83349609375
-69.580078125
-67.7490234375
-72.32666015625
-65.91796875
-55.84716796875
-62.255859375
-60.4248046875
-61.34033203125
-61.34033203125
-65.91796875
-65.00244140625
-70.49560546875
-64.0869140625
-64.0869140625
-64.0869140625
-57.67822265625
-58.59375
-57.67822265625
-64.0869140625
-71.4111328125
-71.4111328125
-63.17138671875
-66.83349609375
-67.7490234375
-63.17138671875
-70.49560546875
-65.91796875
-65.91796875
-60.4248046875
-63.17138671875
-65.91796875
-63.17138671875
-67.7490234375
-66.83349609375
-65.00244140625
-72.32666015625
-75.0732421875
-74.15771484375
-79.65087890625
-75.0732421875
-71.4111328125
-73.2421875
-69.580078125
-66.83349609375
-61.34033203125
-59.50927734375
-62.255859375
-67.7490234375
-75.98876953125
-77.81982421875
-79.65087890625
-72.32666015625
-73.2421875
-70.49560546875
-68.66455078125
-71.4111328125
-65.00244140625
-59.50927734375
-66.83349609375
-59.50927734375
-69.580078125
-64.0869140625
-70.49560546875
-70.49560546875
-70.49560546875
-72.32666015625
-75.0732421875
-72.32666015625
-74.15771484375
-67.7490234375
-78.7353515625
-82.3974609375
-83.31298828125
-84.228515625
-89.7216796875
-90.63720703125
-83.31298828125
-89.7216796875
-80.56640625
-75.98876953125
-75.0732421875
-78.7353515625
-85.14404296875
-79.65087890625
-79.65087890625
-77.81982421875
-83.31298828125
-81.48193359375
-76.904296875
-81.48193359375
-84.228515625
-86.97509765625
-81.48193359375
-82.3974609375
-80.56640625
-70.49560546875
-77.81982421875
-86.97509765625
-82.3974609375
-76.904296875
-79.65087890625
-87.890625
-83.31298828125
-77.81982421875
-73.2421875
-72.32666015625
-73.2421875
-79.65087890625
-74.15771484375
-76.904296875
-70.49560546875
-70.49560546875
-75.98876953125
-85.14404296875
-85.14404296875
-78.7353515625
-81.48193359375
-80.56640625
-74.15771484375
-83.31298828125
-75.98876953125
-74.15771484375
-78.7353515625
-72.32666015625
-75.98876953125
-81.48193359375
-83.31298828125
-80.56640625
-82.3974609375
-84.228515625
-86.0595703125
-86.97509765625
-75.0732421875
-77.81982421875
-87.890625
-96.13037109375
-96.13037109375
-84.228515625
-80.56640625
-80.56640625
-82.3974609375
-81.48193359375
-75.0732421875
-75.98876953125
-86.0595703125
-85.14404296875
-83.31298828125
-89.7216796875
-86.0595703125
-91.552734375
-89.7216796875
-86.97509765625
-87.890625
-86.0595703125
-83.31298828125
-81.48193359375
-80.56640625
-82.3974609375
-72.32666015625
-73.2421875
-73.2421875
-69.580078125
-68.66455078125
-67.7490234375
-73.2421875
-73.2421875
-66.83349609375
-63.17138671875
-54.931640625
-44.86083984375
-44.86083984375
-44.86083984375
-40.283203125
-46.69189453125
-34.7900390625
-39.36767578125
-48.52294921875
-42.1142578125
-41.19873046875
-32.04345703125
-23.8037109375
-30.21240234375
-24.71923828125
-21.97265625
-22.88818359375
-18.310546875
-23.8037109375
-31.1279296875
-39.36767578125
-44.86083984375
-31.1279296875
-23.8037109375
-23.8037109375
-21.05712890625
-28.38134765625
-36.62109375
-47.607421875
-56.7626953125
-63.17138671875
-65.91796875
-64.0869140625
-65.91796875
-79.65087890625
-83.31298828125
-81.48193359375
-86.0595703125
-87.890625
-91.552734375
-96.13037109375
-101.62353515625
-100.7080078125
-96.13037109375
-94.29931640625
-95.21484375
-97.96142578125
-98.876953125
-97.96142578125
-97.96142578125
-99.79248046875
-96.13037109375
-98.876953125
-93.3837890625
-100.7080078125
-98.876953125
-97.0458984375
-97.96142578125
-100.7080078125
-96.13037109375
-91.552734375
-97.0458984375
-91.552734375
-88.80615234375
-98.876953125
-104.3701171875
-97.0458984375
-108.94775390625
-122.6806640625
-124.51171875
-119.93408203125
-97.0458984375
-66.83349609375
-25.634765625
12.8173828125
53.1005859375
133.6669921875
265.5029296875
420.22705078125
610.65673828125
814.8193359375
1016.2353515625
1163.63525390625
1292.724609375
1340.33203125
1283.5693359375
1190.185546875
1062.92724609375
805.6640625
499.8779296875
264.58740234375
95.21484375
-7.32421875
-32.04345703125
-41.19873046875
-47.607421875
-33.87451171875
-11.90185546875
-2.74658203125
2.74658203125
8.23974609375
9.1552734375
10.07080078125
10.986328125
12.8173828125
8.23974609375
1.8310546875
-10.986328125
-20.1416015625
-24.71923828125
-14.6484375
-18.310546875
-23.8037109375
-37.53662109375
-43.02978515625
-43.02978515625
-36.62109375
-38.4521484375
-35.70556640625
-29.296875
-32.958984375
-39.36767578125
-34.7900390625
-32.04345703125
-28.38134765625
-26.55029296875
-26.55029296875
-27.4658203125
-13.73291015625
-13.73291015625
-16.4794921875
-17.39501953125
-21.97265625
-19.22607421875
-14.6484375
-5.4931640625
-14.6484375
-17.39501953125
-9.1552734375
-3.662109375
2.74658203125
-2.74658203125
10.07080078125
9.1552734375
15.56396484375
11.90185546875
15.56396484375
14.6484375
25.634765625
32.04345703125
26.55029296875
19.22607421875
21.05712890625
28.38134765625
50.35400390625
51.26953125
48.52294921875
57.67822265625
57.67822265625
65.00244140625
54.931640625
64.0869140625
78.7353515625
79.65087890625
75.0732421875
87.890625
90.63720703125
105.28564453125
113.525390625
121.76513671875
117.1875
140.07568359375
149.23095703125
150.146484375
144.6533203125
144.6533203125
153.80859375
169.37255859375
177.6123046875
187.68310546875
186.767578125
189.51416015625
199.5849609375
209.65576171875
219.7265625
223.388671875
225.2197265625
226.13525390625
221.5576171875
223.388671875
242.61474609375
243.5302734375
222.47314453125
216.97998046875
228.8818359375
219.7265625
215.14892578125
220.64208984375
225.2197265625
204.16259765625
191.34521484375
192.2607421875
186.767578125
172.119140625
167.54150390625
147.39990234375
127.25830078125
119.93408203125
108.94775390625
99.79248046875
86.0595703125
72.32666015625
50.35400390625
50.35400390625
36.62109375
22.88818359375
8.23974609375
10.07080078125
12.8173828125
2.74658203125
-11.90185546875
-39.36767578125
-43.9453125
-38.4521484375
-54.01611328125
-65.91796875
-70.49560546875
-62.255859375
-59.50927734375
-66.83349609375
-71.4111328125
-75.98876953125
-83.31298828125
-81.48193359375
-81.48193359375
-71.4111328125
-73.2421875
-95.21484375
-89.7216796875
-85.14404296875
-89.7216796875
-93.3837890625
-97.96142578125
-79.65087890625
-86.97509765625
-109.86328125
-109.86328125
-98.876953125
-88.80615234375
-91.552734375
-86.97509765625
-114.44091796875
-103.45458984375
-102.5390625
-84.228515625
-95.21484375
-104.3701171875
-98.876953125
-106.201171875
-111.6943359375
-94.29931640625
-104.3701171875
-108.94775390625
-111.6943359375
-105.28564453125
-103.45458984375
-98.876953125
-105.28564453125
-106.201171875
-98.876953125
-107.11669921875
-91.552734375
-102.5390625
-111.6943359375
-111.6943359375
-111.6943359375
-107.11669921875
-122.6806640625
-108.94775390625
-93.3837890625
-90.63720703125
-106.201171875
-115.3564453125
-111.6943359375
-103.45458984375
-111.6943359375
-112.60986328125
-113.525390625
-97.96142578125
-100.7080078125
-119.93408203125
-106.201171875
-108.0322265625
-104.3701171875
-107.11669921875
-118.10302734375
-114.44091796875
-121.76513671875
-120.849609375
-114.44091796875
-119.93408203125
-126.3427734375
-112.60986328125
-128.173828125
-126.3427734375
-134.58251953125
-130.0048828125
-133.6669921875
-133.6669921875
-125.42724609375
-119.0185546875
-119.93408203125
-123.59619140625
-126.3427734375
-128.173828125
-130.0048828125
-128.173828125
-124.51171875
-121.76513671875
-135.498046875
-132.75146484375
-135.498046875
-132.75146484375
-128.173828125
-128.173828125
-126.3427734375
-125.42724609375
-133.6669921875
-135.498046875
-132.75146484375
-131.8359375
-126.3427734375
-126.3427734375
-126.3427734375
-129.08935546875
-138.24462890625
-137.3291015625
-134.58251953125
-131.8359375
-128.173828125
-119.93408203125
-118.10302734375
-129.08935546875
-138.24462890625
-127.25830078125
-116.27197265625
-119.0185546875
-130.0048828125
-118.10302734375
-119.0185546875
-118.10302734375
-119.0185546875
-112.60986328125
-118.10302734375
-116.27197265625
-117.1875
-120.849609375
-122.6806640625
-123.59619140625
-111.6943359375
-112.60986328125
-120.849609375
-121.76513671875
-111.6943359375
-100.7080078125
-113.525390625
-123.59619140625
-125.42724609375
-109.86328125
-121.76513671875
-119.0185546875
-104.3701171875
-99.79248046875
-112.60986328125
-120.849609375
-117.1875
-105.28564453125
-114.44091796875
-119.93408203125
-108.94775390625
-116.27197265625
-110.77880859375
-117.1875
-119.0185546875
-110.77880859375
-115.3564453125
-113.525390625
-120.849609375
-121.76513671875
-112.60986328125
-112.60986328125
-120.849609375
-119.93408203125
-97.96142578125
-98.876953125
-110.77880859375
-113.525390625
-111.6943359375
-115.3564453125
-110.77880859375
-110.77880859375
-96.13037109375
-99.79248046875
-110.77880859375
-109.86328125
-102.5390625
-108.0322265625
-112.60986328125
-112.60986328125
-110.77880859375
-112.60986328125
-123.59619140625
-119.0185546875
-104.3701171875
-115.3564453125
-104.3701171875
-97.0458984375
-94.29931640625
-86.0595703125
-96.13037109375
-85.14404296875
-82.3974609375
-72.32666015625
-64.0869140625
-69.580078125
-79.65087890625
-69.580078125
-77.81982421875
-72.32666015625
-74.15771484375
-70.49560546875
-54.931640625
-54.01611328125
-58.59375
-54.01611328125
-56.7626953125
-51.26953125
-54.01611328125
-55.84716796875
-64.0869140625
-77.81982421875
-75.0732421875
-77.81982421875
-82.3974609375
-71.4111328125
-63.17138671875
-76.904296875
-81.48193359375
-85.14404296875
-87.890625
-99.79248046875
-102.5390625
-105.28564453125
-113.525390625
-119.0185546875
-120.849609375
-130.0048828125
-126.3427734375
-130.92041015625
-133.6669921875
-131.8359375
-135.498046875
-137.3291015625
-135.498046875
-134.58251953125
-138.24462890625
-140.9912109375
-137.3291015625
-146.484375
-145.56884765625
-140.07568359375
-143.73779296875
-140.07568359375
-140.9912109375
-138.24462890625
-142.822265625
-141.90673828125
-137.3291015625
-135.498046875
-140.07568359375
-138.24462890625
-132.75146484375
-131.8359375
-138.24462890625
-145.56884765625
-140.07568359375
-140.07568359375
-151.9775390625
-166.6259765625
-175.78125
-163.87939453125
-128.173828125
-85.14404296875
-44.86083984375
-0.91552734375
51.26953125
139.16015625
284.72900390625
445.86181640625
649.10888671875
869.7509765625
1055.60302734375
1199.3408203125
1312.8662109375
1358.642578125
1267.08984375
1126.0986328125
977.783203125
711.36474609375
390.93017578125
125.42724609375
-38.4521484375
-130.92041015625
-160.21728515625
-119.0185546875
-61.34033203125
-23.8037109375
-0.91552734375
1.8310546875
8.23974609375
12.8173828125
8.23974609375
-6.40869140625
-19.22607421875
-30.21240234375
-34.7900390625
-37.53662109375
-49.4384765625
-66.83349609375
-60.4248046875
-62.255859375
-66.83349609375
-59.50927734375
-54.01611328125
-60.4248046875
-68.66455078125
-72.32666015625
-70.49560546875
-68.66455078125
-75.98876953125
-68.66455078125
-70.49560546875
-65.91796875
-58.59375
-67.7490234375
-68.66455078125
-69.580078125
-63.17138671875
-54.931640625
-52.18505859375
-51.26953125
-59.50927734375
-53.1005859375
-47.607421875
-45.7763671875
-35.70556640625
-35.70556640625
-37.53662109375
-38.4521484375
-34.7900390625
-25.634765625
-28.38134765625
-31.1279296875
-22.88818359375
-20.1416015625
-15.56396484375
-13.73291015625
-5.4931640625
-3.662109375
-8.23974609375
-9.1552734375
-1.8310546875
2.74658203125
10.986328125
8.23974609375
14.6484375
25.634765625
24.71923828125
25.634765625
28.38134765625
38.4521484375
47.607421875
49.4384765625
54.01611328125
55.84716796875
60.4248046875
65.91796875
82.3974609375
81.48193359375
85.14404296875
106.201171875
112.60986328125
117.1875
120.849609375
128.173828125
143.73779296875
148.3154296875
157.470703125
162.9638671875
167.54150390625
179.443359375
194.091796875
194.091796875
196.83837890625
207.82470703125
211.48681640625
221.5576171875
224.30419921875
222.47314453125
223.388671875
224.30419921875
235.29052734375
238.037109375
242.61474609375
240.78369140625
237.12158203125
231.62841796875
232.5439453125
227.05078125
218.81103515625
207.82470703125
195.9228515625
186.767578125
173.03466796875
158.38623046875
140.07568359375
136.41357421875
119.93408203125
98.876953125
90.63720703125
69.580078125
67.7490234375
46.69189453125
30.21240234375
32.958984375
14.6484375
0.91552734375
-10.986328125
-17.39501953125
-24.71923828125
-30.21240234375
-28.38134765625
-42.1142578125
-53.1005859375
-51.26953125
-56.7626953125
-66.83349609375
-69.580078125
-72.32666015625
-73.2421875
-78.7353515625
-89.7216796875
-79.65087890625
-92.46826171875
-82.3974609375
-75.98876953125
-79.65087890625
-89.7216796875
-84.228515625
-81.48193359375
-80.56640625
-86.97509765625
-83.31298828125
-84.228515625
-84.228515625
-88.80615234375
-92.46826171875
-89.7216796875
-94.29931640625
-95.21484375
-81.48193359375
-76.904296875
-89.7216796875
-85.14404296875
-85.14404296875
-88.80615234375
-87.890625
-86.97509765625
-72.32666015625
-73.2421875
-74.15771484375
-70.49560546875
-70.49560546875
-65.91796875
-67.7490234375
-66.83349609375
-67.7490234375
-56.7626953125
-60.4248046875
-67.7490234375
-69.580078125
-65.91796875
-58.59375
-60.4248046875
-55.84716796875
-64.0869140625
-54.01611328125
-53.1005859375
-53.1005859375
-51.26953125
-57.67822265625
-55.84716796875
-52.18505859375
-47.607421875
-47.607421875
-45.7763671875
-52.18505859375
-56.7626953125
-56.7626953125
-53.1005859375
-47.607421875
-53.1005859375
-54.01611328125
-53.1005859375
-56.7626953125
-55.84716796875
-46.69189453125
-41.19873046875
-43.02978515625
-43.9453125
-46.69189453125
-40.283203125
-47.607421875
-45.7763671875
-45.7763671875
-45.7763671875
-48.52294921875
-46.69189453125
-51.26953125
-38.4521484375
-37.53662109375
-29.296875
-34.7900390625
-40.283203125
-43.02978515625
-48.52294921875
-43.9453125
-41.19873046875
-37.53662109375
-39.36767578125
-30.21240234375
-32.958984375
-34.7900390625
-36.62109375
-34.7900390625
-38.4521484375
-28.38134765625
-29.296875
-32.04345703125
-37.53662109375
-35.70556640625
-33.87451171875
-37.53662109375
-42.1142578125
-43.02978515625
-34.7900390625
-35.70556640625
-37.53662109375
-34.7900390625
-31.1279296875
-37.53662109375
-42.1142578125
-45.7763671875
-38.4521484375
-43.9453125
-37.53662109375
-33.87451171875
-37.53662109375
-45.7763671875
-47.607421875
-36.62109375
-40.283203125
-44.86083984375
-46.69189453125
-43.02978515625
-48.52294921875
-41.19873046875
-44.86083984375
-43.9453125
-47.607421875
-53.1005859375
-45.7763671875
-47.607421875
-45.7763671875
-41.19873046875
-43.02978515625
-52.18505859375
-54.01611328125
-47.607421875
-47.607421875
-43.02978515625
-33.87451171875
-39.36767578125
-43.02978515625
-39.36767578125
-44.86083984375
-41.19873046875
-34.7900390625
-36.62109375
-44.86083984375
-39.36767578125
-49.4384765625
-51.26953125
-43.9453125
-47.607421875
-45.7763671875
-47.607421875
-44.86083984375
-48.52294921875
-46.69189453125
-45.7763671875
-43.9453125
-44.86083984375
-43.02978515625
-46.69189453125
-46.69189453125
-49.4384765625
-46.69189453125
-47.607421875
-43.02978515625
-37.53662109375
-39.36767578125
-43.02978515625
-48.52294921875
-45.7763671875
-41.19873046875
-43.9453125
-43.02978515625
-41.19873046875
-40.283203125
-39.36767578125
-31.1279296875
-28.38134765625
-19.22607421875
-12.8173828125
-9.1552734375
0
4.57763671875
6.40869140625
1.8310546875
10.986328125
9.1552734375
6.40869140625
0
0.91552734375
0.91552734375
6.40869140625
22.88818359375
27.4658203125
25.634765625
31.1279296875
34.7900390625
28.38134765625
27.4658203125
22.88818359375
20.1416015625
-1.8310546875
-1.8310546875
10.986328125
18.310546875
22.88818359375
23.8037109375
17.39501953125
4.57763671875
-4.57763671875
-10.986328125
-21.97265625
-21.05712890625
-27.4658203125
-34.7900390625
-36.62109375
-43.02978515625
-42.1142578125
-45.7763671875
-43.02978515625
-45.7763671875
-51.26953125
-52.18505859375
-58.59375
-60.4248046875
-55.84716796875
-57.67822265625
-48.52294921875
-61.34033203125
-64.0869140625
-57.67822265625
-59.50927734375
-57.67822265625
-53.1005859375
-59.50927734375
-61.34033203125
-56.7626953125
-50.35400390625
-46.69189453125
-55.84716796875
-55.84716796875
-50.35400390625
-49.4384765625
-52.18505859375
-50.35400390625
-47.607421875
-47.607421875
-50.35400390625
-58.59375
-75.98876953125
-92.46826171875
-80.56640625
-34.7900390625
9.1552734375
51.26953125
106.201171875
154.72412109375
258.1787109375
405.57861328125
585.02197265625
802.91748046875
1006.16455078125
1192.93212890625
1330.26123046875
1432.80029296875
1453.857421875
1342.1630859375
1203.91845703125
1033.63037109375
719.6044921875
398.25439453125
149.23095703125
8.23974609375
-58.59375
-63.17138671875
-15.56396484375
39.36767578125
73.2421875
95.21484375
99.79248046875
101.62353515625
94.29931640625
94.29931640625
79.65087890625
59.50927734375
54.931640625
42.1142578125
32.04345703125
27.4658203125
23.8037109375
22.88818359375
19.22607421875
21.05712890625
21.97265625
18.310546875
19.22607421875
12.8173828125
19.22607421875
11.90185546875
6.40869140625
6.40869140625
10.986328125
10.986328125
19.22607421875
16.4794921875
21.05712890625
19.22607421875
21.05712890625
16.4794921875
13.73291015625
22.88818359375
24.71923828125
14.6484375
13.73291015625
21.97265625
22.88818359375
23.8037109375
35.70556640625
43.02978515625
41.19873046875
36.62109375
37.53662109375
35.70556640625
40.283203125
46.69189453125
47.607421875
51.26953125
57.67822265625
64.0869140625
64.0869140625
62.255859375
65.91796875
67.7490234375
69.580078125
75.98876953125
80.56640625
84.228515625
86.0595703125
86.97509765625
90.63720703125
93.3837890625
99.79248046875
109.86328125
113.525390625
120.849609375
132.75146484375
130.0048828125
137.3291015625
140.9912109375
151.06201171875
161.1328125
159.3017578125
164.794921875
184.02099609375
190.4296875
190.4296875
201.416015625
210.5712890625
217.8955078125
225.2197265625
228.8818359375
241.69921875
248.10791015625
261.8408203125
255.43212890625
263.671875
280.1513671875
282.89794921875
287.4755859375
289.306640625
289.306640625
286.56005859375
293.88427734375
297.54638671875
294.7998046875
297.54638671875
307.6171875
300.29296875
287.4755859375
282.89794921875
278.3203125
263.671875
249.93896484375
254.5166015625
238.037109375
224.30419921875
211.48681640625
184.02099609375
168.45703125
151.9775390625
141.90673828125
140.07568359375
125.42724609375
108.0322265625
91.552734375
78.7353515625
71.4111328125
56.7626953125
44.86083984375
41.19873046875
30.21240234375
21.97265625
19.22607421875
4.57763671875
-4.57763671875
-8.23974609375
-3.662109375
-9.1552734375
-16.4794921875
-21.97265625
-21.05712890625
-32.04345703125
-34.7900390625
-32.04345703125
-32.04345703125
-32.958984375
-35.70556640625
-40.283203125
-43.9453125
-42.1142578125
-44.86083984375
-46.69189453125
-45.7763671875
-44.86083984375
-48.52294921875
-48.52294921875
-44.86083984375
-45.7763671875
-46.69189453125
-44.86083984375
-43.9453125
-45.7763671875
-47.607421875
-46.69189453125
-51.26953125
-55.84716796875
-46.69189453125
-49.4384765625
-52.18505859375
-51.26953125
-47.607421875
-42.1142578125
-33.87451171875
-37.53662109375
-44.86083984375
-45.7763671875
-44.86083984375
-43.02978515625
-42.1142578125
-39.36767578125
-41.19873046875
-41.19873046875
-34.7900390625
-34.7900390625
-40.283203125
-34.7900390625
-38.4521484375
-34.7900390625
-35.70556640625
-40.283203125
-34.7900390625
-38.4521484375
-36.62109375
-34.7900390625
-32.958984375
-34.7900390625
-37.53662109375
-32.958984375
-33.87451171875
-32.958984375
-31.1279296875
-32.04345703125
-30.21240234375
-29.296875
-39.36767578125
-39.36767578125
-32.958984375
-26.55029296875
-26.55029296875
-33.87451171875
-24.71923828125
-24.71923828125
-30.21240234375
-25.634765625
-30.21240234375
-31.1279296875
-26.55029296875
-29.296875
-32.04345703125
-41.19873046875
-36.62109375
-41.19873046875
-29.296875
-26.55029296875
-35.70556640625
-29.296875
-27.4658203125
-33.87451171875
-32.958984375
-34.7900390625
-48.52294921875
-44.86083984375
-44.86083984375
-42.1142578125
-43.9453125
-46.69189453125
-43.02978515625
-46.69189453125
-46.69189453125
-36.62109375
-44.86083984375
-53.1005859375
-53.1005859375
-49.4384765625
-54.931640625
-56.7626953125
-51.26953125
-53.1005859375
-49.4384765625
-48.52294921875
-49.4384765625
-50.35400390625
-53.1005859375
-52.18505859375
-59.50927734375
-65.00244140625
-62.255859375
-57.67822265625
-56.7626953125
-57.67822265625
-52.18505859375
-49.4384765625
-61.34033203125
-61.34033203125
-60.4248046875
-61.34033203125
-49.4384765625
-56.7626953125
-58.59375
-55.84716796875
-55.84716796875
-51.26953125
-55.84716796875
-53.1005859375
-59.50927734375
-59.50927734375
-61.34033203125
-68.66455078125
-63.17138671875
-53.1005859375
-62.255859375
-63.17138671875
-62.255859375
-68.66455078125
-65.91796875
-59.50927734375
-57.67822265625
-60.4248046875
-62.255859375
-65.00244140625
-65.00244140625
-62.255859375
-70.49560546875
-68.66455078125
-62.255859375
-67.7490234375
-68.66455078125
-73.2421875
-65.91796875
-59.50927734375
-71.4111328125
-71.4111328125
-62.255859375
-63.17138671875
-71.4111328125
-69.580078125
-65.00244140625
-61.34033203125
-67.7490234375
-72.32666015625
-75.98876953125
-73.2421875
-68.66455078125
-69.580078125
-67.7490234375
-61.34033203125
-61.34033203125
-55.84716796875
-56.7626953125
-49.4384765625
-49.4384765625
-47.607421875
-41.19873046875
-41.19873046875
-37.53662109375
-32.958984375
-23.8037109375
-19.22607421875
-18.310546875
-19.22607421875
-18.310546875
-10.986328125
-20.1416015625
-20.1416015625
-19.22607421875
-12.8173828125
-8.23974609375
-3.662109375
1.8310546875
5.4931640625
6.40869140625
8.23974609375
2.74658203125
2.74658203125
-4.57763671875
-15.56396484375
-21.05712890625
-17.39501953125
-6.40869140625
-6.40869140625
-8.23974609375
-12.8173828125
-19.22607421875
-25.634765625
-43.9453125
-36.62109375
-37.53662109375
-47.607421875
-53.1005859375
-63.17138671875
-67.7490234375
-66.83349609375
-70.49560546875
-75.0732421875
-70.49560546875
-72.32666015625
-72.32666015625
-65.00244140625
-71.4111328125
-71.4111328125
-79.65087890625
-76.904296875
-77.81982421875
-81.48193359375
-81.48193359375
-79.65087890625
-79.65087890625
-71.4111328125
-75.98876953125
-74.15771484375
-68.66455078125
-71.4111328125
-66.83349609375
-65.91796875
-74.15771484375
-73.2421875
-69.580078125
-73.2421875
-73.2421875
-71.4111328125
-75.98876953125
-78.7353515625
-84.228515625
-90.63720703125
-104.3701171875
-103.45458984375
-80.56640625
-37.53662109375
10.986328125
53.1005859375
93.3837890625
163.87939453125
295.71533203125
458.67919921875
645.44677734375
852.35595703125
1051.025390625
1213.9892578125
1329.345703125
1375.1220703125
1321.10595703125
1198.42529296875
1053.77197265625
815.73486328125
509.94873046875
245.361328125
68.66455078125
-33.87451171875
-68.66455078125
-68.66455078125
-38.4521484375
0.91552734375
38.4521484375
54.931640625
53.1005859375
57.67822265625
55.84716796875
48.52294921875
40.283203125
31.1279296875
22.88818359375
14.6484375
4.57763671875
-0.91552734375
7.32421875
-0.91552734375
-1.8310546875
2.74658203125
-7.32421875
-10.07080078125
-14.6484375
-20.1416015625
-23.8037109375
-21.97265625
-21.97265625
-17.39501953125
-11.90185546875
-10.07080078125
-11.90185546875
-6.40869140625
0.91552734375
-0.91552734375
0
-6.40869140625
-6.40869140625
-4.57763671875
3.662109375
6.40869140625
10.986328125
6.40869140625
10.07080078125
12.8173828125
12.8173828125
15.56396484375
21.97265625
20.1416015625
27.4658203125
28.38134765625
29.296875
40.283203125
33.87451171875
29.296875
34.7900390625
37.53662109375
43.02978515625
42.1142578125
48.52294921875
57.67822265625
61.34033203125
64.0869140625
65.00244140625
68.66455078125
77.81982421875
74.15771484375
77.81982421875
85.14404296875
92.46826171875
91.552734375
97.0458984375
111.6943359375
116.27197265625
121.76513671875
125.42724609375
131.8359375
140.07568359375
147.39990234375
153.80859375
168.45703125
168.45703125
177.6123046875
179.443359375
190.4296875
194.091796875
202.33154296875
212.40234375
217.8955078125
229.79736328125
233.45947265625
241.69921875
246.27685546875
262.75634765625
266.41845703125
264.58740234375
271.91162109375
265.5029296875
262.75634765625
260.009765625
261.8408203125
272.8271484375
269.1650390625
268.24951171875
265.5029296875
268.24951171875
260.009765625
253.60107421875
248.10791015625
235.29052734375
219.7265625
214.2333984375
194.091796875
182.18994140625
166.6259765625
153.80859375
142.822265625
137.3291015625
116.27197265625
108.94775390625
97.96142578125
87.890625
72.32666015625
66.83349609375
56.7626953125
43.9453125
35.70556640625
32.958984375
10.07080078125
-3.662109375
-8.23974609375
-4.57763671875
-13.73291015625
-20.1416015625
-22.88818359375
-32.958984375
-37.53662109375
-39.36767578125
-34.7900390625
-30.21240234375
-43.02978515625
-41.19873046875
-46.69189453125
-49.4384765625
-47.607421875
-39.36767578125
-48.52294921875
-54.01611328125
-51.26953125
-54.01611328125
-56.7626953125
-54.931640625
-47.607421875
-43.02978515625
-50.35400390625
-56.7626953125
-58.59375
-43.02978515625
-46.69189453125
-43.02978515625
-39.36767578125
-44.86083984375
-46.69189453125
-47.607421875
-46.69189453125
-47.607421875
-43.02978515625
-41.19873046875
-42.1142578125
-44.86083984375
-48.52294921875
-51.26953125
-43.02978515625
-54.931640625
-48.52294921875
-48.52294921875
-43.9453125
-45.7763671875
-47.607421875
-54.931640625
-40.283203125
-32.04345703125
-38.4521484375
-39.36767578125
-37.53662109375
-39.36767578125
-33.87451171875
-44.86083984375
-50.35400390625
-34.7900390625
-29.296875
-27.4658203125
-32.958984375
-39.36767578125
-35.70556640625
-37.53662109375
-42.1142578125
-41.19873046875
-36.62109375
-48.52294921875
-52.18505859375
-50.35400390625
-42.1142578125
-42.1142578125
-39.36767578125
-41.19873046875
-43.02978515625
-44.86083984375
-45.7763671875
-46.69189453125
-49.4384765625
-46.69189453125
-40.283203125
-41.19873046875
-39.36767578125
-45.7763671875
-43.9453125
-37.53662109375
-43.02978515625
-50.35400390625
-49.4384765625
-38.4521484375
-41.19873046875
-46.69189453125
-57.67822265625
-52.18505859375
-52.18505859375
-61.34033203125
-64.0869140625
-54.931640625
-51.26953125
-57.67822265625
-52.18505859375
-51.26953125
-52.18505859375
-57.67822265625
-64.0869140625
-69.580078125
-65.91796875
-62.255859375
-67.7490234375
-66.83349609375
-71.4111328125
-75.98876953125
-67.7490234375
-66.83349609375
-69.580078125
-74.15771484375
-71.4111328125
-66.83349609375
-63.17138671875
-66.83349609375
-69.580078125
-65.00244140625
-71.4111328125
-71.4111328125
-73.2421875
-74.15771484375
-72.32666015625
-80.56640625
-74.15771484375
-77.81982421875
-77.81982421875
-79.65087890625
-74.15771484375
-77.81982421875
-76.904296875
-75.0732421875
-70.49560546875
-76.904296875
-74.15771484375
-75.0732421875
-75.0732421875
-78.7353515625
-82.3974609375
-83.31298828125
-72.32666015625
-75.98876953125
-77.81982421875
-75.0732421875
-84.228515625
-86.97509765625
-81.48193359375
-76.904296875
-74.15771484375
-77.81982421875
-85.14404296875
-82.3974609375
-76.904296875
-72.32666015625
-72.32666015625
-81.48193359375
-77.81982421875
-73.2421875
-70.49560546875
-72.32666015625
-75.98876953125
-81.48193359375
-82.3974609375
-75.0732421875
-70.49560546875
-75.98876953125
-75.98876953125
-79.65087890625
-79.65087890625
-79.65087890625
-68.66455078125
-65.00244140625
-59.50927734375
-61.34033203125
-50.35400390625
-47.607421875
-38.4521484375
-42.1142578125
-48.52294921875
-39.36767578125
-43.02978515625
-42.1142578125
-41.19873046875
-30.21240234375
-35.70556640625
-33.87451171875
-33.87451171875
-31.1279296875
-19.22607421875
-16.4794921875
-20.1416015625
-21.97265625
-25.634765625
-39.36767578125
-35.70556640625
-36.62109375
-38.4521484375
-25.634765625
-21.05712890625
-31.1279296875
-40.283203125
-35.70556640625
-46.69189453125
-50.35400390625
-58.59375
-69.580078125
-70.49560546875
-72.32666015625
-83.31298828125
-82.3974609375
-83.31298828125
-81.48193359375
-79.65087890625
-82.3974609375
-81.48193359375
-85.14404296875
-91.552734375
-92.46826171875
-90.63720703125
-92.46826171875
-95.21484375
-97.0458984375
-95.21484375
-89.7216796875
-86.97509765625
-84.228515625
-90.63720703125
-90.63720703125
-88.80615234375
-80.56640625
-87.890625
-86.0595703125
-84.228515625
-84.228515625
-84.228515625
-75.98876953125
-83.31298828125
-83.31298828125
-83.31298828125
-85.14404296875
-96.13037109375
-105.28564453125
-113.525390625
-110.77880859375
-101.62353515625
-68.66455078125
-24.71923828125
19.22607421875
61.34033203125
109.86328125
229.79736328125
381.77490234375
563.04931640625
770.8740234375
969.54345703125
1132.50732421875
1265.2587890625
1336.669921875
1300.96435546875
1210.3271484375
1091.30859375
874.32861328125
558.4716796875
320.4345703125
147.39990234375
40.283203125
-7.32421875
-29.296875
-41.19873046875
-31.1279296875
-4.57763671875
6.40869140625
4.57763671875
6.40869140625
11.90185546875
20.1416015625
16.4794921875
20.1416015625
12.8173828125
13.73291015625
4.57763671875
-3.662109375
-6.40869140625
-17.39501953125
-14.6484375
-21.05712890625
-21.97265625
-20.1416015625
-24.71923828125
-27.4658203125
-26.55029296875
-21.97265625
-19.22607421875
-21.97265625
-23.8037109375
-13.73291015625
-17.39501953125
-18.310546875
-21.97265625
-16.4794921875
-13.73291015625
-11.90185546875
-11.90185546875
-10.986328125
-5.4931640625
-4.57763671875
-10.986328125
-8.23974609375
-7.32421875
-2.74658203125
1.8310546875
2.74658203125
-0.91552734375
4.57763671875
0.91552734375
1.8310546875
2.74658203125
21.05712890625
18.310546875
25.634765625
32.958984375
31.1279296875
38.4521484375
41.19873046875
43.02978515625
43.9453125
48.52294921875
51.26953125
38.4521484375
33.87451171875
59.50927734375
73.2421875
67.7490234375
68.66455078125
70.49560546875
78.7353515625
79.65087890625
88.80615234375
102.5390625
112.60986328125
118.10302734375
126.3427734375
137.3291015625
136.41357421875
138.24462890625
142.822265625
146.484375
158.38623046875
167.54150390625
176.69677734375
188.5986328125
191.34521484375
194.091796875
200.50048828125
203.2470703125
205.99365234375
221.5576171875
227.05078125
226.13525390625
221.5576171875
223.388671875
224.30419921875
238.037109375
238.95263671875
242.61474609375
243.5302734375
249.0234375
240.78369140625
227.05078125
232.5439453125
230.712890625
227.96630859375
218.81103515625
206.9091796875
192.2607421875
182.18994140625
175.78125
165.71044921875
154.72412109375
140.9912109375
135.498046875
111.6943359375
91.552734375
78.7353515625
73.2421875
67.7490234375
47.607421875
38.4521484375
21.05712890625
10.986328125
6.40869140625
0.91552734375
-12.8173828125
-23.8037109375
-22.88818359375
-29.296875
-37.53662109375
-42.1142578125
-43.9453125
-50.35400390625
-59.50927734375
-57.67822265625
-50.35400390625
-56.7626953125
-57.67822265625
-59.50927734375
-61.34033203125
-56.7626953125
-57.67822265625
-58.59375
-64.0869140625
-62.255859375
-68.66455078125
-68.66455078125
-65.00244140625
-65.00244140625
-66.83349609375
-66.83349609375
-65.00244140625
-67.7490234375
-73.2421875
-66.83349609375
-59.50927734375
-64.0869140625
-65.91796875
-68.66455078125
-65.00244140625
-65.91796875
-66.83349609375
-63.17138671875
-66.83349609375
-62.255859375
-59.50927734375
-67.7490234375
-68.66455078125
-69.580078125
-60.4248046875
-61.34033203125
-59.50927734375
-60.4248046875
-56.7626953125
-62.255859375
-54.931640625
-54.931640625
-54.931640625
-59.50927734375
-65.00244140625
-65.00244140625
-60.4248046875
-62.255859375
-59.50927734375
-51.26953125
-54.931640625
-59.50927734375
-55.84716796875
-57.67822265625
-62.255859375
-56.7626953125
-53.1005859375
-55.84716796875
-55.84716796875
-52.18505859375
-46.69189453125
-47.607421875
-41.19873046875
-40.283203125
-45.7763671875
-46.69189453125
-35.70556640625
-54.01611328125
-54.931640625
-59.50927734375
-57.67822265625
-53.1005859375
-53.1005859375
-54.01611328125
-54.931640625
-60.4248046875
-58.59375
-53.1005859375
-41.19873046875
-50.35400390625
-70.49560546875
-68.66455078125
-71.4111328125
-68.66455078125
-61.34033203125
-62.255859375
-70.49560546875
-74.15771484375
-79.65087890625
-65.91796875
-61.34033203125
-66.83349609375
-64.0869140625
-72.32666015625
-72.32666015625
-70.49560546875
-75.98876953125
-81.48193359375
-72.32666015625
-65.00244140625
-62.255859375
-69.580078125
-81.48193359375
-86.0595703125
-75.0732421875
-68.66455078125
-68.66455078125
-72.32666015625
-77.81982421875
-91.552734375
-78.7353515625
-78.7353515625
-78.7353515625
-81.48193359375
-84.228515625
-79.65087890625
-86.97509765625
-92.46826171875
-97.0458984375
-97.96142578125
-86.0595703125
-84.228515625
-71.4111328125
-74.15771484375
-96.13037109375
-97.96142578125
-104.3701171875
-100.7080078125
-95.21484375
-92.46826171875
-80.56640625
-76.904296875
-79.65087890625
-79.65087890625
-94.29931640625
-96.13037109375
-95.21484375
-92.46826171875
-102.5390625
-97.0458984375
-91.552734375
-86.0595703125
-95.21484375
-97.96142578125
-106.201171875
-97.0458984375
-97.0458984375
-98.876953125
-97.96142578125
-85.14404296875
-84.228515625
-92.46826171875
-91.552734375
-87.890625
-92.46826171875
-82.3974609375
-83.31298828125
-104.3701171875
-100.7080078125
-75.0732421875
-72.32666015625
-86.97509765625
-94.29931640625
-101.62353515625
-97.0458984375
-98.876953125
-89.7216796875
-88.80615234375
-103.45458984375
-100.7080078125
-102.5390625
-93.3837890625
-66.83349609375
-60.4248046875
-63.17138671875
-73.2421875
-68.66455078125
-67.7490234375
-74.15771484375
-57.67822265625
-54.931640625
-46.69189453125
-40.283203125
-43.02978515625
-43.02978515625
-42.1142578125
-42.1142578125
-40.283203125
-53.1005859375
-56.7626953125
-39.36767578125
-34.7900390625
-29.296875
-19.22607421875
-22.88818359375
-26.55029296875
-36.62109375
-43.9453125
-34.7900390625
-40.283203125
-43.02978515625
-50.35400390625
-38.4521484375
-28.38134765625
-21.05712890625
-32.958984375
-48.52294921875
-57.67822265625
-50.35400390625
-65.91796875
-66.83349609375
-75.98876953125
-91.552734375
-100.7080078125
-100.7080078125
-102.5390625
-113.525390625
-100.7080078125
-93.3837890625
-91.552734375
-106.201171875
-110.77880859375
-118.10302734375
-101.62353515625
-92.46826171875
-101.62353515625
-101.62353515625
-118.10302734375
-108.0322265625
-106.201171875
-98.876953125
-109.86328125
-108.0322265625
-97.0458984375
-94.29931640625
-99.79248046875
-101.62353515625
-111.6943359375
-113.525390625
-120.849609375
-122.6806640625
-118.10302734375
-97.96142578125
-112.60986328125
-108.94775390625
-108.94775390625
-124.51171875
-109.86328125
-110.77880859375
-119.0185546875
-108.0322265625
-75.98876953125
-54.931640625
-0.91552734375
61.34033203125
130.92041015625
236.2060546875
382.6904296875
554.8095703125
775.45166015625
1000.67138671875
1195.6787109375
1338.5009765625
1415.4052734375
1391.6015625
1281.73828125
1127.9296875
936.58447265625
618.896484375
312.19482421875
93.3837890625
-32.958984375
-102.5390625
-97.96142578125
-51.26953125
-7.32421875
21.05712890625
38.4521484375
61.34033203125
54.01611328125
37.53662109375
43.02978515625
36.62109375
24.71923828125
11.90185546875
3.662109375
-17.39501953125
-29.296875
-18.310546875
-12.8173828125
-17.39501953125
-13.73291015625
-30.21240234375
-22.88818359375
-11.90185546875
-18.310546875
-30.21240234375
-36.62109375
-28.38134765625
-13.73291015625
-10.986328125
-15.56396484375
-30.21240234375
-36.62109375
-22.88818359375
-21.05712890625
-19.22607421875
-10.07080078125
-21.05712890625
-32.04345703125
-26.55029296875
-9.1552734375
-9.1552734375
5.4931640625
4.57763671875
6.40869140625
6.40869140625
2.74658203125
11.90185546875
-4.57763671875
-18.310546875
-10.07080078125
-2.74658203125
22.88818359375
23.8037109375
16.4794921875
16.4794921875
18.310546875
32.958984375
48.52294921875
27.4658203125
29.296875
33.87451171875
38.4521484375
50.35400390625
64.0869140625
72.32666015625
67.7490234375
56.7626953125
39.36767578125
56.7626953125
63.17138671875
92.46826171875
86.97509765625
84.228515625
97.0458984375
113.525390625
126.3427734375
119.93408203125
115.3564453125
129.08935546875
138.24462890625
169.37255859375
173.9501953125
178.52783203125
193.17626953125
205.99365234375
203.2470703125
212.40234375
216.064453125
209.65576171875
218.81103515625
227.05078125
241.69921875
248.10791015625
252.685546875
257.26318359375
254.5166015625
251.77001953125
248.10791015625
248.10791015625
259.09423828125
278.3203125
278.3203125
279.23583984375
261.8408203125
262.75634765625
256.34765625
237.12158203125
217.8955078125
234.375
238.95263671875
212.40234375
197.75390625
170.2880859375
149.23095703125
147.39990234375
132.75146484375
125.42724609375
120.849609375
101.62353515625
85.14404296875
62.255859375
68.66455078125
44.86083984375
32.04345703125
25.634765625
12.8173828125
10.986328125
-2.74658203125
-16.4794921875
-10.986328125
-21.97265625
-24.71923828125
-33.87451171875
-48.52294921875
-50.35400390625
-62.255859375
-57.67822265625
-35.70556640625
-43.9453125
-54.931640625
-50.35400390625
-65.91796875
-54.01611328125
-50.35400390625
-54.01611328125
-65.91796875
-84.228515625
-80.56640625
-74.15771484375
-62.255859375
-58.59375
-72.32666015625
-65.91796875
-62.255859375
-66.83349609375
-85.14404296875
-73.2421875
-62.255859375
-55.84716796875
-73.2421875
-76.904296875
-68.66455078125
-62.255859375
-69.580078125
-73.2421875
-81.48193359375
-78.7353515625
-85.14404296875
-65.00244140625
-52.18505859375
-59.50927734375
-55.84716796875
-58.59375
-58.59375
-61.34033203125
-71.4111328125
-73.2421875
-60.4248046875
-60.4248046875
-54.931640625
-56.7626953125
-58.59375
-53.1005859375
-45.7763671875
-61.34033203125
-49.4384765625
-52.18505859375
-64.0869140625
-60.4248046875
-59.50927734375
-53.1005859375
-64.0869140625
-59.50927734375
-47.607421875
-45.7763671875
-48.52294921875
-47.607421875
-54.01611328125
-65.91796875
-62.255859375
-58.59375
-55.84716796875
-41.19873046875
-36.62109375
-43.02978515625
-33.87451171875
-30.21240234375
-43.9453125
-41.19873046875
-40.283203125
-45.7763671875
-49.4384765625
-37.53662109375
-41.19873046875
-58.59375
-64.0869140625
-51.26953125
-50.35400390625
-42.1142578125
-43.02978515625
-43.9453125
-47.607421875
-51.26953125
-60.4248046875
-53.1005859375
-57.67822265625
-50.35400390625
-46.69189453125
-63.17138671875
-67.7490234375
-73.2421875
-83.31298828125
-75.98876953125
-63.17138671875
-54.931640625
-68.66455078125
-64.0869140625
-77.81982421875
-79.65087890625
-82.3974609375
-73.2421875
-55.84716796875
-59.50927734375
-68.66455078125
-77.81982421875
-80.56640625
-75.0732421875
-65.91796875
-75.98876953125
-86.97509765625
-96.13037109375
-72.32666015625
-60.4248046875
-60.4248046875
-75.98876953125
-78.7353515625
-91.552734375
-77.81982421875
-84.228515625
-97.0458984375
-86.97509765625
-65.91796875
-65.00244140625
-81.48193359375
-75.0732421875
-71.4111328125
-86.0595703125
-96.13037109375
-105.28564453125
-93.3837890625
-67.7490234375
-75.0732421875
-83.31298828125
-91.552734375
-105.28564453125
-93.3837890625
-86.0595703125
-73.2421875
-83.31298828125
-84.228515625
-78.7353515625
-88.80615234375
-90.63720703125
-98.876953125
-93.3837890625
-94.29931640625
-87.890625
-75.98876953125
-89.7216796875
-91.552734375
-92.46826171875
-93.3837890625
-79.65087890625
-85.14404296875
-99.79248046875
-95.21484375
-89.7216796875
-94.29931640625
-92.46826171875
-97.0458984375
-104.3701171875
-96.13037109375
-98.876953125
-109.86328125
-97.0458984375
-97.96142578125
-98.876953125
-88.80615234375
-85.14404296875
-84.228515625
-73.2421875
-54.931640625
-62.255859375
-65.91796875
-65.00244140625
-53.1005859375
-43.9453125
-48.52294921875
-50.35400390625
-46.69189453125
-42.1142578125
-29.296875
-25.634765625
-33.87451171875
-41.19873046875
-32.958984375
-24.71923828125
-28.38134765625
-30.21240234375
-30.21240234375
-35.70556640625
-32.04345703125
-22.88818359375
-9.1552734375
-31.1279296875
-45.7763671875
-55.84716796875
-38.4521484375
-31.1279296875
-25.634765625
-37.53662109375
-52.18505859375
-55.84716796875
-70.49560546875
-75.98876953125
-75.98876953125
-76.904296875
-82.3974609375
-83.31298828125
-94.29931640625
-91.552734375
-89.7216796875
-103.45458984375
-96.13037109375
-97.96142578125
-116.27197265625
-112.60986328125
-111.6943359375
-113.525390625
-113.525390625
-103.45458984375
-113.525390625
-116.27197265625
-119.93408203125
-128.173828125
-125.42724609375
-115.3564453125
-117.1875
-113.525390625
-98.876953125
-99.79248046875
-110.77880859375
-103.45458984375
-103.45458984375
-109.86328125
-119.0185546875
-124.51171875
-113.525390625
-114.44091796875
-118.10302734375
-116.27197265625
-105.28564453125
-126.3427734375
-149.23095703125
-152.89306640625
-135.498046875
-100.7080078125
-56.7626953125
-8.23974609375
29.296875
90.63720703125
198.66943359375
352.47802734375
527.34375
736.99951171875
954.89501953125
1155.3955078125
1300.96435546875
1403.50341796875
1407.16552734375
1291.80908203125
1142.578125
946.6552734375
633.544921875
345.15380859375
125.42724609375
-22.88818359375
-107.11669921875
-121.76513671875
-82.3974609375
-40.283203125
-9.1552734375
32.958984375
30.21240234375
26.55029296875
22.88818359375
14.6484375
3.662109375
-5.4931640625
-15.56396484375
-25.634765625
-27.4658203125
-36.62109375
-37.53662109375
-35.70556640625
-47.607421875
-60.4248046875
-59.50927734375
-47.607421875
-40.283203125
-47.607421875
-49.4384765625
-49.4384765625
-54.01611328125
-47.607421875
-47.607421875
-41.19873046875
-43.02978515625
-40.283203125
-50.35400390625
-51.26953125
-48.52294921875
-50.35400390625
-47.607421875
-35.70556640625
-37.53662109375
-37.53662109375
-40.283203125
-31.1279296875
-27.4658203125
-28.38134765625
-27.4658203125
-28.38134765625
-18.310546875
-26.55029296875
-25.634765625
-25.634765625
-19.22607421875
-13.73291015625
-9.1552734375
-4.57763671875
-2.74658203125
-2.74658203125
-4.57763671875
1.8310546875
-0.91552734375
3.662109375
5.4931640625
10.07080078125
3.662109375
15.56396484375
15.56396484375
29.296875
32.04345703125
35.70556640625
42.1142578125
51.26953125
54.01611328125
65.91796875
63.17138671875
68.66455078125
79.65087890625
88.80615234375
98.876953125
96.13037109375
94.29931640625
102.5390625
126.3427734375
136.41357421875
140.07568359375
157.470703125
155.6396484375
160.21728515625
167.54150390625
180.35888671875
190.4296875
190.4296875
195.9228515625
201.416015625
206.9091796875
205.078125
206.9091796875
221.5576171875
221.5576171875
224.30419921875
236.2060546875
231.62841796875
228.8818359375
232.5439453125
229.79736328125
229.79736328125
220.64208984375
217.8955078125
208.740234375
205.99365234375
200.50048828125
185.85205078125
167.54150390625
158.38623046875
140.9912109375
130.0048828125
119.0185546875
104.3701171875
88.80615234375
74.15771484375
54.01611328125
49.4384765625
46.69189453125
37.53662109375
12.8173828125
-3.662109375
-7.32421875
-18.310546875
-29.296875
-35.70556640625
-38.4521484375
-57.67822265625
-63.17138671875
-70.49560546875
-71.4111328125
-56.7626953125
-68.66455078125
-78.7353515625
-85.14404296875
-90.63720703125
-92.46826171875
-95.21484375
-102.5390625
-104.3701171875
-103.45458984375
-101.62353515625
-93.3837890625
-96.13037109375
-94.29931640625
-89.7216796875
-97.0458984375
-109.86328125
-118.10302734375
-117.1875
-110.77880859375
-103.45458984375
-99.79248046875
-104.3701171875
-107.11669921875
-104.3701171875
-102.5390625
-110.77880859375
-111.6943359375
-109.86328125
-101.62353515625
-103.45458984375
-100.7080078125
-90.63720703125
-106.201171875
-118.10302734375
-107.11669921875
-101.62353515625
-99.79248046875
-108.0322265625
-92.46826171875
-92.46826171875
-87.890625
-83.31298828125
-90.63720703125
-95.21484375
-85.14404296875
-91.552734375
-82.3974609375
-85.14404296875
-91.552734375
-97.96142578125
-95.21484375
-86.0595703125
-86.97509765625
-86.97509765625
-90.63720703125
-85.14404296875
-79.65087890625
-83.31298828125
-72.32666015625
-69.580078125
-72.32666015625
-78.7353515625
-76.904296875
-75.98876953125
-85.14404296875
-86.0595703125
-79.65087890625
-74.15771484375
-76.904296875
-65.00244140625
-61.34033203125
-76.904296875
-79.65087890625
-75.0732421875
-74.15771484375
-74.15771484375
-83.31298828125
-80.56640625
-75.0732421875
-65.91796875
-70.49560546875
-78.7353515625
-81.48193359375
-74.15771484375
-80.56640625
-80.56640625
-86.0595703125
-82.3974609375
-87.890625
-91.552734375
-87.890625
-83.31298828125
-82.3974609375
-87.890625
-88.80615234375
-94.29931640625
-90.63720703125
-80.56640625
-78.7353515625
-89.7216796875
-99.79248046875
-95.21484375
-97.0458984375
-97.96142578125
-98.876953125
-91.552734375
-86.0595703125
-94.29931640625
-94.29931640625
-96.13037109375
-90.63720703125
-90.63720703125
-97.0458984375
-103.45458984375
-95.21484375
-99.79248046875
-103.45458984375
-103.45458984375
-107.11669921875
-106.201171875
-109.86328125
-107.11669921875
-104.3701171875
-104.3701171875
-110.77880859375
-119.0185546875
-113.525390625
-122.6806640625
-119.93408203125
-117.1875
-118.10302734375
-125.42724609375
-120.849609375
-100.7080078125
-109.86328125
-112.60986328125
-114.44091796875
-115.3564453125
-109.86328125
-111.6943359375
-125.42724609375
-130.92041015625
-130.0048828125
-122.6806640625
-123.59619140625
-124.51171875
-123.59619140625
-118.10302734375
-118.10302734375
-124.51171875
-105.28564453125
-117.1875
-118.10302734375
-109.86328125
-108.94775390625
-110.77880859375
-110.77880859375
-122.6806640625
-119.0185546875
-115.3564453125
-115.3564453125
-117.1875
-119.93408203125
-125.42724609375
-126.3427734375
-127.25830078125
-130.0048828125
-112.60986328125
-108.0322265625
-108.0322265625
-115.3564453125
-119.0185546875
-112.60986328125
-103.45458984375
-119.0185546875
-107.11669921875
-108.0322265625
-109.86328125
-97.0458984375
-105.28564453125
-98.876953125
-90.63720703125
-93.3837890625
-75.98876953125
-81.48193359375
-78.7353515625
-78.7353515625
-70.49560546875
-63.17138671875
-75.98876953125
-82.3974609375
-78.7353515625
-79.65087890625
-77.81982421875
-70.49560546875
-49.4384765625
-46.69189453125
-45.7763671875
-45.7763671875
-54.01611328125
-58.59375
-65.91796875
-74.15771484375
-75.98876953125
-68.66455078125
-61.34033203125
-53.1005859375
-55.84716796875
-69.580078125
-82.3974609375
-89.7216796875
-100.7080078125
-102.5390625
-87.890625
-103.45458984375
-116.27197265625
-122.6806640625
-126.3427734375
-123.59619140625
-117.1875
-111.6943359375
-110.77880859375
-118.10302734375
-129.08935546875
-127.25830078125
-121.76513671875
-134.58251953125
-131.8359375
-128.173828125
-135.498046875
-128.173828125
-133.6669921875
-135.498046875
-138.24462890625
-130.92041015625
-122.6806640625
-128.173828125
-134.58251953125
-134.58251953125
-124.51171875
-121.76513671875
-130.0048828125
-128.173828125
-129.08935546875
-119.0185546875
-116.27197265625
-129.08935546875
-125.42724609375
-127.25830078125
-136.41357421875
-141.90673828125
-153.80859375
-164.794921875
-163.87939453125
-130.0048828125
-93.3837890625
-49.4384765625
0.91552734375
44.86083984375
133.6669921875
270.99609375
450.439453125
646.3623046875
867.00439453125
1078.4912109375
1214.90478515625
1312.8662109375
1325.68359375
1235.04638671875
1109.619140625
942.07763671875
638.12255859375
376.28173828125
162.04833984375
16.4794921875
-58.59375
-89.7216796875
-98.876953125
-86.0595703125
-57.67822265625
-32.04345703125
-15.56396484375
-22.88818359375
-24.71923828125
-10.07080078125
-8.23974609375
-10.986328125
-10.07080078125
-25.634765625
-27.4658203125
-35.70556640625
-54.931640625
-54.01611328125
-46.69189453125
-46.69189453125
-47.607421875
-56.7626953125
-52.18505859375
-62.255859375
-70.49560546875
-57.67822265625
-59.50927734375
-53.1005859375
-57.67822265625
-66.83349609375
-65.91796875
-73.2421875
-54.931640625
-50.35400390625
-56.7626953125
-55.84716796875
-56.7626953125
-56.7626953125
-59.50927734375
-54.01611328125
-46.69189453125
-46.69189453125
-49.4384765625
-53.1005859375
-52.18505859375
-46.69189453125
-41.19873046875
-50.35400390625
-41.19873046875
-32.958984375
-41.19873046875
-25.634765625
-28.38134765625
-23.8037109375
-19.22607421875
-16.4794921875
-17.39501953125
-12.8173828125
-1.8310546875
-8.23974609375
-2.74658203125
3.662109375
0.91552734375
-9.1552734375
10.986328125
5.4931640625
12.8173828125
12.8173828125
27.4658203125
37.53662109375
47.607421875
48.52294921875
58.59375
63.17138671875
65.00244140625
75.98876953125
86.97509765625
97.0458984375
91.552734375
89.7216796875
109.86328125
115.3564453125
113.525390625
130.0048828125
138.24462890625
144.6533203125
161.1328125
171.20361328125
168.45703125
180.35888671875
189.51416015625
182.18994140625
195.00732421875
207.82470703125
188.5986328125
203.2470703125
198.66943359375
204.16259765625
214.2333984375
204.16259765625
205.078125
223.388671875
227.05078125
218.81103515625
216.064453125
216.064453125
208.740234375
197.75390625
172.119140625
183.10546875
174.86572265625
162.04833984375
143.73779296875
134.58251953125
129.08935546875
116.27197265625
93.3837890625
76.904296875
64.0869140625
54.01611328125
43.9453125
37.53662109375
23.8037109375
19.22607421875
10.986328125
-6.40869140625
-5.4931640625
-29.296875
-26.55029296875
-32.958984375
-49.4384765625
-58.59375
-58.59375
-59.50927734375
-58.59375
-60.4248046875
-69.580078125
-71.4111328125
-80.56640625
-85.14404296875
-89.7216796875
-86.97509765625
-89.7216796875
-93.3837890625
-94.29931640625
-86.0595703125
-89.7216796875
-101.62353515625
-98.876953125
-108.94775390625
-102.5390625
-102.5390625
-103.45458984375
-108.94775390625
-100.7080078125
-105.28564453125
-103.45458984375
-103.45458984375
-93.3837890625
-91.552734375
-95.21484375
-93.3837890625
-95.21484375
-91.552734375
-94.29931640625
-98.876953125
-102.5390625
-97.96142578125
-93.3837890625
-85.14404296875
-81.48193359375
-86.97509765625
-92.46826171875
-95.21484375
-90.63720703125
-97.0458984375
-87.890625
-88.80615234375
-89.7216796875
-89.7216796875
-93.3837890625
-82.3974609375
-76.904296875
-81.48193359375
-75.98876953125
-76.904296875
-81.48193359375
-75.98876953125
-87.890625
-91.552734375
-86.97509765625
-78.7353515625
-80.56640625
-83.31298828125
-80.56640625
-72.32666015625
-65.00244140625
-65.00244140625
-69.580078125
-73.2421875
-81.48193359375
-80.56640625
-83.31298828125
-86.0595703125
-86.0595703125
-87.890625
-96.13037109375
-88.80615234375
-89.7216796875
-88.80615234375
-83.31298828125
-75.98876953125
-78.7353515625
-84.228515625
-81.48193359375
-86.97509765625
-87.890625
-87.890625
-82.3974609375
-84.228515625
-86.0595703125
-87.890625
-87.890625
-91.552734375
-94.29931640625
-87.890625
-92.46826171875
-98.876953125
-87.890625
-94.29931640625
-93.3837890625
-92.46826171875
-86.0595703125
-92.46826171875
-97.96142578125
-101.62353515625
-100.7080078125
-89.7216796875
-90.63720703125
-93.3837890625
-97.96142578125
-100.7080078125
-104.3701171875
-94.29931640625
-99.79248046875
-104.3701171875
-98.876953125
-97.0458984375
-99.79248046875
-101.62353515625
-104.3701171875
-96.13037109375
-96.13037109375
-94.29931640625
-98.876953125
-88.80615234375
-97.0458984375
-93.3837890625
-96.13037109375
-97.0458984375
-99.79248046875
-96.13037109375
-100.7080078125
-103.45458984375
-100.7080078125
-97.96142578125
-100.7080078125
-103.45458984375
-98.876953125
-96.13037109375
-102.5390625
-105.28564453125
-103.45458984375
-107.11669921875
-108.94775390625
-103.45458984375
-114.44091796875
-111.6943359375
-105.28564453125
-108.94775390625
-108.94775390625
-108.94775390625
-107.11669921875
-107.11669921875
-110.77880859375
-113.525390625
-110.77880859375
-105.28564453125
-106.201171875
-108.0322265625
-102.5390625
-104.3701171875
-109.86328125
-106.201171875
-105.28564453125
-106.201171875
-104.3701171875
-98.876953125
-102.5390625
-98.876953125
-89.7216796875
-90.63720703125
-73.2421875
-64.0869140625
-62.255859375
-61.34033203125
-62.255859375
-63.17138671875
-64.0869140625
-69.580078125
-65.91796875
-64.0869140625
-60.4248046875
-50.35400390625
-50.35400390625
-48.52294921875
-38.4521484375
-49.4384765625
-47.607421875
-44.86083984375
-43.9453125
-58.59375
-68.66455078125
-65.00244140625
-57.67822265625
-53.1005859375
-48.52294921875
-52.18505859375
-59.50927734375
-66.83349609375
-76.904296875
-80.56640625
-89.7216796875
-92.46826171875
-107.11669921875
-113.525390625
-115.3564453125
-109.86328125
-111.6943359375
-115.3564453125
-113.525390625
-111.6943359375
-120.849609375
-125.42724609375
-120.849609375
-119.0185546875
-119.0185546875
-122.6806640625
-126.3427734375
-130.0048828125
-131.8359375
-135.498046875
-128.173828125
-125.42724609375
-124.51171875
-132.75146484375
-130.92041015625
-129.08935546875
-130.92041015625
-130.92041015625
-130.0048828125
-125.42724609375
-128.173828125
-126.3427734375
-119.93408203125
-125.42724609375
-124.51171875
-119.93408203125
-124.51171875
-141.90673828125
-153.80859375
-165.71044921875
-158.38623046875
-116.27197265625
-75.0732421875
-36.62109375
11.90185546875
62.255859375
153.80859375
295.71533203125
469.66552734375
671.9970703125
883.48388671875
1077.57568359375
1225.89111328125
1333.0078125
1344.90966796875
1256.103515625
1128.84521484375
960.38818359375
671.08154296875
394.59228515625
171.20361328125
16.4794921875
-63.17138671875
-108.94775390625
-101.62353515625
-73.2421875
-42.1142578125
-13.73291015625
-1.8310546875
3.662109375
11.90185546875
10.07080078125
10.07080078125
8.23974609375
-0.91552734375
-9.1552734375
-19.22607421875
-28.38134765625
-33.87451171875
-32.04345703125
-31.1279296875
-39.36767578125
-42.1142578125
-42.1142578125
-38.4521484375
-38.4521484375
-37.53662109375
-43.02978515625
-37.53662109375
-37.53662109375
-33.87451171875
-31.1279296875
-33.87451171875
-40.283203125
-33.87451171875
-28.38134765625
-26.55029296875
-29.296875
-28.38134765625
-28.38134765625
-21.97265625
-15.56396484375
-9.1552734375
-11.90185546875
-11.90185546875
-10.07080078125
-7.32421875
-1.8310546875
0
0
-2.74658203125
3.662109375
8.23974609375
10.986328125
19.22607421875
24.71923828125
15.56396484375
15.56396484375
18.310546875
26.55029296875
29.296875
33.87451171875
43.02978515625
45.7763671875
44.86083984375
48.52294921875
52.18505859375
57.67822265625
67.7490234375
75.0732421875
79.65087890625
91.552734375
100.7080078125
98.876953125
102.5390625
117.1875
119.0185546875
128.173828125
139.16015625
153.80859375
162.9638671875
168.45703125
175.78125
180.35888671875
187.68310546875
197.75390625
213.31787109375
221.5576171875
229.79736328125
231.62841796875
238.037109375
245.361328125
253.60107421875
257.26318359375
265.5029296875
270.08056640625
273.74267578125
281.982421875
284.72900390625
292.96875
291.1376953125
291.1376953125
293.88427734375
292.05322265625
290.22216796875
293.88427734375
291.1376953125
285.64453125
278.3203125
262.75634765625
260.009765625
246.27685546875
234.375
219.7265625
204.16259765625
190.4296875
178.52783203125
165.71044921875
150.146484375
131.8359375
114.44091796875
97.96142578125
91.552734375
82.3974609375
71.4111328125
62.255859375
53.1005859375
43.02978515625
34.7900390625
21.05712890625
11.90185546875
9.1552734375
-3.662109375
-3.662109375
-5.4931640625
-18.310546875
-17.39501953125
-20.1416015625
-17.39501953125
-17.39501953125
-24.71923828125
-22.88818359375
-23.8037109375
-31.1279296875
-32.04345703125
-36.62109375
-35.70556640625
-37.53662109375
-37.53662109375
-40.283203125
-46.69189453125
-41.19873046875
-44.86083984375
-46.69189453125
-35.70556640625
-53.1005859375
-43.9453125
-55.84716796875
-44.86083984375
-50.35400390625
-51.26953125
-57.67822265625
-58.59375
-54.01611328125
-53.1005859375
-49.4384765625
-56.7626953125
-57.67822265625
-57.67822265625
-53.1005859375
-57.67822265625
-55.84716796875
-53.1005859375
-53.1005859375
-51.26953125
-48.52294921875
-54.01611328125
-54.01611328125
-57.67822265625
-51.26953125
-46.69189453125
-41.19873046875
-53.1005859375
-53.1005859375
-51.26953125
-49.4384765625
-54.01611328125
-51.26953125
-48.52294921875
-43.9453125
-36.62109375
-37.53662109375
-30.21240234375
-32.04345703125
-37.53662109375
-32.958984375
-31.1279296875
-35.70556640625
-35.70556640625
-30.21240234375
-30.21240234375
-32.958984375
-33.87451171875
-41.19873046875
-45.7763671875
-40.283203125
-34.7900390625
-40.283203125
-35.70556640625
-37.53662109375
-37.53662109375
-32.04345703125
-35.70556640625
-45.7763671875
-43.9453125
-37.53662109375
-26.55029296875
-32.958984375
-37.53662109375
-42.1142578125
-46.69189453125
-42.1142578125
-45.7763671875
-52.18505859375
-54.01611328125
-55.84716796875
-60.4248046875
-55.84716796875
-54.01611328125
-50.35400390625
-51.26953125
-43.02978515625
-47.607421875
-52.18505859375
-52.18505859375
-50.35400390625
-53.1005859375
-54.01611328125
-53.1005859375
-58.59375
-55.84716796875
-53.1005859375
-52.18505859375
-52.18505859375
-54.931640625
-48.52294921875
-58.59375
-61.34033203125
-58.59375
-55.84716796875
-58.59375
-61.34033203125
-57.67822265625
-57.67822265625
-60.4248046875
-54.931640625
-64.0869140625
-65.00244140625
-69.580078125
-68.66455078125
-63.17138671875
-69.580078125
-68.66455078125
-66.83349609375
-62.255859375
-64.0869140625
-64.0869140625
-64.0869140625
-70.49560546875
-68.66455078125
-66.83349609375
-63.17138671875
-59.50927734375
-69.580078125
-69.580078125
-67.7490234375
-61.34033203125
-66.83349609375
-77.81982421875
-81.48193359375
-66.83349609375
-75.0732421875
-73.2421875
-69.580078125
-69.580078125
-67.7490234375
-65.91796875
-70.49560546875
-67.7490234375
-68.66455078125
-71.4111328125
-68.66455078125
-71.4111328125
-78.7353515625
-65.91796875
-65.00244140625
-70.49560546875
-72.32666015625
-65.00244140625
-68.66455078125
-68.66455078125
-64.0869140625
-55.84716796875
-61.34033203125
-65.00244140625
-55.84716796875
-52.18505859375
-51.26953125
-55.84716796875
-43.9453125
-38.4521484375
-25.634765625
-18.310546875
-21.97265625
-19.22607421875
-21.97265625
-14.6484375
-21.97265625
-24.71923828125
-26.55029296875
-19.22607421875
-12.8173828125
-6.40869140625
-6.40869140625
-8.23974609375
0
6.40869140625
0.91552734375
-6.40869140625
-14.6484375
-13.73291015625
-20.1416015625
-20.1416015625
-16.4794921875
-8.23974609375
-5.4931640625
-9.1552734375
-16.4794921875
-32.04345703125
-39.36767578125
-37.53662109375
-37.53662109375
-43.02978515625
-45.7763671875
-60.4248046875
-65.00244140625
-63.17138671875
-62.255859375
-61.34033203125
-62.255859375
-73.2421875
-79.65087890625
-77.81982421875
-77.81982421875
-80.56640625
-74.15771484375
-66.83349609375
-73.2421875
-76.904296875
-75.0732421875
-75.0732421875
-70.49560546875
-75.98876953125
-81.48193359375
-80.56640625
-75.0732421875
-67.7490234375
-71.4111328125
-79.65087890625
-75.0732421875
-71.4111328125
-74.15771484375
-71.4111328125
-68.66455078125
-71.4111328125
-73.2421875
-78.7353515625
-79.65087890625
-90.63720703125
-98.876953125
-100.7080078125
-86.97509765625
-52.18505859375
-6.40869140625
34.7900390625
81.48193359375
145.56884765625
249.93896484375
415.6494140625
600.5859375
821.22802734375
1027.2216796875
1218.56689453125
1354.98046875
1448.3642578125
1424.560546875
1296.38671875
1142.578125
924.6826171875
605.16357421875
330.50537109375
120.849609375
-5.4931640625
-70.49560546875
-86.0595703125
-53.1005859375
-12.8173828125
25.634765625
51.26953125
61.34033203125
61.34033203125
66.83349609375
57.67822265625
46.69189453125
37.53662109375
20.1416015625
5.4931640625
12.8173828125
3.662109375
-0.91552734375
-0.91552734375
-1.8310546875
-1.8310546875
-7.32421875
-14.6484375
-13.73291015625
-15.56396484375
-13.73291015625
-10.986328125
-12.8173828125
-10.986328125
-11.90185546875
-8.23974609375
-5.4931640625
-10.07080078125
-4.57763671875
-7.32421875
-3.662109375
0.91552734375
-2.74658203125
4.57763671875
7.32421875
6.40869140625
10.986328125
11.90185546875
5.4931640625
8.23974609375
20.1416015625
21.97265625
25.634765625
21.97265625
21.05712890625
26.55029296875
32.04345703125
32.958984375
33.87451171875
40.283203125
37.53662109375
38.4521484375
44.86083984375
45.7763671875
54.931640625
56.7626953125
63.17138671875
63.17138671875
74.15771484375
77.81982421875
76.904296875
82.3974609375
83.31298828125
90.63720703125
95.21484375
108.94775390625
109.86328125
115.3564453125
125.42724609375
131.8359375
133.6669921875
137.3291015625
151.9775390625
158.38623046875
161.1328125
174.86572265625
182.18994140625
191.34521484375
202.33154296875
206.9091796875
219.7265625
224.30419921875
240.78369140625
249.0234375
259.09423828125
263.671875
269.1650390625
277.40478515625
278.3203125
277.40478515625
285.64453125
291.1376953125
294.7998046875
290.22216796875
314.94140625
303.955078125
303.955078125
307.6171875
307.6171875
303.955078125
301.20849609375
286.56005859375
273.74267578125
278.3203125
272.8271484375
256.34765625
239.8681640625
224.30419921875
210.5712890625
191.34521484375
175.78125
169.37255859375
147.39990234375
131.8359375
114.44091796875
110.77880859375
103.45458984375
82.3974609375
68.66455078125
58.59375
46.69189453125
35.70556640625
23.8037109375
15.56396484375
10.986328125
5.4931640625
0
-4.57763671875
-21.97265625
-14.6484375
-21.05712890625
-26.55029296875
-33.87451171875
-27.4658203125
-21.97265625
-33.87451171875
-33.87451171875
-33.87451171875
-46.69189453125
-44.86083984375
-45.7763671875
-47.607421875
-51.26953125
-52.18505859375
-54.931640625
-52.18505859375
-53.1005859375
-54.01611328125
-62.255859375
-63.17138671875
-58.59375
-63.17138671875
-63.17138671875
-52.18505859375
-53.1005859375
-56.7626953125
-56.7626953125
-54.01611328125
-51.26953125
-54.01611328125
-55.84716796875
-48.52294921875
-46.69189453125
-47.607421875
-43.02978515625
-43.02978515625
-44.86083984375
-47.607421875
-48.52294921875
-49.4384765625
-45.7763671875
-41.19873046875
-39.36767578125
-43.02978515625
-43.9453125
-42.1142578125
-40.283203125
-35.70556640625
-38.4521484375
-38.4521484375
-43.02978515625
-38.4521484375
-38.4521484375
-38.4521484375
-34.7900390625
-36.62109375
-32.958984375
-34.7900390625
-46.69189453125
-45.7763671875
-37.53662109375
-35.70556640625
-39.36767578125
-37.53662109375
-41.19873046875
-43.02978515625
-41.19873046875
-39.36767578125
-44.86083984375
-43.02978515625
-49.4384765625
-42.1142578125
-36.62109375
-39.36767578125
-37.53662109375
-38.4521484375
-36.62109375
-44.86083984375
-46.69189453125
-49.4384765625
-47.607421875
-51.26953125
-47.607421875
-40.283203125
-44.86083984375
-48.52294921875
-47.607421875
-48.52294921875
-53.1005859375
-57.67822265625
-54.931640625
-54.931640625
-49.4384765625
-47.607421875
-45.7763671875
-54.931640625
-63.17138671875
-58.59375
-54.931640625
-61.34033203125
-58.59375
-54.01611328125
-58.59375
-60.4248046875
-54.931640625
-58.59375
-58.59375
-58.59375
-58.59375
-64.0869140625
-68.66455078125
-64.0869140625
-66.83349609375
-65.00244140625
-65.00244140625
-65.91796875
-65.00244140625
-65.91796875
-70.49560546875
-72.32666015625
-75.98876953125
-76.904296875
-75.0732421875
-77.81982421875
-74.15771484375
-75.98876953125
-81.48193359375
-79.65087890625
-79.65087890625
-77.81982421875
-79.65087890625
-74.15771484375
-74.15771484375
-70.49560546875
-71.4111328125
-79.65087890625
-82.3974609375
-72.32666015625
-77.81982421875
-85.14404296875
-82.3974609375
-78.7353515625
-77.81982421875
-79.65087890625
-81.48193359375
-76.904296875
-75.98876953125
-72.32666015625
-76.904296875
-88.80615234375
-86.97509765625
-83.31298828125
-82.3974609375
-82.3974609375
-86.0595703125
-86.97509765625
-79.65087890625
-82.3974609375
-87.890625
-86.97509765625
-81.48193359375
-86.0595703125
-78.7353515625
-76.904296875
-78.7353515625
-79.65087890625
-75.98876953125
-77.81982421875
-80.56640625
-75.98876953125
-75.0732421875
-77.81982421875
-75.98876953125
-65.00244140625
-64.0869140625
-56.7626953125
-53.1005859375
-51.26953125
-39.36767578125
-36.62109375
-36.62109375
-34.7900390625
-35.70556640625
-34.7900390625
-41.19873046875
-39.36767578125
-37.53662109375
-36.62109375
-32.04345703125
-28.38134765625
-20.1416015625
-18.310546875
-22.88818359375
-14.6484375
-10.07080078125
-24.71923828125
-39.36767578125
-45.7763671875
-41.19873046875
-37.53662109375
-40.283203125
-31.1279296875
-29.296875
-35.70556640625
-46.69189453125
-54.931640625
-54.01611328125
-57.67822265625
-65.00244140625
-65.00244140625
-66.83349609375
-80.56640625
-87.890625
-89.7216796875
-92.46826171875
-86.97509765625
-97.0458984375
-103.45458984375
-101.62353515625
-104.3701171875
-101.62353515625
-97.0458984375
-99.79248046875
-104.3701171875
-107.11669921875
-103.45458984375
-100.7080078125
-99.79248046875
-105.28564453125
-103.45458984375
-107.11669921875
-108.0322265625
-103.45458984375
-104.3701171875
-103.45458984375
-100.7080078125
-92.46826171875
-97.0458984375
-100.7080078125
-98.876953125
-97.96142578125
-95.21484375
-91.552734375
-95.21484375
-114.44091796875
-125.42724609375
-130.92041015625
-123.59619140625
-97.0458984375
-49.4384765625
-5.4931640625
47.607421875
91.552734375
156.55517578125
294.7998046875
465.087890625
650.0244140625
866.0888671875
1068.42041015625
1235.04638671875
1343.994140625
1377.86865234375
1319.27490234375
1188.3544921875
1036.376953125
779.11376953125
484.31396484375
243.5302734375
65.91796875
-40.283203125
-79.65087890625
-84.228515625
-61.34033203125
-34.7900390625
-10.986328125
7.32421875
5.4931640625
8.23974609375
13.73291015625
15.56396484375
15.56396484375
5.4931640625
-10.07080078125
-14.6484375
-19.22607421875
-19.22607421875
-21.05712890625
-25.634765625
-27.4658203125
-30.21240234375
-36.62109375
-37.53662109375
-40.283203125
-33.87451171875
-32.04345703125
-43.9453125
-44.86083984375
-43.9453125
-35.70556640625
-38.4521484375
-30.21240234375
-26.55029296875
-26.55029296875
-23.8037109375
-21.05712890625
-21.97265625
-18.310546875
-20.1416015625
-25.634765625
-23.8037109375
-23.8037109375
-20.1416015625
-15.56396484375
-11.90185546875
-15.56396484375
0.91552734375
1.8310546875
4.57763671875
4.57763671875
6.40869140625
7.32421875
4.57763671875
-2.74658203125
6.40869140625
10.986328125
16.4794921875
30.21240234375
23.8037109375
29.296875
25.634765625
34.7900390625
36.62109375
37.53662109375
47.607421875
51.26953125
62.255859375
65.91796875
64.0869140625
75.0732421875
80.56640625
81.48193359375
76.904296875
98.876953125
99.79248046875
104.3701171875
119.0185546875
122.6806640625
124.51171875
136.41357421875
134.58251953125
140.07568359375
151.06201171875
173.03466796875
174.86572265625
177.6123046875
189.51416015625
206.9091796875
208.740234375
206.9091796875
224.30419921875
230.712890625
238.037109375
247.1923828125
251.77001953125
263.671875
264.58740234375
260.009765625
255.43212890625
263.671875
260.92529296875
261.8408203125
263.671875
267.333984375
263.671875
259.09423828125
253.60107421875
259.09423828125
238.95263671875
223.388671875
209.65576171875
203.2470703125
176.69677734375
164.794921875
157.470703125
148.3154296875
127.25830078125
118.10302734375
106.201171875
96.13037109375
79.65087890625
54.931640625
39.36767578125
30.21240234375
32.958984375
18.310546875
7.32421875
4.57763671875
-10.986328125
-24.71923828125
-32.958984375
-38.4521484375
-41.19873046875
-47.607421875
-61.34033203125
-58.59375
-58.59375
-58.59375
-59.50927734375
-65.00244140625
-68.66455078125
-69.580078125
-71.4111328125
-68.66455078125
-70.49560546875
-76.904296875
-74.15771484375
-72.32666015625
-76.904296875
-75.98876953125
-78.7353515625
-68.66455078125
-74.15771484375
-78.7353515625
-75.98876953125
-80.56640625
-76.904296875
-77.81982421875
-75.98876953125
-72.32666015625
-79.65087890625
-85.14404296875
-91.552734375
-77.81982421875
-94.29931640625
-83.31298828125
-78.7353515625
-83.31298828125
-86.0595703125
-82.3974609375
-84.228515625
-78.7353515625
-80.56640625
-82.3974609375
-86.0595703125
-77.81982421875
-79.65087890625
-74.15771484375
-71.4111328125
-81.48193359375
-76.904296875
-75.0732421875
-75.98876953125
-69.580078125
-71.4111328125
-72.32666015625
-74.15771484375
-75.0732421875
-72.32666015625
-68.66455078125
-71.4111328125
-72.32666015625
-66.83349609375
-68.66455078125
-72.32666015625
-65.91796875
-67.7490234375
-69.580078125
-77.81982421875
-74.15771484375
-80.56640625
-79.65087890625
-73.2421875
-73.2421875
-72.32666015625
-77.81982421875
-68.66455078125
-76.904296875
-75.98876953125
-71.4111328125
-76.904296875
-75.0732421875
-80.56640625
-75.98876953125
-73.2421875
-75.98876953125
-75.98876953125
-80.56640625
-76.904296875
-82.3974609375
-83.31298828125
-85.14404296875
-85.14404296875
-85.14404296875
-82.3974609375
-85.14404296875
-88.80615234375
-87.890625
-82.3974609375
-85.14404296875
-84.228515625
-85.14404296875
-90.63720703125
-88.80615234375
-93.3837890625
-86.0595703125
-88.80615234375
-97.96142578125
-97.0458984375
-95.21484375
-105.28564453125
-98.876953125
-105.28564453125
-94.29931640625
-93.3837890625
-93.3837890625
-90.63720703125
-99.79248046875
-108.94775390625
-105.28564453125
-107.11669921875
-106.201171875
-102.5390625
-96.13037109375
-101.62353515625
-106.201171875
-108.94775390625
-110.77880859375
-106.201171875
-116.27197265625
-108.94775390625
-111.6943359375
-111.6943359375
-106.201171875
-105.28564453125
-105.28564453125
-103.45458984375
-103.45458984375
-104.3701171875
-111.6943359375
-119.0185546875
-111.6943359375
-108.94775390625
-116.27197265625
-116.27197265625
-110.77880859375
-116.27197265625
-114.44091796875
-113.525390625
-121.76513671875
-126.3427734375
-119.0185546875
-121.76513671875
-119.93408203125
-118.10302734375
-119.0185546875
-112.60986328125
-112.60986328125
-108.94775390625
-109.86328125
-103.45458984375
-109.86328125
-109.86328125
-108.94775390625
-99.79248046875
-87.890625
-84.228515625
-97.0458984375
-95.21484375
-96.13037109375
-94.29931640625
-100.7080078125
-94.29931640625
-96.13037109375
-86.0595703125
-85.14404296875
-83.31298828125
-86.97509765625
-83.31298828125
-75.98876953125
-75.0732421875
-66.83349609375
-58.59375
-61.34033203125
-57.67822265625
-54.931640625
-63.17138671875
-65.91796875
-73.2421875
-76.904296875
-68.66455078125
-61.34033203125
-54.931640625
-64.0869140625
-72.32666015625
-79.65087890625
-88.80615234375
-97.96142578125
-93.3837890625
-91.552734375
-109.86328125
-119.93408203125
-128.173828125
-117.1875
-124.51171875
-140.9912109375
-119.93408203125
-123.59619140625
-117.1875
-122.6806640625
-117.1875
-122.6806640625
-132.75146484375
-135.498046875
-133.6669921875
-145.56884765625
-145.56884765625
-140.07568359375
-138.24462890625
-122.6806640625
-126.3427734375
-113.525390625
-112.60986328125
-130.0048828125
-130.92041015625
-150.146484375
-144.6533203125
-132.75146484375
-129.08935546875
-140.07568359375
-126.3427734375
-128.173828125
-124.51171875
-117.1875
-130.0048828125
-135.498046875
-139.16015625
-150.146484375
-155.6396484375
-153.80859375
-113.525390625
-67.7490234375
-38.4521484375
14.6484375
72.32666015625
174.86572265625
321.35009765625
502.62451171875
705.87158203125
904.541015625
1103.21044921875
1225.89111328125
1314.697265625
1304.62646484375
1219.482421875
1102.294921875
915.52734375
600.5859375
346.0693359375
155.6396484375
11.90185546875
-59.50927734375
-73.2421875
-97.0458984375
-92.46826171875
-74.15771484375
-37.53662109375
-21.05712890625
-23.8037109375
-25.634765625
-24.71923828125
-33.87451171875
-31.1279296875
-32.958984375
-34.7900390625
-45.7763671875
-59.50927734375
-54.01611328125
-60.4248046875
-65.91796875
-57.67822265625
-54.01611328125
-60.4248046875
-67.7490234375
-77.81982421875
-75.98876953125
-62.255859375
-60.4248046875
-65.91796875
-71.4111328125
-65.91796875
-76.904296875
-80.56640625
-69.580078125
-74.15771484375
-50.35400390625
-55.84716796875
-54.01611328125
-59.50927734375
-61.34033203125
-46.69189453125
-49.4384765625
-53.1005859375
-47.607421875
-43.9453125
-40.283203125
-37.53662109375
-43.02978515625
-50.35400390625
-43.9453125
-27.4658203125
-29.296875
-28.38134765625
-31.1279296875
-31.1279296875
-26.55029296875
-21.05712890625
2.74658203125
6.40869140625
10.07080078125
18.310546875
5.4931640625
1.8310546875
6.40869140625
7.32421875
8.23974609375
18.310546875
31.1279296875
34.7900390625
46.69189453125
47.607421875
56.7626953125
54.01611328125
59.50927734375
73.2421875
80.56640625
86.0595703125
86.97509765625
93.3837890625
101.62353515625
94.29931640625
115.3564453125
141.90673828125
145.56884765625
147.39990234375
157.470703125
161.1328125
158.38623046875
170.2880859375
177.6123046875
180.35888671875
191.34521484375
194.091796875
190.4296875
193.17626953125
203.2470703125
214.2333984375
202.33154296875
217.8955078125
238.95263671875
231.62841796875
238.95263671875
241.69921875
237.12158203125
229.79736328125
224.30419921875
216.064453125
195.9228515625
193.17626953125
187.68310546875
168.45703125
158.38623046875
149.23095703125
141.90673828125
128.173828125
126.3427734375
113.525390625
90.63720703125
72.32666015625
43.9453125
34.7900390625
21.05712890625
14.6484375
10.986328125
8.23974609375
-16.4794921875
-36.62109375
-52.18505859375
-48.52294921875
-35.70556640625
-42.1142578125
-65.00244140625
-71.4111328125
-75.98876953125
-97.0458984375
-95.21484375
-76.904296875
-78.7353515625
-93.3837890625
-109.86328125
-102.5390625
-118.10302734375
-118.10302734375
-96.13037109375
-86.97509765625
-83.31298828125
-98.876953125
-113.525390625
-115.3564453125
-108.94775390625
-111.6943359375
-126.3427734375
-109.86328125
-114.44091796875
-110.77880859375
-97.96142578125
-86.0595703125
-91.552734375
-116.27197265625
-131.8359375
-133.6669921875
-104.3701171875
-85.14404296875
-82.3974609375
-102.5390625
-120.849609375
-117.1875
-113.525390625
-97.96142578125
-78.7353515625
-81.48193359375
-110.77880859375
-109.86328125
-117.1875
-109.86328125
-87.890625
-77.81982421875
-96.13037109375
-112.60986328125
-115.3564453125
-110.77880859375
-97.0458984375
-92.46826171875
-99.79248046875
-102.5390625
-112.60986328125
-112.60986328125
-117.1875
-101.62353515625
-101.62353515625
-108.94775390625
-104.3701171875
-115.3564453125
-138.24462890625
-151.06201171875
-119.93408203125
-103.45458984375
-127.25830078125
-105.28564453125
-80.56640625
-74.15771484375
-83.31298828125
-94.29931640625
-91.552734375
-90.63720703125
-86.97509765625
-82.3974609375
-89.7216796875
-93.3837890625
-97.96142578125
-103.45458984375
-108.94775390625
-93.3837890625
-93.3837890625
-101.62353515625
-93.3837890625
-97.0458984375
-99.79248046875
-98.876953125
-110.77880859375
-95.21484375
-77.81982421875
-95.21484375
-108.94775390625
-119.0185546875
-122.6806640625
-138.24462890625
-111.6943359375
-103.45458984375
-119.0185546875
-120.849609375
-127.25830078125
-119.93408203125
-97.96142578125
-102.5390625
-104.3701171875
-96.13037109375
-108.94775390625
-122.6806640625
-121.76513671875
-130.0048828125
-135.498046875
-132.75146484375
-104.3701171875
-119.93408203125
-140.9912109375
-141.90673828125
-140.9912109375
-130.92041015625
-89.7216796875
-89.7216796875
-113.525390625
-117.1875
-111.6943359375
-110.77880859375
-103.45458984375
-98.876953125
-110.77880859375
-117.1875
-130.92041015625
-135.498046875
-122.6806640625
-115.3564453125
-121.76513671875
-122.6806640625
-130.92041015625
-134.58251953125
-128.173828125
-122.6806640625
-128.173828125
-109.86328125
-111.6943359375
-130.92041015625
-133.6669921875
-123.59619140625
-131.8359375
-129.08935546875
-121.76513671875
-113.525390625
-103.45458984375
-119.0185546875
-118.10302734375
-117.1875
-124.51171875
-135.498046875
-134.58251953125
-131.8359375
-119.93408203125
-119.93408203125
-116.27197265625
-118.10302734375
-115.3564453125
-117.1875
-130.0048828125
-120.849609375
-123.59619140625
-130.0048828125
-139.16015625
-125.42724609375
-136.41357421875
-142.822265625
-136.41357421875
-132.75146484375
-133.6669921875
-137.3291015625
-108.0322265625
-92.46826171875
-111.6943359375
-129.08935546875
-122.6806640625
-107.11669921875
-95.21484375
-102.5390625
-87.890625
-81.48193359375
-78.7353515625
-78.7353515625
-75.0732421875
-79.65087890625
-63.17138671875
-61.34033203125
-77.81982421875
-72.32666015625
-63.17138671875
-57.67822265625
-56.7626953125
-52.18505859375
-48.52294921875
-55.84716796875
-62.255859375
-67.7490234375
-77.81982421875
-76.904296875
-71.4111328125
-65.00244140625
-60.4248046875
-64.0869140625
-65.91796875
-73.2421875
-73.2421875
-79.65087890625
-72.32666015625
-78.7353515625
-101.62353515625
-105.28564453125
-130.0048828125
-139.16015625
-128.173828125
-118.10302734375
-121.76513671875
-118.10302734375
-130.0048828125
-121.76513671875
-129.08935546875
-141.90673828125
-133.6669921875
-137.3291015625
-130.0048828125
-133.6669921875
-123.59619140625
-125.42724609375
-126.3427734375
-134.58251953125
-138.24462890625
-137.3291015625
-121.76513671875
-116.27197265625
-134.58251953125
-140.9912109375
-144.6533203125
-139.16015625
-138.24462890625
-130.92041015625
-131.8359375
-134.58251953125
-124.51171875
-119.0185546875
-134.58251953125
-140.07568359375
-132.75146484375
-135.498046875
-149.23095703125
-145.56884765625
-124.51171875
-74.15771484375
-30.21240234375
2.74658203125
53.1005859375
131.8359375
282.89794921875
466.9189453125
654.60205078125
862.4267578125
1052.8564453125
1225.89111328125
1343.994140625
1410.82763671875
1354.98046875
1221.3134765625
1064.75830078125
824.89013671875
512.6953125
227.05078125
41.19873046875
-68.66455078125
-125.42724609375
-106.201171875
-65.91796875
-32.958984375
-8.23974609375
5.4931640625
22.88818359375
21.05712890625
36.62109375
26.55029296875
-6.40869140625
-16.4794921875
-26.55029296875
-39.36767578125
-54.01611328125
-54.931640625
-50.35400390625
-54.931640625
-51.26953125
-51.26953125
-36.62109375
-30.21240234375
-37.53662109375
-38.4521484375
-46.69189453125
-56.7626953125
-60.4248046875
-61.34033203125
-41.19873046875
-44.86083984375
-43.9453125
-45.7763671875
-45.7763671875
-40.283203125
-32.04345703125
-41.19873046875
-43.9453125
-43.02978515625
-36.62109375
-43.02978515625
-29.296875
-29.296875
-24.71923828125
-17.39501953125
-11.90185546875
-21.05712890625
-21.05712890625
-13.73291015625
-11.90185546875
-13.73291015625
-5.4931640625
-7.32421875
-5.4931640625
-4.57763671875
12.8173828125
10.986328125
7.32421875
10.07080078125
21.05712890625
19.22607421875
26.55029296875
25.634765625
28.38134765625
25.634765625
40.283203125
45.7763671875
43.02978515625
44.86083984375
50.35400390625
57.67822265625
66.83349609375
75.98876953125
81.48193359375
83.31298828125
90.63720703125
103.45458984375
109.86328125
108.0322265625
113.525390625
130.0048828125
155.6396484375
158.38623046875
167.54150390625
169.37255859375
182.18994140625
190.4296875
190.4296875
192.2607421875
206.9091796875
213.31787109375
224.30419921875
235.29052734375
244.44580078125
245.361328125
257.26318359375
254.5166015625
258.1787109375
260.92529296875
272.8271484375
270.08056640625
277.40478515625
274.658203125
271.91162109375
267.333984375
260.92529296875
256.34765625
260.009765625
244.44580078125
227.05078125
216.97998046875
198.66943359375
189.51416015625
180.35888671875
165.71044921875
153.80859375
133.6669921875
109.86328125
92.46826171875
84.228515625
70.49560546875
55.84716796875
43.9453125
43.9453125
43.02978515625
28.38134765625
11.90185546875
-20.1416015625
-21.97265625
-35.70556640625
-31.1279296875
-29.296875
-32.04345703125
-32.958984375
-52.18505859375
-61.34033203125
-63.17138671875
-58.59375
-71.4111328125
-82.3974609375
-76.904296875
-70.49560546875
-63.17138671875
-68.66455078125
-82.3974609375
-80.56640625
-73.2421875
-78.7353515625
-76.904296875
-75.98876953125
-78.7353515625
-78.7353515625
-75.98876953125
-68.66455078125
-68.66455078125
-75.98876953125
-76.904296875
-70.49560546875
-73.2421875
-80.56640625
-82.3974609375
-79.65087890625
-87.890625
-84.228515625
-75.98876953125
-72.32666015625
-73.2421875
-80.56640625
-71.4111328125
-64.0869140625
-65.91796875
-66.83349609375
-75.0732421875
-75.98876953125
-66.83349609375
-65.00244140625
-66.83349609375
-80.56640625
-85.14404296875
-73.2421875
-69.580078125
-70.49560546875
-65.91796875
-58.59375
-66.83349609375
-74.15771484375
-77.81982421875
-69.580078125
-73.2421875
-75.0732421875
-70.49560546875
-65.00244140625
-67.7490234375
-65.00244140625
-63.17138671875
-65.00244140625
-73.2421875
-79.65087890625
-71.4111328125
-77.81982421875
-79.65087890625
-75.98876953125
-71.4111328125
-64.0869140625
-69.580078125
-67.7490234375
-74.15771484375
-73.2421875
-70.49560546875
-75.0732421875
-75.98876953125
-78.7353515625
-78.7353515625
-84.228515625
-82.3974609375
-83.31298828125
-74.15771484375
-79.65087890625
-82.3974609375
-83.31298828125
-82.3974609375
-78.7353515625
-79.65087890625
-80.56640625
-78.7353515625
-75.0732421875
-86.0595703125
-87.890625
-81.48193359375
-73.2421875
-74.15771484375
-74.15771484375
-78.7353515625
-95.21484375
-99.79248046875
-97.96142578125
-94.29931640625
-82.3974609375
-76.904296875
-86.0595703125
-85.14404296875
-85.14404296875
-94.29931640625
-97.0458984375
-93.3837890625
-95.21484375
-89.7216796875
-93.3837890625
-91.552734375
-86.97509765625
-88.80615234375
-95.21484375
-93.3837890625
-84.228515625
-86.97509765625
-85.14404296875
-84.228515625
-91.552734375
-91.552734375
-85.14404296875
-81.48193359375
-86.0595703125
-91.552734375
-96.13037109375
-91.552734375
-94.29931640625
-99.79248046875
-94.29931640625
-83.31298828125
-91.552734375
-94.29931640625
-88.80615234375
-98.876953125
-99.79248046875
-96.13037109375
-98.876953125
-94.29931640625
-97.96142578125
-89.7216796875
-88.80615234375
-96.13037109375
-89.7216796875
-93.3837890625
-92.46826171875
-96.13037109375
-112.60986328125
-106.201171875
-101.62353515625
-92.46826171875
-90.63720703125
-97.0458984375
-95.21484375
-91.552734375
-88.80615234375
-90.63720703125
-96.13037109375
-83.31298828125
-86.0595703125
-84.228515625
-90.63720703125
-98.876953125
-88.80615234375
-85.14404296875
-85.14404296875
-88.80615234375
-85.14404296875
-82.3974609375
-86.0595703125
-78.7353515625
-67.7490234375
-62.255859375
-54.01611328125
-50.35400390625
-31.1279296875
-26.55029296875
-31.1279296875
-28.38134765625
-29.296875
-25.634765625
-36.62109375
-33.87451171875
-40.283203125
-33.87451171875
-24.71923828125
-21.97265625
-28.38134765625
-27.4658203125
-22.88818359375
-20.1416015625
-19.22607421875
-29.296875
-36.62109375
-41.19873046875
-47.607421875
-49.4384765625
-43.9453125
-43.02978515625
-43.02978515625
-43.9453125
-44.86083984375
-54.931640625
-62.255859375
-59.50927734375
-70.49560546875
-75.0732421875
-84.228515625
-89.7216796875
-94.29931640625
-97.0458984375
-99.79248046875
-98.876953125
-106.201171875
-103.45458984375
-100.7080078125
-96.13037109375
-98.876953125
-104.3701171875
-102.5390625
-102.5390625
-93.3837890625
-94.29931640625
-94.29931640625
-93.3837890625
-94.29931640625
-97.0458984375
-91.552734375
-94.29931640625
-98.876953125
-96.13037109375
-89.7216796875
-91.552734375
-94.29931640625
-98.876953125
-90.63720703125
-92.46826171875
-91.552734375
-87.890625
-92.46826171875
-101.62353515625
-102.5390625
-112.60986328125
-125.42724609375
-126.3427734375
-113.525390625
-63.17138671875
-19.22607421875
26.55029296875
73.2421875
147.39990234375
272.8271484375
436.70654296875
629.8828125
853.271484375
1056.5185546875
1234.130859375
1350.40283203125
1427.30712890625
1382.4462890625
1229.55322265625
1060.1806640625
829.4677734375
520.01953125
247.1923828125
57.67822265625
-56.7626953125
-112.60986328125
-100.7080078125
-55.84716796875
-11.90185546875
14.6484375
37.53662109375
43.9453125
49.4384765625
50.35400390625
47.607421875
37.53662109375
22.88818359375
9.1552734375
-3.662109375
-16.4794921875
-13.73291015625
-21.05712890625
-22.88818359375
-21.05712890625
-28.38134765625
-33.87451171875
-24.71923828125
-31.1279296875
-32.04345703125
-24.71923828125
-28.38134765625
-22.88818359375
-24.71923828125
-21.97265625
-28.38134765625
-31.1279296875
-27.4658203125
-25.634765625
-27.4658203125
-21.05712890625
-15.56396484375
-19.22607421875
-22.88818359375
-16.4794921875
-10.07080078125
-7.32421875
-4.57763671875
-4.57763671875
-2.74658203125
-5.4931640625
-2.74658203125
-1.8310546875
1.8310546875
-3.662109375
-5.4931640625
-2.74658203125
3.662109375
0
9.1552734375
6.40869140625
8.23974609375
15.56396484375
26.55029296875
36.62109375
40.283203125
33.87451171875
38.4521484375
41.19873046875
50.35400390625
48.52294921875
53.1005859375
60.4248046875
65.00244140625
73.2421875
76.904296875
75.0732421875
83.31298828125
88.80615234375
105.28564453125
110.77880859375
110.77880859375
114.44091796875
133.6669921875
144.6533203125
151.9775390625
163.87939453125
162.04833984375
166.6259765625
181.2744140625
190.4296875
203.2470703125
217.8955078125
212.40234375
223.388671875
225.2197265625
238.037109375
250.8544921875
252.685546875
256.34765625
257.26318359375
266.41845703125
263.671875
265.5029296875
275.57373046875
285.64453125
292.05322265625
283.8134765625
270.08056640625
278.3203125
270.99609375
261.8408203125
260.92529296875
247.1923828125
237.12158203125
217.8955078125
206.9091796875
193.17626953125
177.6123046875
160.21728515625
147.39990234375
137.3291015625
129.08935546875
112.60986328125
94.29931640625
87.890625
69.580078125
56.7626953125
39.36767578125
26.55029296875
19.22607421875
10.07080078125
0.91552734375
-9.1552734375
-18.310546875
-23.8037109375
-35.70556640625
-44.86083984375
-43.02978515625
-51.26953125
-52.18505859375
-46.69189453125
-51.26953125
-55.84716796875
-55.84716796875
-58.59375
-59.50927734375
-60.4248046875
-63.17138671875
-70.49560546875
-77.81982421875
-72.32666015625
-79.65087890625
-82.3974609375
-75.0732421875
-73.2421875
-82.3974609375
-85.14404296875
-84.228515625
-88.80615234375
-85.14404296875
-77.81982421875
-78.7353515625
-77.81982421875
-84.228515625
-83.31298828125
-83.31298828125
-87.890625
-90.63720703125
-90.63720703125
-83.31298828125
-75.98876953125
-77.81982421875
-78.7353515625
-78.7353515625
-72.32666015625
-73.2421875
-71.4111328125
-75.98876953125
-75.0732421875
-74.15771484375
-70.49560546875
-71.4111328125
-74.15771484375
-73.2421875
-74.15771484375
-80.56640625
-81.48193359375
-80.56640625
-82.3974609375
-78.7353515625
-75.0732421875
-75.0732421875
-72.32666015625
-71.4111328125
-74.15771484375
-72.32666015625
-73.2421875
-68.66455078125
-68.66455078125
-69.580078125
-75.98876953125
-86.0595703125
-81.48193359375
-76.904296875
-76.904296875
-79.65087890625
-67.7490234375
-65.00244140625
-74.15771484375
-77.81982421875
-72.32666015625
-68.66455078125
-72.32666015625
-73.2421875
-67.7490234375
-67.7490234375
-78.7353515625
-76.904296875
-67.7490234375
-74.15771484375
-72.32666015625
-76.904296875
-78.7353515625
-80.56640625
-81.48193359375
-83.31298828125
-74.15771484375
-73.2421875
-75.98876953125
-75.0732421875
-73.2421875
-77.81982421875
-78.7353515625
-86.97509765625
-89.7216796875
-93.3837890625
-95.21484375
-91.552734375
-89.7216796875
-94.29931640625
-87.890625
-88.80615234375
-87.890625
-92.46826171875
-89.7216796875
-86.97509765625
-87.890625
-101.62353515625
-104.3701171875
-99.79248046875
-98.876953125
-97.0458984375
-97.0458984375
-97.0458984375
-90.63720703125
-91.552734375
-96.13037109375
-98.876953125
-100.7080078125
-100.7080078125
-107.11669921875
-98.876953125
-99.79248046875
-101.62353515625
-92.46826171875
-104.3701171875
-106.201171875
-97.0458984375
-97.96142578125
-107.11669921875
-108.0322265625
-108.0322265625
-103.45458984375
-104.3701171875
-96.13037109375
-102.5390625
-100.7080078125
-101.62353515625
-100.7080078125
-99.79248046875
-105.28564453125
-104.3701171875
-94.29931640625
-95.21484375
-102.5390625
-109.86328125
-108.0322265625
-108.0322265625
-110.77880859375
-105.28564453125
-115.3564453125
-111.6943359375
-103.45458984375
-105.28564453125
-110.77880859375
-102.5390625
-112.60986328125
-118.10302734375
-112.60986328125
-108.0322265625
-106.201171875
-108.0322265625
-103.45458984375
-108.0322265625
-106.201171875
-105.28564453125
-99.79248046875
-106.201171875
-108.0322265625
-91.552734375
-91.552734375
-92.46826171875
-79.65087890625
-73.2421875
-69.580078125
-71.4111328125
-75.98876953125
-59.50927734375
-65.91796875
-65.00244140625
-64.0869140625
-63.17138671875
-64.0869140625
-62.255859375
-59.50927734375
-55.84716796875
-47.607421875
-45.7763671875
-44.86083984375
-46.69189453125
-53.1005859375
-54.931640625
-69.580078125
-66.83349609375
-77.81982421875
-65.91796875
-52.18505859375
-54.01611328125
-59.50927734375
-75.98876953125
-76.904296875
-86.0595703125
-77.81982421875
-86.0595703125
-103.45458984375
-108.0322265625
-115.3564453125
-123.59619140625
-123.59619140625
-114.44091796875
-122.6806640625
-125.42724609375
-127.25830078125
-129.08935546875
-123.59619140625
-124.51171875
-125.42724609375
-130.92041015625
-129.08935546875
-124.51171875
-121.76513671875
-119.0185546875
-127.25830078125
-130.92041015625
-124.51171875
-126.3427734375
-131.8359375
-124.51171875
-129.08935546875
-130.92041015625
-124.51171875
-130.0048828125
-128.173828125
-127.25830078125
-120.849609375
-119.0185546875
-123.59619140625
-130.0048828125
-126.3427734375
-129.08935546875
-140.9912109375
-145.56884765625
-151.9775390625
-140.9912109375
-105.28564453125
-56.7626953125
-11.90185546875
27.4658203125
89.7216796875
202.33154296875
351.5625
530.09033203125
736.083984375
946.6552734375
1116.943359375
1254.2724609375
1329.345703125
1311.95068359375
1222.22900390625
1096.8017578125
883.48388671875
565.7958984375
311.279296875
120.849609375
-3.662109375
-59.50927734375
-86.0595703125
-91.552734375
-78.7353515625
-42.1142578125
-34.7900390625
-31.1279296875
-33.87451171875
-19.22607421875
-13.73291015625
-20.1416015625
-31.1279296875
-39.36767578125
-43.9453125
-57.67822265625
-57.67822265625
-58.59375
-54.01611328125
-58.59375
-61.34033203125
-59.50927734375
-61.34033203125
-71.4111328125
-69.580078125
-77.81982421875
-75.0732421875
-71.4111328125
-74.15771484375
-65.91796875
-67.7490234375
-60.4248046875
-62.255859375
-61.34033203125
-52.18505859375
-53.1005859375
-51.26953125
-53.1005859375
-55.84716796875
-50.35400390625
-54.01611328125
-50.35400390625
-52.18505859375
-44.86083984375
-46.69189453125
-48.52294921875
-42.1142578125
-42.1142578125
-37.53662109375
-27.4658203125
-28.38134765625
-23.8037109375
-23.8037109375
-18.310546875
-15.56396484375
-15.56396484375
-9.1552734375
-9.1552734375
-9.1552734375
1.8310546875
-0.91552734375
-5.4931640625
4.57763671875
11.90185546875
8.23974609375
21.97265625
34.7900390625
40.283203125
40.283203125
43.9453125
40.283203125
43.9453125
46.69189453125
53.1005859375
65.91796875
73.2421875
80.56640625
86.0595703125
95.21484375
102.5390625
112.60986328125
126.3427734375
134.58251953125
130.92041015625
140.9912109375
154.72412109375
164.794921875
164.794921875
175.78125
183.10546875
193.17626953125
198.66943359375
199.5849609375
203.2470703125
209.65576171875
216.064453125
216.97998046875
223.388671875
227.05078125
229.79736328125
227.05078125
227.05078125
224.30419921875
218.81103515625
216.97998046875
212.40234375
208.740234375
205.078125
196.83837890625
193.17626953125
180.35888671875
171.20361328125
154.72412109375
135.498046875
120.849609375
108.94775390625
88.80615234375
75.98876953125
59.50927734375
43.02978515625
36.62109375
17.39501953125
10.07080078125
7.32421875
-8.23974609375
-11.90185546875
-28.38134765625
-34.7900390625
-46.69189453125
-52.18505859375
-50.35400390625
-64.0869140625
-69.580078125
-72.32666015625
-78.7353515625
-84.228515625
-80.56640625
-83.31298828125
-93.3837890625
-97.0458984375
-91.552734375
-91.552734375
-94.29931640625
-93.3837890625
-101.62353515625
-106.201171875
-106.201171875
-99.79248046875
-97.96142578125
-96.13037109375
-106.201171875
-102.5390625
-108.94775390625
-108.94775390625
-101.62353515625
-104.3701171875
-104.3701171875
-111.6943359375
-110.77880859375
-104.3701171875
-105.28564453125
-97.96142578125
-103.45458984375
-99.79248046875
-102.5390625
-108.0322265625
-103.45458984375
-97.96142578125
-100.7080078125
-105.28564453125
-105.28564453125
-97.0458984375
-101.62353515625
-100.7080078125
-99.79248046875
-96.13037109375
-97.96142578125
-99.79248046875
-106.201171875
-96.13037109375
-89.7216796875
-93.3837890625
-94.29931640625
-95.21484375
-86.97509765625
-93.3837890625
-96.13037109375
-90.63720703125
-87.890625
-90.63720703125
-86.97509765625
-89.7216796875
-92.46826171875
-93.3837890625
-93.3837890625
-88.80615234375
-90.63720703125
-86.0595703125
-88.80615234375
-86.0595703125
-88.80615234375
-85.14404296875
-85.14404296875
-87.890625
-90.63720703125
-93.3837890625
-95.21484375
-89.7216796875
-90.63720703125
-89.7216796875
-82.3974609375
-84.228515625
-83.31298828125
-89.7216796875
-91.552734375
-88.80615234375
-90.63720703125
-95.21484375
-91.552734375
-88.80615234375
-91.552734375
-98.876953125
-97.0458984375
-99.79248046875
-98.876953125
-98.876953125
-100.7080078125
-98.876953125
-100.7080078125
-98.876953125
-102.5390625
-103.45458984375
-98.876953125
-97.96142578125
-106.201171875
-102.5390625
-102.5390625
-108.0322265625
-104.3701171875
-99.79248046875
-104.3701171875
-105.28564453125
-108.94775390625
-117.1875
-107.11669921875
-113.525390625
-107.11669921875
-109.86328125
-107.11669921875
-113.525390625
-113.525390625
-113.525390625
-114.44091796875
-116.27197265625
-116.27197265625
-115.3564453125
-118.10302734375
-118.10302734375
-117.1875
-119.0185546875
-116.27197265625
-115.3564453125
-113.525390625
-117.1875
-119.93408203125
-120.849609375
-120.849609375
-119.93408203125
-116.27197265625
-109.86328125
-119.93408203125
-112.60986328125
-116.27197265625
-118.10302734375
-116.27197265625
-116.27197265625
-116.27197265625
-111.6943359375
-119.0185546875
-117.1875
-115.3564453125
-118.10302734375
-121.76513671875
-119.93408203125
-121.76513671875
-118.10302734375
-119.93408203125
-118.10302734375
-107.11669921875
-104.3701171875
-101.62353515625
-102.5390625
-104.3701171875
-103.45458984375
-99.79248046875
-95.21484375
-83.31298828125
-80.56640625
-80.56640625
-74.15771484375
-75.98876953125
-80.56640625
-69.580078125
-69.580078125
-71.4111328125
-75.98876953125
-72.32666015625
-62.255859375
-64.0869140625
-65.00244140625
-52.18505859375
-47.607421875
-42.1142578125
-45.7763671875
-50.35400390625
-55.84716796875
-64.0869140625
-71.4111328125
-72.32666015625
-68.66455078125
-65.91796875
-59.50927734375
-63.17138671875
-70.49560546875
-75.0732421875
-89.7216796875
-90.63720703125
-95.21484375
-97.96142578125
-98.876953125
-106.201171875
-115.3564453125
-119.93408203125
-117.1875
-120.849609375
-117.1875
-117.1875
-126.3427734375
-136.41357421875
-130.0048828125
-124.51171875
-127.25830078125
-129.08935546875
-131.8359375
-131.8359375
-132.75146484375
-126.3427734375
-128.173828125
-127.25830078125
-125.42724609375
-124.51171875
-125.42724609375
-121.76513671875
-129.08935546875
-130.0048828125
-127.25830078125
-131.8359375
-127.25830078125
-125.42724609375
-127.25830078125
-121.76513671875
-123.59619140625
-130.0048828125
-131.8359375
-141.90673828125
-154.72412109375
-162.9638671875
-150.146484375
-116.27197265625
-76.904296875
-33.87451171875
7.32421875
60.4248046875
141.90673828125
276.4892578125
445.86181640625
640.869140625
850.52490234375
1035.46142578125
1189.27001953125
1302.79541015625
1333.92333984375
1258.85009765625
1124.267578125
969.54345703125
703.125
410.15625
162.9638671875
-1.8310546875
-91.552734375
-128.173828125
-119.0185546875
-84.228515625
-43.9453125
-16.4794921875
-10.07080078125
-14.6484375
-3.662109375
-0.91552734375
-1.8310546875
-12.8173828125
-19.22607421875
-29.296875
-40.283203125
-40.283203125
-45.7763671875
-49.4384765625
-48.52294921875
-48.52294921875
-54.931640625
-53.1005859375
-54.01611328125
-56.7626953125
-59.50927734375
-65.00244140625
-66.83349609375
-65.00244140625
-53.1005859375
-53.1005859375
-55.84716796875
-52.18505859375
-51.26953125
-58.59375
-54.01611328125
-54.01611328125
-49.4384765625
-48.52294921875
-47.607421875
-47.607421875
-38.4521484375
-37.53662109375
-39.36767578125
-35.70556640625
-31.1279296875
-31.1279296875
-30.21240234375
-28.38134765625
-22.88818359375
-21.05712890625
-18.310546875
-13.73291015625
-6.40869140625
-10.07080078125
-2.74658203125
-5.4931640625
0.91552734375
10.07080078125
3.662109375
7.32421875
15.56396484375
20.1416015625
19.22607421875
23.8037109375
30.21240234375
27.4658203125
32.958984375
43.9453125
52.18505859375
54.931640625
61.34033203125
63.17138671875
74.15771484375
74.15771484375
78.7353515625
91.552734375
102.5390625
111.6943359375
121.76513671875
126.3427734375
133.6669921875
140.9912109375
151.06201171875
155.6396484375
164.794921875
170.2880859375
185.85205078125
194.091796875
194.091796875
205.078125
218.81103515625
224.30419921875
227.96630859375
236.2060546875
242.61474609375
246.27685546875
243.5302734375
247.1923828125
251.77001953125
257.26318359375
256.34765625
257.26318359375
260.92529296875
253.60107421875
251.77001953125
249.0234375
238.037109375
227.05078125
221.5576171875
208.740234375
187.68310546875
177.6123046875
163.87939453125
150.146484375
132.75146484375
114.44091796875
108.0322265625
94.29931640625
75.98876953125
57.67822265625
47.607421875
34.7900390625
30.21240234375
15.56396484375
0.91552734375
-5.4931640625
-16.4794921875
-24.71923828125
-29.296875
-37.53662109375
-43.02978515625
-53.1005859375
-54.01611328125
-59.50927734375
-68.66455078125
-65.91796875
-72.32666015625
-80.56640625
-77.81982421875
-75.98876953125
-75.0732421875
-73.2421875
-75.0732421875
-75.98876953125
-81.48193359375
-81.48193359375
-81.48193359375
-94.29931640625
-93.3837890625
-78.7353515625
-87.890625
-89.7216796875
-83.31298828125
-87.890625
-87.890625
-86.0595703125
-86.97509765625
-86.97509765625
-83.31298828125
-87.890625
-90.63720703125
-83.31298828125
-81.48193359375
-80.56640625
-82.3974609375
-86.0595703125
-82.3974609375
-83.31298828125
-80.56640625
-86.97509765625
-82.3974609375
-82.3974609375
-84.228515625
-85.14404296875
-86.0595703125
-83.31298828125
-77.81982421875
-79.65087890625
-79.65087890625
-75.0732421875
-74.15771484375
-78.7353515625
-74.15771484375
-77.81982421875
-84.228515625
-84.228515625
-80.56640625
-80.56640625
-77.81982421875
-76.904296875
-70.49560546875
-74.15771484375
-73.2421875
-75.0732421875
-75.0732421875
-75.0732421875
-75.98876953125
-76.904296875
-72.32666015625
-65.91796875
-67.7490234375
-69.580078125
-75.0732421875
-77.81982421875
-73.2421875
-75.0732421875
-74.15771484375
-73.2421875
-74.15771484375
-69.580078125
-71.4111328125
-71.4111328125
-69.580078125
-76.904296875
-83.31298828125
-86.97509765625
-75.0732421875
-74.15771484375
-76.904296875
-72.32666015625
-76.904296875
-73.2421875
-73.2421875
-81.48193359375
-82.3974609375
-80.56640625
-83.31298828125
-81.48193359375
-84.228515625
-90.63720703125
-86.97509765625
-86.97509765625
-85.14404296875
-82.3974609375
-88.80615234375
-88.80615234375
-93.3837890625
-82.3974609375
-83.31298828125
-87.890625
-90.63720703125
-92.46826171875
-91.552734375
-99.79248046875
-95.21484375
-92.46826171875
-95.21484375
-92.46826171875
-94.29931640625
-93.3837890625
-91.552734375
-92.46826171875
-97.0458984375
-100.7080078125
-99.79248046875
-102.5390625
-99.79248046875
-102.5390625
-100.7080078125
-100.7080078125
-103.45458984375
-95.21484375
-86.97509765625
-86.0595703125
-90.63720703125
-99.79248046875
-99.79248046875
-102.5390625
-105.28564453125
-117.1875
-119.93408203125
-133.6669921875
-140.07568359375
-145.56884765625
-151.9775390625
-162.04833984375
-162.04833984375
-163.87939453125
-151.06201171875
-130.0048828125
-108.0322265625
-83.31298828125
-70.49560546875
-74.15771484375
-79.65087890625
-96.13037109375
-106.201171875
-112.60986328125
-117.1875
-116.27197265625
-112.60986328125
-87.890625
-67.7490234375
-66.83349609375
-72.32666015625
-79.65087890625
-85.14404296875
-86.97509765625
-95.21484375
-96.13037109375
-93.3837890625
-91.552734375
-86.97509765625
-91.552734375
-86.97509765625
-95.21484375
-91.552734375
-89.7216796875
-84.228515625
-85.14404296875
-76.904296875
-59.50927734375
-59.50927734375
-52.18505859375
-48.52294921875
-45.7763671875
-43.9453125
-44.86083984375
-46.69189453125
-42.1142578125
-42.1142578125
-34.7900390625
-37.53662109375
-33.87451171875
-38.4521484375
-29.296875
-24.71923828125
-34.7900390625
-33.87451171875
-41.19873046875
-59.50927734375
-61.34033203125
-60.4248046875
-56.7626953125
-52.18505859375
-52.18505859375
-58.59375
-71.4111328125
-83.31298828125
-83.31298828125
-65.00244140625
-63.17138671875
-81.48193359375
-94.29931640625
-104.3701171875
-117.1875
-120.849609375
-108.94775390625
-101.62353515625
-99.79248046875
-107.11669921875
-110.77880859375
-117.1875
-117.1875
-127.25830078125
-137.3291015625
-134.58251953125
-121.76513671875
-109.86328125
-98.876953125
-97.96142578125
-105.28564453125
-107.11669921875
-108.94775390625
-105.28564453125
-106.201171875
-104.3701171875
-105.28564453125
-115.3564453125
-108.0322265625
-108.94775390625
-108.0322265625
-98.876953125
-109.86328125
-109.86328125
-107.11669921875
-114.44091796875
-124.51171875
-130.92041015625
-133.6669921875
-131.8359375
-118.10302734375
-72.32666015625
-37.53662109375
-7.32421875
45.7763671875
128.173828125
249.0234375
423.88916015625
616.14990234375
823.05908203125
1018.06640625
1199.3408203125
1328.43017578125
1412.65869140625
1368.71337890625
1235.9619140625
1094.970703125
854.18701171875
540.1611328125
245.361328125
47.607421875
-81.48193359375
-134.58251953125
-128.173828125
-86.0595703125
-33.87451171875
8.23974609375
42.1142578125
45.7763671875
49.4384765625
42.1142578125
25.634765625
5.4931640625
-10.07080078125
-37.53662109375
-46.69189453125
-53.1005859375
-56.7626953125
-45.7763671875
-38.4521484375
-23.8037109375
-10.07080078125
-24.71923828125
-39.36767578125
-32.958984375
-38.4521484375
-43.02978515625
-38.4521484375
-33.87451171875
-30.21240234375
-42.1142578125
-36.62109375
-41.19873046875
-44.86083984375
-38.4521484375
-28.38134765625
-25.634765625
-29.296875
-29.296875
-26.55029296875
-18.310546875
-34.7900390625
-38.4521484375
-28.38134765625
-21.97265625
-22.88818359375
-17.39501953125
-8.23974609375
0.91552734375
-15.56396484375
-28.38134765625
-16.4794921875
-17.39501953125
-29.296875
-43.9453125
-35.70556640625
-1.8310546875
30.21240234375
37.53662109375
43.9453125
50.35400390625
54.931640625
46.69189453125
50.35400390625
44.86083984375
51.26953125
50.35400390625
59.50927734375
62.255859375
58.59375
69.580078125
76.904296875
81.48193359375
83.31298828125
86.97509765625
99.79248046875
102.5390625
108.0322265625
118.10302734375
128.173828125
140.9912109375
154.72412109375
161.1328125
157.470703125
151.06201171875
145.56884765625
149.23095703125
168.45703125
210.5712890625
224.30419921875
238.037109375
257.26318359375
252.685546875
257.26318359375
262.75634765625
261.8408203125
263.671875
272.8271484375
271.91162109375
272.8271484375
274.658203125
277.40478515625
273.74267578125
272.8271484375
276.4892578125
266.41845703125
265.5029296875
263.671875
257.26318359375
249.93896484375
244.44580078125
226.13525390625
215.14892578125
200.50048828125
184.9365234375
165.71044921875
150.146484375
139.16015625
130.0048828125
117.1875
106.201171875
86.97509765625
68.66455078125
53.1005859375
32.04345703125
12.8173828125
6.40869140625
-3.662109375
-7.32421875
-10.986328125
-16.4794921875
-22.88818359375
-32.04345703125
-37.53662109375
-44.86083984375
-54.01611328125
-61.34033203125
-65.91796875
-63.17138671875
-69.580078125
-64.0869140625
-65.00244140625
-65.91796875
-75.98876953125
-77.81982421875
-75.0732421875
-73.2421875
-69.580078125
-67.7490234375
-71.4111328125
-72.32666015625
-75.98876953125
-75.0732421875
-73.2421875
-71.4111328125
-69.580078125
-72.32666015625
-75.98876953125
-74.15771484375
-69.580078125
-71.4111328125
-69.580078125
-68.66455078125
-70.49560546875
-81.48193359375
-81.48193359375
-75.98876953125
-75.98876953125
-75.0732421875
-74.15771484375
-72.32666015625
-73.2421875
-63.17138671875
-74.15771484375
-81.48193359375
-79.65087890625
-79.65087890625
-67.7490234375
-56.7626953125
-58.59375
-62.255859375
-68.66455078125
-67.7490234375
-73.2421875
-75.98876953125
-75.98876953125
-75.0732421875
-65.91796875
-62.255859375
-64.0869140625
-61.34033203125
-65.00244140625
-62.255859375
-54.01611328125
-54.931640625
-63.17138671875
-64.0869140625
-58.59375
-63.17138671875
-63.17138671875
-60.4248046875
-59.50927734375
-54.01611328125
-63.17138671875
-62.255859375
-57.67822265625
-64.0869140625
-75.0732421875
-71.4111328125
-73.2421875
-72.32666015625
-75.0732421875
-76.904296875
-66.83349609375
-58.59375
-62.255859375
-64.0869140625
-78.7353515625
-82.3974609375
-81.48193359375
-87.890625
-82.3974609375
-74.15771484375
-69.580078125
-78.7353515625
-74.15771484375
-66.83349609375
-80.56640625
-93.3837890625
-91.552734375
-86.97509765625
-91.552734375
-84.228515625
-84.228515625
-78.7353515625
-74.15771484375
-75.0732421875
-78.7353515625
-81.48193359375
-78.7353515625
-78.7353515625
-79.65087890625
-75.98876953125
-81.48193359375
-82.3974609375
-77.81982421875
-88.80615234375
-86.97509765625
-85.14404296875
-76.904296875
-77.81982421875
-79.65087890625
-82.3974609375
-87.890625
-96.13037109375
-97.96142578125
-96.13037109375
-92.46826171875
-87.890625
-97.0458984375
-94.29931640625
-106.201171875
-119.93408203125
-122.6806640625
-127.25830078125
-119.93408203125
-105.28564453125
-96.13037109375
-93.3837890625
-104.3701171875
-108.94775390625
-108.94775390625
-108.94775390625
-106.201171875
-110.77880859375
-120.849609375
-117.1875
-122.6806640625
-112.60986328125
-94.29931640625
-92.46826171875
-93.3837890625
-97.0458984375
-100.7080078125
-103.45458984375
-96.13037109375
-81.48193359375
-68.66455078125
-72.32666015625
-83.31298828125
-83.31298828125
-86.97509765625
-94.29931640625
-97.0458984375
-99.79248046875
-95.21484375
-91.552734375
-91.552734375
-90.63720703125
-100.7080078125
-100.7080078125
-96.13037109375
-95.21484375
-98.876953125
-100.7080078125
-98.876953125
-87.890625
-91.552734375
-85.14404296875
-75.0732421875
-75.98876953125
-72.32666015625
-75.0732421875
-80.56640625
-86.0595703125
-80.56640625
-79.65087890625
-54.931640625
-44.86083984375
-47.607421875
-46.69189453125
-53.1005859375
-49.4384765625
-42.1142578125
-34.7900390625
-37.53662109375
-49.4384765625
-42.1142578125
-32.04345703125
-35.70556640625
-29.296875
-32.958984375
-30.21240234375
-32.958984375
-30.21240234375
-42.1142578125
-53.1005859375
-59.50927734375
-58.59375
-52.18505859375
-43.9453125
-43.02978515625
-37.53662109375
-58.59375
-64.0869140625
-69.580078125
-78.7353515625
-86.97509765625
-97.0458984375
-97.96142578125
-102.5390625
-97.0458984375
-88.80615234375
-94.29931640625
-108.94775390625
-108.0322265625
-110.77880859375
-116.27197265625
-111.6943359375
-105.28564453125
-108.94775390625
-111.6943359375
-114.44091796875
-110.77880859375
-112.60986328125
-108.94775390625
-107.11669921875
-102.5390625
-113.525390625
-108.0322265625
-103.45458984375
-112.60986328125
-111.6943359375
-113.525390625
-115.3564453125
-119.93408203125
-104.3701171875
-101.62353515625
-103.45458984375
-98.876953125
-99.79248046875
-106.201171875
-101.62353515625
-110.77880859375
-130.92041015625
-134.58251953125
-131.8359375
-106.201171875
-68.66455078125
-27.4658203125
20.1416015625
66.83349609375
123.59619140625
227.05078125
384.521484375
557.55615234375
760.80322265625
956.72607421875
1126.0986328125
1246.03271484375
1332.09228515625
1328.43017578125
1240.53955078125
1104.1259765625
899.96337890625
588.68408203125
309.4482421875
105.28564453125
-13.73291015625
-76.904296875
-88.80615234375
-62.255859375
-30.21240234375
-7.32421875
8.23974609375
14.6484375
15.56396484375
23.8037109375
22.88818359375
18.310546875
4.57763671875
-9.1552734375
-24.71923828125
-30.21240234375
-29.296875
-18.310546875
-11.90185546875
-25.634765625
-30.21240234375
-24.71923828125
-36.62109375
-33.87451171875
-35.70556640625
-41.19873046875
-41.19873046875
-44.86083984375
-40.283203125
-34.7900390625
-32.04345703125
-32.04345703125
-31.1279296875
-28.38134765625
-26.55029296875
-24.71923828125
-32.958984375
-25.634765625
-21.97265625
-15.56396484375
-19.22607421875
-15.56396484375
-16.4794921875
-14.6484375
-14.6484375
-10.07080078125
-8.23974609375
-8.23974609375
-1.8310546875
4.57763671875
10.07080078125
2.74658203125
10.986328125
13.73291015625
18.310546875
23.8037109375
19.22607421875
18.310546875
22.88818359375
29.296875
35.70556640625
29.296875
37.53662109375
44.86083984375
45.7763671875
46.69189453125
51.26953125
60.4248046875
67.7490234375
76.904296875
75.0732421875
82.3974609375
87.890625
95.21484375
90.63720703125
106.201171875
100.7080078125
114.44091796875
130.92041015625
137.3291015625
135.498046875
147.39990234375
154.72412109375
163.87939453125
172.119140625
171.20361328125
175.78125
195.00732421875
194.091796875
203.2470703125
212.40234375
223.388671875
220.64208984375
227.96630859375
240.78369140625
250.8544921875
246.27685546875
256.34765625
264.58740234375
262.75634765625
253.60107421875
261.8408203125
258.1787109375
259.09423828125
259.09423828125
256.34765625
251.77001953125
242.61474609375
227.05078125
218.81103515625
209.65576171875
190.4296875
181.2744140625
175.78125
159.3017578125
140.9912109375
115.3564453125
118.10302734375
97.96142578125
93.3837890625
80.56640625
65.91796875
54.01611328125
38.4521484375
27.4658203125
7.32421875
-2.74658203125
-15.56396484375
-21.05712890625
-28.38134765625
-33.87451171875
-33.87451171875
-34.7900390625
-43.02978515625
-55.84716796875
-55.84716796875
-59.50927734375
-67.7490234375
-73.2421875
-72.32666015625
-75.0732421875
-69.580078125
-70.49560546875
-69.580078125
-63.17138671875
-64.0869140625
-73.2421875
-78.7353515625
-81.48193359375
-76.904296875
-86.0595703125
-85.14404296875
-81.48193359375
-79.65087890625
-86.97509765625
-83.31298828125
-79.65087890625
-83.31298828125
-77.81982421875
-85.14404296875
-84.228515625
-86.0595703125
-88.80615234375
-80.56640625
-80.56640625
-89.7216796875
-86.0595703125
-86.97509765625
-89.7216796875
-83.31298828125
-81.48193359375
-72.32666015625
-75.98876953125
-79.65087890625
-66.83349609375
-73.2421875
-78.7353515625
-75.98876953125
-74.15771484375
-77.81982421875
-82.3974609375
-80.56640625
-79.65087890625
-74.15771484375
-70.49560546875
-78.7353515625
-88.80615234375
-79.65087890625
-75.0732421875
-68.66455078125
-67.7490234375
-68.66455078125
-69.580078125
-70.49560546875
-73.2421875
-71.4111328125
-75.0732421875
-81.48193359375
-76.904296875
-74.15771484375
-75.0732421875
-80.56640625
