ECG
-200.50048828125
-200.50048828125
-207.82470703125
-213.31787109375
-216.97998046875
-205.99365234375
-211.48681640625
-213.31787109375
-208.740234375
-200.50048828125
-198.66943359375
-196.83837890625
-197.75390625
-195.9228515625
-209.65576171875
-206.9091796875
-218.81103515625
-200.50048828125
-193.17626953125
-193.17626953125
-192.2607421875
-195.9228515625
-205.99365234375
-203.2470703125
-199.5849609375
-197.75390625
-191.34521484375
-185.85205078125
-186.767578125
-189.51416015625
-191.34521484375
-194.091796875
-195.9228515625
-190.4296875
-189.51416015625
-185.85205078125
-184.9365234375
-187.68310546875
-183.10546875
-178.52783203125
-188.5986328125
-185.85205078125
-185.85205078125
-183.10546875
-193.17626953125
-186.767578125
-179.443359375
-173.9501953125
-176.69677734375
-181.2744140625
-184.9365234375
-183.10546875
-183.10546875
-195.00732421875
-203.2470703125
-199.5849609375
-196.83837890625
-194.091796875
-188.5986328125
-191.34521484375
-196.83837890625
-195.00732421875
-192.2607421875
-200.50048828125
-203.2470703125
-202.33154296875
-184.02099609375
-187.68310546875
-196.83837890625
-187.68310546875
-194.091796875
-196.83837890625
-185.85205078125
-176.69677734375
-177.6123046875
-169.37255859375
-172.119140625
-177.6123046875
-173.03466796875
-168.45703125
-165.71044921875
-161.1328125
-168.45703125
-170.2880859375
-154.72412109375
-151.9775390625
-159.3017578125
-167.54150390625
-169.37255859375
-163.87939453125
-163.87939453125
-167.54150390625
-166.6259765625
-162.9638671875
-166.6259765625
-173.03466796875
-171.20361328125
-175.78125
-176.69677734375
-171.20361328125
-164.794921875
-165.71044921875
-163.87939453125
-163.87939453125
-157.470703125
-156.55517578125
-165.71044921875
-157.470703125
-155.6396484375
-142.822265625
-154.72412109375
-157.470703125
-153.80859375
-146.484375
-140.9912109375
-141.90673828125
-148.3154296875
-147.39990234375
-144.6533203125
-136.41357421875
-143.73779296875
-144.6533203125
-140.07568359375
-137.3291015625
-129.08935546875
-135.498046875
-145.56884765625
-152.89306640625
-150.146484375
-147.39990234375
-138.24462890625
-128.173828125
-134.58251953125
-142.822265625
-130.0048828125
-133.6669921875
-145.56884765625
-147.39990234375
-154.72412109375
-148.3154296875
-146.484375
-155.6396484375
-131.8359375
-116.27197265625
-123.59619140625
-112.60986328125
-98.876953125
-82.3974609375
-69.580078125
-75.0732421875
-76.904296875
-58.59375
-52.18505859375
-57.67822265625
-43.9453125
-26.55029296875
-24.71923828125
-18.310546875
-10.07080078125
-13.73291015625
-17.39501953125
-14.6484375
-23.8037109375
-22.88818359375
-32.04345703125
-45.7763671875
-74.15771484375
-74.15771484375
-102.5390625
-109.86328125
-128.173828125
-140.9912109375
-151.9775390625
-160.21728515625
-158.38623046875
-152.89306640625
-171.20361328125
-186.767578125
-193.17626953125
-185.85205078125
-188.5986328125
-192.2607421875
-189.51416015625
-188.5986328125
-215.14892578125
-226.13525390625
-234.375
-217.8955078125
-195.9228515625
-212.40234375
-210.5712890625
-214.2333984375
-218.81103515625
-225.2197265625
-221.5576171875
-227.05078125
-220.64208984375
-213.31787109375
-215.14892578125
-227.96630859375
-248.10791015625
-264.58740234375
-281.06689453125
-278.3203125
-282.89794921875
-268.24951171875
-216.97998046875
-142.822265625
-27.4658203125
101.62353515625
287.4755859375
453.18603515625
585.9375
720.52001953125
835.87646484375
891.7236328125
899.0478515625
790.10009765625
537.41455078125
314.94140625
140.07568359375
-19.22607421875
-102.5390625
-165.71044921875
-213.31787109375
-260.009765625
-276.4892578125
-284.72900390625
-280.1513671875
-270.99609375
-244.44580078125
-229.79736328125
-214.2333984375
-236.2060546875
-226.13525390625
-232.5439453125
-235.29052734375
-231.62841796875
-238.95263671875
-248.10791015625
-234.375
-239.8681640625
-239.8681640625
-236.2060546875
-231.62841796875
-243.5302734375
-245.361328125
-233.45947265625
-226.13525390625
-233.45947265625
-237.12158203125
-249.0234375
-237.12158203125
-241.69921875
-243.5302734375
-231.62841796875
-248.10791015625
-240.78369140625
-236.2060546875
-249.93896484375
-244.44580078125
-244.44580078125
-241.69921875
-242.61474609375
-238.95263671875
-239.8681640625
-239.8681640625
-233.45947265625
-235.29052734375
-238.95263671875
-230.712890625
-241.69921875
-224.30419921875
-205.99365234375
-238.95263671875
-250.8544921875
-239.8681640625
-248.10791015625
-251.77001953125
-241.69921875
-244.44580078125
-254.5166015625
-248.10791015625
-226.13525390625
-236.2060546875
-238.95263671875
-249.93896484375
-222.47314453125
-228.8818359375
-242.61474609375
-227.96630859375
-232.5439453125
-243.5302734375
-253.60107421875
-235.29052734375
-240.78369140625
-235.29052734375
-240.78369140625
-242.61474609375
-240.78369140625
-227.05078125
-237.12158203125
-249.93896484375
-244.44580078125
-247.1923828125
-253.60107421875
-238.95263671875
-253.60107421875
-255.43212890625
-247.1923828125
-257.26318359375
-255.43212890625
-250.8544921875
-257.26318359375
-261.8408203125
-260.009765625
-235.29052734375
-246.27685546875
-246.27685546875
-246.27685546875
-257.26318359375
-257.26318359375
-248.10791015625
-272.8271484375
-260.92529296875
-244.44580078125
-246.27685546875
-244.44580078125
-263.671875
-249.93896484375
-238.95263671875
-246.27685546875
-239.8681640625
-238.95263671875
-234.375
-238.037109375
-236.2060546875
-234.375
-238.95263671875
-236.2060546875
-227.96630859375
-216.97998046875
-229.79736328125
-230.712890625
-239.8681640625
-239.8681640625
-239.8681640625
-240.78369140625
-238.95263671875
-220.64208984375
-235.29052734375
-235.29052734375
-236.2060546875
-230.712890625
-236.2060546875
-230.712890625
-231.62841796875
-225.2197265625
-238.037109375
-236.2060546875
-240.78369140625
-238.037109375
-228.8818359375
-221.5576171875
-226.13525390625
-228.8818359375
-237.12158203125
-224.30419921875
-211.48681640625
-207.82470703125
-217.8955078125
-225.2197265625
-230.712890625
-225.2197265625
-215.14892578125
-204.16259765625
-208.740234375
-215.14892578125
-213.31787109375
-205.078125
-205.99365234375
-210.5712890625
-197.75390625
-195.00732421875
-201.416015625
-203.2470703125
-203.2470703125
-208.740234375
-209.65576171875
-205.99365234375
-210.5712890625
-214.2333984375
-213.31787109375
-216.064453125
-211.48681640625
-213.31787109375
-185.85205078125
-175.78125
-179.443359375
-162.9638671875
-146.484375
-123.59619140625
-134.58251953125
-138.24462890625
-137.3291015625
-130.92041015625
-119.0185546875
-104.3701171875
-92.46826171875
-81.48193359375
-94.29931640625
-83.31298828125
-85.14404296875
-84.228515625
-108.0322265625
-96.13037109375
-108.0322265625
-119.93408203125
-116.27197265625
-120.849609375
-130.92041015625
-137.3291015625
-156.55517578125
-180.35888671875
-204.16259765625
-205.99365234375
-205.078125
-215.14892578125
-228.8818359375
-227.96630859375
-239.8681640625
-249.93896484375
-249.0234375
-253.60107421875
-276.4892578125
-276.4892578125
-276.4892578125
-272.8271484375
-275.57373046875
-279.23583984375
-278.3203125
-269.1650390625
-278.3203125
-281.982421875
-275.57373046875
-273.74267578125
-271.91162109375
-272.8271484375
-279.23583984375
-275.57373046875
-279.23583984375
-280.1513671875
-293.88427734375
-315.85693359375
-336.9140625
-351.5625
-350.64697265625
-336.9140625
-317.68798828125
-281.982421875
-229.79736328125
-136.41357421875
-20.1416015625
140.9912109375
312.19482421875
473.32763671875
592.34619140625
699.462890625
781.8603515625
827.63671875
768.12744140625
558.4716796875
325.927734375
130.92041015625
-32.958984375
-139.16015625
-207.82470703125
-248.10791015625
-293.88427734375
-318.603515625
-328.67431640625
-357.97119140625
-346.0693359375
-323.18115234375
-307.6171875
-303.03955078125
-301.20849609375
-299.37744140625
-305.7861328125
-288.39111328125
-296.630859375
-284.72900390625
-300.29296875
-292.05322265625
-300.29296875
-314.94140625
-312.19482421875
-307.6171875
-299.37744140625
-306.70166015625
-308.53271484375
-307.6171875
-302.1240234375
-315.85693359375
-316.7724609375
-314.02587890625
-303.03955078125
-295.71533203125
-297.54638671875
-299.37744140625
-296.630859375
-303.955078125
-316.7724609375
-304.87060546875
-292.05322265625
-291.1376953125
-286.56005859375
-299.37744140625
-303.03955078125
-308.53271484375
-299.37744140625
-286.56005859375
-283.8134765625
-298.4619140625
-295.71533203125
-286.56005859375
-299.37744140625
-299.37744140625
-306.70166015625
-299.37744140625
-290.22216796875
-296.630859375
-296.630859375
-305.7861328125
-300.29296875
-292.96875
-301.20849609375
-294.7998046875
-282.89794921875
-284.72900390625
-281.06689453125
-303.03955078125
-295.71533203125
-283.8134765625
-280.1513671875
-282.89794921875
-283.8134765625
-269.1650390625
-281.06689453125
-277.40478515625
-288.39111328125
-275.57373046875
-273.74267578125
-280.1513671875
-289.306640625
-293.88427734375
-283.8134765625
-296.630859375
-292.96875
-293.88427734375
-289.306640625
-291.1376953125
-288.39111328125
-287.4755859375
-291.1376953125
-296.630859375
-302.1240234375
-301.20849609375
-296.630859375
-290.22216796875
-291.1376953125
-301.20849609375
-303.955078125
-303.955078125
-294.7998046875
-293.88427734375
-303.955078125
-301.20849609375
-294.7998046875
-298.4619140625
-302.1240234375
-298.4619140625
-288.39111328125
-286.56005859375
-303.03955078125
-282.89794921875
-253.60107421875
-260.009765625
-270.99609375
-278.3203125
-277.40478515625
-279.23583984375
-286.56005859375
-286.56005859375
-287.4755859375
-286.56005859375
-286.56005859375
-286.56005859375
-281.982421875
-270.08056640625
-273.74267578125
-278.3203125
-270.99609375
-276.4892578125
-281.982421875
-276.4892578125
-281.982421875
-281.982421875
-280.1513671875
-286.56005859375
-274.658203125
-258.1787109375
-268.24951171875
-279.23583984375
-263.671875
-276.4892578125
-280.1513671875
-272.8271484375
-257.26318359375
-249.93896484375
-261.8408203125
-260.92529296875
-253.60107421875
-250.8544921875
-255.43212890625
-254.5166015625
-247.1923828125
-243.5302734375
-247.1923828125
-247.1923828125
-235.29052734375
-225.2197265625
-231.62841796875
-237.12158203125
-229.79736328125
-231.62841796875
-222.47314453125
-227.96630859375
-234.375
-232.5439453125
-224.30419921875
-209.65576171875
-218.81103515625
-224.30419921875
-226.13525390625
-232.5439453125
-232.5439453125
-220.64208984375
-214.2333984375
-199.5849609375
-184.9365234375
-172.119140625
-153.80859375
-157.470703125
-152.89306640625
-147.39990234375
-151.06201171875
-138.24462890625
-125.42724609375
-114.44091796875
-98.876953125
-95.21484375
-91.552734375
-86.0595703125
-91.552734375
-97.0458984375
-102.5390625
-115.3564453125
-111.6943359375
-115.3564453125
-119.93408203125
-130.92041015625
-144.6533203125
-145.56884765625
-156.55517578125
-184.02099609375
-187.68310546875
-202.33154296875
-221.5576171875
-216.97998046875
-217.8955078125
-223.388671875
-225.2197265625
-237.12158203125
-245.361328125
-254.5166015625
-250.8544921875
-258.1787109375
-272.8271484375
-277.40478515625
-278.3203125
-271.91162109375
-260.92529296875
-274.658203125
-286.56005859375
-286.56005859375
-288.39111328125
-289.306640625
-295.71533203125
-292.05322265625
-286.56005859375
-274.658203125
-278.3203125
-290.22216796875
-295.71533203125
-310.36376953125
-334.16748046875
-352.47802734375
-359.80224609375
-352.47802734375
-339.66064453125
-305.7861328125
-260.009765625
-179.443359375
-54.931640625
90.63720703125
270.99609375
415.6494140625
558.4716796875
674.74365234375
758.97216796875
816.650390625
812.07275390625
667.41943359375
429.38232421875
227.96630859375
41.19873046875
-105.28564453125
-194.091796875
-242.61474609375
-281.982421875
-307.6171875
-322.265625
-317.68798828125
-316.7724609375
-306.70166015625
-291.1376953125
-285.64453125
-277.40478515625
-281.06689453125
-282.89794921875
-271.91162109375
-278.3203125
-270.08056640625
-276.4892578125
-273.74267578125
-279.23583984375
-281.982421875
-280.1513671875
-276.4892578125
-282.89794921875
-271.91162109375
-279.23583984375
-276.4892578125
-272.8271484375
-280.1513671875
-283.8134765625
-286.56005859375
-288.39111328125
-276.4892578125
-280.1513671875
-282.89794921875
-280.1513671875
-278.3203125
-275.57373046875
-279.23583984375
-282.89794921875
-277.40478515625
-270.08056640625
-249.93896484375
-260.92529296875
-267.333984375
-271.91162109375
-256.34765625
-266.41845703125
-266.41845703125
-260.009765625
-265.5029296875
-263.671875
-271.91162109375
-270.99609375
-268.24951171875
-268.24951171875
-271.91162109375
-265.5029296875
-255.43212890625
-248.10791015625
-251.77001953125
-257.26318359375
-260.009765625
-245.361328125
-252.685546875
-263.671875
-251.77001953125
-243.5302734375
-249.93896484375
-247.1923828125
-238.95263671875
-241.69921875
-245.361328125
-249.93896484375
-241.69921875
-243.5302734375
-235.29052734375
-251.77001953125
-246.27685546875
-240.78369140625
-237.12158203125
-243.5302734375
-246.27685546875
-249.0234375
-249.0234375
-238.95263671875
-250.8544921875
-251.77001953125
-244.44580078125
-236.2060546875
-233.45947265625
-240.78369140625
-239.8681640625
-257.26318359375
-247.1923828125
-256.34765625
-262.75634765625
-249.0234375
-239.8681640625
-234.375
-246.27685546875
-257.26318359375
-257.26318359375
-258.1787109375
-249.0234375
-242.61474609375
-249.93896484375
-251.77001953125
-240.78369140625
-240.78369140625
-240.78369140625
-230.712890625
-225.2197265625
-232.5439453125
-222.47314453125
-213.31787109375
-219.7265625
-223.388671875
-220.64208984375
-219.7265625
-219.7265625
-225.2197265625
-228.8818359375
-226.13525390625
-226.13525390625
-219.7265625
-221.5576171875
-212.40234375
-211.48681640625
-216.064453125
-225.2197265625
-214.2333984375
-223.388671875
-225.2197265625
-231.62841796875
-232.5439453125
-234.375
-234.375
-231.62841796875
-227.05078125
-220.64208984375
-210.5712890625
-205.078125
-201.416015625
-194.091796875
-202.33154296875
-212.40234375
-212.40234375
-221.5576171875
-218.81103515625
-226.13525390625
-238.037109375
-224.30419921875
-220.64208984375
-213.31787109375
-205.99365234375
-206.9091796875
-200.50048828125
-193.17626953125
-194.091796875
-192.2607421875
-203.2470703125
-211.48681640625
-216.064453125
-218.81103515625
-209.65576171875
-204.16259765625
-201.416015625
-192.2607421875
-195.00732421875
-198.66943359375
-208.740234375
-195.9228515625
-181.2744140625
-164.794921875
-151.06201171875
-143.73779296875
-134.58251953125
-129.08935546875
-107.11669921875
-109.86328125
-113.525390625
-89.7216796875
-86.0595703125
-84.228515625
-60.4248046875
-38.4521484375
-24.71923828125
-32.958984375
-32.958984375
-49.4384765625
-53.1005859375
-66.83349609375
-75.98876953125
-74.15771484375
-84.228515625
-94.29931640625
-97.96142578125
-109.86328125
-125.42724609375
-140.07568359375
-151.9775390625
-162.9638671875
-177.6123046875
-188.5986328125
-196.83837890625
-201.416015625
-211.48681640625
-206.9091796875
-222.47314453125
-232.5439453125
-224.30419921875
-236.2060546875
-231.62841796875
-232.5439453125
-237.12158203125
-229.79736328125
-229.79736328125
-230.712890625
-228.8818359375
-234.375
-238.95263671875
-244.44580078125
-238.037109375
-239.8681640625
-242.61474609375
-238.037109375
-232.5439453125
-237.12158203125
-252.685546875
-277.40478515625
-303.955078125
-318.603515625
-316.7724609375
-303.03955078125
-285.64453125
-250.8544921875
-192.2607421875
-98.876953125
35.70556640625
192.2607421875
377.197265625
522.76611328125
657.3486328125
791.015625
861.51123046875
905.45654296875
873.4130859375
689.39208984375
440.36865234375
244.44580078125
54.01611328125
-74.15771484375
-158.38623046875
-204.16259765625
-254.5166015625
-278.3203125
-277.40478515625
-279.23583984375
-273.74267578125
-251.77001953125
-233.45947265625
-228.8818359375
-219.7265625
-212.40234375
-213.31787109375
-219.7265625
-224.30419921875
-236.2060546875
-245.361328125
-251.77001953125
-257.26318359375
-260.009765625
-251.77001953125
-248.10791015625
-242.61474609375
-249.0234375
-244.44580078125
-249.93896484375
-257.26318359375
-249.0234375
-235.29052734375
-231.62841796875
-227.05078125
-226.13525390625
-232.5439453125
-232.5439453125
-222.47314453125
-226.13525390625
-234.375
-243.5302734375
-243.5302734375
-232.5439453125
-236.2060546875
-224.30419921875
-223.388671875
-221.5576171875
-225.2197265625
-217.8955078125
-205.99365234375
-214.2333984375
-224.30419921875
-234.375
-228.8818359375
-233.45947265625
-238.037109375
-243.5302734375
-238.037109375
-248.10791015625
-234.375
-226.13525390625
-238.037109375
-227.96630859375
-223.388671875
-208.740234375
-205.99365234375
-205.99365234375
-212.40234375
-222.47314453125
-211.48681640625
-201.416015625
-207.82470703125
-205.078125
-202.33154296875
-205.078125
-205.99365234375
-204.16259765625
-199.5849609375
-199.5849609375
-203.2470703125
-195.9228515625
-195.00732421875
-193.17626953125
-190.4296875
-202.33154296875
-195.00732421875
-190.4296875
-191.34521484375
-197.75390625
-195.9228515625
-199.5849609375
-206.9091796875
-215.14892578125
-216.97998046875
-212.40234375
-215.14892578125
-205.99365234375
-202.33154296875
-205.99365234375
-215.14892578125
-213.31787109375
-210.5712890625
-215.14892578125
-214.2333984375
-214.2333984375
-215.14892578125
-216.064453125
-216.064453125
-201.416015625
-195.00732421875
-200.50048828125
-198.66943359375
-196.83837890625
-184.9365234375
-176.69677734375
-184.9365234375
-191.34521484375
-196.83837890625
-204.16259765625
-197.75390625
-187.68310546875
-175.78125
-183.10546875
-180.35888671875
-179.443359375
-190.4296875
-191.34521484375
-182.18994140625
-182.18994140625
-188.5986328125
-190.4296875
-192.2607421875
-195.00732421875
-202.33154296875
-208.740234375
-210.5712890625
-216.97998046875
-219.7265625
-194.091796875
-190.4296875
-203.2470703125
-208.740234375
-207.82470703125
-206.9091796875
-199.5849609375
-203.2470703125
-198.66943359375
-202.33154296875
-211.48681640625
-205.078125
-195.9228515625
-190.4296875
-188.5986328125
-194.091796875
-194.091796875
-184.02099609375
-172.119140625
-175.78125
-181.2744140625
-167.54150390625
-170.2880859375
-164.794921875
-150.146484375
-143.73779296875
-158.38623046875
-155.6396484375
-156.55517578125
-161.1328125
-163.87939453125
-167.54150390625
-179.443359375
-176.69677734375
-174.86572265625
-166.6259765625
-143.73779296875
-136.41357421875
-124.51171875
-117.1875
-109.86328125
-101.62353515625
-86.97509765625
-86.0595703125
-82.3974609375
-72.32666015625
-72.32666015625
-71.4111328125
-54.931640625
-33.87451171875
-23.8037109375
-30.21240234375
-32.958984375
-20.1416015625
-19.22607421875
-32.958984375
-43.9453125
-42.1142578125
-54.01611328125
-54.931640625
-65.00244140625
-72.32666015625
-92.46826171875
-109.86328125
-128.173828125
-147.39990234375
-162.04833984375
-165.71044921875
-165.71044921875
-155.6396484375
-158.38623046875
-167.54150390625
-175.78125
-193.17626953125
-197.75390625
-202.33154296875
-201.416015625
-194.091796875
-197.75390625
-209.65576171875
-226.13525390625
-224.30419921875
-229.79736328125
-226.13525390625
-216.064453125
-216.97998046875
-225.2197265625
-220.64208984375
-217.8955078125
-219.7265625
-225.2197265625
-225.2197265625
-213.31787109375
-223.388671875
-248.10791015625
-267.333984375
-292.96875
-315.85693359375
-303.955078125
-287.4755859375
-242.61474609375
-173.9501953125
-78.7353515625
61.34033203125
231.62841796875
414.73388671875
574.951171875
715.9423828125
838.623046875
912.78076171875
942.07763671875
882.568359375
672.91259765625
428.466796875
246.27685546875
52.18505859375
-83.31298828125
-140.9912109375
-201.416015625
-251.77001953125
-272.8271484375
-277.40478515625
-280.1513671875
-267.333984375
-262.75634765625
-238.95263671875
-216.064453125
-215.14892578125
-213.31787109375
-217.8955078125
-220.64208984375
-231.62841796875
-230.712890625
-228.8818359375
-227.96630859375
-230.712890625
-225.2197265625
-215.14892578125
-215.14892578125
-219.7265625
-238.037109375
-241.69921875
-231.62841796875
-238.95263671875
-238.037109375
-227.05078125
-225.2197265625
-235.29052734375
-237.12158203125
-236.2060546875
-233.45947265625
-229.79736328125
-225.2197265625
-223.388671875
-230.712890625
-239.8681640625
-227.05078125
-216.064453125
-224.30419921875
-225.2197265625
-222.47314453125
-225.2197265625
-226.13525390625
-228.8818359375
-223.388671875
-220.64208984375
-214.2333984375
-215.14892578125
-205.99365234375
-216.064453125
-217.8955078125
-212.40234375
-211.48681640625
-213.31787109375
-219.7265625
-225.2197265625
-218.81103515625
-224.30419921875
-220.64208984375
-219.7265625
-212.40234375
-215.14892578125
-220.64208984375
-212.40234375
-208.740234375
-205.078125
-206.9091796875
-216.97998046875
-216.064453125
-191.34521484375
-190.4296875
-194.091796875
-197.75390625
-207.82470703125
-208.740234375
-201.416015625
-194.091796875
-197.75390625
-207.82470703125
-215.14892578125
-208.740234375
-204.16259765625
-198.66943359375
-205.078125
-201.416015625
-202.33154296875
-203.2470703125
-209.65576171875
-222.47314453125
-215.14892578125
-209.65576171875
-206.9091796875
-207.82470703125
-205.99365234375
-203.2470703125
-213.31787109375
-209.65576171875
-201.416015625
-214.2333984375
-213.31787109375
-208.740234375
-210.5712890625
-204.16259765625
-205.078125
-202.33154296875
-202.33154296875
-195.00732421875
-198.66943359375
-194.091796875
-194.091796875
-189.51416015625
-185.85205078125
-186.767578125
-181.2744140625
-191.34521484375
-192.2607421875
-193.17626953125
-189.51416015625
-201.416015625
-195.9228515625
-196.83837890625
-201.416015625
-198.66943359375
-201.416015625
-211.48681640625
-207.82470703125
-214.2333984375
-207.82470703125
-211.48681640625
-200.50048828125
-203.2470703125
-213.31787109375
-206.9091796875
-203.2470703125
-203.2470703125
-206.9091796875
-216.97998046875
-205.078125
-200.50048828125
-192.2607421875
-190.4296875
-190.4296875
-197.75390625
-189.51416015625
-184.9365234375
-194.091796875
-189.51416015625
-184.02099609375
-179.443359375
-181.2744140625
-182.18994140625
-185.85205078125
-175.78125
-181.2744140625
-177.6123046875
-166.6259765625
-170.2880859375
-166.6259765625
-166.6259765625
-162.9638671875
-156.55517578125
-155.6396484375
-166.6259765625
-173.03466796875
-159.3017578125
-164.794921875
-162.9638671875
-146.484375
-151.06201171875
-146.484375
-131.8359375
-114.44091796875
-101.62353515625
-97.0458984375
-87.890625
-85.14404296875
-90.63720703125
-84.228515625
-82.3974609375
-59.50927734375
-55.84716796875
-52.18505859375
-47.607421875
-47.607421875
-33.87451171875
-32.958984375
-38.4521484375
-33.87451171875
-38.4521484375
-40.283203125
-56.7626953125
-70.49560546875
-76.904296875
-78.7353515625
-100.7080078125
-120.849609375
-145.56884765625
-153.80859375
-158.38623046875
-153.80859375
-162.04833984375
-171.20361328125
-173.03466796875
-181.2744140625
-199.5849609375
-204.16259765625
-201.416015625
-209.65576171875
-211.48681640625
-216.97998046875
-218.81103515625
-224.30419921875
-227.05078125
-213.31787109375
-234.375
-230.712890625
-232.5439453125
-235.29052734375
-218.81103515625
-224.30419921875
-226.13525390625
-230.712890625
-237.12158203125
-242.61474609375
-238.037109375
-249.0234375
-263.671875
-292.96875
-302.1240234375
-311.279296875
-318.603515625
-288.39111328125
-249.93896484375
-181.2744140625
-72.32666015625
55.84716796875
214.2333984375
401.0009765625
558.4716796875
686.6455078125
808.41064453125
888.97705078125
943.90869140625
892.63916015625
685.72998046875
429.38232421875
247.1923828125
51.26953125
-68.66455078125
-151.06201171875
-195.9228515625
-249.93896484375
-275.57373046875
-284.72900390625
-292.05322265625
-281.06689453125
-264.58740234375
-257.26318359375
-253.60107421875
-240.78369140625
-244.44580078125
-249.0234375
-237.12158203125
-237.12158203125
-244.44580078125
-240.78369140625
-249.0234375
-254.5166015625
-240.78369140625
-250.8544921875
-255.43212890625
-256.34765625
-256.34765625
-250.8544921875
-239.8681640625
-252.685546875
-244.44580078125
-230.712890625
-256.34765625
-263.671875
-244.44580078125
-259.09423828125
-262.75634765625
-246.27685546875
-253.60107421875
-246.27685546875
-254.5166015625
-257.26318359375
-258.1787109375
-261.8408203125
-261.8408203125
-271.91162109375
-251.77001953125
-241.69921875
-234.375
-246.27685546875
-257.26318359375
-245.361328125
-246.27685546875
-247.1923828125
-247.1923828125
-249.0234375
-242.61474609375
-243.5302734375
-250.8544921875
-258.1787109375
-252.685546875
-249.93896484375
-253.60107421875
-257.26318359375
-244.44580078125
-238.95263671875
-250.8544921875
-243.5302734375
-243.5302734375
-235.29052734375
-240.78369140625
-242.61474609375
-244.44580078125
-237.12158203125
-241.69921875
-248.10791015625
-246.27685546875
-238.037109375
-224.30419921875
-232.5439453125
-237.12158203125
-232.5439453125
-238.95263671875
-239.8681640625
-229.79736328125
-238.95263671875
-246.27685546875
-249.0234375
-244.44580078125
-240.78369140625
-246.27685546875
-237.12158203125
-241.69921875
-247.1923828125
-244.44580078125
-245.361328125
-252.685546875
-251.77001953125
-253.60107421875
-257.26318359375
-238.95263671875
-239.8681640625
-244.44580078125
-245.361328125
-245.361328125
-243.5302734375
-238.95263671875
-247.1923828125
-237.12158203125
-246.27685546875
-253.60107421875
-241.69921875
-246.27685546875
-254.5166015625
-245.361328125
-208.740234375
-216.97998046875
-242.61474609375
-236.2060546875
-228.8818359375
-226.13525390625
-230.712890625
-233.45947265625
-241.69921875
-242.61474609375
-246.27685546875
-249.93896484375
-246.27685546875
-247.1923828125
-245.361328125
-238.037109375
-247.1923828125
-251.77001953125
-254.5166015625
-265.5029296875
-270.08056640625
-261.8408203125
-259.09423828125
-256.34765625
-272.8271484375
-258.1787109375
-258.1787109375
-270.08056640625
-266.41845703125
-260.92529296875
-266.41845703125
-272.8271484375
-260.92529296875
-269.1650390625
-255.43212890625
-244.44580078125
-244.44580078125
-266.41845703125
-251.77001953125
-244.44580078125
-241.69921875
-253.60107421875
-249.0234375
-244.44580078125
-236.2060546875
-238.95263671875
-231.62841796875
-240.78369140625
-244.44580078125
-228.8818359375
-235.29052734375
-230.712890625
-229.79736328125
-227.96630859375
-235.29052734375
-242.61474609375
-220.64208984375
-213.31787109375
-221.5576171875
-215.14892578125
-211.48681640625
-195.00732421875
-182.18994140625
-163.87939453125
-161.1328125
-158.38623046875
-150.146484375
-150.146484375
-150.146484375
-135.498046875
-115.3564453125
-117.1875
-102.5390625
-97.96142578125
-102.5390625
-102.5390625
-103.45458984375
-93.3837890625
-95.21484375
-97.96142578125
-110.77880859375
-104.3701171875
-129.08935546875
-165.71044921875
-163.87939453125
-164.794921875
-178.52783203125
-204.16259765625
-205.99365234375
-224.30419921875
-236.2060546875
-232.5439453125
-224.30419921875
-231.62841796875
-251.77001953125
-244.44580078125
-260.009765625
-263.671875
-271.91162109375
-280.1513671875
-284.72900390625
-286.56005859375
-273.74267578125
-285.64453125
-285.64453125
-293.88427734375
-288.39111328125
-284.72900390625
-287.4755859375
-295.71533203125
-284.72900390625
-284.72900390625
-282.89794921875
-278.3203125
-286.56005859375
-301.20849609375
-329.58984375
-327.7587890625
-352.47802734375
-374.45068359375
-382.6904296875
-362.548828125
-346.98486328125
-311.279296875
-251.77001953125
-162.9638671875
-29.296875
114.44091796875
283.8134765625
450.439453125
588.68408203125
713.19580078125
786.43798828125
846.86279296875
824.89013671875
660.09521484375
405.57861328125
220.64208984375
35.70556640625
-114.44091796875
-189.51416015625
-250.8544921875
-285.64453125
-315.85693359375
-323.18115234375
-352.47802734375
-351.5625
-344.23828125
-329.58984375
-307.6171875
-310.36376953125
-304.87060546875
-303.03955078125
-313.1103515625
-308.53271484375
-292.96875
-288.39111328125
-310.36376953125
-311.279296875
-314.94140625
-302.1240234375
-299.37744140625
-315.85693359375
-327.7587890625
-310.36376953125
-303.955078125
-312.19482421875
-305.7861328125
-302.1240234375
-303.03955078125
-315.85693359375
-320.4345703125
-301.20849609375
-305.7861328125
-304.87060546875
-290.22216796875
-298.4619140625
-297.54638671875
-300.29296875
-302.1240234375
-296.630859375
-305.7861328125
-303.955078125
-313.1103515625
-294.7998046875
-314.02587890625
-310.36376953125
-298.4619140625
-306.70166015625
-304.87060546875
-307.6171875
-302.1240234375
-293.88427734375
-293.88427734375
-295.71533203125
-300.29296875
-297.54638671875
-296.630859375
-308.53271484375
-313.1103515625
-290.22216796875
-299.37744140625
-293.88427734375
-284.72900390625
-293.88427734375
-296.630859375
-292.96875
-284.72900390625
-281.982421875
-293.88427734375
-280.1513671875
-289.306640625
-298.4619140625
-289.306640625
-291.1376953125
-285.64453125
-282.89794921875
-290.22216796875
-280.1513671875
-270.99609375
-270.08056640625
-274.658203125
-286.56005859375
-290.22216796875
-285.64453125
-284.72900390625
-283.8134765625
-283.8134765625
-292.96875
-291.1376953125
-299.37744140625
-285.64453125
-284.72900390625
-273.74267578125
-276.4892578125
-283.8134765625
-283.8134765625
-273.74267578125
-271.91162109375
-279.23583984375
-278.3203125
-287.4755859375
-276.4892578125
-265.5029296875
-276.4892578125
-275.57373046875
-275.57373046875
-270.08056640625
-272.8271484375
-277.40478515625
-272.8271484375
-278.3203125
-278.3203125
-272.8271484375
-255.43212890625
-265.5029296875
-276.4892578125
-271.91162109375
-265.5029296875
-260.92529296875
-254.5166015625
-258.1787109375
-263.671875
-273.74267578125
-278.3203125
-283.8134765625
-292.05322265625
-284.72900390625
-270.99609375
-281.982421875
-271.91162109375
-278.3203125
-281.06689453125
-297.54638671875
-305.7861328125
-303.955078125
-301.20849609375
-299.37744140625
-288.39111328125
-278.3203125
-286.56005859375
-291.1376953125
-299.37744140625
-293.88427734375
-279.23583984375
-283.8134765625
-287.4755859375
-294.7998046875
-273.74267578125
-288.39111328125
-275.57373046875
-266.41845703125
-271.91162109375
-271.91162109375
-271.91162109375
-269.1650390625
-276.4892578125
-260.92529296875
-251.77001953125
-252.685546875
-273.74267578125
-257.26318359375
-271.91162109375
-258.1787109375
-248.10791015625
-246.27685546875
-246.27685546875
-244.44580078125
-242.61474609375
-232.5439453125
-237.12158203125
-223.388671875
-212.40234375
-186.767578125
-183.10546875
-182.18994140625
-174.86572265625
-177.6123046875
-170.2880859375
-155.6396484375
-144.6533203125
-140.9912109375
-125.42724609375
-113.525390625
-111.6943359375
-119.93408203125
-117.1875
-107.11669921875
-112.60986328125
-132.75146484375
-134.58251953125
-136.41357421875
-131.8359375
-140.07568359375
-153.80859375
-160.21728515625
-183.10546875
-187.68310546875
-190.4296875
-215.14892578125
-233.45947265625
-246.27685546875
-231.62841796875
-248.10791015625
-258.1787109375
-240.78369140625
-259.09423828125
-268.24951171875
-284.72900390625
-272.8271484375
-291.1376953125
-300.29296875
-307.6171875
-283.8134765625
-290.22216796875
-293.88427734375
-284.72900390625
-289.306640625
-292.05322265625
-297.54638671875
-297.54638671875
-295.71533203125
-291.1376953125
-297.54638671875
-304.87060546875
-297.54638671875
-304.87060546875
-314.02587890625
-329.58984375
-343.32275390625
-375.3662109375
-383.60595703125
-385.43701171875
-358.88671875
-317.68798828125
-291.1376953125
-220.64208984375
-94.29931640625
32.04345703125
209.65576171875
386.3525390625
507.2021484375
633.544921875
738.83056640625
796.5087890625
809.326171875
696.71630859375
459.5947265625
253.60107421875
69.580078125
-86.0595703125
-188.5986328125
-242.61474609375
-286.56005859375
-337.82958984375
-353.3935546875
-357.97119140625
-359.80224609375
-357.0556640625
-340.576171875
-325.927734375
-310.36376953125
-314.02587890625
-304.87060546875
-314.94140625
-309.4482421875
-293.88427734375
-310.36376953125
-309.4482421875
-309.4482421875
-312.19482421875
-317.68798828125
-325.01220703125
-303.03955078125
-306.70166015625
-316.7724609375
-321.35009765625
-320.4345703125
-311.279296875
-318.603515625
-304.87060546875
-321.35009765625
-324.0966796875
-319.51904296875
-308.53271484375
-322.265625
-309.4482421875
-307.6171875
-315.85693359375
-314.94140625
-303.955078125
-303.955078125
-297.54638671875
-300.29296875
-320.4345703125
-312.19482421875
-303.03955078125
-289.306640625
-298.4619140625
-292.05322265625
-309.4482421875
-303.03955078125
-303.03955078125
-309.4482421875
-314.02587890625
-301.20849609375
-312.19482421875
-298.4619140625
-306.70166015625
-301.20849609375
-292.05322265625
-295.71533203125
-314.02587890625
-305.7861328125
-300.29296875
-308.53271484375
-293.88427734375
-286.56005859375
-296.630859375
-284.72900390625
-284.72900390625
-281.06689453125
-278.3203125
-291.1376953125
-292.96875
-292.96875
-291.1376953125
-296.630859375
-297.54638671875
-290.22216796875
-292.96875
-287.4755859375
-284.72900390625
-280.1513671875
-287.4755859375
-276.4892578125
-277.40478515625
-281.06689453125
-280.1513671875
-277.40478515625
-281.06689453125
-286.56005859375
-282.89794921875
-275.57373046875
-283.8134765625
-281.06689453125
-281.982421875
-283.8134765625
-284.72900390625
-284.72900390625
-291.1376953125
-286.56005859375
-294.7998046875
-294.7998046875
-280.1513671875
-275.57373046875
-285.64453125
-277.40478515625
-282.89794921875
-276.4892578125
-281.06689453125
-281.982421875
-270.99609375
-260.92529296875
-277.40478515625
-273.74267578125
-274.658203125
-274.658203125
-277.40478515625
-270.08056640625
-256.34765625
-263.671875
-272.8271484375
-281.982421875
-282.89794921875
-283.8134765625
-280.1513671875
-287.4755859375
-278.3203125
-284.72900390625
-300.29296875
-287.4755859375
-288.39111328125
-291.1376953125
-288.39111328125
-299.37744140625
-288.39111328125
-299.37744140625
-295.71533203125
-292.96875
-302.1240234375
-300.29296875
-311.279296875
-305.7861328125
-291.1376953125
-292.05322265625
-297.54638671875
-286.56005859375
-292.05322265625
-285.64453125
-281.06689453125
-283.8134765625
-285.64453125
-281.982421875
-281.06689453125
-281.06689453125
-277.40478515625
-279.23583984375
-276.4892578125
-281.06689453125
-265.5029296875
-281.06689453125
-291.1376953125
-269.1650390625
-249.93896484375
-263.671875
-259.09423828125
-269.1650390625
-258.1787109375
-253.60107421875
-258.1787109375
-252.685546875
-254.5166015625
-252.685546875
-246.27685546875
-249.0234375
-242.61474609375
-241.69921875
-230.712890625
-207.82470703125
-201.416015625
-188.5986328125
-179.443359375
-176.69677734375
-169.37255859375
-173.03466796875
-155.6396484375
-139.16015625
-138.24462890625
-126.3427734375
-111.6943359375
-104.3701171875
-105.28564453125
-115.3564453125
-117.1875
-120.849609375
-131.8359375
-132.75146484375
-139.16015625
-145.56884765625
-163.87939453125
-161.1328125
-173.9501953125
-177.6123046875
-191.34521484375
-214.2333984375
-232.5439453125
-222.47314453125
-227.96630859375
-244.44580078125
-253.60107421875
-255.43212890625
-268.24951171875
-270.08056640625
-281.982421875
-287.4755859375
-294.7998046875
-290.22216796875
-292.96875
-302.1240234375
-297.54638671875
-306.70166015625
-297.54638671875
-293.88427734375
-293.88427734375
-292.05322265625
-297.54638671875
-305.7861328125
-300.29296875
-303.955078125
-309.4482421875
-316.7724609375
-296.630859375
-308.53271484375
-320.4345703125
-325.927734375
-354.30908203125
-375.3662109375
-400.08544921875
-384.521484375
-352.47802734375
-325.01220703125
-280.1513671875
-184.02099609375
-54.01611328125
96.13037109375
263.671875
414.73388671875
546.56982421875
668.3349609375
758.056640625
814.8193359375
786.43798828125
630.79833984375
392.76123046875
201.416015625
10.07080078125
-127.25830078125
-195.00732421875
-260.92529296875
-308.53271484375
-335.0830078125
-358.88671875
-368.95751953125
-361.63330078125
-347.900390625
-325.01220703125
-292.96875
-296.630859375
-306.70166015625
-317.68798828125
-320.4345703125
-297.54638671875
-309.4482421875
-311.279296875
-321.35009765625
-314.94140625
-314.94140625
-320.4345703125
-317.68798828125
-307.6171875
-313.1103515625
-307.6171875
-309.4482421875
-310.36376953125
-308.53271484375
-304.87060546875
-314.94140625
-319.51904296875
-325.927734375
-332.33642578125
-314.94140625
-290.22216796875
-302.1240234375
-301.20849609375
-309.4482421875
-299.37744140625
-306.70166015625
-322.265625
-314.94140625
-302.1240234375
-309.4482421875
-314.94140625
-319.51904296875
-308.53271484375
-307.6171875
-306.70166015625
-300.29296875
-298.4619140625
-307.6171875
-297.54638671875
-294.7998046875
-301.20849609375
-300.29296875
-310.36376953125
-301.20849609375
-305.7861328125
-307.6171875
-302.1240234375
-298.4619140625
-305.7861328125
-310.36376953125
-298.4619140625
-300.29296875
-294.7998046875
-292.05322265625
-287.4755859375
-272.8271484375
-280.1513671875
-273.74267578125
-267.333984375
-267.333984375
-276.4892578125
-271.91162109375
-265.5029296875
-270.08056640625
-264.58740234375
-267.333984375
-279.23583984375
-269.1650390625
-273.74267578125
-276.4892578125
-257.26318359375
-261.8408203125
-257.26318359375
-260.009765625
-260.92529296875
-265.5029296875
-260.92529296875
-260.009765625
-260.009765625
-265.5029296875
-260.92529296875
-267.333984375
-270.08056640625
-272.8271484375
-267.333984375
-256.34765625
-255.43212890625
-258.1787109375
-258.1787109375
-254.5166015625
-243.5302734375
-249.93896484375
-254.5166015625
-259.09423828125
-266.41845703125
-273.74267578125
-270.08056640625
-258.1787109375
-245.361328125
-242.61474609375
-255.43212890625
-255.43212890625
-254.5166015625
-255.43212890625
-249.93896484375
-257.26318359375
-255.43212890625
-260.009765625
-266.41845703125
-269.1650390625
-267.333984375
-269.1650390625
-270.08056640625
-273.74267578125
-281.06689453125
-277.40478515625
-270.08056640625
-266.41845703125
-266.41845703125
-281.982421875
-292.05322265625
-287.4755859375
-277.40478515625
-276.4892578125
-276.4892578125
-275.57373046875
-273.74267578125
-270.99609375
-272.8271484375
-278.3203125
-283.8134765625
-281.982421875
-275.57373046875
-269.1650390625
-267.333984375
-270.08056640625
-276.4892578125
-276.4892578125
-272.8271484375
-265.5029296875
-273.74267578125
-262.75634765625
-267.333984375
-258.1787109375
-262.75634765625
-253.60107421875
-253.60107421875
-258.1787109375
-254.5166015625
-251.77001953125
-248.10791015625
-240.78369140625
-237.12158203125
-240.78369140625
-240.78369140625
-242.61474609375
-230.712890625
-235.29052734375
-242.61474609375
-252.685546875
-234.375
-220.64208984375
-222.47314453125
-234.375
-227.05078125
-220.64208984375
-213.31787109375
-209.65576171875
-197.75390625
-182.18994140625
-176.69677734375
-173.9501953125
-154.72412109375
-153.80859375
-162.9638671875
-155.6396484375
-129.08935546875
-110.77880859375
-99.79248046875
-104.3701171875
-97.96142578125
-100.7080078125
-92.46826171875
-94.29931640625
-101.62353515625
-109.86328125
-116.27197265625
-126.3427734375
-131.8359375
-135.498046875
-142.822265625
-154.72412109375
-168.45703125
-179.443359375
-188.5986328125
-205.078125
-226.13525390625
-220.64208984375
-214.2333984375
-224.30419921875
-236.2060546875
-251.77001953125
-258.1787109375
-263.671875
-270.08056640625
-280.1513671875
-280.1513671875
-283.8134765625
-284.72900390625
-282.89794921875
-280.1513671875
-284.72900390625
-294.7998046875
-281.982421875
-278.3203125
-281.982421875
-289.306640625
-285.64453125
-292.05322265625
-295.71533203125
-302.1240234375
-298.4619140625
-288.39111328125
-291.1376953125
-301.20849609375
-338.7451171875
-357.97119140625
-366.2109375
-359.80224609375
-336.9140625
-301.20849609375
-245.361328125
-128.173828125
-5.4931640625
160.21728515625
325.927734375
475.15869140625
609.7412109375
716.85791015625
795.59326171875
853.271484375
794.677734375
596.923828125
364.3798828125
177.6123046875
-17.39501953125
-130.0048828125
-212.40234375
-263.671875
-303.03955078125
-328.67431640625
-347.900390625
-343.32275390625
-331.4208984375
-310.36376953125
-298.4619140625
-293.88427734375
-287.4755859375
-289.306640625
-291.1376953125
-289.306640625
-287.4755859375
-288.39111328125
-292.96875
-294.7998046875
-299.37744140625
-303.955078125
-303.03955078125
-303.955078125
-303.955078125
-308.53271484375
-300.29296875
-300.29296875
-291.1376953125
-292.05322265625
-297.54638671875
-294.7998046875
-294.7998046875
-300.29296875
-300.29296875
-298.4619140625
-299.37744140625
-297.54638671875
-302.1240234375
-293.88427734375
-284.72900390625
-289.306640625
-296.630859375
-302.1240234375
-300.29296875
-288.39111328125
-292.96875
-303.955078125
-281.982421875
-277.40478515625
-278.3203125
-277.40478515625
-291.1376953125
-289.306640625
-290.22216796875
-289.306640625
-281.982421875
-285.64453125
-284.72900390625
-281.06689453125
-271.91162109375
-276.4892578125
-281.982421875
-275.57373046875
-261.8408203125
-263.671875
-274.658203125
-269.1650390625
-275.57373046875
-268.24951171875
-260.92529296875
-261.8408203125
-266.41845703125
-274.658203125
-260.009765625
-248.10791015625
-253.60107421875
-261.8408203125
-244.44580078125
-232.5439453125
-229.79736328125
-238.95263671875
-238.037109375
-245.361328125
-240.78369140625
-239.8681640625
-245.361328125
-238.037109375
-239.8681640625
-244.44580078125
-250.8544921875
-244.44580078125
-239.8681640625
-238.95263671875
-245.361328125
-247.1923828125
-238.95263671875
-235.29052734375
-245.361328125
-250.8544921875
-250.8544921875
-239.8681640625
-237.12158203125
-239.8681640625
-240.78369140625
-234.375
-225.2197265625
-229.79736328125
-231.62841796875
-235.29052734375
-221.5576171875
-231.62841796875
-235.29052734375
-235.29052734375
-238.037109375
-234.375
-232.5439453125
-226.13525390625
-223.388671875
-236.2060546875
-239.8681640625
-239.8681640625
-234.375
-238.95263671875
-235.29052734375
-239.8681640625
-240.78369140625
-237.12158203125
-242.61474609375
-243.5302734375
-252.685546875
-248.10791015625
-249.93896484375
-252.685546875
-254.5166015625
-248.10791015625
-260.009765625
-259.09423828125
-259.09423828125
-247.1923828125
-252.685546875
-259.09423828125
-260.92529296875
-246.27685546875
-246.27685546875
-260.92529296875
-251.77001953125
-245.361328125
-238.037109375
-238.95263671875
-236.2060546875
-232.5439453125
-241.69921875
-245.361328125
-251.77001953125
-249.93896484375
-239.8681640625
-234.375
-232.5439453125
-232.5439453125
-229.79736328125
-225.2197265625
-232.5439453125
-227.96630859375
-224.30419921875
-223.388671875
-223.388671875
-223.388671875
-216.97998046875
-212.40234375
-211.48681640625
-209.65576171875
-212.40234375
-207.82470703125
-206.9091796875
-206.9091796875
-210.5712890625
-208.740234375
-207.82470703125
-206.9091796875
-199.5849609375
-206.9091796875
-213.31787109375
-202.33154296875
-191.34521484375
-193.17626953125
-183.10546875
-164.794921875
-151.06201171875
-154.72412109375
-140.07568359375
-130.92041015625
-140.9912109375
-133.6669921875
-108.94775390625
-97.0458984375
-95.21484375
-90.63720703125
-83.31298828125
-92.46826171875
-79.65087890625
-62.255859375
-76.904296875
-92.46826171875
-107.11669921875
-109.86328125
-110.77880859375
-116.27197265625
-124.51171875
-134.58251953125
-148.3154296875
-150.146484375
-165.71044921875
-170.2880859375
-194.091796875
-202.33154296875
-206.9091796875
-208.740234375
-223.388671875
-235.29052734375
-242.61474609375
-254.5166015625
-254.5166015625
-263.671875
-262.75634765625
-264.58740234375
-263.671875
-254.5166015625
-260.009765625
-266.41845703125
-269.1650390625
-259.09423828125
-264.58740234375
-271.91162109375
-270.08056640625
-275.57373046875
-272.8271484375
-262.75634765625
-257.26318359375
-276.4892578125
-274.658203125
-263.671875
-298.4619140625
-308.53271484375
-332.33642578125
-353.3935546875
-359.80224609375
-353.3935546875
-316.7724609375
-281.982421875
-213.31787109375
-104.3701171875
14.6484375
200.50048828125
381.77490234375
512.6953125
653.6865234375
765.380859375
849.609375
869.7509765625
774.5361328125
552.06298828125
325.01220703125
144.6533203125
-39.36767578125
-151.9775390625
-225.2197265625
-269.1650390625
-303.03955078125
-308.53271484375
-330.50537109375
-325.927734375
-297.54638671875
-287.4755859375
-274.658203125
-265.5029296875
-264.58740234375
-265.5029296875
-269.1650390625
-274.658203125
-280.1513671875
-284.72900390625
-276.4892578125
-273.74267578125
-275.57373046875
-280.1513671875
-282.89794921875
-282.89794921875
-288.39111328125
-290.22216796875
-281.06689453125
-275.57373046875
-283.8134765625
-279.23583984375
-263.671875
-269.1650390625
-282.89794921875
-275.57373046875
-272.8271484375
-265.5029296875
-264.58740234375
-267.333984375
-266.41845703125
-274.658203125
-283.8134765625
-274.658203125
-277.40478515625
-270.99609375
-270.08056640625
-271.91162109375
-273.74267578125
-276.4892578125
-272.8271484375
-271.91162109375
-274.658203125
-266.41845703125
-276.4892578125
-275.57373046875
-266.41845703125
-258.1787109375
-260.92529296875
-262.75634765625
-267.333984375
-260.009765625
-252.685546875
-252.685546875
-256.34765625
-260.92529296875
-260.92529296875
-263.671875
-255.43212890625
-262.75634765625
-247.1923828125
-249.93896484375
-264.58740234375
-255.43212890625
-244.44580078125
-249.0234375
-243.5302734375
-235.29052734375
-237.12158203125
-231.62841796875
-238.037109375
-230.712890625
-226.13525390625
-238.95263671875
-239.8681640625
-238.037109375
-226.13525390625
-234.375
-238.95263671875
-230.712890625
-227.05078125
-227.96630859375
-235.29052734375
-237.12158203125
-238.037109375
-231.62841796875
-238.037109375
-230.712890625
-238.037109375
-227.96630859375
-229.79736328125
-240.78369140625
-221.5576171875
-218.81103515625
-228.8818359375
-235.29052734375
-238.95263671875
-242.61474609375
-240.78369140625
-229.79736328125
-227.96630859375
-237.12158203125
-243.5302734375
-245.361328125
-227.96630859375
-227.05078125
-217.8955078125
-225.2197265625
-235.29052734375
-232.5439453125
-235.29052734375
-233.45947265625
-233.45947265625
-230.712890625
-216.064453125
-218.81103515625
-218.81103515625
-233.45947265625
-243.5302734375
-240.78369140625
-237.12158203125
-248.10791015625
-255.43212890625
-255.43212890625
-247.1923828125
-248.10791015625
-255.43212890625
-250.8544921875
-253.60107421875
-252.685546875
-261.8408203125
-257.26318359375
-254.5166015625
-245.361328125
-252.685546875
-251.77001953125
-252.685546875
-249.93896484375
-244.44580078125
-234.375
-245.361328125
-240.78369140625
-238.037109375
-238.95263671875
-239.8681640625
-242.61474609375
-234.375
-235.29052734375
-230.712890625
-229.79736328125
-222.47314453125
-224.30419921875
-231.62841796875
-237.12158203125
-238.037109375
-222.47314453125
-217.8955078125
-215.14892578125
-211.48681640625
-217.8955078125
-217.8955078125
-220.64208984375
-222.47314453125
-221.5576171875
-214.2333984375
-215.14892578125
-215.14892578125
-200.50048828125
-195.9228515625
-205.99365234375
-204.16259765625
-202.33154296875
-208.740234375
-209.65576171875
-209.65576171875
-207.82470703125
-205.078125
-211.48681640625
-199.5849609375
-201.416015625
-205.078125
-210.5712890625
-200.50048828125
-179.443359375
-173.03466796875
-167.54150390625
-162.04833984375
-158.38623046875
-138.24462890625
-132.75146484375
-137.3291015625
-128.173828125
-122.6806640625
-108.0322265625
-86.97509765625
-84.228515625
-87.890625
-76.904296875
-79.65087890625
-85.14404296875
-82.3974609375
-85.14404296875
-95.21484375
-102.5390625
-126.3427734375
-130.92041015625
-119.0185546875
-130.0048828125
-156.55517578125
-172.119140625
-192.2607421875
-195.9228515625
-213.31787109375
-227.05078125
-195.00732421875
-211.48681640625
-219.7265625
-231.62841796875
-232.5439453125
-247.1923828125
-257.26318359375
-257.26318359375
-270.99609375
-273.74267578125
-263.671875
-265.5029296875
-263.671875
-263.671875
-267.333984375
-268.24951171875
-281.06689453125
-267.333984375
-261.8408203125
-270.08056640625
-270.08056640625
-266.41845703125
-270.99609375
-270.99609375
-269.1650390625
-289.306640625
-302.1240234375
-319.51904296875
-340.576171875
-353.3935546875
-354.30908203125
-328.67431640625
-308.53271484375
-254.5166015625
-178.52783203125
-56.7626953125
93.3837890625
278.3203125
445.86181640625
573.1201171875
694.88525390625
786.43798828125
847.7783203125
823.05908203125
670.166015625
426.6357421875
201.416015625
8.23974609375
-112.60986328125
-192.2607421875
-251.77001953125
-296.630859375
-319.51904296875
-331.4208984375
-338.7451171875
-328.67431640625
-304.87060546875
-281.06689453125
-266.41845703125
-259.09423828125
-252.685546875
-263.671875
-266.41845703125
-278.3203125
-282.89794921875
-277.40478515625
-278.3203125
-276.4892578125
-277.40478515625
-280.1513671875
-278.3203125
-277.40478515625
-271.91162109375
-270.99609375
-265.5029296875
-275.57373046875
-276.4892578125
-277.40478515625
-263.671875
-262.75634765625
-274.658203125
-280.1513671875
-263.671875
-281.982421875
-287.4755859375
-285.64453125
-271.91162109375
-272.8271484375
-270.08056640625
-270.99609375
-270.08056640625
-270.08056640625
-258.1787109375
-260.009765625
-256.34765625
-254.5166015625
-274.658203125
-282.89794921875
-253.60107421875
-269.1650390625
-273.74267578125
-264.58740234375
-257.26318359375
-267.333984375
-266.41845703125
-251.77001953125
-256.34765625
-265.5029296875
-270.99609375
-263.671875
-252.685546875
-255.43212890625
-243.5302734375
-239.8681640625
-248.10791015625
-249.0234375
-258.1787109375
-249.0234375
-260.92529296875
-256.34765625
-252.685546875
-247.1923828125
-241.69921875
-247.1923828125
-247.1923828125
-238.037109375
-232.5439453125
-234.375
-229.79736328125
-222.47314453125
-232.5439453125
-230.712890625
-244.44580078125
-225.2197265625
-227.05078125
-225.2197265625
-227.05078125
-221.5576171875
-224.30419921875
-225.2197265625
-228.8818359375
-228.8818359375
-232.5439453125
-237.12158203125
-228.8818359375
-232.5439453125
-233.45947265625
-234.375
-225.2197265625
-227.05078125
-229.79736328125
-227.05078125
-235.29052734375
-231.62841796875
-232.5439453125
-232.5439453125
-221.5576171875
-221.5576171875
-232.5439453125
-225.2197265625
-207.82470703125
-211.48681640625
-209.65576171875
-215.14892578125
-217.8955078125
-216.064453125
-218.81103515625
-224.30419921875
-227.05078125
-238.037109375
-221.5576171875
-212.40234375
-226.13525390625
-226.13525390625
-237.12158203125
-244.44580078125
-236.2060546875
-234.375
-243.5302734375
-233.45947265625
-237.12158203125
-238.037109375
-245.361328125
-243.5302734375
-236.2060546875
-243.5302734375
-244.44580078125
-238.95263671875
-231.62841796875
-232.5439453125
-236.2060546875
-239.8681640625
-242.61474609375
-227.05078125
-228.8818359375
-227.05078125
-220.64208984375
-227.96630859375
-233.45947265625
-235.29052734375
-229.79736328125
-223.388671875
-225.2197265625
-228.8818359375
-221.5576171875
-210.5712890625
-205.99365234375
-224.30419921875
-226.13525390625
-212.40234375
-214.2333984375
-221.5576171875
-222.47314453125
-209.65576171875
-205.99365234375
-205.078125
-195.9228515625
-206.9091796875
-196.83837890625
-198.66943359375
-203.2470703125
-197.75390625
-200.50048828125
-206.9091796875
-198.66943359375
-203.2470703125
-196.83837890625
-196.83837890625
-195.9228515625
-187.68310546875
-186.767578125
-205.99365234375
-202.33154296875
-203.2470703125
-210.5712890625
-203.2470703125
-202.33154296875
-201.416015625
-191.34521484375
-177.6123046875
-170.2880859375
-168.45703125
-160.21728515625
-144.6533203125
-124.51171875
-126.3427734375
-125.42724609375
-128.173828125
-122.6806640625
-114.44091796875
-90.63720703125
-90.63720703125
-81.48193359375
-90.63720703125
-73.2421875
-74.15771484375
-72.32666015625
-79.65087890625
-86.0595703125
-86.97509765625
-97.96142578125
-117.1875
-125.42724609375
-141.90673828125
-150.146484375
-156.55517578125
-173.9501953125
-200.50048828125
-199.5849609375
-209.65576171875
-226.13525390625
-235.29052734375
-216.97998046875
-219.7265625
-233.45947265625
-249.93896484375
-248.10791015625
-244.44580078125
-259.09423828125
-260.009765625
-253.60107421875
-264.58740234375
-266.41845703125
-260.009765625
-264.58740234375
-260.92529296875
-249.93896484375
-258.1787109375
-254.5166015625
-270.08056640625
-281.982421875
-268.24951171875
-262.75634765625
-263.671875
-260.009765625
-264.58740234375
-269.1650390625
-300.29296875
-337.82958984375
-346.0693359375
-350.64697265625
-337.82958984375
-319.51904296875
-276.4892578125
-206.9091796875
-97.96142578125
36.62109375
229.79736328125
390.93017578125
524.59716796875
639.0380859375
748.9013671875
816.650390625
833.1298828125
721.435546875
491.63818359375
275.57373046875
99.79248046875
-75.0732421875
-156.55517578125
-223.388671875
-273.74267578125
-307.6171875
-325.01220703125
-327.7587890625
-327.7587890625
-327.7587890625
-308.53271484375
-293.88427734375
-281.982421875
-271.91162109375
-269.1650390625
-271.91162109375
-266.41845703125
-280.1513671875
-276.4892578125
-272.8271484375
-285.64453125
-292.05322265625
-286.56005859375
-274.658203125
-286.56005859375
-287.4755859375
-279.23583984375
-288.39111328125
-288.39111328125
-270.99609375
-266.41845703125
-274.658203125
-271.91162109375
-282.89794921875
-276.4892578125
-273.74267578125
-270.99609375
-276.4892578125
-275.57373046875
-279.23583984375
-276.4892578125
-289.306640625
-287.4755859375
-280.1513671875
-274.658203125
-275.57373046875
-270.99609375
-280.1513671875
-285.64453125
-281.982421875
-279.23583984375
-264.58740234375
-259.09423828125
-272.8271484375
-268.24951171875
-275.57373046875
-277.40478515625
-280.1513671875
-273.74267578125
-267.333984375
-277.40478515625
-266.41845703125
-271.91162109375
-273.74267578125
-260.009765625
-264.58740234375
-269.1650390625
-268.24951171875
-260.92529296875
-265.5029296875
-259.09423828125
-259.09423828125
-253.60107421875
-257.26318359375
-260.009765625
-266.41845703125
-255.43212890625
-261.8408203125
-277.40478515625
-260.92529296875
-239.8681640625
-250.8544921875
-249.93896484375
-244.44580078125
-248.10791015625
-248.10791015625
-258.1787109375
-265.5029296875
-260.009765625
-242.61474609375
-249.93896484375
-252.685546875
-249.0234375
-251.77001953125
-254.5166015625
-260.92529296875
-249.0234375
-240.78369140625
-247.1923828125
-254.5166015625
-255.43212890625
-257.26318359375
-264.58740234375
-259.09423828125
-252.685546875
-250.8544921875
-251.77001953125
-248.10791015625
-232.5439453125
-243.5302734375
-254.5166015625
-247.1923828125
-248.10791015625
-249.93896484375
-261.8408203125
-257.26318359375
-248.10791015625
-251.77001953125
-244.44580078125
-243.5302734375
-244.44580078125
-247.1923828125
-251.77001953125
-241.69921875
-238.037109375
-252.685546875
-247.1923828125
-243.5302734375
-250.8544921875
-250.8544921875
-255.43212890625
-271.91162109375
-272.8271484375
-270.99609375
-270.99609375
-270.08056640625
-271.91162109375
-260.009765625
-277.40478515625
-282.89794921875
-274.658203125
-276.4892578125
-270.08056640625
-270.99609375
-270.08056640625
-268.24951171875
-278.3203125
-271.91162109375
-269.1650390625
-266.41845703125
-260.009765625
-268.24951171875
-282.89794921875
-258.1787109375
-257.26318359375
-240.78369140625
-237.12158203125
-258.1787109375
-267.333984375
-262.75634765625
-254.5166015625
-252.685546875
-247.1923828125
-240.78369140625
-239.8681640625
-225.2197265625
-237.12158203125
-242.61474609375
-236.2060546875
-238.037109375
-234.375
-239.8681640625
-232.5439453125
-242.61474609375
-244.44580078125
-219.7265625
-223.388671875
-217.8955078125
-224.30419921875
-229.79736328125
-212.40234375
-236.2060546875
-226.13525390625
-218.81103515625
-231.62841796875
-236.2060546875
-229.79736328125
-238.037109375
-223.388671875
-216.064453125
-218.81103515625
-193.17626953125
-185.85205078125
-193.17626953125
-174.86572265625
-170.2880859375
-161.1328125
-162.04833984375
-151.06201171875
-147.39990234375
-131.8359375
-114.44091796875
-116.27197265625
-117.1875
-104.3701171875
-118.10302734375
-121.76513671875
-115.3564453125
-112.60986328125
-138.24462890625
-140.07568359375
-133.6669921875
-147.39990234375
-160.21728515625
-183.10546875
-207.82470703125
-214.2333984375
-227.96630859375
-239.8681640625
-238.95263671875
-243.5302734375
-266.41845703125
-265.5029296875
-254.5166015625
-260.009765625
-279.23583984375
-274.658203125
-287.4755859375
-295.71533203125
-288.39111328125
-293.88427734375
-296.630859375
-299.37744140625
-291.1376953125
-284.72900390625
-288.39111328125
-277.40478515625
-289.306640625
-292.96875
-298.4619140625
-298.4619140625
-303.03955078125
-303.03955078125
-306.70166015625
-318.603515625
-318.603515625
-309.4482421875
-325.01220703125
-354.30908203125
-379.0283203125
-390.93017578125
-385.43701171875
-343.32275390625
-333.251953125
-279.23583984375
-176.69677734375
-54.931640625
97.0458984375
271.91162109375
422.9736328125
558.4716796875
675.6591796875
753.47900390625
794.677734375
732.421875
542.90771484375
314.02587890625
131.8359375
-37.53662109375
-134.58251953125
-222.47314453125
-280.1513671875
-325.927734375
-353.3935546875
-378.11279296875
-386.3525390625
-372.61962890625
-348.81591796875
-328.67431640625
-322.265625
-326.84326171875
-316.7724609375
-311.279296875
-318.603515625
-309.4482421875
-307.6171875
-301.20849609375
-314.02587890625
-315.85693359375
-314.02587890625
-304.87060546875
-306.70166015625
-307.6171875
-301.20849609375
-301.20849609375
-320.4345703125
-318.603515625
-320.4345703125
-315.85693359375
-321.35009765625
-325.01220703125
-304.87060546875
-315.85693359375
-317.68798828125
-305.7861328125
-310.36376953125
-311.279296875
-301.20849609375
-295.71533203125
-307.6171875
-312.19482421875
-312.19482421875
-301.20849609375
-309.4482421875
-317.68798828125
-305.7861328125
-307.6171875
-307.6171875
-304.87060546875
-293.88427734375
-299.37744140625
-298.4619140625
-298.4619140625
-311.279296875
-309.4482421875
-316.7724609375
-294.7998046875
-288.39111328125
-287.4755859375
-282.89794921875
-298.4619140625
-281.06689453125
-287.4755859375
-300.29296875
-295.71533203125
-286.56005859375
-300.29296875
-305.7861328125
-293.88427734375
-276.4892578125
-276.4892578125
-285.64453125
-289.306640625
-294.7998046875
-286.56005859375
-270.99609375
-278.3203125
-276.4892578125
-268.24951171875
-267.333984375
-276.4892578125
-279.23583984375
-270.99609375
-270.08056640625
-268.24951171875
-273.74267578125
-272.8271484375
-275.57373046875
-276.4892578125
-280.1513671875
-284.72900390625
-278.3203125
-274.658203125
-267.333984375
-270.08056640625
-283.8134765625
-268.24951171875
-262.75634765625
-267.333984375
-274.658203125
-284.72900390625
-288.39111328125
-285.64453125
-282.89794921875
-283.8134765625
-281.982421875
-249.0234375
-267.333984375
-270.99609375
-270.08056640625
-275.57373046875
-266.41845703125
-267.333984375
-271.91162109375
-259.09423828125
-261.8408203125
-268.24951171875
-275.57373046875
-263.671875
-262.75634765625
-270.08056640625
-254.5166015625
-268.24951171875
-278.3203125
-262.75634765625
-257.26318359375
-266.41845703125
-270.99609375
-273.74267578125
-277.40478515625
-274.658203125
-276.4892578125
-275.57373046875
-275.57373046875
-284.72900390625
-270.99609375
-272.8271484375
-284.72900390625
-277.40478515625
-286.56005859375
-288.39111328125
-280.1513671875
-275.57373046875
-279.23583984375
-267.333984375
-256.34765625
-280.1513671875
-277.40478515625
-274.658203125
-280.1513671875
-276.4892578125
-264.58740234375
-272.8271484375
-270.08056640625
-267.333984375
-262.75634765625
-285.64453125
-251.77001953125
-231.62841796875
-227.05078125
-256.34765625
-256.34765625
-226.13525390625
-234.375
-243.5302734375
-246.27685546875
-235.29052734375
-227.96630859375
-229.79736328125
-232.5439453125
-235.29052734375
-228.8818359375
-238.037109375
-247.1923828125
-243.5302734375
-230.712890625
-227.05078125
-229.79736328125
-226.13525390625
-226.13525390625
-227.96630859375
-233.45947265625
-236.2060546875
-237.12158203125
-234.375
-227.05078125
-231.62841796875
-229.79736328125
-227.96630859375
-224.30419921875
-218.81103515625
-216.97998046875
-215.14892578125
-203.2470703125
-185.85205078125
-184.02099609375
-174.86572265625
-159.3017578125
-160.21728515625
-165.71044921875
-165.71044921875
-142.822265625
-119.93408203125
-118.10302734375
-100.7080078125
-97.96142578125
-95.21484375
-97.96142578125
-108.94775390625
-108.94775390625
-120.849609375
-123.59619140625
-121.76513671875
-139.16015625
-157.470703125
-161.1328125
-172.119140625
-190.4296875
-209.65576171875
-220.64208984375
-222.47314453125
-220.64208984375
-227.96630859375
-247.1923828125
-254.5166015625
-262.75634765625
-267.333984375
-270.08056640625
-274.658203125
-269.1650390625
-270.99609375
-290.22216796875
-281.982421875
-284.72900390625
-289.306640625
-291.1376953125
-292.05322265625
-288.39111328125
-294.7998046875
-282.89794921875
-281.982421875
-278.3203125
-281.982421875
-281.982421875
-292.96875
-294.7998046875
-300.29296875
-313.1103515625
-314.02587890625
-316.7724609375
-347.900390625
-362.548828125
-371.7041015625
-361.63330078125
-335.99853515625
-305.7861328125
-252.685546875
-147.39990234375
-22.88818359375
134.58251953125
298.4619140625
438.53759765625
571.2890625
685.72998046875
766.29638671875
810.24169921875
751.64794921875
538.330078125
315.85693359375
146.484375
-33.87451171875
-152.89306640625
-227.96630859375
-276.4892578125
-314.02587890625
-335.99853515625
-334.16748046875
-351.5625
-332.33642578125
-302.1240234375
-294.7998046875
-271.91162109375
-268.24951171875
-289.306640625
-280.1513671875
-274.658203125
-280.1513671875
-285.64453125
-292.05322265625
-289.306640625
-285.64453125
-280.1513671875
-281.982421875
-270.99609375
-270.99609375
-269.1650390625
-271.91162109375
-285.64453125
-280.1513671875
-279.23583984375
-280.1513671875
-271.91162109375
-268.24951171875
-278.3203125
-279.23583984375
-275.57373046875
-272.8271484375
-267.333984375
-260.009765625
-268.24951171875
-262.75634765625
-261.8408203125
-266.41845703125
-259.09423828125
-272.8271484375
-269.1650390625
-250.8544921875
-244.44580078125
-253.60107421875
-257.26318359375
-264.58740234375
-251.77001953125
-244.44580078125
-243.5302734375
-256.34765625
-256.34765625
-255.43212890625
-253.60107421875
-249.93896484375
-252.685546875
-253.60107421875
-247.1923828125
-260.92529296875
-258.1787109375
-240.78369140625
-224.30419921875
-232.5439453125
-238.95263671875
-236.2060546875
-231.62841796875
-243.5302734375
-239.8681640625
-234.375
-252.685546875
-232.5439453125
-222.47314453125
-227.05078125
-226.13525390625
-222.47314453125
-215.14892578125
-224.30419921875
-216.97998046875
-214.2333984375
-222.47314453125
-220.64208984375
-210.5712890625
-209.65576171875
-213.31787109375
-212.40234375
-206.9091796875
-205.99365234375
-211.48681640625
-212.40234375
-197.75390625
-211.48681640625
-213.31787109375
-202.33154296875
-210.5712890625
-224.30419921875
-212.40234375
-215.14892578125
-227.96630859375
-227.05078125
-212.40234375
-213.31787109375
-214.2333984375
-205.99365234375
-218.81103515625
-201.416015625
-198.66943359375
-204.16259765625
-199.5849609375
-199.5849609375
-202.33154296875
-210.5712890625
-209.65576171875
-216.064453125
-212.40234375
-205.99365234375
-205.078125
-203.2470703125
-210.5712890625
-212.40234375
-205.99365234375
-213.31787109375
-220.64208984375
-210.5712890625
-225.2197265625
-220.64208984375
-211.48681640625
-208.740234375
-219.7265625
-233.45947265625
-229.79736328125
-223.388671875
-231.62841796875
-217.8955078125
-222.47314453125
-227.05078125
-216.064453125
-225.2197265625
-228.8818359375
-227.96630859375
-229.79736328125
-229.79736328125
-226.13525390625
-216.97998046875
-214.2333984375
-219.7265625
-211.48681640625
-205.078125
-216.064453125
-215.14892578125
-205.078125
-214.2333984375
-205.078125
-216.97998046875
-211.48681640625
-201.416015625
-205.078125
-205.078125
-206.9091796875
-207.82470703125
-201.416015625
-217.8955078125
-199.5849609375
-190.4296875
-185.85205078125
-185.85205078125
-190.4296875
-193.17626953125
-199.5849609375
-196.83837890625
-200.50048828125
-184.02099609375
-182.18994140625
-184.02099609375
-189.51416015625
-197.75390625
-184.02099609375
-164.794921875
-172.119140625
-171.20361328125
-180.35888671875
-169.37255859375
-172.119140625
-179.443359375
-188.5986328125
-178.52783203125
-177.6123046875
-179.443359375
-187.68310546875
-179.443359375
-177.6123046875
-166.6259765625
-145.56884765625
-124.51171875
-119.93408203125
-120.849609375
-112.60986328125
-114.44091796875
-109.86328125
-108.0322265625
-100.7080078125
-97.0458984375
-86.97509765625
-57.67822265625
-50.35400390625
-53.1005859375
-46.69189453125
-56.7626953125
-61.34033203125
-64.0869140625
-68.66455078125
-77.81982421875
-83.31298828125
-95.21484375
-99.79248046875
-116.27197265625
-137.3291015625
-149.23095703125
-157.470703125
-172.119140625
-180.35888671875
-170.2880859375
-182.18994140625
-203.2470703125
-209.65576171875
-215.14892578125
-219.7265625
-214.2333984375
-224.30419921875
-242.61474609375
-226.13525390625
-232.5439453125
-236.2060546875
-239.8681640625
-237.12158203125
-233.45947265625
-243.5302734375
-243.5302734375
-242.61474609375
-238.95263671875
-238.037109375
-253.60107421875
-249.0234375
-244.44580078125
-218.81103515625
-217.8955078125
-226.13525390625
-249.93896484375
-258.1787109375
-282.89794921875
-299.37744140625
-314.02587890625
-316.7724609375
-304.87060546875
-307.6171875
-279.23583984375
-221.5576171875
-140.07568359375
-24.71923828125
135.498046875
321.35009765625
469.66552734375
596.923828125
706.787109375
795.59326171875
851.4404296875
811.1572265625
628.0517578125
392.76123046875
197.75390625
19.22607421875
-101.62353515625
-183.10546875
-228.8818359375
-265.5029296875
-296.630859375
-304.87060546875
-298.4619140625
-292.96875
-280.1513671875
-256.34765625
-240.78369140625
-234.375
-224.30419921875
-233.45947265625
-242.61474609375
-240.78369140625
-249.0234375
-256.34765625
-260.92529296875
-248.10791015625
-251.77001953125
-252.685546875
-262.75634765625
-245.361328125
-244.44580078125
-244.44580078125
-251.77001953125
-257.26318359375
-235.29052734375
-228.8818359375
-238.95263671875
-235.29052734375
-238.95263671875
-241.69921875
-236.2060546875
-245.361328125
-256.34765625
-258.1787109375
-259.09423828125
-238.037109375
-227.05078125
-227.05078125
-233.45947265625
-232.5439453125
-241.69921875
-246.27685546875
-249.0234375
-251.77001953125
-239.8681640625
-227.05078125
-236.2060546875
-239.8681640625
-231.62841796875
-231.62841796875
-230.712890625
-231.62841796875
-232.5439453125
-231.62841796875
-229.79736328125
-231.62841796875
-225.2197265625
-215.14892578125
-226.13525390625
-227.05078125
-227.96630859375
-228.8818359375
-232.5439453125
-233.45947265625
-224.30419921875
-216.97998046875
-216.064453125
-214.2333984375
-212.40234375
-207.82470703125
-198.66943359375
-203.2470703125
-191.34521484375
-201.416015625
-207.82470703125
-206.9091796875
-194.091796875
-195.00732421875
-204.16259765625
-199.5849609375
-202.33154296875
-212.40234375
-189.51416015625
-187.68310546875
-189.51416015625
-205.078125
-201.416015625
-203.2470703125
-194.091796875
-192.2607421875
-203.2470703125
-209.65576171875
-201.416015625
-196.83837890625
-204.16259765625
-199.5849609375
-203.2470703125
-209.65576171875
-203.2470703125
-197.75390625
-199.5849609375
-190.4296875
-189.51416015625
-196.83837890625
-191.34521484375
-188.5986328125
-190.4296875
-203.2470703125
-206.9091796875
-200.50048828125
-203.2470703125
-198.66943359375
-192.2607421875
-182.18994140625
-183.10546875
-184.9365234375
-190.4296875
-199.5849609375
-202.33154296875
-201.416015625
-199.5849609375
-197.75390625
-197.75390625
-199.5849609375
-203.2470703125
-191.34521484375
-205.99365234375
-213.31787109375
-216.97998046875
-218.81103515625
-216.064453125
-204.16259765625
-205.99365234375
-216.97998046875
-221.5576171875
-217.8955078125
-232.5439453125
-219.7265625
-216.97998046875
-216.064453125
-217.8955078125
-222.47314453125
-208.740234375
-211.48681640625
-219.7265625
-215.14892578125
-213.31787109375
-211.48681640625
-210.5712890625
-213.31787109375
-215.14892578125
-209.65576171875
-189.51416015625
-186.767578125
-184.02099609375
-184.02099609375
-185.85205078125
-178.52783203125
-176.69677734375
-191.34521484375
-190.4296875
-192.2607421875
-184.9365234375
-183.10546875
-184.02099609375
-179.443359375
-173.03466796875
-168.45703125
-163.87939453125
-166.6259765625
-168.45703125
-162.9638671875
-172.119140625
-178.52783203125
-168.45703125
-153.80859375
-173.9501953125
-163.87939453125
-163.87939453125
-164.794921875
-165.71044921875
-176.69677734375
-176.69677734375
-174.86572265625
-176.69677734375
-184.02099609375
-180.35888671875
-176.69677734375
-175.78125
-183.10546875
-178.52783203125
-182.18994140625
-154.72412109375
-139.16015625
-130.92041015625
-119.0185546875
-121.76513671875
-119.93408203125
-100.7080078125
-98.876953125
-104.3701171875
-97.0458984375
-92.46826171875
-84.228515625
-57.67822265625
-43.9453125
-44.86083984375
-46.69189453125
-41.19873046875
-44.86083984375
-48.52294921875
-52.18505859375
-63.17138671875
-56.7626953125
-58.59375
-80.56640625
-86.0595703125
-98.876953125
-128.173828125
-134.58251953125
-140.07568359375
-162.04833984375
-163.87939453125
-173.9501953125
-177.6123046875
-175.78125
-186.767578125
-200.50048828125
-202.33154296875
-214.2333984375
-226.13525390625
-224.30419921875
-222.47314453125
-226.13525390625
-234.375
-229.79736328125
-227.05078125
-220.64208984375
-221.5576171875
-231.62841796875
-232.5439453125
-219.7265625
-218.81103515625
-228.8818359375
-234.375
-229.79736328125
-206.9091796875
-213.31787109375
-216.97998046875
-222.47314453125
-253.60107421875
-272.8271484375
-278.3203125
-299.37744140625
-324.0966796875
-313.1103515625
-287.4755859375
-258.1787109375
-213.31787109375
-121.76513671875
2.74658203125
162.04833984375
330.50537109375
484.31396484375
617.98095703125
745.2392578125
821.22802734375
881.65283203125
826.72119140625
649.10888671875
401.0009765625
217.8955078125
50.35400390625
-75.98876953125
-157.470703125
-209.65576171875
-245.361328125
-281.06689453125
-276.4892578125
-281.06689453125
-278.3203125
-259.09423828125
-242.61474609375
-228.8818359375
-216.97998046875
-225.2197265625
-238.037109375
-245.361328125
-227.05078125
-227.96630859375
-229.79736328125
-230.712890625
-229.79736328125
-230.712890625
-230.712890625
-238.037109375
-240.78369140625
-227.05078125
-228.8818359375
-227.05078125
-231.62841796875
-230.712890625
-229.79736328125
-228.8818359375
-226.13525390625
-227.96630859375
-235.29052734375
-242.61474609375
-234.375
-226.13525390625
-222.47314453125
-227.96630859375
-225.2197265625
-222.47314453125
-217.8955078125
-216.064453125
-221.5576171875
-223.388671875
-228.8818359375
-237.12158203125
-228.8818359375
-229.79736328125
-226.13525390625
-219.7265625
-216.064453125
-227.05078125
-223.388671875
-227.96630859375
-237.12158203125
-228.8818359375
-215.14892578125
-214.2333984375
-219.7265625
-219.7265625
-228.8818359375
-231.62841796875
-220.64208984375
-216.064453125
-217.8955078125
-217.8955078125
-213.31787109375
-214.2333984375
-199.5849609375
-205.99365234375
-215.14892578125
-191.34521484375
-205.078125
-211.48681640625
-203.2470703125
-195.9228515625
-193.17626953125
-189.51416015625
-183.10546875
-197.75390625
-205.99365234375
-197.75390625
-202.33154296875
-200.50048828125
-193.17626953125
-192.2607421875
-190.4296875
-193.17626953125
-197.75390625
-197.75390625
-188.5986328125
-185.85205078125
-195.00732421875
-203.2470703125
-200.50048828125
-194.091796875
-195.00732421875
-191.34521484375
-195.9228515625
-193.17626953125
-193.17626953125
-185.85205078125
-186.767578125
-179.443359375
-181.2744140625
-183.10546875
-196.83837890625
-201.416015625
-186.767578125
-183.10546875
-186.767578125
-174.86572265625
-192.2607421875
-192.2607421875
-184.9365234375
-174.86572265625
-185.85205078125
-181.2744140625
-178.52783203125
-189.51416015625
-184.02099609375
-189.51416015625
-185.85205078125
-191.34521484375
-192.2607421875
-189.51416015625
-193.17626953125
-193.17626953125
-195.00732421875
-198.66943359375
-195.00732421875
-198.66943359375
-208.740234375
-210.5712890625
-219.7265625
-211.48681640625
-203.2470703125
-207.82470703125
-204.16259765625
-208.740234375
-209.65576171875
-214.2333984375
-220.64208984375
-219.7265625
-206.9091796875
-202.33154296875
-207.82470703125
-202.33154296875
-205.078125
-207.82470703125
-208.740234375
-207.82470703125
-201.416015625
-192.2607421875
-193.17626953125
-191.34521484375
-185.85205078125
-187.68310546875
-185.85205078125
-193.17626953125
-187.68310546875
-168.45703125
-166.6259765625
-177.6123046875
-178.52783203125
-171.20361328125
-166.6259765625
-166.6259765625
-159.3017578125
-159.3017578125
-160.21728515625
-174.86572265625
-179.443359375
-170.2880859375
-171.20361328125
-169.37255859375
-165.71044921875
-173.03466796875
-170.2880859375
-170.2880859375
-178.52783203125
-173.9501953125
-152.89306640625
-155.6396484375
-159.3017578125
-169.37255859375
-163.87939453125
-166.6259765625
-163.87939453125
-158.38623046875
-158.38623046875
-142.822265625
-128.173828125
-104.3701171875
-100.7080078125
-93.3837890625
-99.79248046875
-98.876953125
-81.48193359375
-74.15771484375
-71.4111328125
-51.26953125
-42.1142578125
-54.01611328125
-49.4384765625
-40.283203125
-51.26953125
-51.26953125
-43.9453125
-63.17138671875
-71.4111328125
-86.97509765625
-93.3837890625
-90.63720703125
-90.63720703125
-98.876953125
-123.59619140625
-157.470703125
-168.45703125
-170.2880859375
-169.37255859375
-177.6123046875
-184.02099609375
-190.4296875
-195.9228515625
-205.99365234375
-214.2333984375
-210.5712890625
-214.2333984375
-211.48681640625
-231.62841796875
-229.79736328125
-223.388671875
-227.05078125
-226.13525390625
-240.78369140625
-234.375
-231.62841796875
-225.2197265625
-238.95263671875
-239.8681640625
-235.29052734375
-242.61474609375
-249.93896484375
-232.5439453125
-233.45947265625
-240.78369140625
-261.8408203125
-277.40478515625
-296.630859375
-306.70166015625
-312.19482421875
-314.02587890625
-267.333984375
-250.8544921875
-193.17626953125
-106.201171875
10.986328125
175.78125
357.97119140625
508.11767578125
628.0517578125
735.16845703125
805.6640625
850.52490234375
780.029296875
581.35986328125
340.576171875
164.794921875
-16.4794921875
-124.51171875
-198.66943359375
-226.13525390625
-260.009765625
-276.4892578125
-294.7998046875
-315.85693359375
-296.630859375
-287.4755859375
-270.99609375
-261.8408203125
-250.8544921875
-248.10791015625
-246.27685546875
-256.34765625
-254.5166015625
-255.43212890625
-270.08056640625
-262.75634765625
-269.1650390625
-259.09423828125
-269.1650390625
-262.75634765625
-263.671875
-264.58740234375
-260.009765625
-256.34765625
-252.685546875
-255.43212890625
-265.5029296875
-262.75634765625
-249.93896484375
-247.1923828125
-247.1923828125
-249.0234375
-246.27685546875
-250.8544921875
-266.41845703125
-260.92529296875
-251.77001953125
-250.8544921875
-248.10791015625
-251.77001953125
-256.34765625
-254.5166015625
-246.27685546875
-249.0234375
-244.44580078125
-239.8681640625
-249.0234375
-244.44580078125
-246.27685546875
-241.69921875
-251.77001953125
-245.361328125
-249.0234375
-240.78369140625
-241.69921875
-231.62841796875
-243.5302734375
-259.09423828125
-243.5302734375
-234.375
-236.2060546875
-243.5302734375
-233.45947265625
-237.12158203125
-234.375
-241.69921875
-249.0234375
-244.44580078125
-249.93896484375
-239.8681640625
-235.29052734375
-238.037109375
-243.5302734375
-231.62841796875
-225.2197265625
-233.45947265625
-218.81103515625
-216.97998046875
-216.97998046875
-218.81103515625
-230.712890625
-217.8955078125
-219.7265625
-228.8818359375
-225.2197265625
-230.712890625
-239.8681640625
-236.2060546875
-220.64208984375
-220.64208984375
-228.8818359375
-236.2060546875
-229.79736328125
-225.2197265625
-235.29052734375
-229.79736328125
-231.62841796875
-242.61474609375
-235.29052734375
-238.037109375
-236.2060546875
-236.2060546875
-242.61474609375
-231.62841796875
-223.388671875
-223.388671875
-231.62841796875
-227.96630859375
-224.30419921875
-244.44580078125
-227.05078125
-208.740234375
-216.97998046875
-214.2333984375
-210.5712890625
-208.740234375
-212.40234375
-213.31787109375
-221.5576171875
-227.96630859375
-232.5439453125
-236.2060546875
-234.375
-238.037109375
-239.8681640625
-237.12158203125
-239.8681640625
-260.009765625
-251.77001953125
-237.12158203125
-241.69921875
-235.29052734375
-233.45947265625
-252.685546875
-246.27685546875
-256.34765625
-256.34765625
-260.009765625
-248.10791015625
-247.1923828125
-246.27685546875
-251.77001953125
-238.037109375
-235.29052734375
-237.12158203125
-237.12158203125
-229.79736328125
-236.2060546875
-235.29052734375
-233.45947265625
-229.79736328125
-223.388671875
-226.13525390625
-222.47314453125
-223.388671875
-230.712890625
-220.64208984375
-226.13525390625
-224.30419921875
-219.7265625
-218.81103515625
-207.82470703125
-220.64208984375
-204.16259765625
-205.99365234375
-210.5712890625
-207.82470703125
-204.16259765625
-206.9091796875
-203.2470703125
-207.82470703125
-203.2470703125
-189.51416015625
-190.4296875
-192.2607421875
-185.85205078125
-186.767578125
-195.9228515625
-200.50048828125
-195.9228515625
-202.33154296875
-196.83837890625
-195.9228515625
-182.18994140625
-169.37255859375
-158.38623046875
-155.6396484375
-143.73779296875
-144.6533203125
-151.06201171875
-142.822265625
-137.3291015625
-126.3427734375
-118.10302734375
-96.13037109375
-86.97509765625
-80.56640625
-80.56640625
-77.81982421875
-83.31298828125
-82.3974609375
-91.552734375
-99.79248046875
-94.29931640625
-94.29931640625
-104.3701171875
-127.25830078125
-123.59619140625
-126.3427734375
-161.1328125
-187.68310546875
-194.091796875
-208.740234375
-209.65576171875
-212.40234375
-208.740234375
-221.5576171875
-230.712890625
-235.29052734375
-235.29052734375
-245.361328125
-248.10791015625
-253.60107421875
-260.009765625
-252.685546875
-259.09423828125
-269.1650390625
-265.5029296875
-260.92529296875
-259.09423828125
-265.5029296875
-273.74267578125
-268.24951171875
-269.1650390625
-272.8271484375
-265.5029296875
-265.5029296875
-256.34765625
-269.1650390625
-262.75634765625
-268.24951171875
-279.23583984375
-297.54638671875
-319.51904296875
-332.33642578125
-353.3935546875
-329.58984375
-304.87060546875
-277.40478515625
-215.14892578125
-131.8359375
10.07080078125
175.78125
338.7451171875
475.15869140625
596.923828125
704.9560546875
786.43798828125
823.974609375
747.0703125
547.4853515625
329.58984375
152.89306640625
-23.8037109375
-130.0048828125
-182.18994140625
-218.81103515625
-270.99609375
-289.306640625
-305.7861328125
-320.4345703125
-318.603515625
-307.6171875
-297.54638671875
-281.982421875
-264.58740234375
-266.41845703125
-266.41845703125
-263.671875
-266.41845703125
-272.8271484375
-278.3203125
-269.1650390625
-272.8271484375
-271.91162109375
-276.4892578125
-273.74267578125
-272.8271484375
-265.5029296875
-267.333984375
-268.24951171875
-266.41845703125
-268.24951171875
-270.99609375
-267.333984375
-272.8271484375
-265.5029296875
-270.99609375
-264.58740234375
-272.8271484375
-260.009765625
-270.99609375
-265.5029296875
-264.58740234375
-259.09423828125
-260.92529296875
-268.24951171875
-275.57373046875
-270.08056640625
-268.24951171875
-265.5029296875
-258.1787109375
-260.009765625
-269.1650390625
-258.1787109375
-253.60107421875
-252.685546875
-252.685546875
-257.26318359375
-251.77001953125
-258.1787109375
-260.009765625
-251.77001953125
-260.92529296875
-254.5166015625
-249.0234375
-257.26318359375
-258.1787109375
-248.10791015625
-251.77001953125
-254.5166015625
-245.361328125
-241.69921875
-243.5302734375
-239.8681640625
-231.62841796875
-229.79736328125
-246.27685546875
-243.5302734375
-238.037109375
-237.12158203125
-237.12158203125
-243.5302734375
-248.10791015625
-231.62841796875
-227.05078125
-224.30419921875
-215.14892578125
-209.65576171875
-227.05078125
-231.62841796875
-227.05078125
-230.712890625
-230.712890625
-231.62841796875
-230.712890625
-226.13525390625
-235.29052734375
-231.62841796875
-227.05078125
-231.62841796875
-240.78369140625
-227.96630859375
-226.13525390625
-227.05078125
-227.96630859375
-228.8818359375
-229.79736328125
-241.69921875
-239.8681640625
-237.12158203125
-238.95263671875
-241.69921875
-229.79736328125
-221.5576171875
-230.712890625
-228.8818359375
-221.5576171875
-225.2197265625
-227.05078125
-239.8681640625
-230.712890625
-232.5439453125
-230.712890625
-230.712890625
-232.5439453125
-237.12158203125
-243.5302734375
-253.60107421875
-248.10791015625
-253.60107421875
-252.685546875
-255.43212890625
-260.92529296875
-266.41845703125
-270.08056640625
-261.8408203125
-261.8408203125
-253.60107421875
-256.34765625
-272.8271484375
-271.91162109375
-263.671875
-274.658203125
-270.99609375
-271.91162109375
-276.4892578125
-272.8271484375
-277.40478515625
-270.08056640625
-276.4892578125
-275.57373046875
-261.8408203125
-264.58740234375
-261.8408203125
-265.5029296875
-260.92529296875
-263.671875
-258.1787109375
-255.43212890625
-251.77001953125
-237.12158203125
-249.93896484375
-245.361328125
-233.45947265625
-229.79736328125
-230.712890625
-224.30419921875
-218.81103515625
-222.47314453125
-226.13525390625
-227.05078125
-223.388671875
-220.64208984375
-234.375
-229.79736328125
-212.40234375
-215.14892578125
-205.99365234375
-205.99365234375
-211.48681640625
-214.2333984375
-210.5712890625
-216.97998046875
-219.7265625
-210.5712890625
-205.078125
-215.14892578125
-205.99365234375
-205.078125
-215.14892578125
-185.85205078125
-177.6123046875
-164.794921875
-149.23095703125
-148.3154296875
-140.9912109375
-134.58251953125
-136.41357421875
-131.8359375
-111.6943359375
-119.93408203125
-103.45458984375
-90.63720703125
-86.97509765625
-90.63720703125
-83.31298828125
-75.0732421875
-83.31298828125
-93.3837890625
-98.876953125
-95.21484375
-105.28564453125
-117.1875
-133.6669921875
-130.92041015625
-142.822265625
-166.6259765625
-172.119140625
-177.6123046875
-202.33154296875
-207.82470703125
-217.8955078125
-211.48681640625
-219.7265625
-234.375
-238.037109375
-244.44580078125
-258.1787109375
-257.26318359375
-244.44580078125
-263.671875
-260.92529296875
-259.09423828125
-260.009765625
-258.1787109375
-249.93896484375
-263.671875
-260.92529296875
-265.5029296875
-260.009765625
-266.41845703125
-264.58740234375
-266.41845703125
-265.5029296875
-270.99609375
-270.08056640625
-265.5029296875
-278.3203125
-290.22216796875
-310.36376953125
-325.01220703125
-335.0830078125
-342.4072265625
-325.01220703125
-297.54638671875
-253.60107421875
-181.2744140625
-67.7490234375
57.67822265625
225.2197265625
389.09912109375
524.59716796875
636.29150390625
736.99951171875
802.001953125
798.33984375
662.841796875
422.9736328125
230.712890625
63.17138671875
-75.0732421875
-167.54150390625
-233.45947265625
-281.06689453125
-304.87060546875
-308.53271484375
-314.02587890625
-307.6171875
-292.05322265625
-285.64453125
-261.8408203125
-257.26318359375
-258.1787109375
-252.685546875
-256.34765625
-263.671875
-254.5166015625
-260.009765625
-263.671875
-267.333984375
-266.41845703125
-274.658203125
-267.333984375
-272.8271484375
-263.671875
-260.009765625
-270.99609375
-266.41845703125
-260.92529296875
-258.1787109375
-256.34765625
-261.8408203125
-256.34765625
-256.34765625
-251.77001953125
-242.61474609375
-265.5029296875
-264.58740234375
-270.08056640625
-264.58740234375
-247.1923828125
-255.43212890625
-250.8544921875
-256.34765625
-252.685546875
-249.0234375
-255.43212890625
-243.5302734375
-240.78369140625
-253.60107421875
-256.34765625
-260.009765625
-253.60107421875
-243.5302734375
-249.0234375
-244.44580078125
-249.0234375
-248.10791015625
-243.5302734375
-235.29052734375
-237.12158203125
-230.712890625
-230.712890625
-239.8681640625
-240.78369140625
-232.5439453125
-225.2197265625
-225.2197265625
-227.96630859375
-226.13525390625
-217.8955078125
-221.5576171875
-215.14892578125
-214.2333984375
-216.97998046875
-214.2333984375
-222.47314453125
-211.48681640625
-213.31787109375
-206.9091796875
-208.740234375
-207.82470703125
-213.31787109375
-198.66943359375
-200.50048828125
-203.2470703125
-198.66943359375
-193.17626953125
-188.5986328125
-205.99365234375
-199.5849609375
-202.33154296875
-203.2470703125
-208.740234375
-207.82470703125
-207.82470703125
-203.2470703125
-210.5712890625
-210.5712890625
-207.82470703125
-213.31787109375
-208.740234375
-205.99365234375
-198.66943359375
-198.66943359375
-191.34521484375
-195.9228515625
-204.16259765625
-202.33154296875
-194.091796875
-201.416015625
-202.33154296875
-199.5849609375
-195.00732421875
-195.9228515625
-196.83837890625
-197.75390625
-199.5849609375
-201.416015625
-195.00732421875
-205.99365234375
-210.5712890625
-202.33154296875
-199.5849609375
-199.5849609375
-203.2470703125
-204.16259765625
-214.2333984375
-209.65576171875
-207.82470703125
-205.078125
-195.9228515625
-201.416015625
-211.48681640625
-216.97998046875
-220.64208984375
-214.2333984375
-216.064453125
-227.05078125
-225.2197265625
-218.81103515625
-225.2197265625
-225.2197265625
-233.45947265625
-223.388671875
-217.8955078125
-215.14892578125
-215.14892578125
-223.388671875
-223.388671875
-209.65576171875
-213.31787109375
-215.14892578125
-210.5712890625
-213.31787109375
-198.66943359375
-199.5849609375
-204.16259765625
-209.65576171875
-207.82470703125
-190.4296875
-189.51416015625
-185.85205078125
-181.2744140625
-187.68310546875
-190.4296875
-190.4296875
-182.18994140625
-186.767578125
-187.68310546875
-184.9365234375
-173.03466796875
-175.78125
-175.78125
-172.119140625
-175.78125
-173.9501953125
-173.9501953125
-166.6259765625
-173.03466796875
-173.03466796875
-179.443359375
-172.119140625
-177.6123046875
-172.119140625
-162.9638671875
-167.54150390625
-171.20361328125
-166.6259765625
-166.6259765625
-172.119140625
-156.55517578125
-119.93408203125
-113.525390625
-108.94775390625
-108.94775390625
-103.45458984375
-96.13037109375
-94.29931640625
-85.14404296875
-81.48193359375
-78.7353515625
-54.01611328125
-23.8037109375
-36.62109375
-39.36767578125
-38.4521484375
-42.1142578125
-53.1005859375
-61.34033203125
-68.66455078125
-67.7490234375
-76.904296875
-97.0458984375
-93.3837890625
-94.29931640625
-114.44091796875
-139.16015625
-152.89306640625
-168.45703125
-181.2744140625
-174.86572265625
-180.35888671875
-183.10546875
-180.35888671875
-199.5849609375
-208.740234375
-210.5712890625
-212.40234375
-219.7265625
-220.64208984375
-222.47314453125
-227.05078125
-238.037109375
-222.47314453125
-228.8818359375
-230.712890625
-227.05078125
-226.13525390625
-228.8818359375
-238.037109375
-241.69921875
-236.2060546875
-241.69921875
-235.29052734375
-234.375
-241.69921875
-241.69921875
-240.78369140625
-261.8408203125
-286.56005859375
-299.37744140625
-316.7724609375
-313.1103515625
-295.71533203125
-273.74267578125
-208.740234375
-108.94775390625
11.90185546875
170.2880859375
332.33642578125
483.3984375
609.7412109375
723.2666015625
801.08642578125
849.609375
803.8330078125
604.248046875
376.28173828125
195.9228515625
11.90185546875
-104.3701171875
-173.9501953125
-232.5439453125
-266.41845703125
-296.630859375
-307.6171875
-302.1240234375
-275.57373046875
-246.27685546875
-234.375
-232.5439453125
-242.61474609375
-244.44580078125
-243.5302734375
-241.69921875
-240.78369140625
-241.69921875
-238.037109375
-245.361328125
-236.2060546875
-244.44580078125
-246.27685546875
-231.62841796875
-233.45947265625
-237.12158203125
-238.95263671875
-243.5302734375
-236.2060546875
-231.62841796875
-231.62841796875
-234.375
-233.45947265625
-209.65576171875
-224.30419921875
-238.037109375
-235.29052734375
-232.5439453125
-242.61474609375
-236.2060546875
-238.037109375
-248.10791015625
-234.375
-219.7265625
-232.5439453125
-232.5439453125
-228.8818359375
-228.8818359375
-223.388671875
-224.30419921875
-227.05078125
-227.96630859375
-223.388671875
-213.31787109375
-212.40234375
-213.31787109375
-213.31787109375
-219.7265625
-227.05078125
-220.64208984375
-221.5576171875
-217.8955078125
-207.82470703125
-211.48681640625
-208.740234375
-205.078125
-215.14892578125
-221.5576171875
-205.99365234375
-199.5849609375
-199.5849609375
-197.75390625
-196.83837890625
-188.5986328125
-186.767578125
-184.9365234375
-184.02099609375
-187.68310546875
-187.68310546875
-194.091796875
-188.5986328125
-170.2880859375
-181.2744140625
-174.86572265625
-174.86572265625
-167.54150390625
-174.86572265625
-181.2744140625
-177.6123046875
-177.6123046875
-179.443359375
-175.78125
-173.03466796875
-164.794921875
-163.87939453125
-176.69677734375
-182.18994140625
-174.86572265625
-174.86572265625
-180.35888671875
-175.78125
-179.443359375
-176.69677734375
-174.86572265625
-172.119140625
-178.52783203125
-171.20361328125
-173.03466796875
-171.20361328125
-164.794921875
-160.21728515625
-166.6259765625
-161.1328125
-158.38623046875
-165.71044921875
-173.9501953125
-168.45703125
-172.119140625
-182.18994140625
-170.2880859375
-173.9501953125
-179.443359375
-181.2744140625
-170.2880859375
-173.03466796875
-184.9365234375
-182.18994140625
-184.9365234375
-182.18994140625
-191.34521484375
-183.10546875
-183.10546875
-184.9365234375
-180.35888671875
-180.35888671875
-186.767578125
-191.34521484375
-193.17626953125
-201.416015625
-200.50048828125
-191.34521484375
-182.18994140625
-189.51416015625
-196.83837890625
-196.83837890625
-205.99365234375
-196.83837890625
-199.5849609375
-195.00732421875
-192.2607421875
-192.2607421875
-191.34521484375
-194.091796875
-184.9365234375
-183.10546875
-180.35888671875
-180.35888671875
-178.52783203125
-191.34521484375
-191.34521484375
-173.03466796875
-169.37255859375
-174.86572265625
-178.52783203125
-175.78125
-166.6259765625
-162.04833984375
-159.3017578125
-152.89306640625
-149.23095703125
-149.23095703125
-151.06201171875
-149.23095703125
-157.470703125
-153.80859375
-141.90673828125
-140.07568359375
-140.07568359375
-143.73779296875
-148.3154296875
-144.6533203125
-142.822265625
-144.6533203125
-146.484375
-144.6533203125
-141.90673828125
-147.39990234375
-154.72412109375
-165.71044921875
-151.9775390625
-149.23095703125
-149.23095703125
-147.39990234375
-150.146484375
-148.3154296875
-140.9912109375
-140.9912109375
-130.0048828125
-110.77880859375
-105.28564453125
-97.96142578125
-88.80615234375
-83.31298828125
-85.14404296875
-75.98876953125
-69.580078125
-63.17138671875
-45.7763671875
-35.70556640625
-23.8037109375
-24.71923828125
-24.71923828125
-26.55029296875
-32.04345703125
-23.8037109375
-35.70556640625
-39.36767578125
-31.1279296875
-36.62109375
-53.1005859375
-57.67822265625
-77.81982421875
-87.890625
-110.77880859375
-130.0048828125
-146.484375
-156.55517578125
-151.06201171875
-156.55517578125
-162.04833984375
-165.71044921875
-161.1328125
-169.37255859375
-183.10546875
-200.50048828125
-197.75390625
-202.33154296875
-207.82470703125
-202.33154296875
-208.740234375
-216.064453125
-216.064453125
-204.16259765625
-209.65576171875
-211.48681640625
-203.2470703125
-209.65576171875
-205.078125
-203.2470703125
-207.82470703125
-209.65576171875
-206.9091796875
-204.16259765625
-206.9091796875
-220.64208984375
-234.375
-256.34765625
-274.658203125
-280.1513671875
-285.64453125
-276.4892578125
-253.60107421875
-205.078125
-114.44091796875
2.74658203125
154.72412109375
328.67431640625
477.9052734375
606.99462890625
743.408203125
838.623046875
888.97705078125
866.0888671875
714.111328125
466.00341796875
269.1650390625
88.80615234375
-42.1142578125
-127.25830078125
-179.443359375
-220.64208984375
-254.5166015625
-261.8408203125
-273.74267578125
-253.60107421875
-247.1923828125
-239.8681640625
-217.8955078125
-205.078125
-199.5849609375
-209.65576171875
-219.7265625
-214.2333984375
-208.740234375
-220.64208984375
-205.078125
-214.2333984375
-209.65576171875
-219.7265625
-225.2197265625
-211.48681640625
-206.9091796875
-203.2470703125
-204.16259765625
-199.5849609375
-205.99365234375
-206.9091796875
-200.50048828125
-207.82470703125
-201.416015625
-205.99365234375
-225.2197265625
-209.65576171875
-206.9091796875
-209.65576171875
-215.14892578125
-210.5712890625
-205.99365234375
-202.33154296875
-209.65576171875
-205.99365234375
-204.16259765625
-193.17626953125
-193.17626953125
-205.078125
-193.17626953125
-188.5986328125
-196.83837890625
-208.740234375
-190.4296875
-188.5986328125
-195.9228515625
-191.34521484375
-199.5849609375
-196.83837890625
-190.4296875
-195.00732421875
-195.9228515625
-195.00732421875
-191.34521484375
-194.091796875
-181.2744140625
-182.18994140625
-185.85205078125
-188.5986328125
-172.119140625
-173.03466796875
-176.69677734375
-180.35888671875
-178.52783203125
-176.69677734375
-170.2880859375
-175.78125
-159.3017578125
-163.87939453125
-173.03466796875
-168.45703125
-151.06201171875
-161.1328125
-168.45703125
-158.38623046875
-161.1328125
-160.21728515625
-163.87939453125
-153.80859375
-151.9775390625
-160.21728515625
-160.21728515625
-156.55517578125
-155.6396484375
-166.6259765625
-170.2880859375
-163.87939453125
-163.87939453125
-161.1328125
-160.21728515625
-159.3017578125
-154.72412109375
-156.55517578125
-171.20361328125
-168.45703125
-168.45703125
-160.21728515625
-169.37255859375
-165.71044921875
-148.3154296875
-152.89306640625
-164.794921875
-159.3017578125
-151.06201171875
-167.54150390625
-165.71044921875
-154.72412109375
-173.9501953125
-169.37255859375
-146.484375
-155.6396484375
-167.54150390625
-155.6396484375
-173.03466796875
-154.72412109375
-156.55517578125
-164.794921875
-173.9501953125
-178.52783203125
-180.35888671875
-175.78125
-174.86572265625
-189.51416015625
-188.5986328125
-184.9365234375
-194.091796875
-180.35888671875
-182.18994140625
-195.9228515625
-187.68310546875
-187.68310546875
-183.10546875
-186.767578125
-177.6123046875
-187.68310546875
-186.767578125
-190.4296875
-184.02099609375
-181.2744140625
-180.35888671875
-174.86572265625
-188.5986328125
-182.18994140625
-176.69677734375
-188.5986328125
-186.767578125
-182.18994140625
-169.37255859375
-151.06201171875
-153.80859375
-162.9638671875
-159.3017578125
-165.71044921875
-163.87939453125
-161.1328125
-173.9501953125
-164.794921875
-163.87939453125
-157.470703125
-151.9775390625
-157.470703125
-162.9638671875
-148.3154296875
-151.9775390625
-140.9912109375
-140.9912109375
-140.9912109375
-145.56884765625
-142.822265625
-155.6396484375
-153.80859375
-143.73779296875
-140.9912109375
-148.3154296875
-151.06201171875
-153.80859375
-150.146484375
-144.6533203125
-141.90673828125
-125.42724609375
-108.94775390625
-98.876953125
-89.7216796875
-89.7216796875
-85.14404296875
-86.0595703125
-88.80615234375
-77.81982421875
-61.34033203125
-45.7763671875
-38.4521484375
-23.8037109375
-15.56396484375
-22.88818359375
-25.634765625
-18.310546875
-21.05712890625
-35.70556640625
-51.26953125
-53.1005859375
-47.607421875
-58.59375
-74.15771484375
-86.0595703125
-103.45458984375
-108.94775390625
-122.6806640625
-154.72412109375
-162.9638671875
-150.146484375
-148.3154296875
-162.9638671875
-173.03466796875
-181.2744140625
-180.35888671875
-194.091796875
-204.16259765625
-199.5849609375
-189.51416015625
-185.85205078125
-200.50048828125
-202.33154296875
-216.064453125
-227.96630859375
-222.47314453125
-217.8955078125
-215.14892578125
-217.8955078125
-211.48681640625
-214.2333984375
-223.388671875
-225.2197265625
-214.2333984375
-214.2333984375
-227.05078125
-223.388671875
-215.14892578125
-232.5439453125
-264.58740234375
-294.7998046875
-291.1376953125
-289.306640625
-276.4892578125
-244.44580078125
-226.13525390625
-165.71044921875
-62.255859375
84.228515625
258.1787109375
422.05810546875
559.38720703125
682.06787109375
796.5087890625
867.919921875
864.2578125
788.26904296875
563.96484375
342.4072265625
176.69677734375
0
-103.45458984375
-165.71044921875
-199.5849609375
-254.5166015625
-268.24951171875
-273.74267578125
-275.57373046875
-282.89794921875
-257.26318359375
-231.62841796875
-227.96630859375
-226.13525390625
-217.8955078125
-219.7265625
-222.47314453125
-223.388671875
-216.064453125
-217.8955078125
-230.712890625
-234.375
-234.375
-234.375
-235.29052734375
-232.5439453125
-224.30419921875
-226.13525390625
-229.79736328125
-236.2060546875
-224.30419921875
-228.8818359375
-221.5576171875
-234.375
-234.375
-221.5576171875
-223.388671875
-227.96630859375
-227.96630859375
-220.64208984375
-211.48681640625
-230.712890625
-235.29052734375
-223.388671875
-232.5439453125
-227.05078125
-225.2197265625
-217.8955078125
-214.2333984375
-212.40234375
-213.31787109375
-216.064453125
-227.96630859375
-223.388671875
-227.05078125
-213.31787109375
-221.5576171875
-222.47314453125
-213.31787109375
-216.064453125
-216.97998046875
-211.48681640625
-204.16259765625
-207.82470703125
-218.81103515625
-213.31787109375
-198.66943359375
-205.078125
-207.82470703125
-196.83837890625
-207.82470703125
-213.31787109375
-205.078125
-203.2470703125
-203.2470703125
-205.99365234375
-198.66943359375
-199.5849609375
-198.66943359375
-188.5986328125
-192.2607421875
-195.00732421875
-202.33154296875
-193.17626953125
-192.2607421875
-199.5849609375
-188.5986328125
-201.416015625
-196.83837890625
-193.17626953125
-192.2607421875
-185.85205078125
-192.2607421875
-185.85205078125
-192.2607421875
-193.17626953125
-192.2607421875
-188.5986328125
-194.091796875
-204.16259765625
-190.4296875
-204.16259765625
-203.2470703125
-196.83837890625
-205.078125
-199.5849609375
-202.33154296875
-196.83837890625
-207.82470703125
-212.40234375
-199.5849609375
-194.091796875
-194.091796875
-193.17626953125
-197.75390625
-204.16259765625
-205.078125
-204.16259765625
-197.75390625
-188.5986328125
-183.10546875
-191.34521484375
-200.50048828125
-198.66943359375
-208.740234375
-204.16259765625
-210.5712890625
-202.33154296875
-199.5849609375
-223.388671875
-232.5439453125
-217.8955078125
-221.5576171875
-239.8681640625
-233.45947265625
-233.45947265625
-222.47314453125
-221.5576171875
-227.96630859375
-226.13525390625
-222.47314453125
-234.375
-235.29052734375
-225.2197265625
-215.14892578125
-220.64208984375
-226.13525390625
-227.96630859375
-225.2197265625
-227.96630859375
-225.2197265625
-232.5439453125
-234.375
-221.5576171875
-213.31787109375
-215.14892578125
-215.14892578125
-214.2333984375
-202.33154296875
-203.2470703125
-229.79736328125
-209.65576171875
-211.48681640625
-195.9228515625
-199.5849609375
-204.16259765625
-200.50048828125
-202.33154296875
-205.078125
-195.00732421875
-201.416015625
-212.40234375
-204.16259765625
-203.2470703125
-195.9228515625
-187.68310546875
-190.4296875
-184.02099609375
-187.68310546875
-194.091796875
-187.68310546875
-184.9365234375
-188.5986328125
-187.68310546875
-179.443359375
-169.37255859375
-159.3017578125
-140.9912109375
-137.3291015625
-136.41357421875
-131.8359375
-131.8359375
-115.3564453125
-107.11669921875
-97.96142578125
-106.201171875
-83.31298828125
-65.00244140625
-71.4111328125
-73.2421875
-69.580078125
-76.904296875
-78.7353515625
-86.97509765625
-83.31298828125
-86.0595703125
-83.31298828125
-95.21484375
-108.0322265625
-129.08935546875
-136.41357421875
-158.38623046875
-175.78125
-174.86572265625
-194.091796875
-205.078125
-205.078125
-213.31787109375
-222.47314453125
-212.40234375
-224.30419921875
-243.5302734375
-244.44580078125
-260.92529296875
-265.5029296875
-253.60107421875
-243.5302734375
-244.44580078125
-251.77001953125
-246.27685546875
-249.0234375
-255.43212890625
-245.361328125
-263.671875
-263.671875
-263.671875
-260.92529296875
-253.60107421875
-258.1787109375
-254.5166015625
-252.685546875
-258.1787109375
-267.333984375
-287.4755859375
-305.7861328125
-328.67431640625
-345.15380859375
-346.98486328125
-322.265625
-307.6171875
-251.77001953125
-185.85205078125
-83.31298828125
55.84716796875
236.2060546875
392.76123046875
524.59716796875
635.3759765625
736.99951171875
804.74853515625
805.6640625
691.22314453125
462.34130859375
273.74267578125
102.5390625
-61.34033203125
-150.146484375
-200.50048828125
-252.685546875
-291.1376953125
-308.53271484375
-314.94140625
-314.94140625
-308.53271484375
-291.1376953125
-271.91162109375
-277.40478515625
-265.5029296875
-270.99609375
-282.89794921875
-283.8134765625
-273.74267578125
-270.99609375
-265.5029296875
-277.40478515625
-274.658203125
-281.06689453125
-284.72900390625
-281.06689453125
-278.3203125
-281.06689453125
-282.89794921875
-278.3203125
-281.06689453125
-274.658203125
-281.06689453125
-280.1513671875
-267.333984375
-260.92529296875
-270.99609375
-271.91162109375
-274.658203125
-272.8271484375
-276.4892578125
-280.1513671875
-282.89794921875
-280.1513671875
-274.658203125
-290.22216796875
-283.8134765625
-261.8408203125
-271.91162109375
-282.89794921875
-278.3203125
-268.24951171875
-278.3203125
-273.74267578125
-274.658203125
-273.74267578125
-270.99609375
-268.24951171875
-268.24951171875
-270.08056640625
-269.1650390625
-263.671875
-271.91162109375
-276.4892578125
-262.75634765625
-255.43212890625
-259.09423828125
-260.92529296875
-256.34765625
-260.009765625
-260.009765625
-262.75634765625
-247.1923828125
-249.0234375
-249.93896484375
-251.77001953125
-253.60107421875
-250.8544921875
-235.29052734375
-251.77001953125
-251.77001953125
-253.60107421875
-253.60107421875
-243.5302734375
-232.5439453125
-244.44580078125
-250.8544921875
-243.5302734375
-235.29052734375
-237.12158203125
-249.0234375
-255.43212890625
-249.0234375
-243.5302734375
-246.27685546875
-249.0234375
-238.95263671875
-249.93896484375
-240.78369140625
-238.037109375
-244.44580078125
-250.8544921875
-248.10791015625
-248.10791015625
-249.0234375
-249.93896484375
-245.361328125
-246.27685546875
-247.1923828125
-249.0234375
-241.69921875
-249.0234375
-240.78369140625
-248.10791015625
-255.43212890625
-246.27685546875
-246.27685546875
-242.61474609375
-253.60107421875
-257.26318359375
-239.8681640625
-241.69921875
-249.93896484375
-254.5166015625
-250.8544921875
-247.1923828125
-249.93896484375
-253.60107421875
-260.009765625
-266.41845703125
-264.58740234375
-244.44580078125
-251.77001953125
-270.08056640625
-280.1513671875
-272.8271484375
-279.23583984375
-284.72900390625
-281.06689453125
-281.06689453125
-278.3203125
-270.99609375
-274.658203125
-276.4892578125
-278.3203125
-275.57373046875
-278.3203125
-277.40478515625
-280.1513671875
-282.89794921875
-268.24951171875
-271.91162109375
-269.1650390625
-257.26318359375
-242.61474609375
-245.361328125
-255.43212890625
-260.92529296875
-265.5029296875
-255.43212890625
-259.09423828125
-250.8544921875
-251.77001953125
-249.0234375
-238.95263671875
-238.037109375
-249.0234375
-249.93896484375
-242.61474609375
-239.8681640625
-232.5439453125
-238.037109375
-242.61474609375
-230.712890625
-243.5302734375
-237.12158203125
-222.47314453125
-217.8955078125
-218.81103515625
-221.5576171875
-229.79736328125
-233.45947265625
-226.13525390625
-220.64208984375
-218.81103515625
-238.037109375
-228.8818359375
-230.712890625
-228.8818359375
-213.31787109375
-215.14892578125
-205.078125
-177.6123046875
-172.119140625
-164.794921875
-161.1328125
-161.1328125
-172.119140625
-154.72412109375
-126.3427734375
-122.6806640625
-109.86328125
-96.13037109375
-97.96142578125
-101.62353515625
-105.28564453125
-107.11669921875
-100.7080078125
-120.849609375
-122.6806640625
-119.93408203125
-138.24462890625
-150.146484375
-149.23095703125
-168.45703125
-186.767578125
-197.75390625
-209.65576171875
-208.740234375
-219.7265625
-229.79736328125
-232.5439453125
-233.45947265625
-244.44580078125
-248.10791015625
-269.1650390625
-278.3203125
-278.3203125
-278.3203125
-276.4892578125
-273.74267578125
-277.40478515625
-273.74267578125
-283.8134765625
-290.22216796875
-287.4755859375
-288.39111328125
-292.05322265625
-292.05322265625
-288.39111328125
-286.56005859375
-287.4755859375
-289.306640625
-291.1376953125
-298.4619140625
-286.56005859375
-281.982421875
-294.7998046875
-317.68798828125
-342.4072265625
-360.7177734375
-369.873046875
-361.63330078125
-346.0693359375
-316.7724609375
-252.685546875
-158.38623046875
-63.17138671875
89.7216796875
261.8408203125
398.25439453125
525.5126953125
639.0380859375
723.2666015625
776.3671875
742.49267578125
587.7685546875
352.47802734375
178.52783203125
11.90185546875
-112.60986328125
-195.9228515625
-257.26318359375
-300.29296875
-335.0830078125
-346.98486328125
-346.98486328125
-341.49169921875
-324.0966796875
-312.19482421875
-295.71533203125
-292.96875
-290.22216796875
-283.8134765625
-289.306640625
-287.4755859375
-287.4755859375
-301.20849609375
-292.96875
-299.37744140625
-303.03955078125
-298.4619140625
-299.37744140625
-298.4619140625
-295.71533203125
-289.306640625
-297.54638671875
-299.37744140625
-292.05322265625
-299.37744140625
-305.7861328125
-303.03955078125
-286.56005859375
-294.7998046875
-302.1240234375
-303.955078125
-294.7998046875
-285.64453125
-289.306640625
-292.96875
-287.4755859375
-297.54638671875
-294.7998046875
-292.05322265625
-296.630859375
-300.29296875
-300.29296875
-291.1376953125
-303.03955078125
-290.22216796875
-281.06689453125
-282.89794921875
-280.1513671875
-282.89794921875
-287.4755859375
-290.22216796875
-282.89794921875
-276.4892578125
-277.40478515625
-272.8271484375
-283.8134765625
-273.74267578125
-274.658203125
-271.91162109375
-270.99609375
-270.99609375
-270.99609375
-264.58740234375
-268.24951171875
-260.92529296875
-245.361328125
-240.78369140625
-247.1923828125
-239.8681640625
-237.12158203125
-257.26318359375
-256.34765625
-257.26318359375
-237.12158203125
-234.375
-231.62841796875
-237.12158203125
-239.8681640625
-239.8681640625
-234.375
-222.47314453125
-225.2197265625
-227.96630859375
-230.712890625
-235.29052734375
-225.2197265625
-224.30419921875
-238.037109375
-226.13525390625
-231.62841796875
-228.8818359375
-235.29052734375
-230.712890625
-217.8955078125
-228.8818359375
-227.05078125
-229.79736328125
-231.62841796875
-228.8818359375
-225.2197265625
-236.2060546875
-229.79736328125
-226.13525390625
-227.05078125
-227.05078125
-225.2197265625
-216.97998046875
-229.79736328125
-223.388671875
-224.30419921875
-225.2197265625
-221.5576171875
-225.2197265625
-220.64208984375
-221.5576171875
-227.96630859375
-236.2060546875
-228.8818359375
-227.96630859375
-234.375
-240.78369140625
-231.62841796875
-232.5439453125
-230.712890625
-230.712890625
-245.361328125
-251.77001953125
-247.1923828125
-237.12158203125
-238.037109375
-246.27685546875
-251.77001953125
-250.8544921875
-257.26318359375
-259.09423828125
-250.8544921875
-251.77001953125
-250.8544921875
-258.1787109375
-251.77001953125
-255.43212890625
-250.8544921875
-260.009765625
-253.60107421875
-248.10791015625
-253.60107421875
-251.77001953125
-246.27685546875
-237.12158203125
-228.8818359375
-233.45947265625
-237.12158203125
-238.037109375
-237.12158203125
-230.712890625
-220.64208984375
-225.2197265625
-232.5439453125
-231.62841796875
-233.45947265625
-231.62841796875
-219.7265625
-213.31787109375
-224.30419921875
-216.97998046875
-210.5712890625
-213.31787109375
-215.14892578125
-200.50048828125
-198.66943359375
-189.51416015625
-192.2607421875
-194.091796875
-188.5986328125
-194.091796875
-197.75390625
-205.078125
-200.50048828125
-195.00732421875
-201.416015625
-204.16259765625
-195.00732421875
-184.02099609375
-186.767578125
-181.2744140625
-170.2880859375
-163.87939453125
-155.6396484375
-147.39990234375
-136.41357421875
-127.25830078125
-132.75146484375
-131.8359375
-116.27197265625
-106.201171875
-105.28564453125
-81.48193359375
-73.2421875
-58.59375
-59.50927734375
-69.580078125
-70.49560546875
-75.98876953125
-96.13037109375
-97.0458984375
-99.79248046875
-106.201171875
-117.1875
-120.849609375
-137.3291015625
-149.23095703125
-164.794921875
-177.6123046875
-199.5849609375
-205.99365234375
-201.416015625
-201.416015625
-205.99365234375
-211.48681640625
-224.30419921875
-232.5439453125
-227.96630859375
-238.037109375
-235.29052734375
-231.62841796875
-249.0234375
-258.1787109375
-252.685546875
-261.8408203125
-258.1787109375
-256.34765625
-248.10791015625
-255.43212890625
-257.26318359375
-260.009765625
-264.58740234375
-256.34765625
-264.58740234375
-259.09423828125
-258.1787109375
-263.671875
-261.8408203125
-270.08056640625
-288.39111328125
-314.94140625
-334.16748046875
-345.15380859375
-335.0830078125
-316.7724609375
-296.630859375
-238.037109375
-138.24462890625
-24.71923828125
104.3701171875
270.08056640625
433.04443359375
563.04931640625
678.40576171875
766.29638671875
822.1435546875
798.33984375
638.12255859375
409.24072265625
216.97998046875
37.53662109375
-97.96142578125
-176.69677734375
-234.375
-279.23583984375
-313.1103515625
-319.51904296875
-325.927734375
-311.279296875
-287.4755859375
-270.99609375
-264.58740234375
-253.60107421875
-253.60107421875
-253.60107421875
-254.5166015625
-254.5166015625
-263.671875
-265.5029296875
-254.5166015625
-246.27685546875
-251.77001953125
-251.77001953125
-247.1923828125
-249.0234375
-262.75634765625
-257.26318359375
-244.44580078125
-246.27685546875
-258.1787109375
-259.09423828125
-249.93896484375
-251.77001953125
-251.77001953125
-252.685546875
-258.1787109375
-263.671875
-256.34765625
-253.60107421875
-259.09423828125
-251.77001953125
-247.1923828125
-244.44580078125
-239.8681640625
-238.95263671875
-249.93896484375
-245.361328125
-242.61474609375
-249.0234375
-258.1787109375
-255.43212890625
-248.10791015625
-244.44580078125
-240.78369140625
-249.0234375
-242.61474609375
-241.69921875
-231.62841796875
-238.037109375
-230.712890625
-227.96630859375
-221.5576171875
-238.95263671875
-231.62841796875
-228.8818359375
-231.62841796875
-229.79736328125
-230.712890625
-229.79736328125
-224.30419921875
-204.16259765625
-205.99365234375
-207.82470703125
-216.97998046875
-216.97998046875
-216.064453125
-212.40234375
-206.9091796875
-200.50048828125
-197.75390625
-197.75390625
-200.50048828125
-201.416015625
-201.416015625
-182.18994140625
-185.85205078125
-189.51416015625
-188.5986328125
-181.2744140625
-179.443359375
-184.9365234375
-182.18994140625
-189.51416015625
-194.091796875
-185.85205078125
-186.767578125
-190.4296875
-190.4296875
-191.34521484375
-189.51416015625
-185.85205078125
-181.2744140625
-182.18994140625
-195.00732421875
-190.4296875
-195.00732421875
-197.75390625
-199.5849609375
-189.51416015625
-188.5986328125
-189.51416015625
-180.35888671875
-181.2744140625
-188.5986328125
-191.34521484375
-190.4296875
-195.00732421875
-193.17626953125
-192.2607421875
-198.66943359375
-199.5849609375
-196.83837890625
-194.091796875
-205.99365234375
-202.33154296875
-209.65576171875
-206.9091796875
-205.99365234375
-211.48681640625
-209.65576171875
-207.82470703125
-217.8955078125
-211.48681640625
-196.83837890625
-203.2470703125
-208.740234375
-210.5712890625
-217.8955078125
-220.64208984375
-223.388671875
-227.96630859375
-226.13525390625
-228.8818359375
-223.388671875
-227.05078125
-225.2197265625
-230.712890625
-227.96630859375
-226.13525390625
-222.47314453125
-222.47314453125
-218.81103515625
-215.14892578125
-213.31787109375
-216.064453125
-208.740234375
-206.9091796875
-203.2470703125
-198.66943359375
-199.5849609375
-194.091796875
-195.00732421875
-199.5849609375
-195.9228515625
-202.33154296875
-191.34521484375
-195.9228515625
-193.17626953125
-191.34521484375
-184.9365234375
-179.443359375
-178.52783203125
-180.35888671875
-183.10546875
-182.18994140625
-173.9501953125
-174.86572265625
-176.69677734375
-176.69677734375
-179.443359375
-172.119140625
-174.86572265625
-176.69677734375
-173.9501953125
-173.03466796875
-178.52783203125
-169.37255859375
-174.86572265625
-176.69677734375
-166.6259765625
-173.9501953125
-168.45703125
-162.04833984375
-153.80859375
-143.73779296875
-127.25830078125
-117.1875
-113.525390625
-107.11669921875
-111.6943359375
-108.94775390625
-90.63720703125
-84.228515625
-77.81982421875
-72.32666015625
-56.7626953125
-54.931640625
-56.7626953125
-52.18505859375
-61.34033203125
-70.49560546875
-75.0732421875
-79.65087890625
-76.904296875
-95.21484375
-102.5390625
-102.5390625
-108.94775390625
-130.0048828125
-143.73779296875
-163.87939453125
-181.2744140625
-179.443359375
-182.18994140625
-184.9365234375
-191.34521484375
-205.99365234375
-216.97998046875
-219.7265625
-223.388671875
-230.712890625
-238.037109375
-237.12158203125
-229.79736328125
-236.2060546875
-243.5302734375
-235.29052734375
-230.712890625
-233.45947265625
-242.61474609375
-244.44580078125
-237.12158203125
-235.29052734375
-239.8681640625
-242.61474609375
-243.5302734375
-238.95263671875
-244.44580078125
-252.685546875
-251.77001953125
-249.0234375
-261.8408203125
-281.982421875
-315.85693359375
-336.9140625
-325.927734375
-304.87060546875
-284.72900390625
-239.8681640625
-164.794921875
-47.607421875
94.29931640625
261.8408203125
417.48046875
554.8095703125
679.3212890625
777.28271484375
834.9609375
835.87646484375
716.85791015625
487.060546875
269.1650390625
106.201171875
-50.35400390625
-136.41357421875
-200.50048828125
-247.1923828125
-282.89794921875
-292.05322265625
-304.87060546875
-304.87060546875
-281.06689453125
-264.58740234375
-236.2060546875
-227.96630859375
-227.05078125
-227.05078125
-221.5576171875
-235.29052734375
-236.2060546875
-238.95263671875
-244.44580078125
-244.44580078125
-240.78369140625
-246.27685546875
-249.0234375
-249.0234375
-240.78369140625
-242.61474609375
-250.8544921875
-242.61474609375
-230.712890625
-240.78369140625
-244.44580078125
-243.5302734375
-239.8681640625
-223.388671875
-215.14892578125
-223.388671875
-228.8818359375
-241.69921875
-240.78369140625
-235.29052734375
-241.69921875
-233.45947265625
-237.12158203125
-242.61474609375
-247.1923828125
-230.712890625
-227.05078125
-226.13525390625
-228.8818359375
-232.5439453125
-224.30419921875
-224.30419921875
-223.388671875
-227.96630859375
-223.388671875
-225.2197265625
-228.8818359375
-214.2333984375
-211.48681640625
-213.31787109375
-217.8955078125
-221.5576171875
-225.2197265625
-215.14892578125
-204.16259765625
-205.078125
-208.740234375
-205.99365234375
-204.16259765625
-218.81103515625
-205.99365234375
-206.9091796875
-198.66943359375
-195.00732421875
-199.5849609375
-194.091796875
-191.34521484375
-187.68310546875
-194.091796875
-191.34521484375
-187.68310546875
-184.02099609375
-173.9501953125
-184.02099609375
-175.78125
-176.69677734375
-167.54150390625
-168.45703125
-166.6259765625
-169.37255859375
-162.9638671875
-173.03466796875
-176.69677734375
-175.78125
-165.71044921875
-166.6259765625
-173.03466796875
-177.6123046875
-179.443359375
-178.52783203125
-180.35888671875
-181.2744140625
-178.52783203125
-184.02099609375
-179.443359375
-180.35888671875
-174.86572265625
-173.9501953125
-173.9501953125
-183.10546875
-173.03466796875
-167.54150390625
-176.69677734375
-178.52783203125
-176.69677734375
-177.6123046875
-177.6123046875
-180.35888671875
-174.86572265625
-177.6123046875
-181.2744140625
-186.767578125
-183.10546875
-184.02099609375
-186.767578125
-179.443359375
-185.85205078125
-195.00732421875
-193.17626953125
-191.34521484375
-190.4296875
-194.091796875
-199.5849609375
-195.9228515625
-194.091796875
-197.75390625
-207.82470703125
-216.064453125
-208.740234375
-203.2470703125
-196.83837890625
-203.2470703125
-199.5849609375
-203.2470703125
-200.50048828125
-199.5849609375
-205.078125
-207.82470703125
-205.078125
-206.9091796875
-208.740234375
-197.75390625
-198.66943359375
-201.416015625
-197.75390625
-197.75390625
-202.33154296875
-195.00732421875
-195.00732421875
-189.51416015625
-195.9228515625
-184.9365234375
-177.6123046875
-180.35888671875
-171.20361328125
-170.2880859375
-165.71044921875
-165.71044921875
-174.86572265625
-164.794921875
-164.794921875
-165.71044921875
-172.119140625
-163.87939453125
-159.3017578125
-154.72412109375
-158.38623046875
-159.3017578125
-161.1328125
-159.3017578125
-158.38623046875
-150.146484375
-151.06201171875
-158.38623046875
-155.6396484375
-158.38623046875
-159.3017578125
-160.21728515625
-160.21728515625
-158.38623046875
-152.89306640625
-147.39990234375
-139.16015625
-124.51171875
-110.77880859375
-111.6943359375
-96.13037109375
-87.890625
-85.14404296875
-84.228515625
-72.32666015625
-65.91796875
-51.26953125
-49.4384765625
-41.19873046875
-35.70556640625
-32.04345703125
-29.296875
-33.87451171875
-32.958984375
-43.02978515625
-43.9453125
-57.67822265625
-67.7490234375
-78.7353515625
-84.228515625
-97.0458984375
-114.44091796875
-124.51171875
-140.9912109375
-158.38623046875
-171.20361328125
-163.87939453125
-169.37255859375
-174.86572265625
-181.2744140625
-193.17626953125
-202.33154296875
-212.40234375
-215.14892578125
-208.740234375
-205.99365234375
-204.16259765625
-205.078125
-225.2197265625
-221.5576171875
-224.30419921875
-210.5712890625
-216.97998046875
-222.47314453125
-216.97998046875
-213.31787109375
-216.064453125
-212.40234375
-212.40234375
-218.81103515625
-221.5576171875
-227.05078125
-233.45947265625
-243.5302734375
-254.5166015625
-275.57373046875
-296.630859375
-309.4482421875
-301.20849609375
-282.89794921875
-259.09423828125
-210.5712890625
-129.08935546875
-2.74658203125
158.38623046875
336.9140625
490.72265625
624.3896484375
736.99951171875
827.63671875
877.0751953125
852.35595703125
684.814453125
440.36865234375
244.44580078125
63.17138671875
-69.580078125
-157.470703125
-218.81103515625
-257.26318359375
-268.24951171875
-277.40478515625
-287.4755859375
-279.23583984375
-257.26318359375
-238.95263671875
-229.79736328125
-216.97998046875
-216.064453125
-217.8955078125
-227.96630859375
-226.13525390625
-225.2197265625
-237.12158203125
-230.712890625
-227.05078125
-233.45947265625
-232.5439453125
-238.95263671875
-235.29052734375
-227.96630859375
-226.13525390625
-209.65576171875
-222.47314453125
-235.29052734375
-229.79736328125
-227.96630859375
-227.96630859375
-228.8818359375
-224.30419921875
-226.13525390625
-227.05078125
-224.30419921875
-222.47314453125
-229.79736328125
-211.48681640625
-227.96630859375
-214.2333984375
-210.5712890625
-222.47314453125
-230.712890625
-223.388671875
-216.064453125
-225.2197265625
-223.388671875
-216.064453125
-216.064453125
-216.064453125
-216.97998046875
-215.14892578125
-223.388671875
-217.8955078125
-216.97998046875
-222.47314453125
-229.79736328125
-217.8955078125
-205.078125
-203.2470703125
-206.9091796875
-204.16259765625
-205.078125
-202.33154296875
-195.9228515625
-202.33154296875
-197.75390625
-195.00732421875
-196.83837890625
-199.5849609375
-183.10546875
-184.02099609375
-203.2470703125
-189.51416015625
-174.86572265625
-184.02099609375
-193.17626953125
-197.75390625
-182.18994140625
-170.2880859375
-180.35888671875
-171.20361328125
-172.119140625
-173.9501953125
-172.119140625
-186.767578125
-198.66943359375
-179.443359375
-174.86572265625
-167.54150390625
-165.71044921875
-163.87939453125
-169.37255859375
-177.6123046875
-169.37255859375
-173.9501953125
-184.02099609375
-189.51416015625
-188.5986328125
-182.18994140625
-180.35888671875
-182.18994140625
-180.35888671875
-184.9365234375
-187.68310546875
-173.9501953125
-173.9501953125
-174.86572265625
-179.443359375
-184.02099609375
-176.69677734375
-172.119140625
-173.9501953125
-179.443359375
-178.52783203125
-170.2880859375
-164.794921875
-166.6259765625
-184.9365234375
-179.443359375
-179.443359375
-187.68310546875
-175.78125
-178.52783203125
-191.34521484375
-193.17626953125
-195.00732421875
-192.2607421875
-186.767578125
-196.83837890625
-200.50048828125
-195.00732421875
-205.99365234375
-200.50048828125
-205.078125
-210.5712890625
-212.40234375
-212.40234375
-213.31787109375
-214.2333984375
-203.2470703125
-195.00732421875
-210.5712890625
-212.40234375
-207.82470703125
-210.5712890625
-217.8955078125
-213.31787109375
-200.50048828125
-192.2607421875
-199.5849609375
-200.50048828125
-195.9228515625
-196.83837890625
-204.16259765625
-205.99365234375
-203.2470703125
-193.17626953125
-191.34521484375
-186.767578125
-190.4296875
-196.83837890625
-174.86572265625
-172.119140625
-181.2744140625
-185.85205078125
-181.2744140625
-184.9365234375
-184.9365234375
-183.10546875
-180.35888671875
-179.443359375
-181.2744140625
-180.35888671875
-180.35888671875
-173.9501953125
-175.78125
-168.45703125
-172.119140625
-170.2880859375
-176.69677734375
-182.18994140625
-183.10546875
