ECG
87.890625
88.80615234375
73.2421875
74.15771484375
60.4248046875
57.67822265625
54.01611328125
36.62109375
19.22607421875
2.74658203125
-7.32421875
-30.21240234375
-37.53662109375
-35.70556640625
-37.53662109375
-46.69189453125
-54.931640625
-62.255859375
-73.2421875
-77.81982421875
-73.2421875
-60.4248046875
-58.59375
-66.83349609375
-82.3974609375
-62.255859375
-75.98876953125
-86.0595703125
-77.81982421875
-68.66455078125
-74.15771484375
-67.7490234375
-81.48193359375
-95.21484375
-78.7353515625
-75.0732421875
-77.81982421875
-74.15771484375
-81.48193359375
-85.14404296875
-78.7353515625
-74.15771484375
-93.3837890625
-105.28564453125
-120.849609375
-143.73779296875
-149.23095703125
-137.3291015625
-131.8359375
-107.11669921875
-47.607421875
37.53662109375
143.73779296875
276.4892578125
444.9462890625
609.7412109375
739.74609375
855.1025390625
969.54345703125
1025.390625
1026.30615234375
901.79443359375
655.517578125
452.2705078125
281.982421875
127.25830078125
45.7763671875
-11.90185546875
-54.01611328125
-111.6943359375
-134.58251953125
-140.07568359375
-147.39990234375
-137.3291015625
-125.42724609375
-103.45458984375
-84.228515625
-88.80615234375
-91.552734375
-97.96142578125
-93.3837890625
-97.0458984375
-97.96142578125
-101.62353515625
-96.13037109375
-93.3837890625
-108.0322265625
-109.86328125
-109.86328125
-101.62353515625
-97.0458984375
-99.79248046875
-88.80615234375
-102.5390625
-115.3564453125
-105.28564453125
-99.79248046875
-104.3701171875
-116.27197265625
-118.10302734375
-108.94775390625
-101.62353515625
-104.3701171875
-101.62353515625
-113.525390625
-100.7080078125
-101.62353515625
-110.77880859375
-114.44091796875
-101.62353515625
-108.0322265625
-106.201171875
-102.5390625
-107.11669921875
-109.86328125
-108.94775390625
-101.62353515625
-104.3701171875
-108.0322265625
-108.0322265625
-107.11669921875
-105.28564453125
-113.525390625
-119.93408203125
-112.60986328125
-103.45458984375
-103.45458984375
-95.21484375
-106.201171875
-112.60986328125
-116.27197265625
-108.0322265625
-107.11669921875
-108.94775390625
-101.62353515625
-102.5390625
-99.79248046875
-112.60986328125
-117.1875
-104.3701171875
-104.3701171875
-87.890625
-93.3837890625
-103.45458984375
-97.96142578125
-103.45458984375
-94.29931640625
-106.201171875
-107.11669921875
-101.62353515625
-99.79248046875
-109.86328125
-112.60986328125
-105.28564453125
-100.7080078125
-114.44091796875
-124.51171875
-112.60986328125
-110.77880859375
-100.7080078125
-92.46826171875
-95.21484375
-107.11669921875
-100.7080078125
-105.28564453125
-89.7216796875
-91.552734375
-102.5390625
-109.86328125
-97.0458984375
-97.0458984375
-91.552734375
-88.80615234375
-86.97509765625
-93.3837890625
-95.21484375
-97.0458984375
-87.890625
-90.63720703125
-87.890625
-74.15771484375
-83.31298828125
-69.580078125
-67.7490234375
-67.7490234375
-68.66455078125
-65.91796875
-65.91796875
-67.7490234375
-56.7626953125
-52.18505859375
-57.67822265625
-55.84716796875
-53.1005859375
-47.607421875
-53.1005859375
-56.7626953125
-54.931640625
-61.34033203125
-61.34033203125
-62.255859375
-54.01611328125
-56.7626953125
-59.50927734375
-56.7626953125
-57.67822265625
-67.7490234375
-54.931640625
-60.4248046875
-61.34033203125
-59.50927734375
-59.50927734375
-54.931640625
-54.931640625
-63.17138671875
-65.91796875
-68.66455078125
-65.91796875
-74.15771484375
-66.83349609375
-62.255859375
-54.931640625
-60.4248046875
-66.83349609375
-63.17138671875
-55.84716796875
-56.7626953125
-48.52294921875
-57.67822265625
-57.67822265625
-53.1005859375
-50.35400390625
-48.52294921875
-41.19873046875
-48.52294921875
-43.9453125
-43.02978515625
-41.19873046875
-45.7763671875
-38.4521484375
-33.87451171875
-41.19873046875
-37.53662109375
-35.70556640625
-51.26953125
-47.607421875
-32.04345703125
-34.7900390625
-36.62109375
-40.283203125
-30.21240234375
-35.70556640625
-32.958984375
-38.4521484375
-41.19873046875
-40.283203125
-29.296875
-36.62109375
-53.1005859375
-49.4384765625
-44.86083984375
-41.19873046875
-41.19873046875
-49.4384765625
-40.283203125
-32.958984375
-41.19873046875
-43.9453125
-52.18505859375
-51.26953125
-57.67822265625
-47.607421875
-49.4384765625
-51.26953125
-57.67822265625
-53.1005859375
-52.18505859375
-58.59375
-63.17138671875
-62.255859375
-61.34033203125
-58.59375
-61.34033203125
-62.255859375
-70.49560546875
-63.17138671875
-54.01611328125
-69.580078125
-77.81982421875
-64.0869140625
-71.4111328125
-66.83349609375
-65.00244140625
-74.15771484375
-63.17138671875
-48.52294921875
-33.87451171875
-26.55029296875
-24.71923828125
-6.40869140625
0.91552734375
-0.91552734375
0.91552734375
7.32421875
12.8173828125
31.1279296875
44.86083984375
47.607421875
54.931640625
57.67822265625
66.83349609375
69.580078125
54.931640625
48.52294921875
49.4384765625
50.35400390625
49.4384765625
43.02978515625
38.4521484375
11.90185546875
1.8310546875
-12.8173828125
-32.958984375
-63.17138671875
-62.255859375
-65.00244140625
-58.59375
-54.01611328125
-74.15771484375
-81.48193359375
-78.7353515625
-81.48193359375
-86.97509765625
-100.7080078125
-95.21484375
-91.552734375
-95.21484375
-98.876953125
-100.7080078125
-108.0322265625
-102.5390625
-103.45458984375
-102.5390625
-104.3701171875
-101.62353515625
-102.5390625
-97.0458984375
-95.21484375
-102.5390625
-108.94775390625
-108.0322265625
-102.5390625
-100.7080078125
-102.5390625
-126.3427734375
-121.76513671875
-145.56884765625
-163.87939453125
-172.119140625
-168.45703125
-156.55517578125
-123.59619140625
-68.66455078125
11.90185546875
115.3564453125
244.44580078125
415.6494140625
565.7958984375
695.80078125
810.24169921875
909.11865234375
982.36083984375
988.76953125
861.51123046875
617.98095703125
435.791015625
271.91162109375
107.11669921875
9.1552734375
-29.296875
-81.48193359375
-130.0048828125
-160.21728515625
-173.9501953125
-167.54150390625
-157.470703125
-147.39990234375
-136.41357421875
-120.849609375
-115.3564453125
-110.77880859375
-114.44091796875
-108.0322265625
-119.0185546875
-124.51171875
-125.42724609375
-121.76513671875
-114.44091796875
-117.1875
-124.51171875
-121.76513671875
-122.6806640625
-119.93408203125
-121.76513671875
-130.0048828125
-121.76513671875
-119.0185546875
-119.0185546875
-127.25830078125
-131.8359375
-123.59619140625
-112.60986328125
-113.525390625
-119.93408203125
-123.59619140625
-126.3427734375
-114.44091796875
-121.76513671875
-119.93408203125
-120.849609375
-118.10302734375
-111.6943359375
-112.60986328125
-123.59619140625
-119.93408203125
-110.77880859375
-108.0322265625
-118.10302734375
-117.1875
-125.42724609375
-115.3564453125
-108.94775390625
-111.6943359375
-116.27197265625
-116.27197265625
-115.3564453125
-116.27197265625
-110.77880859375
-119.93408203125
-111.6943359375
-109.86328125
-113.525390625
-105.28564453125
-113.525390625
-108.94775390625
-108.0322265625
-116.27197265625
-122.6806640625
-124.51171875
-117.1875
-107.11669921875
-112.60986328125
-111.6943359375
-117.1875
-110.77880859375
-112.60986328125
-105.28564453125
-97.96142578125
-112.60986328125
-103.45458984375
-102.5390625
-106.201171875
-109.86328125
-116.27197265625
-108.0322265625
-109.86328125
-107.11669921875
-107.11669921875
-115.3564453125
-112.60986328125
-97.96142578125
-94.29931640625
-100.7080078125
-107.11669921875
-102.5390625
-97.96142578125
-101.62353515625
-100.7080078125
-104.3701171875
-97.96142578125
-95.21484375
-91.552734375
-82.3974609375
-96.13037109375
-100.7080078125
-97.96142578125
-84.228515625
-82.3974609375
-87.890625
-89.7216796875
-77.81982421875
-76.904296875
-82.3974609375
-77.81982421875
-79.65087890625
-73.2421875
-64.0869140625
-65.91796875
-71.4111328125
-71.4111328125
-65.91796875
-54.931640625
-43.02978515625
-63.17138671875
-58.59375
-50.35400390625
-46.69189453125
-53.1005859375
-57.67822265625
-57.67822265625
-46.69189453125
-43.02978515625
-43.02978515625
-47.607421875
-54.01611328125
-53.1005859375
-42.1142578125
-45.7763671875
-58.59375
-63.17138671875
-68.66455078125
-61.34033203125
-58.59375
-66.83349609375
-65.91796875
-58.59375
-43.02978515625
-53.1005859375
-61.34033203125
-62.255859375
-67.7490234375
-61.34033203125
-53.1005859375
-55.84716796875
-54.931640625
-45.7763671875
-40.283203125
-50.35400390625
-50.35400390625
-53.1005859375
-55.84716796875
-46.69189453125
-40.283203125
-41.19873046875
-42.1142578125
-42.1142578125
-36.62109375
-36.62109375
-32.958984375
-36.62109375
-25.634765625
-23.8037109375
-25.634765625
-32.04345703125
-35.70556640625
-33.87451171875
-34.7900390625
-28.38134765625
-28.38134765625
-30.21240234375
-26.55029296875
-34.7900390625
-28.38134765625
-29.296875
-36.62109375
-26.55029296875
-30.21240234375
-32.958984375
-38.4521484375
-32.958984375
-35.70556640625
-35.70556640625
-25.634765625
-42.1142578125
-36.62109375
-29.296875
-25.634765625
-36.62109375
-43.9453125
-35.70556640625
-42.1142578125
-42.1142578125
-32.04345703125
-38.4521484375
-48.52294921875
-55.84716796875
-42.1142578125
-45.7763671875
-54.931640625
-62.255859375
-53.1005859375
-45.7763671875
-54.01611328125
-56.7626953125
-57.67822265625
-61.34033203125
-59.50927734375
-56.7626953125
-64.0869140625
-69.580078125
-58.59375
-51.26953125
-53.1005859375
-60.4248046875
-63.17138671875
-61.34033203125
-64.0869140625
-64.0869140625
-67.7490234375
-65.91796875
-61.34033203125
-61.34033203125
-69.580078125
-71.4111328125
-73.2421875
-69.580078125
-65.00244140625
-53.1005859375
-38.4521484375
-25.634765625
-14.6484375
-0.91552734375
15.56396484375
11.90185546875
14.6484375
20.1416015625
24.71923828125
36.62109375
46.69189453125
61.34033203125
74.15771484375
72.32666015625
75.98876953125
71.4111328125
61.34033203125
57.67822265625
53.1005859375
61.34033203125
49.4384765625
34.7900390625
29.296875
15.56396484375
10.986328125
-1.8310546875
-10.07080078125
-27.4658203125
-47.607421875
-52.18505859375
-48.52294921875
-52.18505859375
-64.0869140625
-59.50927734375
-66.83349609375
-80.56640625
-89.7216796875
-86.0595703125
-86.97509765625
-84.228515625
-96.13037109375
-102.5390625
-100.7080078125
-90.63720703125
-89.7216796875
-91.552734375
-103.45458984375
-98.876953125
-93.3837890625
-95.21484375
-103.45458984375
-106.201171875
-102.5390625
-91.552734375
-85.14404296875
-88.80615234375
-97.0458984375
-94.29931640625
-103.45458984375
-129.08935546875
-141.90673828125
-167.54150390625
-173.9501953125
-155.6396484375
-134.58251953125
-111.6943359375
-65.00244140625
31.1279296875
136.41357421875
278.3203125
441.2841796875
585.02197265625
720.52001953125
837.70751953125
945.73974609375
1009.82666015625
1017.15087890625
870.66650390625
639.95361328125
442.19970703125
251.77001953125
89.7216796875
17.39501953125
-49.4384765625
-95.21484375
-131.8359375
-151.9775390625
-156.55517578125
-160.21728515625
-147.39990234375
-118.10302734375
-103.45458984375
-101.62353515625
-103.45458984375
-100.7080078125
-105.28564453125
-103.45458984375
-106.201171875
-108.94775390625
-109.86328125
-116.27197265625
-122.6806640625
-112.60986328125
-106.201171875
-107.11669921875
-114.44091796875
-113.525390625
-116.27197265625
-115.3564453125
-118.10302734375
-123.59619140625
-121.76513671875
-112.60986328125
-111.6943359375
-112.60986328125
-112.60986328125
-119.0185546875
-111.6943359375
-109.86328125
-114.44091796875
-115.3564453125
-119.93408203125
-113.525390625
-105.28564453125
-103.45458984375
-114.44091796875
-111.6943359375
-108.94775390625
-115.3564453125
-113.525390625
-107.11669921875
-107.11669921875
-100.7080078125
-100.7080078125
-104.3701171875
-109.86328125
-110.77880859375
-108.94775390625
-108.0322265625
-106.201171875
-106.201171875
-102.5390625
-104.3701171875
-107.11669921875
-105.28564453125
-110.77880859375
-108.0322265625
-106.201171875
-106.201171875
-104.3701171875
-110.77880859375
-105.28564453125
-104.3701171875
-100.7080078125
-96.13037109375
-105.28564453125
-105.28564453125
-102.5390625
-87.890625
-90.63720703125
-92.46826171875
-93.3837890625
-98.876953125
-91.552734375
-88.80615234375
-95.21484375
-97.96142578125
-94.29931640625
-89.7216796875
-91.552734375
-94.29931640625
-98.876953125
-78.7353515625
-81.48193359375
-85.14404296875
-77.81982421875
-85.14404296875
-79.65087890625
-74.15771484375
-65.91796875
-73.2421875
-80.56640625
-78.7353515625
-75.0732421875
-65.00244140625
-73.2421875
-66.83349609375
-75.98876953125
-69.580078125
-65.91796875
-73.2421875
-64.0869140625
-56.7626953125
-53.1005859375
-48.52294921875
-60.4248046875
-58.59375
-54.931640625
-50.35400390625
-46.69189453125
-46.69189453125
-43.9453125
-29.296875
-32.958984375
-32.958984375
-26.55029296875
-30.21240234375
-32.04345703125
-26.55029296875
-26.55029296875
-28.38134765625
-26.55029296875
-28.38134765625
-27.4658203125
-14.6484375
-16.4794921875
-19.22607421875
-29.296875
-28.38134765625
-28.38134765625
-26.55029296875
-28.38134765625
-30.21240234375
-33.87451171875
-31.1279296875
-29.296875
-24.71923828125
-27.4658203125
-31.1279296875
-36.62109375
-43.02978515625
-32.958984375
-29.296875
-21.97265625
-23.8037109375
-23.8037109375
-26.55029296875
-24.71923828125
-26.55029296875
-32.958984375
-27.4658203125
-31.1279296875
-25.634765625
-21.97265625
-16.4794921875
-21.05712890625
-25.634765625
-18.310546875
-11.90185546875
-15.56396484375
-20.1416015625
-20.1416015625
-17.39501953125
-21.05712890625
-16.4794921875
-10.986328125
-14.6484375
-15.56396484375
-10.07080078125
-3.662109375
-17.39501953125
-17.39501953125
-12.8173828125
-11.90185546875
-9.1552734375
-10.07080078125
-15.56396484375
-14.6484375
-10.986328125
-10.07080078125
-12.8173828125
-16.4794921875
-10.986328125
-18.310546875
-16.4794921875
-8.23974609375
-7.32421875
-10.986328125
-10.07080078125
-14.6484375
-13.73291015625
-22.88818359375
-20.1416015625
-15.56396484375
-18.310546875
-23.8037109375
-23.8037109375
-25.634765625
-26.55029296875
-28.38134765625
-32.958984375
-35.70556640625
-27.4658203125
-28.38134765625
-28.38134765625
-33.87451171875
-39.36767578125
-35.70556640625
-42.1142578125
-43.9453125
-40.283203125
-45.7763671875
-43.02978515625
-36.62109375
-39.36767578125
-43.02978515625
-48.52294921875
-48.52294921875
-41.19873046875
-44.86083984375
-44.86083984375
-46.69189453125
-55.84716796875
-52.18505859375
-43.02978515625
-43.02978515625
-54.931640625
-54.931640625
-52.18505859375
-54.01611328125
-59.50927734375
-59.50927734375
-64.0869140625
-56.7626953125
-53.1005859375
-62.255859375
-63.17138671875
-65.00244140625
-54.01611328125
-46.69189453125
-34.7900390625
-19.22607421875
-8.23974609375
7.32421875
19.22607421875
21.05712890625
19.22607421875
22.88818359375
35.70556640625
46.69189453125
50.35400390625
62.255859375
79.65087890625
81.48193359375
83.31298828125
86.0595703125
74.15771484375
74.15771484375
72.32666015625
73.2421875
61.34033203125
50.35400390625
42.1142578125
35.70556640625
32.04345703125
10.986328125
-5.4931640625
-9.1552734375
-27.4658203125
-41.19873046875
-48.52294921875
-49.4384765625
-45.7763671875
-49.4384765625
-49.4384765625
-54.931640625
-76.904296875
-78.7353515625
-70.49560546875
-63.17138671875
-72.32666015625
-85.14404296875
-85.14404296875
-82.3974609375
-79.65087890625
-78.7353515625
-79.65087890625
-84.228515625
-84.228515625
-80.56640625
-86.0595703125
-87.890625
-84.228515625
-89.7216796875
-91.552734375
-85.14404296875
-82.3974609375
-85.14404296875
-86.0595703125
-98.876953125
-129.08935546875
-152.89306640625
-160.21728515625
-157.470703125
-131.8359375
-111.6943359375
-80.56640625
-17.39501953125
96.13037109375
215.14892578125
373.53515625
532.8369140625
676.57470703125
806.57958984375
929.26025390625
1006.16455078125
1045.5322265625
989.68505859375
782.77587890625
553.89404296875
364.3798828125
183.10546875
72.32666015625
-1.8310546875
-59.50927734375
-101.62353515625
-137.3291015625
-141.90673828125
-134.58251953125
-127.25830078125
-109.86328125
-98.876953125
-89.7216796875
-78.7353515625
-80.56640625
-82.3974609375
-89.7216796875
-94.29931640625
-98.876953125
-96.13037109375
-96.13037109375
-101.62353515625
-105.28564453125
-106.201171875
-106.201171875
-97.96142578125
-102.5390625
-101.62353515625
-96.13037109375
-97.0458984375
-110.77880859375
-110.77880859375
-105.28564453125
-104.3701171875
-102.5390625
-97.0458984375
-105.28564453125
-103.45458984375
-108.0322265625
-101.62353515625
-92.46826171875
-97.96142578125
-99.79248046875
-92.46826171875
-93.3837890625
-95.21484375
-99.79248046875
-99.79248046875
-108.94775390625
-94.29931640625
-97.96142578125
-104.3701171875
-102.5390625
-100.7080078125
-102.5390625
-100.7080078125
-112.60986328125
-97.96142578125
-103.45458984375
-101.62353515625
-98.876953125
-97.96142578125
-94.29931640625
-93.3837890625
-86.0595703125
-86.0595703125
-99.79248046875
-99.79248046875
-96.13037109375
-92.46826171875
-93.3837890625
-96.13037109375
-95.21484375
-89.7216796875
-86.97509765625
-91.552734375
-88.80615234375
-87.890625
-89.7216796875
-78.7353515625
-80.56640625
-92.46826171875
-83.31298828125
-74.15771484375
-75.0732421875
-74.15771484375
-79.65087890625
-76.904296875
-69.580078125
-77.81982421875
-83.31298828125
-86.0595703125
-83.31298828125
-68.66455078125
-74.15771484375
-65.00244140625
-67.7490234375
-72.32666015625
-80.56640625
-70.49560546875
-71.4111328125
-79.65087890625
-66.83349609375
-62.255859375
-54.931640625
-55.84716796875
-61.34033203125
-55.84716796875
-58.59375
-58.59375
-52.18505859375
-54.931640625
-54.01611328125
-44.86083984375
-39.36767578125
-46.69189453125
-44.86083984375
-43.9453125
-43.9453125
-32.958984375
-31.1279296875
-43.02978515625
-25.634765625
-18.310546875
-18.310546875
-12.8173828125
-18.310546875
-17.39501953125
-11.90185546875
-14.6484375
-11.90185546875
-17.39501953125
-17.39501953125
-11.90185546875
-8.23974609375
-7.32421875
-11.90185546875
-13.73291015625
-10.07080078125
-8.23974609375
-5.4931640625
-15.56396484375
-10.986328125
-16.4794921875
-15.56396484375
-21.05712890625
-21.97265625
-15.56396484375
-8.23974609375
-8.23974609375
-16.4794921875
-18.310546875
-13.73291015625
-16.4794921875
-18.310546875
-20.1416015625
-20.1416015625
-20.1416015625
-19.22607421875
-13.73291015625
-17.39501953125
-18.310546875
-10.07080078125
-12.8173828125
-18.310546875
-9.1552734375
-6.40869140625
-1.8310546875
4.57763671875
0
-3.662109375
-10.07080078125
-10.07080078125
-4.57763671875
2.74658203125
8.23974609375
-1.8310546875
2.74658203125
3.662109375
2.74658203125
3.662109375
6.40869140625
5.4931640625
5.4931640625
7.32421875
6.40869140625
-5.4931640625
-1.8310546875
-4.57763671875
-8.23974609375
-0.91552734375
-7.32421875
-10.986328125
3.662109375
10.07080078125
5.4931640625
-2.74658203125
-6.40869140625
-2.74658203125
-7.32421875
-4.57763671875
-9.1552734375
-8.23974609375
-8.23974609375
-10.986328125
-10.07080078125
-13.73291015625
-18.310546875
-20.1416015625
-15.56396484375
-14.6484375
-19.22607421875
-20.1416015625
-21.05712890625
-14.6484375
-18.310546875
-20.1416015625
-23.8037109375
-32.04345703125
-34.7900390625
-32.04345703125
-36.62109375
-39.36767578125
-39.36767578125
-37.53662109375
-25.634765625
-30.21240234375
-34.7900390625
-43.9453125
-39.36767578125
-37.53662109375
-40.283203125
-43.02978515625
-51.26953125
-36.62109375
-36.62109375
-53.1005859375
-53.1005859375
-42.1142578125
-51.26953125
-44.86083984375
-52.18505859375
-54.01611328125
-49.4384765625
-47.607421875
-46.69189453125
-50.35400390625
-53.1005859375
-52.18505859375
-38.4521484375
-43.9453125
-37.53662109375
-12.8173828125
4.57763671875
11.90185546875
13.73291015625
21.05712890625
21.97265625
27.4658203125
39.36767578125
50.35400390625
54.01611328125
59.50927734375
77.81982421875
81.48193359375
89.7216796875
86.0595703125
83.31298828125
80.56640625
71.4111328125
74.15771484375
69.580078125
62.255859375
54.931640625
53.1005859375
52.18505859375
36.62109375
8.23974609375
-4.57763671875
-19.22607421875
-28.38134765625
-30.21240234375
-37.53662109375
-35.70556640625
-37.53662109375
-45.7763671875
-54.931640625
-57.67822265625
-60.4248046875
-72.32666015625
-69.580078125
-74.15771484375
-83.31298828125
-81.48193359375
-74.15771484375
-66.83349609375
-79.65087890625
-77.81982421875
-88.80615234375
-84.228515625
-80.56640625
-81.48193359375
-88.80615234375
-84.228515625
-73.2421875
-71.4111328125
-85.14404296875
-91.552734375
-85.14404296875
-75.0732421875
-83.31298828125
-108.0322265625
-133.6669921875
-149.23095703125
-146.484375
-144.6533203125
-129.08935546875
-107.11669921875
-52.18505859375
31.1279296875
140.07568359375
281.06689453125
440.36865234375
609.7412109375
742.49267578125
870.66650390625
973.20556640625
1040.95458984375
1032.71484375
915.52734375
671.08154296875
456.84814453125
280.1513671875
120.849609375
35.70556640625
-27.4658203125
-68.66455078125
-120.849609375
-142.822265625
-142.822265625
-137.3291015625
-140.07568359375
-119.93408203125
-100.7080078125
-82.3974609375
-86.0595703125
-92.46826171875
-90.63720703125
-86.0595703125
-88.80615234375
-92.46826171875
-94.29931640625
-101.62353515625
-99.79248046875
-97.96142578125
-98.876953125
-104.3701171875
-101.62353515625
-97.0458984375
-108.0322265625
-104.3701171875
-109.86328125
-101.62353515625
-97.96142578125
-92.46826171875
-95.21484375
-108.0322265625
-107.11669921875
-94.29931640625
-98.876953125
-108.0322265625
-104.3701171875
-108.0322265625
-108.0322265625
-98.876953125
-96.13037109375
-101.62353515625
-97.0458984375
-96.13037109375
-94.29931640625
-92.46826171875
-107.11669921875
-105.28564453125
-99.79248046875
-100.7080078125
-95.21484375
-104.3701171875
-97.0458984375
-102.5390625
-98.876953125
-98.876953125
-105.28564453125
-102.5390625
-99.79248046875
-97.0458984375
-96.13037109375
-99.79248046875
-106.201171875
-99.79248046875
-99.79248046875
-99.79248046875
-105.28564453125
-104.3701171875
-101.62353515625
-103.45458984375
-97.0458984375
-101.62353515625
-96.13037109375
-96.13037109375
-102.5390625
-96.13037109375
-108.0322265625
-100.7080078125
-100.7080078125
-92.46826171875
-88.80615234375
-95.21484375
-97.96142578125
-96.13037109375
-98.876953125
-102.5390625
-100.7080078125
-101.62353515625
-93.3837890625
-94.29931640625
-88.80615234375
-91.552734375
-102.5390625
-95.21484375
-85.14404296875
-79.65087890625
-80.56640625
-79.65087890625
-82.3974609375
-82.3974609375
-77.81982421875
-85.14404296875
-80.56640625
-84.228515625
-80.56640625
-82.3974609375
-78.7353515625
-80.56640625
-75.98876953125
-75.0732421875
-73.2421875
-69.580078125
-76.904296875
-73.2421875
-57.67822265625
-54.01611328125
-63.17138671875
-58.59375
-56.7626953125
-49.4384765625
-45.7763671875
-52.18505859375
-52.18505859375
-54.931640625
-42.1142578125
-32.04345703125
-35.70556640625
-32.04345703125
-35.70556640625
-28.38134765625
-25.634765625
-43.02978515625
-37.53662109375
-37.53662109375
-38.4521484375
-36.62109375
-36.62109375
-39.36767578125
-43.02978515625
-43.9453125
-38.4521484375
-38.4521484375
-50.35400390625
-51.26953125
-35.70556640625
-40.283203125
-54.931640625
-46.69189453125
-52.18505859375
-54.01611328125
-44.86083984375
-41.19873046875
-42.1142578125
-46.69189453125
-45.7763671875
-47.607421875
-46.69189453125
-43.9453125
-42.1142578125
-40.283203125
-32.958984375
-34.7900390625
-27.4658203125
-32.958984375
-39.36767578125
-40.283203125
-43.9453125
-40.283203125
-38.4521484375
-38.4521484375
-33.87451171875
-35.70556640625
-32.958984375
-29.296875
-27.4658203125
-36.62109375
-36.62109375
-35.70556640625
-27.4658203125
-20.1416015625
-23.8037109375
-28.38134765625
-30.21240234375
-28.38134765625
-26.55029296875
-32.04345703125
-35.70556640625
-34.7900390625
-31.1279296875
-28.38134765625
-24.71923828125
-26.55029296875
-32.958984375
-29.296875
-27.4658203125
-35.70556640625
-37.53662109375
-39.36767578125
-44.86083984375
-37.53662109375
-38.4521484375
-40.283203125
-46.69189453125
-44.86083984375
-43.02978515625
-50.35400390625
-51.26953125
-51.26953125
-54.01611328125
-51.26953125
-55.84716796875
-54.931640625
-56.7626953125
-49.4384765625
-49.4384765625
-46.69189453125
-52.18505859375
-59.50927734375
-65.91796875
-56.7626953125
-54.931640625
-65.91796875
-63.17138671875
-64.0869140625
-70.49560546875
-64.0869140625
-63.17138671875
-63.17138671875
-53.1005859375
-38.4521484375
-23.8037109375
-11.90185546875
-3.662109375
6.40869140625
8.23974609375
1.8310546875
0.91552734375
6.40869140625
27.4658203125
44.86083984375
56.7626953125
64.0869140625
58.59375
55.84716796875
65.00244140625
65.00244140625
67.7490234375
50.35400390625
51.26953125
49.4384765625
48.52294921875
37.53662109375
25.634765625
16.4794921875
-2.74658203125
-28.38134765625
-37.53662109375
-46.69189453125
-49.4384765625
-54.01611328125
-51.26953125
-60.4248046875
-73.2421875
-81.48193359375
-88.80615234375
-94.29931640625
-95.21484375
-97.0458984375
-108.94775390625
-101.62353515625
-94.29931640625
-91.552734375
-100.7080078125
-97.96142578125
-102.5390625
-107.11669921875
-107.11669921875
-108.0322265625
-102.5390625
-105.28564453125
-103.45458984375
-108.0322265625
-112.60986328125
-107.11669921875
-99.79248046875
-103.45458984375
-108.94775390625
-113.525390625
-123.59619140625
-133.6669921875
-153.80859375
-165.71044921875
-173.03466796875
-157.470703125
-135.498046875
-112.60986328125
-53.1005859375
38.4521484375
145.56884765625
297.54638671875
470.5810546875
622.55859375
741.5771484375
870.66650390625
953.06396484375
1009.82666015625
986.9384765625
809.326171875
561.21826171875
383.60595703125
198.66943359375
65.00244140625
-6.40869140625
-47.607421875
-97.0458984375
-144.6533203125
-170.2880859375
-172.119140625
-163.87939453125
-145.56884765625
-133.6669921875
-126.3427734375
-115.3564453125
-109.86328125
-112.60986328125
-106.201171875
-113.525390625
-119.0185546875
-119.0185546875
-116.27197265625
-112.60986328125
-115.3564453125
-119.0185546875
-120.849609375
-122.6806640625
-123.59619140625
-127.25830078125
-124.51171875
-118.10302734375
-119.93408203125
-121.76513671875
-126.3427734375
-123.59619140625
-119.93408203125
-110.77880859375
-115.3564453125
-120.849609375
-119.93408203125
-122.6806640625
-122.6806640625
-116.27197265625
-121.76513671875
-123.59619140625
-124.51171875
-130.0048828125
-119.93408203125
-121.76513671875
-120.849609375
-114.44091796875
-111.6943359375
-115.3564453125
-123.59619140625
-123.59619140625
-120.849609375
-119.0185546875
-115.3564453125
-117.1875
-118.10302734375
-129.08935546875
-122.6806640625
-121.76513671875
-118.10302734375
-117.1875
-118.10302734375
-124.51171875
-126.3427734375
-115.3564453125
-126.3427734375
-126.3427734375
-122.6806640625
-119.93408203125
-119.93408203125
-121.76513671875
-127.25830078125
-128.173828125
-125.42724609375
-112.60986328125
-116.27197265625
-119.0185546875
-115.3564453125
-122.6806640625
-123.59619140625
-128.173828125
-130.92041015625
-126.3427734375
-124.51171875
-122.6806640625
-127.25830078125
-123.59619140625
-124.51171875
-116.27197265625
-121.76513671875
-126.3427734375
-119.93408203125
-119.93408203125
-120.849609375
-119.93408203125
-121.76513671875
-115.3564453125
-104.3701171875
-108.94775390625
-105.28564453125
-111.6943359375
-108.0322265625
-116.27197265625
-119.93408203125
-106.201171875
-104.3701171875
-108.0322265625
-108.0322265625
-98.876953125
-98.876953125
-92.46826171875
-97.96142578125
-101.62353515625
-94.29931640625
-96.13037109375
-89.7216796875
-82.3974609375
-75.98876953125
-78.7353515625
-78.7353515625
-76.904296875
-74.15771484375
-74.15771484375
-74.15771484375
-67.7490234375
-65.00244140625
-63.17138671875
-66.83349609375
-60.4248046875
-55.84716796875
-54.931640625
-60.4248046875
-54.931640625
-55.84716796875
-58.59375
-63.17138671875
-59.50927734375
-60.4248046875
-52.18505859375
-51.26953125
-57.67822265625
-68.66455078125
-65.00244140625
-64.0869140625
-59.50927734375
-69.580078125
-67.7490234375
-62.255859375
-68.66455078125
-62.255859375
-64.0869140625
-69.580078125
-70.49560546875
-62.255859375
-64.0869140625
-71.4111328125
-70.49560546875
-56.7626953125
-56.7626953125
-54.931640625
-60.4248046875
-57.67822265625
-49.4384765625
-51.26953125
-48.52294921875
-48.52294921875
-48.52294921875
-51.26953125
-43.02978515625
-43.9453125
-48.52294921875
-47.607421875
-38.4521484375
-36.62109375
-41.19873046875
-48.52294921875
-39.36767578125
-37.53662109375
-34.7900390625
-33.87451171875
-40.283203125
-42.1142578125
-32.958984375
-41.19873046875
-48.52294921875
-46.69189453125
-38.4521484375
-34.7900390625
-43.02978515625
-35.70556640625
-37.53662109375
-42.1142578125
-35.70556640625
-35.70556640625
-37.53662109375
-44.86083984375
-43.9453125
-38.4521484375
-43.9453125
-50.35400390625
-51.26953125
-46.69189453125
-48.52294921875
-50.35400390625
-52.18505859375
-59.50927734375
-60.4248046875
-62.255859375
-50.35400390625
-55.84716796875
-63.17138671875
-57.67822265625
-59.50927734375
-62.255859375
-55.84716796875
-67.7490234375
-67.7490234375
-65.91796875
-68.66455078125
-67.7490234375
-74.15771484375
-74.15771484375
-60.4248046875
-65.91796875
-69.580078125
-73.2421875
-73.2421875
-71.4111328125
-63.17138671875
-50.35400390625
-44.86083984375
-31.1279296875
-6.40869140625
9.1552734375
13.73291015625
0.91552734375
2.74658203125
3.662109375
17.39501953125
38.4521484375
39.36767578125
60.4248046875
63.17138671875
67.7490234375
67.7490234375
62.255859375
60.4248046875
56.7626953125
55.84716796875
62.255859375
52.18505859375
41.19873046875
32.04345703125
23.8037109375
6.40869140625
-14.6484375
-33.87451171875
-33.87451171875
-43.02978515625
-57.67822265625
-68.66455078125
-66.83349609375
-64.0869140625
-65.91796875
-82.3974609375
-88.80615234375
-94.29931640625
-94.29931640625
-93.3837890625
-93.3837890625
-102.5390625
-102.5390625
-100.7080078125
-104.3701171875
-101.62353515625
-104.3701171875
-97.0458984375
-102.5390625
-100.7080078125
-103.45458984375
-102.5390625
-90.63720703125
-87.890625
-92.46826171875
-99.79248046875
-102.5390625
-97.0458984375
-99.79248046875
-108.0322265625
-121.76513671875
-146.484375
-172.119140625
-174.86572265625
-160.21728515625
-139.16015625
-114.44091796875
-64.0869140625
27.4658203125
131.8359375
278.3203125
452.2705078125
600.5859375
740.66162109375
861.51123046875
953.9794921875
1008.9111328125
999.755859375
856.01806640625
612.48779296875
412.90283203125
228.8818359375
88.80615234375
6.40869140625
-51.26953125
-100.7080078125
-145.56884765625
-153.80859375
-151.06201171875
-143.73779296875
-135.498046875
-119.93408203125
-109.86328125
-97.96142578125
-94.29931640625
-97.0458984375
-103.45458984375
-108.0322265625
-112.60986328125
-114.44091796875
-108.94775390625
-111.6943359375
-117.1875
-107.11669921875
-109.86328125
-114.44091796875
-117.1875
-116.27197265625
-102.5390625
-103.45458984375
-110.77880859375
-108.0322265625
-107.11669921875
-106.201171875
-108.0322265625
-105.28564453125
-106.201171875
-112.60986328125
-114.44091796875
-107.11669921875
-109.86328125
-106.201171875
-100.7080078125
-99.79248046875
-101.62353515625
-106.201171875
-115.3564453125
-106.201171875
-108.0322265625
-107.11669921875
-108.94775390625
-108.94775390625
-108.0322265625
-110.77880859375
-106.201171875
-97.0458984375
-104.3701171875
-112.60986328125
-111.6943359375
-106.201171875
-102.5390625
-109.86328125
-108.94775390625
-112.60986328125
-100.7080078125
-97.96142578125
-110.77880859375
-108.0322265625
-97.0458984375
-97.0458984375
-97.0458984375
-105.28564453125
-106.201171875
-102.5390625
-98.876953125
-99.79248046875
-102.5390625
-99.79248046875
-97.96142578125
-95.21484375
-88.80615234375
-93.3837890625
-98.876953125
-94.29931640625
-98.876953125
-93.3837890625
-93.3837890625
-95.21484375
-96.13037109375
-90.63720703125
-81.48193359375
-92.46826171875
-88.80615234375
-82.3974609375
-79.65087890625
-88.80615234375
-94.29931640625
-91.552734375
-86.97509765625
-79.65087890625
-77.81982421875
-85.14404296875
-85.14404296875
-83.31298828125
-78.7353515625
-77.81982421875
-80.56640625
-79.65087890625
-70.49560546875
-70.49560546875
-71.4111328125
-65.91796875
-60.4248046875
-59.50927734375
-56.7626953125
-56.7626953125
-62.255859375
-53.1005859375
-50.35400390625
-49.4384765625
-43.02978515625
-46.69189453125
-40.283203125
-36.62109375
-35.70556640625
-29.296875
-32.04345703125
-32.04345703125
-31.1279296875
-18.310546875
-13.73291015625
-22.88818359375
-28.38134765625
-15.56396484375
-13.73291015625
-21.05712890625
-26.55029296875
-28.38134765625
-21.05712890625
-18.310546875
-21.97265625
-24.71923828125
-25.634765625
-33.87451171875
-26.55029296875
-24.71923828125
-25.634765625
-21.05712890625
-22.88818359375
-22.88818359375
-22.88818359375
-32.04345703125
-33.87451171875
-32.04345703125
-21.05712890625
-24.71923828125
-22.88818359375
-30.21240234375
-25.634765625
-11.90185546875
-12.8173828125
-20.1416015625
-21.05712890625
-15.56396484375
-16.4794921875
-15.56396484375
-23.8037109375
-8.23974609375
-10.07080078125
-2.74658203125
0.91552734375
-6.40869140625
-10.986328125
-10.986328125
-4.57763671875
-5.4931640625
-10.986328125
-9.1552734375
-3.662109375
0
0
-12.8173828125
-5.4931640625
3.662109375
0.91552734375
5.4931640625
0
-6.40869140625
-2.74658203125
-5.4931640625
-10.07080078125
-7.32421875
-8.23974609375
-13.73291015625
-7.32421875
-4.57763671875
-4.57763671875
-4.57763671875
-5.4931640625
-9.1552734375
-2.74658203125
-17.39501953125
-22.88818359375
-20.1416015625
-23.8037109375
-18.310546875
-20.1416015625
-23.8037109375
-15.56396484375
-10.07080078125
-22.88818359375
-31.1279296875
-33.87451171875
-32.04345703125
-23.8037109375
-33.87451171875
-34.7900390625
-32.04345703125
-14.6484375
-29.296875
-30.21240234375
-40.283203125
-44.86083984375
-37.53662109375
-34.7900390625
-28.38134765625
-33.87451171875
-23.8037109375
0
15.56396484375
26.55029296875
22.88818359375
32.04345703125
44.86083984375
42.1142578125
45.7763671875
46.69189453125
58.59375
75.98876953125
96.13037109375
103.45458984375
97.0458984375
103.45458984375
102.5390625
96.13037109375
91.552734375
85.14404296875
84.228515625
86.97509765625
73.2421875
65.91796875
57.67822265625
35.70556640625
27.4658203125
9.1552734375
-6.40869140625
-19.22607421875
-31.1279296875
-23.8037109375
-30.21240234375
-28.38134765625
-51.26953125
-54.01611328125
-54.931640625
-58.59375
-65.00244140625
-69.580078125
-76.904296875
-76.904296875
-71.4111328125
-61.34033203125
-71.4111328125
-75.98876953125
-75.98876953125
-70.49560546875
-71.4111328125
-74.15771484375
-81.48193359375
-79.65087890625
-71.4111328125
-73.2421875
-80.56640625
-75.0732421875
-68.66455078125
-74.15771484375
-78.7353515625
-87.890625
-107.11669921875
-117.1875
-134.58251953125
-141.90673828125
-148.3154296875
-129.08935546875
-92.46826171875
-43.02978515625
27.4658203125
129.08935546875
277.40478515625
453.18603515625
614.31884765625
756.2255859375
885.31494140625
989.68505859375
1062.01171875
1072.08251953125
951.23291015625
710.44921875
494.384765625
313.1103515625
145.56884765625
55.84716796875
-10.986328125
-63.17138671875
-106.201171875
-120.849609375
-125.42724609375
-123.59619140625
-117.1875
-95.21484375
-78.7353515625
-69.580078125
-68.66455078125
-75.0732421875
-74.15771484375
-74.15771484375
-77.81982421875
-85.14404296875
-87.890625
-82.3974609375
-84.228515625
-77.81982421875
-81.48193359375
-86.0595703125
-92.46826171875
-85.14404296875
-82.3974609375
-83.31298828125
-80.56640625
-80.56640625
-83.31298828125
-89.7216796875
-85.14404296875
-91.552734375
-88.80615234375
-86.97509765625
-82.3974609375
-83.31298828125
-80.56640625
-81.48193359375
-81.48193359375
-84.228515625
-90.63720703125
-87.890625
-81.48193359375
-83.31298828125
-80.56640625
-87.890625
-86.0595703125
-87.890625
-84.228515625
-76.904296875
-86.0595703125
-81.48193359375
-80.56640625
-77.81982421875
-78.7353515625
-86.97509765625
-92.46826171875
-86.0595703125
-77.81982421875
-72.32666015625
-85.14404296875
-86.97509765625
-80.56640625
-77.81982421875
-83.31298828125
-84.228515625
-86.0595703125
-86.0595703125
-80.56640625
-83.31298828125
-86.0595703125
-84.228515625
-81.48193359375
-80.56640625
-86.0595703125
-83.31298828125
-89.7216796875
-85.14404296875
-73.2421875
-74.15771484375
-81.48193359375
-74.15771484375
-73.2421875
-75.0732421875
-78.7353515625
-79.65087890625
-75.0732421875
-72.32666015625
-76.904296875
-74.15771484375
-69.580078125
-75.0732421875
-72.32666015625
-66.83349609375
-69.580078125
-68.66455078125
-66.83349609375
-66.83349609375
-63.17138671875
-64.0869140625
-65.91796875
-62.255859375
-63.17138671875
-55.84716796875
-60.4248046875
-58.59375
-57.67822265625
-47.607421875
-45.7763671875
-41.19873046875
-49.4384765625
-49.4384765625
-36.62109375
-29.296875
-25.634765625
-33.87451171875
-34.7900390625
-31.1279296875
-23.8037109375
-16.4794921875
-21.97265625
-20.1416015625
-10.07080078125
-10.986328125
-10.07080078125
-19.22607421875
-8.23974609375
-0.91552734375
-3.662109375
-8.23974609375
-8.23974609375
-5.4931640625
1.8310546875
-5.4931640625
-9.1552734375
-4.57763671875
-4.57763671875
-5.4931640625
-7.32421875
-11.90185546875
-16.4794921875
-17.39501953125
-16.4794921875
-12.8173828125
-14.6484375
-21.97265625
-20.1416015625
-7.32421875
-10.07080078125
-8.23974609375
-10.986328125
-10.07080078125
-9.1552734375
-8.23974609375
-12.8173828125
-14.6484375
-11.90185546875
-5.4931640625
0.91552734375
2.74658203125
-4.57763671875
-0.91552734375
4.57763671875
0.91552734375
2.74658203125
0
0.91552734375
0.91552734375
4.57763671875
19.22607421875
20.1416015625
18.310546875
12.8173828125
8.23974609375
11.90185546875
7.32421875
4.57763671875
9.1552734375
16.4794921875
14.6484375
4.57763671875
1.8310546875
8.23974609375
4.57763671875
2.74658203125
-1.8310546875
0.91552734375
5.4931640625
11.90185546875
10.07080078125
7.32421875
5.4931640625
5.4931640625
3.662109375
3.662109375
0.91552734375
-3.662109375
-1.8310546875
-4.57763671875
1.8310546875
-5.4931640625
-12.8173828125
-7.32421875
-5.4931640625
-20.1416015625
-19.22607421875
-15.56396484375
-7.32421875
-8.23974609375
-12.8173828125
-16.4794921875
-19.22607421875
-20.1416015625
-18.310546875
-25.634765625
-27.4658203125
-28.38134765625
-26.55029296875
-21.05712890625
-19.22607421875
-23.8037109375
-19.22607421875
0
10.07080078125
21.97265625
32.04345703125
43.9453125
54.01611328125
58.59375
63.17138671875
65.00244140625
76.904296875
88.80615234375
98.876953125
106.201171875
113.525390625
108.0322265625
115.3564453125
112.60986328125
114.44091796875
103.45458984375
97.96142578125
97.0458984375
91.552734375
80.56640625
70.49560546875
49.4384765625
42.1142578125
26.55029296875
15.56396484375
0
-14.6484375
-15.56396484375
-5.4931640625
-11.90185546875
-20.1416015625
-34.7900390625
-42.1142578125
-45.7763671875
-57.67822265625
-58.59375
-59.50927734375
-55.84716796875
-57.67822265625
-63.17138671875
-54.931640625
-55.84716796875
-63.17138671875
-70.49560546875
-64.0869140625
-65.00244140625
-66.83349609375
-53.1005859375
-52.18505859375
-64.0869140625
-63.17138671875
-62.255859375
-68.66455078125
-53.1005859375
-53.1005859375
-61.34033203125
-73.2421875
-92.46826171875
-102.5390625
-123.59619140625
-137.3291015625
-135.498046875
-112.60986328125
-79.65087890625
-24.71923828125
63.17138671875
174.86572265625
313.1103515625
491.63818359375
648.193359375
776.3671875
899.0478515625
1010.7421875
1087.646484375
1086.73095703125
940.24658203125
683.89892578125
474.2431640625
297.54638671875
144.6533203125
54.931640625
-11.90185546875
-64.0869140625
-103.45458984375
-111.6943359375
-120.849609375
-118.10302734375
-102.5390625
-84.228515625
-68.66455078125
-68.66455078125
-70.49560546875
-61.34033203125
-64.0869140625
-66.83349609375
-59.50927734375
-66.83349609375
-74.15771484375
-65.91796875
-67.7490234375
-80.56640625
-85.14404296875
-80.56640625
-76.904296875
-79.65087890625
-88.80615234375
-83.31298828125
-84.228515625
-79.65087890625
-71.4111328125
-72.32666015625
-84.228515625
-86.0595703125
-75.98876953125
-69.580078125
-69.580078125
-79.65087890625
-81.48193359375
-76.904296875
-78.7353515625
-81.48193359375
-84.228515625
-81.48193359375
-79.65087890625
-75.0732421875
-78.7353515625
-80.56640625
-83.31298828125
-86.0595703125
-74.15771484375
-75.98876953125
-76.904296875
-78.7353515625
-69.580078125
-77.81982421875
-83.31298828125
-77.81982421875
-93.3837890625
-77.81982421875
-76.904296875
-82.3974609375
-86.0595703125
-86.97509765625
-85.14404296875
-80.56640625
-74.15771484375
-81.48193359375
-85.14404296875
-77.81982421875
-78.7353515625
-81.48193359375
-82.3974609375
-77.81982421875
-73.2421875
-71.4111328125
-82.3974609375
-84.228515625
-85.14404296875
-72.32666015625
-75.0732421875
-72.32666015625
-81.48193359375
-91.552734375
-86.97509765625
-76.904296875
-75.0732421875
-83.31298828125
-84.228515625
-73.2421875
-69.580078125
-71.4111328125
-65.91796875
-73.2421875
-78.7353515625
-72.32666015625
-72.32666015625
-81.48193359375
-72.32666015625
-66.83349609375
-74.15771484375
-78.7353515625
-75.98876953125
-76.904296875
-69.580078125
-54.931640625
-68.66455078125
-70.49560546875
-59.50927734375
-60.4248046875
-72.32666015625
-62.255859375
-54.01611328125
-54.931640625
-55.84716796875
-45.7763671875
-42.1142578125
-44.86083984375
-36.62109375
-32.958984375
-27.4658203125
-27.4658203125
-31.1279296875
-22.88818359375
-20.1416015625
-14.6484375
-22.88818359375
-26.55029296875
-22.88818359375
-16.4794921875
-4.57763671875
-18.310546875
-26.55029296875
-15.56396484375
-10.07080078125
-14.6484375
-19.22607421875
-24.71923828125
-23.8037109375
-21.97265625
-23.8037109375
-20.1416015625
-29.296875
-32.04345703125
-23.8037109375
-24.71923828125
-21.05712890625
-28.38134765625
-32.04345703125
-31.1279296875
-21.05712890625
-22.88818359375
-20.1416015625
-28.38134765625
-34.7900390625
-20.1416015625
-19.22607421875
-31.1279296875
-21.97265625
-21.97265625
-21.97265625
-21.05712890625
-23.8037109375
-16.4794921875
-13.73291015625
-16.4794921875
-3.662109375
-14.6484375
-15.56396484375
-22.88818359375
-20.1416015625
-21.97265625
-19.22607421875
-20.1416015625
-18.310546875
-13.73291015625
-5.4931640625
-2.74658203125
-13.73291015625
-11.90185546875
-5.4931640625
-9.1552734375
-20.1416015625
-21.05712890625
-13.73291015625
-10.07080078125
-9.1552734375
-4.57763671875
-11.90185546875
-17.39501953125
-21.05712890625
-21.97265625
-21.05712890625
-19.22607421875
-24.71923828125
-22.88818359375
-20.1416015625
-16.4794921875
-19.22607421875
-16.4794921875
-22.88818359375
-27.4658203125
-20.1416015625
-34.7900390625
-33.87451171875
-24.71923828125
-30.21240234375
-37.53662109375
-39.36767578125
-33.87451171875
-34.7900390625
-29.296875
-10.07080078125
0
21.05712890625
32.958984375
32.958984375
30.21240234375
32.04345703125
38.4521484375
46.69189453125
45.7763671875
69.580078125
83.31298828125
86.0595703125
92.46826171875
92.46826171875
86.0595703125
79.65087890625
81.48193359375
74.15771484375
84.228515625
72.32666015625
58.59375
50.35400390625
42.1142578125
25.634765625
0.91552734375
-15.56396484375
-15.56396484375
-31.1279296875
-32.958984375
-43.9453125
-38.4521484375
-44.86083984375
-43.9453125
-50.35400390625
-65.91796875
-79.65087890625
-72.32666015625
-79.65087890625
-80.56640625
-90.63720703125
-90.63720703125
-84.228515625
-81.48193359375
-86.97509765625
-97.96142578125
-99.79248046875
-92.46826171875
-97.0458984375
-91.552734375
-97.0458984375
-103.45458984375
-92.46826171875
-91.552734375
-93.3837890625
-94.29931640625
-80.56640625
-87.890625
-94.29931640625
-115.3564453125
-143.73779296875
-154.72412109375
-163.87939453125
-157.470703125
-151.9775390625
-124.51171875
-86.97509765625
-10.986328125
90.63720703125
218.81103515625
379.94384765625
541.9921875
696.71630859375
832.21435546875
940.24658203125
1025.390625
1062.01171875
977.783203125
747.98583984375
526.42822265625
330.50537109375
160.21728515625
68.66455078125
10.986328125
-41.19873046875
-101.62353515625
-137.3291015625
-150.146484375
-146.484375
-147.39990234375
-151.9775390625
-130.92041015625
-119.0185546875
-101.62353515625
-108.94775390625
-120.849609375
-106.201171875
-108.0322265625
-104.3701171875
-108.0322265625
-112.60986328125
-122.6806640625
-119.0185546875
-113.525390625
-119.0185546875
-122.6806640625
-126.3427734375
-125.42724609375
-121.76513671875
-120.849609375
-112.60986328125
-118.10302734375
-117.1875
-108.94775390625
-119.93408203125
-122.6806640625
-119.93408203125
-115.3564453125
-119.0185546875
-113.525390625
-128.173828125
-129.08935546875
-116.27197265625
-120.849609375
-114.44091796875
-115.3564453125
-120.849609375
-118.10302734375
-120.849609375
-109.86328125
-127.25830078125
-126.3427734375
-109.86328125
-113.525390625
-108.0322265625
-117.1875
-122.6806640625
-119.93408203125
-120.849609375
-108.0322265625
-118.10302734375
-122.6806640625
-114.44091796875
-101.62353515625
-109.86328125
-116.27197265625
-117.1875
-120.849609375
-119.93408203125
-129.08935546875
-128.173828125
-112.60986328125
-121.76513671875
-114.44091796875
-125.42724609375
-133.6669921875
-124.51171875
-118.10302734375
-117.1875
-125.42724609375
-128.173828125
-119.0185546875
-118.10302734375
-112.60986328125
-115.3564453125
-125.42724609375
-123.59619140625
-119.93408203125
-130.92041015625
-130.0048828125
-116.27197265625
-118.10302734375
-113.525390625
-111.6943359375
-110.77880859375
-107.11669921875
-117.1875
-122.6806640625
-116.27197265625
-114.44091796875
-118.10302734375
-111.6943359375
-108.0322265625
-104.3701171875
-114.44091796875
-109.86328125
-124.51171875
-108.94775390625
-113.525390625
-114.44091796875
-117.1875
-114.44091796875
-101.62353515625
-97.0458984375
-101.62353515625
-103.45458984375
-96.13037109375
-97.0458984375
-88.80615234375
-87.890625
-79.65087890625
-73.2421875
-75.0732421875
-65.91796875
-56.7626953125
-68.66455078125
-74.15771484375
-68.66455078125
-64.0869140625
-55.84716796875
-62.255859375
-73.2421875
-59.50927734375
-55.84716796875
-54.01611328125
-62.255859375
-71.4111328125
-69.580078125
-75.0732421875
-69.580078125
-69.580078125
-71.4111328125
-72.32666015625
-70.49560546875
-66.83349609375
-76.904296875
-73.2421875
-70.49560546875
-71.4111328125
-75.0732421875
-82.3974609375
-76.904296875
-79.65087890625
-80.56640625
-78.7353515625
-68.66455078125
-64.0869140625
-61.34033203125
-65.91796875
-66.83349609375
-66.83349609375
-67.7490234375
-58.59375
-65.91796875
-62.255859375
-56.7626953125
-56.7626953125
-61.34033203125
-63.17138671875
-59.50927734375
-59.50927734375
-56.7626953125
-50.35400390625
-49.4384765625
-50.35400390625
-53.1005859375
-49.4384765625
-49.4384765625
-47.607421875
-47.607421875
-55.84716796875
-46.69189453125
-45.7763671875
-44.86083984375
-46.69189453125
-45.7763671875
-50.35400390625
-51.26953125
-43.9453125
-41.19873046875
-53.1005859375
-58.59375
-52.18505859375
-47.607421875
-44.86083984375
-37.53662109375
-43.9453125
-60.4248046875
-51.26953125
-53.1005859375
-60.4248046875
-58.59375
-54.931640625
-55.84716796875
-53.1005859375
-57.67822265625
-65.91796875
-64.0869140625
-54.931640625
-50.35400390625
-38.4521484375
-29.296875
-16.4794921875
-4.57763671875
-0.91552734375
-1.8310546875
0
0.91552734375
18.310546875
22.88818359375
27.4658203125
61.34033203125
61.34033203125
51.26953125
57.67822265625
62.255859375
59.50927734375
57.67822265625
52.18505859375
49.4384765625
40.283203125
30.21240234375
35.70556640625
30.21240234375
9.1552734375
-22.88818359375
-40.283203125
-47.607421875
-66.83349609375
-64.0869140625
-58.59375
-61.34033203125
-73.2421875
-81.48193359375
-78.7353515625
-96.13037109375
-111.6943359375
-108.94775390625
-97.96142578125
-106.201171875
-119.93408203125
-117.1875
-110.77880859375
-110.77880859375
-104.3701171875
-117.1875
-115.3564453125
-110.77880859375
-108.94775390625
-121.76513671875
-109.86328125
-121.76513671875
-115.3564453125
-108.94775390625
-111.6943359375
-114.44091796875
-115.3564453125
-120.849609375
-111.6943359375
-133.6669921875
-152.89306640625
-175.78125
-184.9365234375
-189.51416015625
-173.9501953125
-151.06201171875
-109.86328125
-59.50927734375
44.86083984375
169.37255859375
323.18115234375
480.65185546875
630.79833984375
763.5498046875
886.23046875
965.88134765625
1010.7421875
956.72607421875
759.8876953125
522.76611328125
345.15380859375
170.2880859375
48.52294921875
-6.40869140625
-51.26953125
-117.1875
-167.54150390625
-164.794921875
-172.119140625
-170.2880859375
-160.21728515625
-146.484375
-128.173828125
-119.93408203125
-112.60986328125
-110.77880859375
-116.27197265625
-124.51171875
-119.93408203125
-123.59619140625
-137.3291015625
-140.07568359375
-143.73779296875
-132.75146484375
-134.58251953125
-138.24462890625
-140.07568359375
-130.92041015625
-136.41357421875
-139.16015625
-135.498046875
-132.75146484375
-131.8359375
-130.92041015625
-130.0048828125
-139.16015625
-138.24462890625
-132.75146484375
-134.58251953125
-135.498046875
-131.8359375
-138.24462890625
-139.16015625
-131.8359375
-128.173828125
-135.498046875
-130.0048828125
-130.92041015625
-136.41357421875
-130.0048828125
-130.92041015625
-137.3291015625
-134.58251953125
-122.6806640625
-130.92041015625
-137.3291015625
-139.16015625
-134.58251953125
-138.24462890625
-132.75146484375
-134.58251953125
-138.24462890625
-129.08935546875
-129.08935546875
-127.25830078125
-133.6669921875
-129.08935546875
-128.173828125
-132.75146484375
-126.3427734375
-132.75146484375
-134.58251953125
-133.6669921875
-130.0048828125
-128.173828125
-133.6669921875
-135.498046875
-126.3427734375
-130.0048828125
-130.0048828125
-134.58251953125
-138.24462890625
-132.75146484375
-129.08935546875
-119.93408203125
-126.3427734375
-126.3427734375
-129.08935546875
-128.173828125
-127.25830078125
-130.0048828125
-134.58251953125
-126.3427734375
-132.75146484375
-121.76513671875
-130.0048828125
-124.51171875
-130.92041015625
-124.51171875
-112.60986328125
-117.1875
-128.173828125
-122.6806640625
-116.27197265625
-116.27197265625
-115.3564453125
-117.1875
-116.27197265625
-117.1875
-121.76513671875
-119.0185546875
-123.59619140625
-114.44091796875
-109.86328125
-101.62353515625
-98.876953125
-96.13037109375
-90.63720703125
-95.21484375
-90.63720703125
-78.7353515625
-76.904296875
-81.48193359375
-78.7353515625
-76.904296875
-79.65087890625
-80.56640625
-72.32666015625
-64.0869140625
-75.0732421875
-73.2421875
-73.2421875
-65.91796875
-67.7490234375
-67.7490234375
-71.4111328125
-64.0869140625
-65.91796875
-69.580078125
-69.580078125
-73.2421875
-75.0732421875
-80.56640625
-78.7353515625
-70.49560546875
-69.580078125
-76.904296875
-73.2421875
-75.0732421875
-77.81982421875
-84.228515625
-84.228515625
-84.228515625
-87.890625
-85.14404296875
-78.7353515625
-82.3974609375
-83.31298828125
-68.66455078125
-65.91796875
-73.2421875
-65.91796875
-67.7490234375
-60.4248046875
-59.50927734375
-59.50927734375
-62.255859375
-61.34033203125
-54.931640625
-51.26953125
-64.0869140625
-51.26953125
-52.18505859375
-53.1005859375
-40.283203125
-46.69189453125
-46.69189453125
-52.18505859375
-43.9453125
-50.35400390625
-57.67822265625
-52.18505859375
-45.7763671875
-44.86083984375
-42.1142578125
-46.69189453125
-39.36767578125
-44.86083984375
-51.26953125
-44.86083984375
-54.01611328125
-53.1005859375
-43.9453125
-39.36767578125
-46.69189453125
-52.18505859375
-63.17138671875
-58.59375
-43.9453125
-42.1142578125
-55.84716796875
-58.59375
-56.7626953125
-55.84716796875
-54.931640625
-55.84716796875
-60.4248046875
-53.1005859375
-55.84716796875
-54.01611328125
-61.34033203125
-71.4111328125
-63.17138671875
-59.50927734375
-65.00244140625
-67.7490234375
-72.32666015625
-74.15771484375
-73.2421875
-66.83349609375
-46.69189453125
-32.958984375
-33.87451171875
-19.22607421875
-2.74658203125
0
-3.662109375
5.4931640625
5.4931640625
10.986328125
28.38134765625
41.19873046875
57.67822265625
65.91796875
67.7490234375
63.17138671875
67.7490234375
57.67822265625
52.18505859375
48.52294921875
45.7763671875
41.19873046875
41.19873046875
38.4521484375
21.97265625
1.8310546875
-18.310546875
-38.4521484375
-39.36767578125
-57.67822265625
-67.7490234375
-60.4248046875
-66.83349609375
-69.580078125
-72.32666015625
-83.31298828125
-89.7216796875
-100.7080078125
-106.201171875
-102.5390625
-105.28564453125
-102.5390625
-107.11669921875
-101.62353515625
-100.7080078125
-109.86328125
-108.0322265625
-114.44091796875
-112.60986328125
-110.77880859375
-108.94775390625
-108.0322265625
-105.28564453125
-103.45458984375
-108.0322265625
-108.0322265625
-112.60986328125
-114.44091796875
-112.60986328125
-121.76513671875
-132.75146484375
-151.06201171875
-164.794921875
-185.85205078125
-182.18994140625
-173.03466796875
-152.89306640625
-125.42724609375
-68.66455078125
32.958984375
151.9775390625
305.7861328125
475.15869140625
627.13623046875
758.056640625
870.66650390625
964.9658203125
1019.8974609375
991.51611328125
817.56591796875
577.69775390625
390.93017578125
208.740234375
75.98876953125
2.74658203125
-59.50927734375
-113.525390625
-147.39990234375
-162.04833984375
-158.38623046875
-155.6396484375
-149.23095703125
-132.75146484375
-116.27197265625
-103.45458984375
-98.876953125
-110.77880859375
-115.3564453125
-115.3564453125
-114.44091796875
-121.76513671875
-120.849609375
-116.27197265625
-119.93408203125
-122.6806640625
-122.6806640625
-129.08935546875
-124.51171875
-123.59619140625
-129.08935546875
-127.25830078125
-129.08935546875
-130.92041015625
-121.76513671875
-123.59619140625
-128.173828125
-131.8359375
-120.849609375
-119.93408203125
-126.3427734375
-119.0185546875
-123.59619140625
-126.3427734375
-129.08935546875
-118.10302734375
-119.93408203125
-125.42724609375
-125.42724609375
-122.6806640625
-118.10302734375
-122.6806640625
-133.6669921875
-128.173828125
-125.42724609375
-125.42724609375
-121.76513671875
-123.59619140625
-125.42724609375
-114.44091796875
-119.0185546875
-120.849609375
-130.0048828125
-128.173828125
-120.849609375
-119.93408203125
-118.10302734375
-124.51171875
-130.0048828125
-127.25830078125
-118.10302734375
-126.3427734375
-126.3427734375
-119.0185546875
-119.0185546875
-117.1875
-118.10302734375
-122.6806640625
-119.0185546875
-123.59619140625
-126.3427734375
-132.75146484375
-124.51171875
-121.76513671875
-113.525390625
-105.28564453125
-113.525390625
-119.0185546875
-118.10302734375
-113.525390625
-109.86328125
-115.3564453125
-113.525390625
-113.525390625
-112.60986328125
-107.11669921875
-98.876953125
-106.201171875
-108.94775390625
-106.201171875
-104.3701171875
-112.60986328125
-108.0322265625
-97.96142578125
-95.21484375
-95.21484375
-97.96142578125
-95.21484375
-94.29931640625
-93.3837890625
-102.5390625
-101.62353515625
-98.876953125
-88.80615234375
-83.31298828125
-86.0595703125
-88.80615234375
-87.890625
-87.890625
-86.0595703125
-74.15771484375
-74.15771484375
-73.2421875
-69.580078125
-63.17138671875
-63.17138671875
-62.255859375
-60.4248046875
-63.17138671875
-65.91796875
-49.4384765625
-49.4384765625
-49.4384765625
-54.01611328125
-45.7763671875
-44.86083984375
-42.1142578125
-46.69189453125
-43.02978515625
-47.607421875
-54.931640625
-62.255859375
-54.931640625
-59.50927734375
-60.4248046875
-63.17138671875
-61.34033203125
-65.91796875
-60.4248046875
-63.17138671875
-53.1005859375
-59.50927734375
-66.83349609375
-60.4248046875
-61.34033203125
-64.0869140625
-61.34033203125
-60.4248046875
-59.50927734375
-57.67822265625
-59.50927734375
-58.59375
-57.67822265625
-48.52294921875
-52.18505859375
-46.69189453125
-45.7763671875
-46.69189453125
-44.86083984375
-47.607421875
-40.283203125
-44.86083984375
-43.02978515625
-40.283203125
-40.283203125
-36.62109375
-33.87451171875
-41.19873046875
-35.70556640625
-33.87451171875
-32.958984375
-35.70556640625
-32.958984375
-30.21240234375
-29.296875
-30.21240234375
-34.7900390625
-32.04345703125
-29.296875
-32.04345703125
-31.1279296875
-30.21240234375
-36.62109375
-41.19873046875
-37.53662109375
-34.7900390625
-32.958984375
-37.53662109375
-40.283203125
-33.87451171875
-29.296875
-39.36767578125
-46.69189453125
-47.607421875
-39.36767578125
-38.4521484375
-42.1142578125
-51.26953125
-52.18505859375
-44.86083984375
-47.607421875
-43.9453125
-49.4384765625
-53.1005859375
-46.69189453125
-40.283203125
-43.02978515625
-52.18505859375
-50.35400390625
-54.01611328125
-54.931640625
-56.7626953125
-66.83349609375
-62.255859375
-63.17138671875
-54.01611328125
-59.50927734375
-69.580078125
-65.00244140625
-61.34033203125
-63.17138671875
-63.17138671875
-62.255859375
-37.53662109375
-25.634765625
-17.39501953125
-3.662109375
2.74658203125
10.07080078125
21.05712890625
20.1416015625
29.296875
35.70556640625
44.86083984375
63.17138671875
77.81982421875
79.65087890625
75.0732421875
68.66455078125
73.2421875
63.17138671875
55.84716796875
58.59375
53.1005859375
46.69189453125
35.70556640625
23.8037109375
16.4794921875
2.74658203125
-16.4794921875
-34.7900390625
-41.19873046875
-50.35400390625
-54.931640625
-48.52294921875
-56.7626953125
-64.0869140625
-76.904296875
-77.81982421875
-84.228515625
-91.552734375
-90.63720703125
-89.7216796875
-92.46826171875
-98.876953125
-96.13037109375
-100.7080078125
-100.7080078125
-102.5390625
-97.96142578125
-100.7080078125
-95.21484375
-100.7080078125
-107.11669921875
-101.62353515625
-96.13037109375
-98.876953125
-100.7080078125
-101.62353515625
-101.62353515625
-98.876953125
-101.62353515625
-119.0185546875
-136.41357421875
-154.72412109375
-166.6259765625
-177.6123046875
-173.9501953125
-156.55517578125
-128.173828125
-71.4111328125
22.88818359375
134.58251953125
282.89794921875
461.42578125
608.82568359375
746.15478515625
865.17333984375
970.458984375
1024.47509765625
1024.47509765625
883.48388671875
635.3759765625
437.6220703125
256.34765625
106.201171875
16.4794921875
-55.84716796875
-97.0458984375
-137.3291015625
-150.146484375
-154.72412109375
-154.72412109375
-140.9912109375
-115.3564453125
-102.5390625
-97.96142578125
-100.7080078125
-107.11669921875
-102.5390625
-102.5390625
-114.44091796875
-116.27197265625
-119.93408203125
-108.0322265625
-107.11669921875
-106.201171875
-121.76513671875
-116.27197265625
-115.3564453125
-119.0185546875
-111.6943359375
-117.1875
-111.6943359375
-115.3564453125
-118.10302734375
-117.1875
-119.0185546875
-111.6943359375
-107.11669921875
-110.77880859375
-113.525390625
-115.3564453125
-114.44091796875
-112.60986328125
-114.44091796875
-108.0322265625
-108.94775390625
-110.77880859375
-108.94775390625
-107.11669921875
-105.28564453125
-112.60986328125
-119.0185546875
-111.6943359375
-108.94775390625
-109.86328125
-116.27197265625
-120.849609375
-116.27197265625
-109.86328125
-110.77880859375
-115.3564453125
-117.1875
-108.94775390625
-108.94775390625
-106.201171875
-115.3564453125
-114.44091796875
-114.44091796875
-113.525390625
-112.60986328125
-123.59619140625
-119.93408203125
-105.28564453125
-109.86328125
-112.60986328125
-108.0322265625
-110.77880859375
-107.11669921875
-104.3701171875
-116.27197265625
-117.1875
-117.1875
-103.45458984375
-101.62353515625
-105.28564453125
-104.3701171875
-97.0458984375
-92.46826171875
-98.876953125
-103.45458984375
-100.7080078125
-99.79248046875
-104.3701171875
-97.96142578125
-96.13037109375
-102.5390625
-95.21484375
-98.876953125
-96.13037109375
-89.7216796875
-86.97509765625
-90.63720703125
-89.7216796875
-84.228515625
-77.81982421875
-84.228515625
-84.228515625
-84.228515625
-82.3974609375
-77.81982421875
-83.31298828125
-85.14404296875
-76.904296875
-71.4111328125
-68.66455078125
-65.91796875
-64.0869140625
-67.7490234375
-62.255859375
-64.0869140625
-70.49560546875
-65.00244140625
-60.4248046875
-54.01611328125
-49.4384765625
-54.01611328125
-56.7626953125
-48.52294921875
-41.19873046875
-43.9453125
-45.7763671875
-40.283203125
-39.36767578125
-37.53662109375
-29.296875
-33.87451171875
-34.7900390625
-39.36767578125
-43.02978515625
-42.1142578125
-43.02978515625
-44.86083984375
-37.53662109375
-41.19873046875
-40.283203125
-39.36767578125
-49.4384765625
-47.607421875
-42.1142578125
-44.86083984375
-54.931640625
-46.69189453125
-41.19873046875
-44.86083984375
-47.607421875
-49.4384765625
-46.69189453125
-48.52294921875
-51.26953125
-57.67822265625
-58.59375
-46.69189453125
-46.69189453125
-43.9453125
-38.4521484375
-43.02978515625
-42.1142578125
-39.36767578125
-38.4521484375
-34.7900390625
-33.87451171875
-36.62109375
-37.53662109375
-27.4658203125
-32.04345703125
-39.36767578125
-32.958984375
-32.958984375
-26.55029296875
-23.8037109375
-24.71923828125
-28.38134765625
-25.634765625
-18.310546875
-21.97265625
-26.55029296875
-28.38134765625
-32.04345703125
-24.71923828125
-21.05712890625
-26.55029296875
-32.04345703125
-31.1279296875
-28.38134765625
-27.4658203125
-32.958984375
-34.7900390625
-26.55029296875
-29.296875
-27.4658203125
-32.04345703125
-33.87451171875
-33.87451171875
-37.53662109375
-30.21240234375
-37.53662109375
-42.1142578125
-44.86083984375
-48.52294921875
-37.53662109375
-39.36767578125
-42.1142578125
-36.62109375
-40.283203125
-38.4521484375
-50.35400390625
-53.1005859375
-52.18505859375
-53.1005859375
-54.931640625
-59.50927734375
-50.35400390625
-54.01611328125
-49.4384765625
-48.52294921875
-58.59375
-61.34033203125
-54.931640625
-57.67822265625
-63.17138671875
-71.4111328125
-65.91796875
-65.00244140625
-62.255859375
-52.18505859375
-58.59375
-62.255859375
-62.255859375
-62.255859375
-73.2421875
-73.2421875
-73.2421875
-75.0732421875
-65.00244140625
-63.17138671875
-70.49560546875
-72.32666015625
-70.49560546875
-66.83349609375
-70.49560546875
-65.00244140625
-48.52294921875
-32.958984375
-24.71923828125
-5.4931640625
-3.662109375
1.8310546875
6.40869140625
13.73291015625
21.05712890625
23.8037109375
31.1279296875
58.59375
67.7490234375
68.66455078125
66.83349609375
70.49560546875
68.66455078125
55.84716796875
41.19873046875
53.1005859375
51.26953125
46.69189453125
46.69189453125
42.1142578125
21.97265625
1.8310546875
-11.90185546875
-31.1279296875
-42.1142578125
-45.7763671875
-52.18505859375
-51.26953125
-54.01611328125
-57.67822265625
-66.83349609375
-77.81982421875
-78.7353515625
-85.14404296875
-83.31298828125
-97.0458984375
-100.7080078125
-99.79248046875
-89.7216796875
-86.97509765625
-93.3837890625
-97.0458984375
-100.7080078125
-89.7216796875
-95.21484375
-99.79248046875
-101.62353515625
-95.21484375
-92.46826171875
-94.29931640625
-100.7080078125
-97.96142578125
-91.552734375
-87.890625
-101.62353515625
-113.525390625
-130.0048828125
-157.470703125
-166.6259765625
-167.54150390625
-163.87939453125
-143.73779296875
-109.86328125
-57.67822265625
33.87451171875
147.39990234375
301.20849609375
479.736328125
626.220703125
764.46533203125
882.568359375
977.783203125
1034.5458984375
1021.728515625
870.66650390625
622.55859375
421.142578125
241.69921875
92.46826171875
13.73291015625
-53.1005859375
-97.0458984375
-137.3291015625
-147.39990234375
-150.146484375
-148.3154296875
-140.07568359375
-121.76513671875
-103.45458984375
-91.552734375
-97.0458984375
-100.7080078125
-100.7080078125
-106.201171875
-106.201171875
-105.28564453125
-109.86328125
-117.1875
-110.77880859375
-106.201171875
-107.11669921875
-113.525390625
-110.77880859375
-103.45458984375
-105.28564453125
-115.3564453125
-119.93408203125
-116.27197265625
-107.11669921875
-112.60986328125
-101.62353515625
-106.201171875
-108.0322265625
-106.201171875
-109.86328125
-114.44091796875
-116.27197265625
-110.77880859375
-119.93408203125
-111.6943359375
-112.60986328125
-115.3564453125
-108.0322265625
-104.3701171875
-114.44091796875
-119.0185546875
-114.44091796875
-103.45458984375
-107.11669921875
-109.86328125
-106.201171875
-106.201171875
-104.3701171875
-104.3701171875
-101.62353515625
-113.525390625
-119.93408203125
-118.10302734375
-113.525390625
-104.3701171875
-108.94775390625
-108.94775390625
-108.94775390625
-110.77880859375
-106.201171875
-102.5390625
-107.11669921875
-109.86328125
-111.6943359375
-104.3701171875
-109.86328125
-110.77880859375
-109.86328125
-109.86328125
-109.86328125
-118.10302734375
-112.60986328125
-108.0322265625
-96.13037109375
-101.62353515625
-101.62353515625
-107.11669921875
-105.28564453125
-98.876953125
-98.876953125
-98.876953125
-101.62353515625
-100.7080078125
-97.96142578125
-99.79248046875
-101.62353515625
-101.62353515625
-99.79248046875
-93.3837890625
-94.29931640625
-85.14404296875
-96.13037109375
-88.80615234375
-84.228515625
-82.3974609375
-78.7353515625
-84.228515625
-87.890625
-83.31298828125
-73.2421875
-86.0595703125
-91.552734375
-81.48193359375
-78.7353515625
-80.56640625
-81.48193359375
-68.66455078125
-66.83349609375
-73.2421875
-66.83349609375
-64.0869140625
-64.0869140625
-57.67822265625
-51.26953125
-48.52294921875
-57.67822265625
-45.7763671875
-40.283203125
-43.9453125
-47.607421875
-36.62109375
-46.69189453125
-36.62109375
-35.70556640625
-41.19873046875
-42.1142578125
-42.1142578125
-34.7900390625
-40.283203125
-40.283203125
-35.70556640625
-45.7763671875
-49.4384765625
-42.1142578125
-40.283203125
-48.52294921875
-55.84716796875
-49.4384765625
-53.1005859375
-55.84716796875
-51.26953125
-52.18505859375
-57.67822265625
-57.67822265625
-52.18505859375
-59.50927734375
-54.01611328125
-54.931640625
-54.931640625
-59.50927734375
-62.255859375
-51.26953125
-47.607421875
-51.26953125
-45.7763671875
-44.86083984375
-54.931640625
-45.7763671875
-45.7763671875
-40.283203125
-48.52294921875
-44.86083984375
-54.01611328125
-38.4521484375
-34.7900390625
-39.36767578125
-46.69189453125
-37.53662109375
-36.62109375
-46.69189453125
-45.7763671875
-45.7763671875
-39.36767578125
-42.1142578125
-34.7900390625
-35.70556640625
-46.69189453125
-38.4521484375
-37.53662109375
-34.7900390625
-35.70556640625
-40.283203125
-40.283203125
-38.4521484375
-32.04345703125
-42.1142578125
-37.53662109375
-33.87451171875
-43.9453125
-43.02978515625
-32.958984375
-44.86083984375
-39.36767578125
-46.69189453125
-49.4384765625
-49.4384765625
-48.52294921875
-46.69189453125
-52.18505859375
-57.67822265625
-62.255859375
-53.1005859375
-46.69189453125
-49.4384765625
-46.69189453125
-54.01611328125
-68.66455078125
-59.50927734375
-53.1005859375
-65.91796875
-70.49560546875
-71.4111328125
-61.34033203125
-55.84716796875
-73.2421875
-67.7490234375
-65.91796875
-67.7490234375
-69.580078125
-77.81982421875
-71.4111328125
-77.81982421875
-83.31298828125
-79.65087890625
-76.904296875
-73.2421875
-74.15771484375
-70.49560546875
-75.98876953125
-75.0732421875
-75.98876953125
-86.0595703125
-86.0595703125
-84.228515625
-77.81982421875
-81.48193359375
-89.7216796875
-85.14404296875
-75.98876953125
-58.59375
-54.01611328125
-43.02978515625
-21.97265625
-12.8173828125
-8.23974609375
-7.32421875
-10.986328125
-1.8310546875
20.1416015625
18.310546875
18.310546875
36.62109375
43.9453125
53.1005859375
64.0869140625
58.59375
49.4384765625
45.7763671875
35.70556640625
36.62109375
25.634765625
28.38134765625
21.05712890625
5.4931640625
-9.1552734375
-20.1416015625
-38.4521484375
-54.931640625
-63.17138671875
-69.580078125
-76.904296875
-84.228515625
-70.49560546875
-86.0595703125
-88.80615234375
-90.63720703125
-103.45458984375
-113.525390625
-106.201171875
-101.62353515625
-105.28564453125
-114.44091796875
-111.6943359375
-112.60986328125
-109.86328125
-108.94775390625
-112.60986328125
-111.6943359375
-108.94775390625
-121.76513671875
-123.59619140625
-123.59619140625
-109.86328125
-115.3564453125
-115.3564453125
-114.44091796875
-117.1875
-108.0322265625
-120.849609375
-143.73779296875
-164.794921875
-188.5986328125
-182.18994140625
-177.6123046875
-158.38623046875
-135.498046875
-91.552734375
-10.07080078125
101.62353515625
240.78369140625
406.494140625
564.88037109375
708.6181640625
835.87646484375
939.3310546875
999.755859375
1009.82666015625
882.568359375
636.29150390625
442.19970703125
258.1787109375
95.21484375
8.23974609375
-46.69189453125
-92.46826171875
-149.23095703125
-176.69677734375
-178.52783203125
-174.86572265625
-168.45703125
-158.38623046875
-142.822265625
-137.3291015625
-132.75146484375
-116.27197265625
-105.28564453125
-132.75146484375
-125.42724609375
-125.42724609375
-130.0048828125
-140.07568359375
-141.90673828125
-136.41357421875
-137.3291015625
-137.3291015625
-132.75146484375
-135.498046875
-135.498046875
-130.0048828125
-127.25830078125
-141.90673828125
-146.484375
-130.92041015625
-140.07568359375
-134.58251953125
-132.75146484375
-130.92041015625
-133.6669921875
-137.3291015625
-130.92041015625
-142.822265625
-138.24462890625
-139.16015625
-126.3427734375
-124.51171875
-127.25830078125
-129.08935546875
-137.3291015625
-144.6533203125
-149.23095703125
-132.75146484375
-137.3291015625
-133.6669921875
-136.41357421875
-133.6669921875
-138.24462890625
-136.41357421875
-136.41357421875
-130.92041015625
-134.58251953125
-133.6669921875
-140.07568359375
-140.07568359375
-136.41357421875
-129.08935546875
-140.07568359375
-149.23095703125
-137.3291015625
-130.0048828125
-127.25830078125
-142.822265625
-143.73779296875
-136.41357421875
-140.07568359375
-130.92041015625
-130.92041015625
-132.75146484375
-133.6669921875
-130.0048828125
-129.08935546875
-130.0048828125
-128.173828125
-138.24462890625
-119.93408203125
-118.10302734375
-131.8359375
-143.73779296875
-138.24462890625
-138.24462890625
-140.07568359375
-134.58251953125
-138.24462890625
-133.6669921875
-126.3427734375
-126.3427734375
-119.93408203125
-132.75146484375
-126.3427734375
-121.76513671875
-120.849609375
-123.59619140625
-131.8359375
-132.75146484375
-124.51171875
-118.10302734375
-113.525390625
-127.25830078125
-119.93408203125
-116.27197265625
-105.28564453125
-125.42724609375
-129.08935546875
-121.76513671875
-119.93408203125
-114.44091796875
-108.0322265625
-109.86328125
-110.77880859375
-110.77880859375
-95.21484375
-108.0322265625
-98.876953125
-97.0458984375
-93.3837890625
-105.28564453125
-97.0458984375
-86.0595703125
-87.890625
-86.97509765625
-87.890625
-81.48193359375
-76.904296875
-86.0595703125
-77.81982421875
-69.580078125
-76.904296875
-82.3974609375
-86.0595703125
-90.63720703125
-78.7353515625
-83.31298828125
-86.97509765625
-88.80615234375
-86.0595703125
-79.65087890625
-89.7216796875
-90.63720703125
-94.29931640625
-93.3837890625
-94.29931640625
-99.79248046875
-105.28564453125
-98.876953125
-84.228515625
-84.228515625
-85.14404296875
-90.63720703125
-87.890625
-92.46826171875
-88.80615234375
-97.0458984375
-93.3837890625
-92.46826171875
-96.13037109375
-86.0595703125
-78.7353515625
-79.65087890625
-79.65087890625
-74.15771484375
-80.56640625
-80.56640625
-71.4111328125
-73.2421875
-74.15771484375
-60.4248046875
-65.00244140625
-68.66455078125
-72.32666015625
-71.4111328125
-69.580078125
-70.49560546875
-65.00244140625
-68.66455078125
-54.01611328125
-54.931640625
-59.50927734375
-64.0869140625
-58.59375
-62.255859375
-61.34033203125
-62.255859375
-65.91796875
-72.32666015625
-69.580078125
-54.01611328125
-62.255859375
-66.83349609375
-65.00244140625
-64.0869140625
-60.4248046875
-63.17138671875
-80.56640625
-68.66455078125
-72.32666015625
-66.83349609375
-71.4111328125
-72.32666015625
-82.3974609375
-83.31298828125
-82.3974609375
-86.97509765625
-81.48193359375
-86.97509765625
-89.7216796875
-84.228515625
-84.228515625
-79.65087890625
-76.904296875
-82.3974609375
-91.552734375
-96.13037109375
-96.13037109375
-97.96142578125
-98.876953125
-95.21484375
-95.21484375
-102.5390625
-106.201171875
-106.201171875
-104.3701171875
-109.86328125
-110.77880859375
-109.86328125
-102.5390625
-104.3701171875
-107.11669921875
-110.77880859375
-103.45458984375
-95.21484375
-81.48193359375
-69.580078125
-59.50927734375
-54.01611328125
-45.7763671875
-40.283203125
-32.958984375
-37.53662109375
-21.05712890625
-7.32421875
7.32421875
19.22607421875
9.1552734375
0.91552734375
23.8037109375
25.634765625
10.986328125
7.32421875
-3.662109375
5.4931640625
7.32421875
-10.986328125
-25.634765625
-31.1279296875
-41.19873046875
-61.34033203125
-65.00244140625
-75.0732421875
-84.228515625
-92.46826171875
-101.62353515625
-104.3701171875
-108.94775390625
-97.96142578125
-107.11669921875
-130.0048828125
-130.92041015625
-136.41357421875
-130.92041015625
-132.75146484375
-124.51171875
-135.498046875
-140.07568359375
-137.3291015625
-134.58251953125
-127.25830078125
-135.498046875
-144.6533203125
-134.58251953125
-135.498046875
-149.23095703125
-136.41357421875
-133.6669921875
-140.9912109375
-130.92041015625
-133.6669921875
-137.3291015625
-144.6533203125
-142.822265625
-161.1328125
-171.20361328125
-193.17626953125
-205.078125
-196.83837890625
-186.767578125
-165.71044921875
-124.51171875
-75.98876953125
21.97265625
149.23095703125
310.36376953125
473.32763671875
602.4169921875
736.083984375
856.93359375
953.9794921875
995.17822265625
916.44287109375
723.2666015625
504.45556640625
335.99853515625
156.55517578125
29.296875
-34.7900390625
-78.7353515625
-138.24462890625
-177.6123046875
-192.2607421875
-198.66943359375
-205.99365234375
-196.83837890625
-184.9365234375
-163.87939453125
-148.3154296875
-151.06201171875
-143.73779296875
-147.39990234375
-153.80859375
-146.484375
-146.484375
-148.3154296875
-151.9775390625
-158.38623046875
-148.3154296875
-149.23095703125
-151.9775390625
-147.39990234375
-151.9775390625
-161.1328125
-151.06201171875
-146.484375
-154.72412109375
-158.38623046875
-154.72412109375
-158.38623046875
-159.3017578125
-136.41357421875
-137.3291015625
-143.73779296875
-142.822265625
-140.9912109375
-150.146484375
-154.72412109375
-155.6396484375
-151.06201171875
-144.6533203125
-144.6533203125
-147.39990234375
-145.56884765625
-142.822265625
-149.23095703125
-145.56884765625
-146.484375
-145.56884765625
-146.484375
-142.822265625
-142.822265625
-144.6533203125
-144.6533203125
-160.21728515625
-147.39990234375
-146.484375
-150.146484375
-151.06201171875
-145.56884765625
-141.90673828125
-142.822265625
-144.6533203125
-150.146484375
-138.24462890625
-138.24462890625
-143.73779296875
-152.89306640625
-148.3154296875
-148.3154296875
-147.39990234375
-139.16015625
-143.73779296875
-147.39990234375
-147.39990234375
-143.73779296875
-148.3154296875
-139.16015625
-143.73779296875
-139.16015625
-134.58251953125
-131.8359375
-137.3291015625
-134.58251953125
-136.41357421875
-132.75146484375
-138.24462890625
-136.41357421875
-140.9912109375
-136.41357421875
-133.6669921875
-127.25830078125
-128.173828125
-130.0048828125
-124.51171875
-131.8359375
-130.0048828125
-124.51171875
-128.173828125
-122.6806640625
-117.1875
-128.173828125
-130.0048828125
-121.76513671875
-122.6806640625
-123.59619140625
-130.92041015625
-129.08935546875
-122.6806640625
-116.27197265625
-110.77880859375
-110.77880859375
-108.0322265625
-112.60986328125
-105.28564453125
-99.79248046875
-106.201171875
-100.7080078125
-89.7216796875
-79.65087890625
-86.0595703125
-81.48193359375
-88.80615234375
-92.46826171875
-80.56640625
-80.56640625
-79.65087890625
-88.80615234375
-85.14404296875
-80.56640625
-75.98876953125
-74.15771484375
-82.3974609375
-80.56640625
-82.3974609375
-93.3837890625
-93.3837890625
-93.3837890625
-97.96142578125
-92.46826171875
-86.0595703125
-85.14404296875
-83.31298828125
-86.0595703125
-90.63720703125
-96.13037109375
-88.80615234375
-91.552734375
-95.21484375
-95.21484375
-81.48193359375
-91.552734375
-97.0458984375
-99.79248046875
-89.7216796875
-86.0595703125
-87.890625
-85.14404296875
-91.552734375
-88.80615234375
-77.81982421875
-75.0732421875
-74.15771484375
-82.3974609375
-79.65087890625
-72.32666015625
-63.17138671875
-67.7490234375
-75.0732421875
-68.66455078125
-59.50927734375
-65.91796875
-72.32666015625
-65.91796875
-62.255859375
-61.34033203125
-65.91796875
-59.50927734375
-59.50927734375
-62.255859375
-52.18505859375
-47.607421875
-50.35400390625
-54.01611328125
-60.4248046875
-48.52294921875
-56.7626953125
-64.0869140625
-66.83349609375
-66.83349609375
-59.50927734375
-52.18505859375
-65.00244140625
-64.0869140625
-48.52294921875
-48.52294921875
-54.01611328125
-58.59375
-66.83349609375
-70.49560546875
-56.7626953125
-58.59375
-66.83349609375
-71.4111328125
-61.34033203125
-60.4248046875
-69.580078125
-77.81982421875
-75.0732421875
-72.32666015625
-74.15771484375
-71.4111328125
-76.904296875
-89.7216796875
-78.7353515625
-78.7353515625
-80.56640625
-84.228515625
-89.7216796875
-79.65087890625
-78.7353515625
-87.890625
-81.48193359375
-88.80615234375
-89.7216796875
-88.80615234375
-90.63720703125
-100.7080078125
-100.7080078125
-97.0458984375
-92.46826171875
-88.80615234375
-96.13037109375
-104.3701171875
-89.7216796875
-97.96142578125
-93.3837890625
-99.79248046875
-84.228515625
-54.01611328125
-43.02978515625
-38.4521484375
-30.21240234375
-23.8037109375
-16.4794921875
-13.73291015625
-11.90185546875
-4.57763671875
9.1552734375
21.05712890625
39.36767578125
52.18505859375
47.607421875
41.19873046875
42.1142578125
34.7900390625
22.88818359375
9.1552734375
21.05712890625
21.05712890625
21.05712890625
10.986328125
2.74658203125
-12.8173828125
-25.634765625
-44.86083984375
-64.0869140625
-82.3974609375
-89.7216796875
-97.96142578125
-92.46826171875
-94.29931640625
-98.876953125
-108.0322265625
-107.11669921875
-117.1875
-118.10302734375
-125.42724609375
-121.76513671875
-122.6806640625
-124.51171875
-125.42724609375
-127.25830078125
-125.42724609375
-127.25830078125
-130.92041015625
-130.92041015625
-135.498046875
-142.822265625
-127.25830078125
-118.10302734375
-121.76513671875
-122.6806640625
-130.92041015625
-127.25830078125
-117.1875
-123.59619140625
-135.498046875
-160.21728515625
-180.35888671875
-191.34521484375
-192.2607421875
-189.51416015625
-170.2880859375
-140.07568359375
-93.3837890625
0
109.86328125
246.27685546875
414.73388671875
563.96484375
711.36474609375
832.21435546875
930.17578125
982.36083984375
986.9384765625
858.7646484375
616.14990234375
409.24072265625
233.45947265625
82.3974609375
-4.57763671875
-69.580078125
-117.1875
-164.794921875
-176.69677734375
-179.443359375
-185.85205078125
-179.443359375
-151.06201171875
-132.75146484375
-122.6806640625
-121.76513671875
-130.92041015625
-139.16015625
-126.3427734375
-126.3427734375
-137.3291015625
-140.9912109375
-138.24462890625
-130.0048828125
-130.92041015625
-138.24462890625
-137.3291015625
-140.07568359375
-137.3291015625
-139.16015625
-140.9912109375
-141.90673828125
-137.3291015625
-134.58251953125
-135.498046875
-135.498046875
-134.58251953125
-139.16015625
-140.9912109375
-137.3291015625
-133.6669921875
-136.41357421875
-139.16015625
-133.6669921875
-130.92041015625
-130.92041015625
-140.07568359375
-138.24462890625
-138.24462890625
-121.76513671875
-130.92041015625
-135.498046875
-133.6669921875
-127.25830078125
-129.08935546875
-134.58251953125
-131.8359375
-129.08935546875
-131.8359375
-128.173828125
-132.75146484375
-134.58251953125
-135.498046875
-136.41357421875
-136.41357421875
-128.173828125
-131.8359375
-130.92041015625
-136.41357421875
-135.498046875
-134.58251953125
-138.24462890625
-130.92041015625
-129.08935546875
-130.0048828125
-124.51171875
-127.25830078125
-126.3427734375
-130.0048828125
-126.3427734375
-129.08935546875
-128.173828125
-123.59619140625
-123.59619140625
-123.59619140625
-114.44091796875
-112.60986328125
-116.27197265625
-120.849609375
-118.10302734375
-115.3564453125
-114.44091796875
-112.60986328125
-115.3564453125
-116.27197265625
-112.60986328125
-120.849609375
-121.76513671875
-104.3701171875
-102.5390625
-108.94775390625
-108.94775390625
-99.79248046875
-98.876953125
-97.96142578125
-92.46826171875
-95.21484375
-98.876953125
-98.876953125
-91.552734375
-91.552734375
-92.46826171875
-95.21484375
-87.890625
-83.31298828125
-85.14404296875
-92.46826171875
-98.876953125
-87.890625
-82.3974609375
-86.97509765625
-80.56640625
-78.7353515625
-73.2421875
-72.32666015625
-68.66455078125
-70.49560546875
-64.0869140625
-62.255859375
-61.34033203125
-62.255859375
-64.0869140625
-58.59375
-52.18505859375
-47.607421875
-51.26953125
-60.4248046875
-65.91796875
-71.4111328125
-64.0869140625
-63.17138671875
-67.7490234375
-69.580078125
-69.580078125
-70.49560546875
-61.34033203125
-75.98876953125
-74.15771484375
-66.83349609375
-67.7490234375
-79.65087890625
-75.98876953125
-65.00244140625
-61.34033203125
-66.83349609375
-63.17138671875
-66.83349609375
-69.580078125
-74.15771484375
-73.2421875
-68.66455078125
-66.83349609375
-66.83349609375
-61.34033203125
-54.931640625
-54.931640625
-57.67822265625
-55.84716796875
-60.4248046875
-63.17138671875
-60.4248046875
-59.50927734375
-62.255859375
-57.67822265625
-58.59375
-57.67822265625
-56.7626953125
-56.7626953125
-55.84716796875
-45.7763671875
-54.931640625
-56.7626953125
-47.607421875
-40.283203125
-45.7763671875
-48.52294921875
-47.607421875
-43.9453125
-46.69189453125
-46.69189453125
-43.9453125
-39.36767578125
-41.19873046875
-41.19873046875
-34.7900390625
-43.9453125
-52.18505859375
-43.02978515625
-44.86083984375
-46.69189453125
-54.931640625
-55.84716796875
-54.01611328125
-50.35400390625
-49.4384765625
-49.4384765625
-57.67822265625
-54.01611328125
-51.26953125
-49.4384765625
-60.4248046875
-63.17138671875
-57.67822265625
-55.84716796875
-50.35400390625
-54.931640625
-68.66455078125
-65.91796875
-62.255859375
-63.17138671875
-70.49560546875
-65.00244140625
-68.66455078125
-67.7490234375
-62.255859375
-67.7490234375
-78.7353515625
-76.904296875
-75.98876953125
-69.580078125
-76.904296875
-85.14404296875
-84.228515625
-76.904296875
-79.65087890625
-75.98876953125
-81.48193359375
-81.48193359375
-78.7353515625
-85.14404296875
-78.7353515625
-78.7353515625
-75.0732421875
-66.83349609375
-67.7490234375
-45.7763671875
-34.7900390625
-20.1416015625
-13.73291015625
-1.8310546875
-0.91552734375
-12.8173828125
4.57763671875
17.39501953125
29.296875
42.1142578125
49.4384765625
54.01611328125
48.52294921875
56.7626953125
50.35400390625
45.7763671875
41.19873046875
42.1142578125
46.69189453125
32.958984375
27.4658203125
21.05712890625
4.57763671875
-10.986328125
-27.4658203125
-43.02978515625
-51.26953125
-63.17138671875
-58.59375
-65.91796875
-78.7353515625
-77.81982421875
-88.80615234375
-90.63720703125
-98.876953125
-111.6943359375
-114.44091796875
-112.60986328125
-112.60986328125
-115.3564453125
-113.525390625
-109.86328125
-108.0322265625
-113.525390625
-116.27197265625
-117.1875
-119.93408203125
-110.77880859375
-114.44091796875
-112.60986328125
-108.94775390625
-112.60986328125
-108.0322265625
-112.60986328125
-112.60986328125
-114.44091796875
-112.60986328125
-135.498046875
-156.55517578125
-173.9501953125
-192.2607421875
-195.9228515625
-184.02099609375
-162.04833984375
-117.1875
-54.01611328125
49.4384765625
174.86572265625
336.9140625
507.2021484375
649.10888671875
777.28271484375
897.216796875
977.783203125
1027.2216796875
959.47265625
756.2255859375
531.92138671875
349.7314453125
170.2880859375
42.1142578125
-37.53662109375
-86.97509765625
-131.8359375
-165.71044921875
-179.443359375
-174.86572265625
-164.794921875
-142.822265625
-129.08935546875
-120.849609375
-119.0185546875
-111.6943359375
-109.86328125
-125.42724609375
-131.8359375
-123.59619140625
-123.59619140625
-119.93408203125
-123.59619140625
-124.51171875
-127.25830078125
-123.59619140625
-130.0048828125
-135.498046875
-129.08935546875
-126.3427734375
-124.51171875
-118.10302734375
-120.849609375
-130.0048828125
-139.16015625
-129.08935546875
-120.849609375
-124.51171875
-130.0048828125
-133.6669921875
-128.173828125
-127.25830078125
-125.42724609375
-128.173828125
-131.8359375
-128.173828125
-123.59619140625
-125.42724609375
-123.59619140625
-120.849609375
-117.1875
-117.1875
-121.76513671875
-128.173828125
-130.0048828125
-129.08935546875
-123.59619140625
-126.3427734375
-128.173828125
-129.08935546875
-132.75146484375
-131.8359375
-127.25830078125
-128.173828125
-130.92041015625
-131.8359375
-123.59619140625
-121.76513671875
-129.08935546875
-137.3291015625
-123.59619140625
-121.76513671875
-116.27197265625
-128.173828125
-130.0048828125
-120.849609375
-118.10302734375
-127.25830078125
-126.3427734375
-126.3427734375
-118.10302734375
-110.77880859375
-110.77880859375
-117.1875
-113.525390625
-116.27197265625
-108.94775390625
-107.11669921875
-114.44091796875
-113.525390625
-109.86328125
-105.28564453125
-108.94775390625
-101.62353515625
-108.0322265625
-115.3564453125
-108.94775390625
-108.0322265625
-111.6943359375
-100.7080078125
-96.13037109375
-93.3837890625
-95.21484375
-91.552734375
-99.79248046875
-99.79248046875
-93.3837890625
-89.7216796875
-93.3837890625
-87.890625
-88.80615234375
-84.228515625
-79.65087890625
-97.0458984375
-83.31298828125
-77.81982421875
-84.228515625
-77.81982421875
-83.31298828125
-77.81982421875
-70.49560546875
-72.32666015625
-64.0869140625
-66.83349609375
-64.0869140625
-69.580078125
-59.50927734375
-64.0869140625
-72.32666015625
-72.32666015625
-58.59375
-48.52294921875
-49.4384765625
-58.59375
-53.1005859375
-51.26953125
-57.67822265625
-53.1005859375
-59.50927734375
-51.26953125
-53.1005859375
-62.255859375
-59.50927734375
-67.7490234375
-57.67822265625
-67.7490234375
-66.83349609375
-60.4248046875
-73.2421875
-75.0732421875
-75.0732421875
-72.32666015625
-68.66455078125
-74.15771484375
-80.56640625
-66.83349609375
-63.17138671875
-71.4111328125
-66.83349609375
-60.4248046875
-64.0869140625
-57.67822265625
-58.59375
-68.66455078125
-68.66455078125
-66.83349609375
-59.50927734375
-59.50927734375
-64.0869140625
-58.59375
-54.931640625
-48.52294921875
-50.35400390625
-62.255859375
-51.26953125
-55.84716796875
-48.52294921875
-46.69189453125
-58.59375
-53.1005859375
-46.69189453125
-40.283203125
-41.19873046875
-43.9453125
-46.69189453125
-36.62109375
-46.69189453125
-48.52294921875
-47.607421875
-44.86083984375
-52.18505859375
-39.36767578125
-43.9453125
-49.4384765625
-47.607421875
-54.01611328125
-47.607421875
-55.84716796875
-56.7626953125
-52.18505859375
-54.01611328125
-53.1005859375
-66.83349609375
-60.4248046875
-56.7626953125
-54.931640625
-59.50927734375
-64.0869140625
-70.49560546875
-67.7490234375
-63.17138671875
-61.34033203125
-60.4248046875
-65.91796875
-72.32666015625
-81.48193359375
-71.4111328125
-68.66455078125
-78.7353515625
-85.14404296875
-75.0732421875
-69.580078125
-72.32666015625
-80.56640625
-87.890625
-92.46826171875
-80.56640625
-85.14404296875
-92.46826171875
-93.3837890625
-80.56640625
-73.2421875
-85.14404296875
-99.79248046875
-91.552734375
-97.96142578125
-90.63720703125
-90.63720703125
-97.96142578125
-85.14404296875
-95.21484375
-89.7216796875
-87.890625
-100.7080078125
-87.890625
-74.15771484375
-48.52294921875
-38.4521484375
-38.4521484375
-31.1279296875
-17.39501953125
-16.4794921875
-12.8173828125
-14.6484375
-12.8173828125
10.07080078125
23.8037109375
32.958984375
41.19873046875
34.7900390625
36.62109375
28.38134765625
37.53662109375
37.53662109375
21.05712890625
18.310546875
16.4794921875
-3.662109375
-2.74658203125
-22.88818359375
-19.22607421875
-28.38134765625
-56.7626953125
-68.66455078125
-70.49560546875
-86.0595703125
-91.552734375
-87.890625
-97.96142578125
-94.29931640625
-106.201171875
-116.27197265625
-126.3427734375
-129.08935546875
-124.51171875
-127.25830078125
-130.92041015625
-125.42724609375
-133.6669921875
-127.25830078125
-126.3427734375
-120.849609375
-127.25830078125
-130.0048828125
-129.08935546875
-128.173828125
-132.75146484375
-133.6669921875
-132.75146484375
-134.58251953125
-134.58251953125
-132.75146484375
-127.25830078125
-134.58251953125
-147.39990234375
-159.3017578125
-164.794921875
-189.51416015625
-184.9365234375
-193.17626953125
-162.9638671875
-124.51171875
-45.7763671875
57.67822265625
183.10546875
347.900390625
497.13134765625
643.61572265625
778.1982421875
889.892578125
961.3037109375
1002.50244140625
930.17578125
693.9697265625
470.5810546875
296.630859375
133.6669921875
18.310546875
-48.52294921875
-107.11669921875
-154.72412109375
-185.85205078125
-184.9365234375
-190.4296875
-186.767578125
-176.69677734375
-155.6396484375
-140.9912109375
-137.3291015625
-145.56884765625
-148.3154296875
-143.73779296875
-134.58251953125
-148.3154296875
-153.80859375
-146.484375
-145.56884765625
-152.89306640625
-158.38623046875
-154.72412109375
-151.9775390625
-159.3017578125
-155.6396484375
-158.38623046875
-151.9775390625
-144.6533203125
-141.90673828125
-151.06201171875
-153.80859375
-166.6259765625
-154.72412109375
-156.55517578125
-147.39990234375
-151.06201171875
-162.04833984375
-158.38623046875
-148.3154296875
-145.56884765625
-151.9775390625
-172.119140625
-156.55517578125
-154.72412109375
-151.06201171875
-159.3017578125
-160.21728515625
-151.9775390625
-151.06201171875
-152.89306640625
-158.38623046875
-160.21728515625
-154.72412109375
-151.9775390625
-148.3154296875
-153.80859375
-161.1328125
-147.39990234375
-150.146484375
-154.72412109375
-160.21728515625
-155.6396484375
-145.56884765625
-154.72412109375
-138.24462890625
-163.87939453125
-162.9638671875
-160.21728515625
-155.6396484375
-155.6396484375
-156.55517578125
-154.72412109375
-151.06201171875
-147.39990234375
-157.470703125
-153.80859375
-153.80859375
-159.3017578125
-151.06201171875
-149.23095703125
-157.470703125
-157.470703125
-150.146484375
-147.39990234375
-153.80859375
-164.794921875
-162.04833984375
-154.72412109375
-143.73779296875
-150.146484375
-150.146484375
-144.6533203125
-135.498046875
-135.498046875
-138.24462890625
-136.41357421875
-141.90673828125
-140.9912109375
-135.498046875
-135.498046875
-133.6669921875
-134.58251953125
-133.6669921875
-138.24462890625
-132.75146484375
-135.498046875
-142.822265625
-133.6669921875
-123.59619140625
-129.08935546875
-132.75146484375
-131.8359375
-124.51171875
-121.76513671875
-115.3564453125
-122.6806640625
-120.849609375
-118.10302734375
-111.6943359375
-106.201171875
-105.28564453125
-110.77880859375
-111.6943359375
-91.552734375
-84.228515625
-100.7080078125
-92.46826171875
-94.29931640625
-92.46826171875
-96.13037109375
-103.45458984375
-95.21484375
-96.13037109375
-98.876953125
-93.3837890625
-97.96142578125
-102.5390625
-101.62353515625
-99.79248046875
-99.79248046875
-113.525390625
-120.849609375
-105.28564453125
-94.29931640625
-106.201171875
-109.86328125
-113.525390625
-114.44091796875
-121.76513671875
-121.76513671875
-126.3427734375
-128.173828125
-121.76513671875
-119.93408203125
-110.77880859375
-113.525390625
-113.525390625
-113.525390625
-109.86328125
-114.44091796875
-114.44091796875
-120.849609375
-118.10302734375
-109.86328125
-109.86328125
-108.0322265625
-110.77880859375
-111.6943359375
-110.77880859375
-102.5390625
-108.0322265625
-108.0322265625
-114.44091796875
-98.876953125
-101.62353515625
-108.94775390625
-108.0322265625
-102.5390625
-96.13037109375
-100.7080078125
-94.29931640625
-97.0458984375
-91.552734375
-95.21484375
-97.96142578125
-92.46826171875
-96.13037109375
-97.0458984375
-94.29931640625
-96.13037109375
-92.46826171875
-97.0458984375
-94.29931640625
-92.46826171875
-87.890625
-99.79248046875
-102.5390625
-107.11669921875
-96.13037109375
-94.29931640625
-104.3701171875
-102.5390625
-108.94775390625
-111.6943359375
-99.79248046875
-106.201171875
-108.0322265625
-111.6943359375
-108.94775390625
-118.10302734375
-116.27197265625
-122.6806640625
-112.60986328125
-118.10302734375
-116.27197265625
-114.44091796875
-119.0185546875
-120.849609375
-124.51171875
-125.42724609375
-126.3427734375
-122.6806640625
-105.28564453125
-85.14404296875
-75.0732421875
-66.83349609375
-55.84716796875
-57.67822265625
-47.607421875
-44.86083984375
-40.283203125
-45.7763671875
-30.21240234375
-14.6484375
2.74658203125
6.40869140625
6.40869140625
7.32421875
20.1416015625
10.986328125
-2.74658203125
-8.23974609375
-4.57763671875
-14.6484375
-21.05712890625
-31.1279296875
-32.958984375
-50.35400390625
-73.2421875
-86.0595703125
-102.5390625
-116.27197265625
-111.6943359375
-115.3564453125
-119.93408203125
-128.173828125
-136.41357421875
-140.9912109375
-152.89306640625
-145.56884765625
-146.484375
-155.6396484375
-157.470703125
-147.39990234375
-150.146484375
-149.23095703125
-162.04833984375
-164.794921875
-150.146484375
-141.90673828125
-159.3017578125
-171.20361328125
-158.38623046875
-164.794921875
-160.21728515625
-153.80859375
-161.1328125
-156.55517578125
-146.484375
-140.9912109375
-149.23095703125
-173.03466796875
-190.4296875
-200.50048828125
-220.64208984375
-230.712890625
-232.5439453125
-213.31787109375
-181.2744140625
-141.90673828125
-71.4111328125
31.1279296875
162.9638671875
325.927734375
489.80712890625
629.8828125
747.0703125
844.1162109375
926.513671875
945.73974609375
852.35595703125
626.220703125
422.05810546875
258.1787109375
89.7216796875
-10.986328125
-75.0732421875
-125.42724609375
-173.03466796875
-200.50048828125
-213.31787109375
-227.05078125
-222.47314453125
-208.740234375
-185.85205078125
-175.78125
-165.71044921875
-165.71044921875
-161.1328125
-160.21728515625
-173.9501953125
-182.18994140625
-164.794921875
-170.2880859375
-184.02099609375
-175.78125
-180.35888671875
-183.10546875
-173.9501953125
-169.37255859375
-180.35888671875
-183.10546875
-178.52783203125
-169.37255859375
-170.2880859375
-170.2880859375
-165.71044921875
-165.71044921875
-164.794921875
-167.54150390625
-173.03466796875
-171.20361328125
-178.52783203125
-175.78125
-169.37255859375
-167.54150390625
-178.52783203125
-175.78125
-169.37255859375
-169.37255859375
-173.03466796875
-188.5986328125
-178.52783203125
-174.86572265625
-169.37255859375
-165.71044921875
-174.86572265625
-175.78125
-176.69677734375
-177.6123046875
-179.443359375
-175.78125
-171.20361328125
-176.69677734375
-174.86572265625
-179.443359375
-167.54150390625
-169.37255859375
-167.54150390625
-165.71044921875
-168.45703125
-161.1328125
-173.03466796875
-169.37255859375
-162.04833984375
-171.20361328125
-181.2744140625
-169.37255859375
-165.71044921875
-158.38623046875
-170.2880859375
-173.9501953125
-166.6259765625
-160.21728515625
-160.21728515625
-164.794921875
-168.45703125
-168.45703125
-162.9638671875
-152.89306640625
-172.119140625
-166.6259765625
-168.45703125
-162.9638671875
-152.89306640625
-154.72412109375
-149.23095703125
-147.39990234375
-156.55517578125
-155.6396484375
-154.72412109375
-162.04833984375
-167.54150390625
-151.06201171875
-153.80859375
-153.80859375
-154.72412109375
-154.72412109375
-149.23095703125
-148.3154296875
-158.38623046875
-153.80859375
-145.56884765625
-144.6533203125
-148.3154296875
-139.16015625
-140.9912109375
-142.822265625
-141.90673828125
-142.822265625
-136.41357421875
-136.41357421875
-136.41357421875
-130.0048828125
-115.3564453125
-108.0322265625
-116.27197265625
-119.93408203125
-114.44091796875
-108.0322265625
-110.77880859375
-117.1875
-107.11669921875
-102.5390625
-108.94775390625
-106.201171875
-110.77880859375
-108.94775390625
-106.201171875
-103.45458984375
-106.201171875
-109.86328125
-112.60986328125
-111.6943359375
-116.27197265625
-111.6943359375
-108.94775390625
-112.60986328125
-108.94775390625
-122.6806640625
-117.1875
-119.0185546875
-119.93408203125
-117.1875
-119.93408203125
-112.60986328125
-114.44091796875
-116.27197265625
-113.525390625
-119.0185546875
-116.27197265625
-116.27197265625
-116.27197265625
-112.60986328125
-108.0322265625
-111.6943359375
-110.77880859375
-109.86328125
-98.876953125
-98.876953125
-104.3701171875
-106.201171875
-95.21484375
-90.63720703125
-86.97509765625
-94.29931640625
-93.3837890625
-87.890625
-85.14404296875
-83.31298828125
-83.31298828125
-94.29931640625
-101.62353515625
-91.552734375
-85.14404296875
-84.228515625
-88.80615234375
-84.228515625
-79.65087890625
-83.31298828125
-86.0595703125
-90.63720703125
-81.48193359375
-79.65087890625
-86.0595703125
-83.31298828125
-89.7216796875
-90.63720703125
-85.14404296875
-77.81982421875
-71.4111328125
-78.7353515625
-86.0595703125
-85.14404296875
-84.228515625
-84.228515625
-85.14404296875
-84.228515625
-89.7216796875
-90.63720703125
-91.552734375
-97.96142578125
-99.79248046875
-94.29931640625
-95.21484375
-98.876953125
-105.28564453125
-104.3701171875
-96.13037109375
-95.21484375
-99.79248046875
-95.21484375
-100.7080078125
-97.96142578125
-93.3837890625
-93.3837890625
-106.201171875
-109.86328125
-112.60986328125
-108.0322265625
-113.525390625
-114.44091796875
-115.3564453125
-104.3701171875
-85.14404296875
-75.0732421875
-70.49560546875
-52.18505859375
-25.634765625
-27.4658203125
-28.38134765625
-34.7900390625
-25.634765625
-8.23974609375
4.57763671875
9.1552734375
10.986328125
22.88818359375
31.1279296875
34.7900390625
32.04345703125
21.97265625
13.73291015625
19.22607421875
17.39501953125
3.662109375
0
-17.39501953125
-23.8037109375
-38.4521484375
-57.67822265625
-66.83349609375
-74.15771484375
-89.7216796875
-89.7216796875
-93.3837890625
-104.3701171875
-100.7080078125
-113.525390625
-124.51171875
-131.8359375
-138.24462890625
-135.498046875
-130.0048828125
-132.75146484375
-142.822265625
-148.3154296875
-139.16015625
-132.75146484375
-142.822265625
-146.484375
-148.3154296875
-144.6533203125
-136.41357421875
-133.6669921875
-131.8359375
-143.73779296875
-138.24462890625
-139.16015625
-143.73779296875
-145.56884765625
-144.6533203125
-148.3154296875
-152.89306640625
-162.04833984375
-191.34521484375
-207.82470703125
-216.064453125
-201.416015625
-177.6123046875
-156.55517578125
-108.94775390625
-21.05712890625
86.97509765625
228.8818359375
396.42333984375
532.8369140625
661.92626953125
790.10009765625
890.80810546875
956.72607421875
961.3037109375
842.28515625
606.99462890625
403.74755859375
227.05078125
60.4248046875
-19.22607421875
-94.29931640625
-140.07568359375
-184.02099609375
-200.50048828125
-195.00732421875
-193.17626953125
-173.9501953125
-154.72412109375
-145.56884765625
-141.90673828125
-135.498046875
-134.58251953125
-145.56884765625
-151.9775390625
-149.23095703125
-148.3154296875
-144.6533203125
-152.89306640625
-155.6396484375
-151.9775390625
-145.56884765625
-147.39990234375
-154.72412109375
-152.89306640625
-152.89306640625
-145.56884765625
-144.6533203125
-149.23095703125
-151.9775390625
-146.484375
-147.39990234375
-145.56884765625
-142.822265625
-152.89306640625
-153.80859375
-151.9775390625
-143.73779296875
-146.484375
-151.9775390625
-153.80859375
-145.56884765625
-140.9912109375
-149.23095703125
-152.89306640625
-155.6396484375
-148.3154296875
-140.9912109375
-141.90673828125
-152.89306640625
-151.9775390625
-151.9775390625
-161.1328125
-159.3017578125
-150.146484375
-147.39990234375
-140.07568359375
-139.16015625
-140.07568359375
-140.07568359375
-138.24462890625
-143.73779296875
-149.23095703125
-147.39990234375
-150.146484375
-149.23095703125
-144.6533203125
-140.9912109375
-143.73779296875
-143.73779296875
-150.146484375
-142.822265625
-141.90673828125
-144.6533203125
-144.6533203125
-145.56884765625
-134.58251953125
-131.8359375
-134.58251953125
-140.07568359375
-129.08935546875
-127.25830078125
-131.8359375
-136.41357421875
-138.24462890625
-139.16015625
-133.6669921875
-130.92041015625
-124.51171875
-127.25830078125
-135.498046875
-126.3427734375
-118.10302734375
-115.3564453125
-117.1875
-123.59619140625
-119.93408203125
-108.94775390625
-113.525390625
-122.6806640625
-118.10302734375
-109.86328125
-113.525390625
-107.11669921875
-114.44091796875
-119.0185546875
-111.6943359375
-101.62353515625
-104.3701171875
-108.0322265625
-108.0322265625
-111.6943359375
-101.62353515625
-101.62353515625
-97.96142578125
-90.63720703125
-92.46826171875
-86.0595703125
-83.31298828125
-88.80615234375
-89.7216796875
-80.56640625
-79.65087890625
-76.904296875
-82.3974609375
-77.81982421875
-75.0732421875
-71.4111328125
-67.7490234375
-73.2421875
-71.4111328125
-71.4111328125
-69.580078125
-78.7353515625
-79.65087890625
-82.3974609375
-75.0732421875
-72.32666015625
-71.4111328125
-77.81982421875
-79.65087890625
-81.48193359375
-80.56640625
-82.3974609375
-86.97509765625
-88.80615234375
-80.56640625
-78.7353515625
-80.56640625
-90.63720703125
-90.63720703125
-84.228515625
-81.48193359375
-77.81982421875
-86.97509765625
-83.31298828125
-79.65087890625
-75.0732421875
-71.4111328125
-70.49560546875
-69.580078125
-67.7490234375
-65.91796875
-71.4111328125
-76.904296875
-72.32666015625
-62.255859375
-57.67822265625
-60.4248046875
-60.4248046875
-54.01611328125
-52.18505859375
-57.67822265625
-58.59375
-62.255859375
-54.931640625
-66.83349609375
-58.59375
-55.84716796875
-48.52294921875
-54.01611328125
-58.59375
-57.67822265625
-54.01611328125
-54.931640625
-56.7626953125
-57.67822265625
-51.26953125
-47.607421875
-54.931640625
-61.34033203125
-58.59375
-54.931640625
-51.26953125
-61.34033203125
-60.4248046875
-57.67822265625
-62.255859375
-63.17138671875
-63.17138671875
-63.17138671875
-65.91796875
-65.00244140625
-62.255859375
-74.15771484375
-72.32666015625
-73.2421875
-68.66455078125
-63.17138671875
-68.66455078125
-75.0732421875
-69.580078125
-65.91796875
-73.2421875
-78.7353515625
-83.31298828125
-86.0595703125
-75.98876953125
-82.3974609375
-86.97509765625
-79.65087890625
-83.31298828125
-74.15771484375
-82.3974609375
-91.552734375
-88.80615234375
-91.552734375
-86.97509765625
-83.31298828125
-81.48193359375
-91.552734375
-93.3837890625
-93.3837890625
-100.7080078125
-99.79248046875
-87.890625
-83.31298828125
-85.14404296875
-82.3974609375
-77.81982421875
-63.17138671875
-47.607421875
-28.38134765625
-24.71923828125
-21.97265625
-15.56396484375
-9.1552734375
0
14.6484375
30.21240234375
31.1279296875
37.53662109375
34.7900390625
40.283203125
33.87451171875
32.958984375
38.4521484375
31.1279296875
34.7900390625
32.958984375
32.958984375
17.39501953125
11.90185546875
-1.8310546875
-18.310546875
-43.02978515625
-51.26953125
-61.34033203125
-75.98876953125
-79.65087890625
-77.81982421875
-84.228515625
-89.7216796875
-87.890625
-97.0458984375
-114.44091796875
-120.849609375
-115.3564453125
-122.6806640625
-120.849609375
-117.1875
-119.93408203125
-117.1875
-118.10302734375
-119.93408203125
-122.6806640625
-133.6669921875
-134.58251953125
-128.173828125
-127.25830078125
-120.849609375
-119.93408203125
-118.10302734375
-128.173828125
-133.6669921875
-130.0048828125
-125.42724609375
-124.51171875
-138.24462890625
-157.470703125
-178.52783203125
-197.75390625
-205.99365234375
-191.34521484375
-173.03466796875
-147.39990234375
-104.3701171875
-14.6484375
108.94775390625
252.685546875
418.39599609375
575.86669921875
712.2802734375
828.55224609375
929.26025390625
994.2626953125
994.2626953125
869.7509765625
628.0517578125
411.9873046875
231.62841796875
68.66455078125
-14.6484375
-75.98876953125
-126.3427734375
-177.6123046875
-184.02099609375
-177.6123046875
-174.86572265625
-168.45703125
-143.73779296875
-130.92041015625
-119.0185546875
-111.6943359375
-122.6806640625
-130.92041015625
-139.16015625
-133.6669921875
-134.58251953125
-133.6669921875
-139.16015625
-140.9912109375
-150.146484375
-148.3154296875
-136.41357421875
-130.0048828125
-139.16015625
-137.3291015625
-129.08935546875
-126.3427734375
-138.24462890625
-147.39990234375
-137.3291015625
-137.3291015625
-145.56884765625
-143.73779296875
-143.73779296875
-140.9912109375
-142.822265625
-145.56884765625
-140.9912109375
-132.75146484375
-140.07568359375
-140.9912109375
-140.07568359375
-136.41357421875
-131.8359375
-137.3291015625
-137.3291015625
-140.9912109375
-141.90673828125
-135.498046875
-136.41357421875
-133.6669921875
-133.6669921875
-140.07568359375
-132.75146484375
-127.25830078125
-130.92041015625
-141.90673828125
-145.56884765625
-142.822265625
-136.41357421875
-143.73779296875
-147.39990234375
-143.73779296875
-137.3291015625
-133.6669921875
-138.24462890625
-136.41357421875
-138.24462890625
-141.90673828125
-139.16015625
-133.6669921875
-133.6669921875
-142.822265625
-142.822265625
-135.498046875
-130.0048828125
-129.08935546875
-137.3291015625
-131.8359375
-128.173828125
-133.6669921875
-149.23095703125
-140.9912109375
-133.6669921875
-123.59619140625
-121.76513671875
-121.76513671875
-131.8359375
-120.849609375
-111.6943359375
-117.1875
-129.08935546875
-130.0048828125
-125.42724609375
-117.1875
-117.1875
-122.6806640625
-125.42724609375
-125.42724609375
-122.6806640625
-125.42724609375
-124.51171875
-115.3564453125
-119.93408203125
-118.10302734375
-113.525390625
-116.27197265625
-119.0185546875
-112.60986328125
-108.94775390625
-109.86328125
-102.5390625
-118.10302734375
-97.96142578125
-94.29931640625
-96.13037109375
-95.21484375
-93.3837890625
-86.0595703125
-87.890625
-89.7216796875
-91.552734375
-86.97509765625
-96.13037109375
-87.890625
-82.3974609375
-79.65087890625
-76.904296875
-69.580078125
-67.7490234375
-75.0732421875
-80.56640625
-75.0732421875
-66.83349609375
-65.91796875
-72.32666015625
-83.31298828125
-85.14404296875
-87.890625
-76.904296875
-88.80615234375
-97.0458984375
-87.890625
-87.890625
-86.0595703125
-86.0595703125
-88.80615234375
-98.876953125
-88.80615234375
-79.65087890625
-77.81982421875
-91.552734375
-91.552734375
-84.228515625
-73.2421875
-71.4111328125
-78.7353515625
-82.3974609375
-81.48193359375
-86.97509765625
-83.31298828125
-88.80615234375
-81.48193359375
-73.2421875
-74.15771484375
-69.580078125
-75.98876953125
-74.15771484375
-67.7490234375
-72.32666015625
-74.15771484375
-75.98876953125
-75.0732421875
-69.580078125
-65.00244140625
-61.34033203125
-61.34033203125
-61.34033203125
-71.4111328125
-71.4111328125
-63.17138671875
-63.17138671875
-72.32666015625
-64.0869140625
-69.580078125
-65.91796875
-63.17138671875
-62.255859375
-65.91796875
-65.00244140625
-76.904296875
-79.65087890625
-83.31298828125
-75.0732421875
-76.904296875
-75.0732421875
-72.32666015625
-76.904296875
-90.63720703125
-80.56640625
-83.31298828125
-78.7353515625
-90.63720703125
-94.29931640625
-81.48193359375
-83.31298828125
-86.0595703125
-84.228515625
-89.7216796875
-86.0595703125
-97.0458984375
-95.21484375
-95.21484375
-98.876953125
-101.62353515625
-92.46826171875
-97.96142578125
-102.5390625
-97.96142578125
-98.876953125
-101.62353515625
-98.876953125
-103.45458984375
-104.3701171875
-105.28564453125
-103.45458984375
-116.27197265625
-111.6943359375
-100.7080078125
-103.45458984375
-115.3564453125
-123.59619140625
-120.849609375
-122.6806640625
-121.76513671875
-108.94775390625
-107.11669921875
-114.44091796875
-125.42724609375
-97.0458984375
-77.81982421875
-73.2421875
-63.17138671875
-57.67822265625
-50.35400390625
-36.62109375
-55.84716796875
-54.931640625
-35.70556640625
-20.1416015625
-2.74658203125
-3.662109375
7.32421875
21.05712890625
29.296875
16.4794921875
8.23974609375
9.1552734375
0
-3.662109375
-4.57763671875
-20.1416015625
-21.97265625
-37.53662109375
-42.1142578125
-60.4248046875
-86.0595703125
-92.46826171875
-106.201171875
-103.45458984375
-117.1875
-119.93408203125
-129.08935546875
-124.51171875
-120.849609375
-123.59619140625
-143.73779296875
-151.9775390625
-141.90673828125
-155.6396484375
-141.90673828125
-132.75146484375
-149.23095703125
-159.3017578125
-165.71044921875
-153.80859375
-151.06201171875
-162.04833984375
-156.55517578125
-159.3017578125
-162.9638671875
-162.9638671875
-173.03466796875
-170.2880859375
-161.1328125
-153.80859375
-158.38623046875
-161.1328125
-169.37255859375
-178.52783203125
-197.75390625
-222.47314453125
-240.78369140625
-238.95263671875
-216.064453125
-193.17626953125
-152.89306640625
-98.876953125
4.57763671875
140.9912109375
311.279296875
453.18603515625
598.7548828125
720.52001953125
836.7919921875
927.42919921875
958.55712890625
887.14599609375
674.74365234375
460.51025390625
295.71533203125
111.6943359375
-7.32421875
-68.66455078125
-104.3701171875
-157.470703125
-196.83837890625
-224.30419921875
-233.45947265625
-223.388671875
-213.31787109375
-206.9091796875
-186.767578125
-171.20361328125
-164.794921875
-152.89306640625
-164.794921875
-184.9365234375
-177.6123046875
-177.6123046875
-179.443359375
-177.6123046875
-184.9365234375
-179.443359375
-178.52783203125
-170.2880859375
-181.2744140625
-180.35888671875
-180.35888671875
-172.119140625
-173.03466796875
-177.6123046875
-187.68310546875
-188.5986328125
-186.767578125
-178.52783203125
-171.20361328125
-184.9365234375
-183.10546875
-171.20361328125
-181.2744140625
-173.9501953125
-174.86572265625
-180.35888671875
-174.86572265625
-169.37255859375
-174.86572265625
-174.86572265625
-180.35888671875
-183.10546875
-174.86572265625
-182.18994140625
-178.52783203125
-185.85205078125
-178.52783203125
-169.37255859375
-171.20361328125
-181.2744140625
-183.10546875
-181.2744140625
-173.9501953125
-173.9501953125
-182.18994140625
-179.443359375
-167.54150390625
-182.18994140625
-180.35888671875
-189.51416015625
-171.20361328125
-165.71044921875
-178.52783203125
-173.9501953125
-174.86572265625
-184.02099609375
-177.6123046875
-173.9501953125
-172.119140625
-180.35888671875
-180.35888671875
-183.10546875
-173.9501953125
-167.54150390625
-175.78125
-171.20361328125
-163.87939453125
-168.45703125
-162.04833984375
-166.6259765625
-162.9638671875
-160.21728515625
-168.45703125
-175.78125
-173.9501953125
-162.9638671875
-160.21728515625
-155.6396484375
-162.9638671875
-165.71044921875
-164.794921875
-160.21728515625
-157.470703125
-160.21728515625
-173.9501953125
-171.20361328125
-164.794921875
-156.55517578125
-157.470703125
-162.9638671875
-160.21728515625
-160.21728515625
-161.1328125
-166.6259765625
-162.04833984375
-152.89306640625
-151.06201171875
-149.23095703125
-148.3154296875
-151.9775390625
-156.55517578125
-147.39990234375
-140.07568359375
-139.16015625
-132.75146484375
-135.498046875
-139.16015625
-129.08935546875
-124.51171875
-130.92041015625
-130.92041015625
-122.6806640625
-124.51171875
-129.08935546875
-130.92041015625
-130.0048828125
-123.59619140625
-120.849609375
-116.27197265625
-130.0048828125
-119.93408203125
-124.51171875
-133.6669921875
-134.58251953125
-143.73779296875
-142.822265625
-130.0048828125
-123.59619140625
-131.8359375
-143.73779296875
-148.3154296875
-140.07568359375
-131.8359375
-140.9912109375
-155.6396484375
-144.6533203125
-127.25830078125
-128.173828125
-122.6806640625
-134.58251953125
-134.58251953125
-133.6669921875
-139.16015625
-140.07568359375
-131.8359375
-131.8359375
-135.498046875
-127.25830078125
-121.76513671875
-128.173828125
-123.59619140625
-121.76513671875
-130.0048828125
-127.25830078125
-131.8359375
-115.3564453125
-108.0322265625
-115.3564453125
-114.44091796875
-115.3564453125
-115.3564453125
-115.3564453125
-111.6943359375
-109.86328125
-130.92041015625
-125.42724609375
-108.94775390625
-103.45458984375
-107.11669921875
-116.27197265625
-108.0322265625
-99.79248046875
-96.13037109375
-112.60986328125
-112.60986328125
-113.525390625
-109.86328125
-110.77880859375
-118.10302734375
-122.6806640625
-117.1875
-114.44091796875
-107.11669921875
-109.86328125
-116.27197265625
-116.27197265625
-117.1875
-112.60986328125
-114.44091796875
-132.75146484375
-118.10302734375
-115.3564453125
-108.94775390625
-117.1875
-126.3427734375
-130.0048828125
-130.92041015625
-130.0048828125
-136.41357421875
-135.498046875
-125.42724609375
-125.42724609375
-129.08935546875
-134.58251953125
-127.25830078125
-130.0048828125
-127.25830078125
-114.44091796875
-108.0322265625
-87.890625
-85.14404296875
-73.2421875
-58.59375
-64.0869140625
-71.4111328125
-68.66455078125
-44.86083984375
-32.04345703125
-28.38134765625
-14.6484375
-12.8173828125
-11.90185546875
-0.91552734375
-6.40869140625
-10.07080078125
-13.73291015625
-11.90185546875
-11.90185546875
-24.71923828125
-27.4658203125
-32.04345703125
-39.36767578125
-54.931640625
-74.15771484375
-95.21484375
-116.27197265625
-120.849609375
-119.93408203125
-128.173828125
-126.3427734375
-128.173828125
-146.484375
-146.484375
-154.72412109375
-163.87939453125
-162.04833984375
-156.55517578125
-163.87939453125
-166.6259765625
-171.20361328125
-169.37255859375
-160.21728515625
-172.119140625
-162.04833984375
-173.9501953125
-174.86572265625
-162.04833984375
-161.1328125
-170.2880859375
-169.37255859375
-170.2880859375
-173.9501953125
-178.52783203125
-172.119140625
-176.69677734375
-175.78125
-179.443359375
-184.9365234375
-195.9228515625
-222.47314453125
-238.037109375
-238.037109375
-237.12158203125
-221.5576171875
-187.68310546875
-144.6533203125
-63.17138671875
55.84716796875
195.00732421875
357.97119140625
500.79345703125
628.96728515625
752.5634765625
859.68017578125
935.6689453125
926.513671875
793.76220703125
551.1474609375
367.12646484375
192.2607421875
40.283203125
-41.19873046875
-89.7216796875
-142.822265625
-202.33154296875
-225.2197265625
-238.037109375
-233.45947265625
-226.13525390625
-209.65576171875
-194.091796875
-184.9365234375
-176.69677734375
-172.119140625
-186.767578125
-185.85205078125
-184.02099609375
-176.69677734375
-183.10546875
-189.51416015625
-188.5986328125
-185.85205078125
-184.02099609375
-180.35888671875
-187.68310546875
-188.5986328125
-184.9365234375
-179.443359375
-172.119140625
-184.02099609375
-179.443359375
-182.18994140625
-176.69677734375
-182.18994140625
-184.9365234375
-183.10546875
-179.443359375
-177.6123046875
-186.767578125
-191.34521484375
-197.75390625
-191.34521484375
-192.2607421875
-192.2607421875
-192.2607421875
-193.17626953125
-198.66943359375
-195.9228515625
-195.9228515625
-205.99365234375
-211.48681640625
-217.8955078125
-200.50048828125
-185.85205078125
-180.35888671875
-193.17626953125
-193.17626953125
-184.02099609375
-167.54150390625
-163.87939453125
-153.80859375
-144.6533203125
-150.146484375
-151.06201171875
-162.04833984375
-152.89306640625
-163.87939453125
-161.1328125
-163.87939453125
-172.119140625
-178.52783203125
-158.38623046875
-142.822265625
-147.39990234375
-165.71044921875
-170.2880859375
-162.9638671875
-154.72412109375
-154.72412109375
-171.20361328125
-182.18994140625
-165.71044921875
-162.9638671875
-163.87939453125
-173.03466796875
-176.69677734375
-177.6123046875
-156.55517578125
-157.470703125
-169.37255859375
-165.71044921875
-159.3017578125
-158.38623046875
-146.484375
-157.470703125
-169.37255859375
-165.71044921875
-159.3017578125
-159.3017578125
-164.794921875
-160.21728515625
-165.71044921875
-152.89306640625
-158.38623046875
-155.6396484375
-139.16015625
-139.16015625
-136.41357421875
-142.822265625
-162.9638671875
-157.470703125
-150.146484375
-153.80859375
-149.23095703125
-150.146484375
-151.9775390625
-146.484375
-135.498046875
-136.41357421875
-145.56884765625
-138.24462890625
-129.08935546875
-127.25830078125
-132.75146484375
-119.93408203125
-122.6806640625
-119.93408203125
-112.60986328125
-104.3701171875
-107.11669921875
-108.0322265625
-113.525390625
-121.76513671875
-115.3564453125
-122.6806640625
-130.0048828125
-125.42724609375
-108.94775390625
-118.10302734375
-133.6669921875
-131.8359375
-119.93408203125
-113.525390625
-126.3427734375
-135.498046875
-130.92041015625
-127.25830078125
-119.93408203125
-123.59619140625
-140.07568359375
-128.173828125
-130.0048828125
-127.25830078125
-133.6669921875
-136.41357421875
-137.3291015625
-135.498046875
-137.3291015625
-130.92041015625
-121.76513671875
-134.58251953125
-139.16015625
-127.25830078125
-120.849609375
-122.6806640625
-124.51171875
-119.93408203125
-116.27197265625
-113.525390625
-122.6806640625
-123.59619140625
-114.44091796875
-105.28564453125
-110.77880859375
-116.27197265625
-114.44091796875
-108.94775390625
-89.7216796875
-95.21484375
-96.13037109375
-104.3701171875
-111.6943359375
-106.201171875
-99.79248046875
-114.44091796875
-106.201171875
-106.201171875
-105.28564453125
-102.5390625
-101.62353515625
-88.80615234375
-85.14404296875
-106.201171875
-97.96142578125
-111.6943359375
-117.1875
-111.6943359375
-108.0322265625
-106.201171875
-113.525390625
-116.27197265625
-106.201171875
-116.27197265625
-118.10302734375
-123.59619140625
-115.3564453125
-114.44091796875
-116.27197265625
-106.201171875
-119.93408203125
-120.849609375
-115.3564453125
-122.6806640625
-125.42724609375
-133.6669921875
-131.8359375
-127.25830078125
-124.51171875
-130.0048828125
-131.8359375
-117.1875
-119.93408203125
-118.10302734375
-131.8359375
-144.6533203125
-137.3291015625
-143.73779296875
-125.42724609375
-135.498046875
-140.9912109375
-136.41357421875
-137.3291015625
-133.6669921875
-120.849609375
-111.6943359375
-97.96142578125
-89.7216796875
-73.2421875
-68.66455078125
-53.1005859375
-55.84716796875
-64.0869140625
-50.35400390625
-43.02978515625
-30.21240234375
-14.6484375
1.8310546875
9.1552734375
2.74658203125
-1.8310546875
-14.6484375
-7.32421875
-9.1552734375
-21.05712890625
-20.1416015625
-13.73291015625
-36.62109375
-41.19873046875
-39.36767578125
-54.01611328125
-86.97509765625
-94.29931640625
-88.80615234375
-103.45458984375
-117.1875
-126.3427734375
-126.3427734375
-126.3427734375
-140.07568359375
-146.484375
-147.39990234375
-143.73779296875
-153.80859375
-162.04833984375
-170.2880859375
-168.45703125
-159.3017578125
-155.6396484375
-158.38623046875
-175.78125
-170.2880859375
-162.04833984375
-162.9638671875
-169.37255859375
-172.119140625
-171.20361328125
-165.71044921875
-162.9638671875
-158.38623046875
-165.71044921875
-169.37255859375
-175.78125
-176.69677734375
-183.10546875
-198.66943359375
-227.05078125
-227.05078125
-227.05078125
-227.05078125
-213.31787109375
-183.10546875
-122.6806640625
-32.04345703125
84.228515625
232.5439453125
392.76123046875
525.5126953125
658.26416015625
774.5361328125
867.00439453125
929.26025390625
927.42919921875
780.94482421875
531.005859375
357.0556640625
187.68310546875
28.38134765625
-53.1005859375
-102.5390625
-149.23095703125
-199.5849609375
-210.5712890625
-216.064453125
-206.9091796875
-202.33154296875
-185.85205078125
-172.119140625
-160.21728515625
-164.794921875
-166.6259765625
-167.54150390625
-167.54150390625
-155.6396484375
-173.9501953125
-195.9228515625
-176.69677734375
-163.87939453125
-160.21728515625
-166.6259765625
-171.20361328125
-175.78125
-178.52783203125
-175.78125
-173.9501953125
-182.18994140625
-175.78125
-169.37255859375
-175.78125
-178.52783203125
-175.78125
-175.78125
-179.443359375
-182.18994140625
-177.6123046875
-175.78125
-183.10546875
-170.2880859375
-165.71044921875
-165.71044921875
-175.78125
-174.86572265625
-164.794921875
-170.2880859375
-162.9638671875
-162.04833984375
-169.37255859375
-168.45703125
-168.45703125
-153.80859375
-161.1328125
-172.119140625
-170.2880859375
-172.119140625
-176.69677734375
-178.52783203125
-182.18994140625
-169.37255859375
-159.3017578125
-163.87939453125
-174.86572265625
-159.3017578125
-160.21728515625
-167.54150390625
-168.45703125
-175.78125
-165.71044921875
-156.55517578125
-162.9638671875
-165.71044921875
-169.37255859375
-168.45703125
-158.38623046875
-149.23095703125
-152.89306640625
-159.3017578125
-161.1328125
-154.72412109375
-145.56884765625
-140.07568359375
-145.56884765625
-148.3154296875
-144.6533203125
-140.07568359375
-150.146484375
-147.39990234375
-150.146484375
-158.38623046875
-153.80859375
-135.498046875
-133.6669921875
-143.73779296875
-140.07568359375
-127.25830078125
-130.92041015625
-139.16015625
-131.8359375
-128.173828125
-126.3427734375
-124.51171875
-122.6806640625
-136.41357421875
-124.51171875
-109.86328125
-106.201171875
-110.77880859375
-120.849609375
-124.51171875
-123.59619140625
-108.94775390625
-105.28564453125
-119.0185546875
-119.0185546875
-99.79248046875
-104.3701171875
-108.0322265625
-102.5390625
-90.63720703125
-99.79248046875
-94.29931640625
-94.29931640625
-90.63720703125
-96.13037109375
-93.3837890625
-81.48193359375
-80.56640625
-83.31298828125
-84.228515625
-85.14404296875
-73.2421875
-80.56640625
-91.552734375
-88.80615234375
-79.65087890625
-84.228515625
-94.29931640625
-93.3837890625
-85.14404296875
-84.228515625
-89.7216796875
-91.552734375
-88.80615234375
-103.45458984375
-103.45458984375
-91.552734375
-99.79248046875
-100.7080078125
-93.3837890625
-81.48193359375
-88.80615234375
-100.7080078125
-110.77880859375
-103.45458984375
-86.0595703125
-82.3974609375
-86.97509765625
-97.0458984375
-90.63720703125
-78.7353515625
-73.2421875
-89.7216796875
-86.97509765625
-75.0732421875
-79.65087890625
-82.3974609375
-77.81982421875
-82.3974609375
-79.65087890625
-69.580078125
-62.255859375
-81.48193359375
-70.49560546875
-71.4111328125
-65.91796875
-65.00244140625
-74.15771484375
-72.32666015625
-66.83349609375
-65.00244140625
-67.7490234375
-71.4111328125
-75.98876953125
-70.49560546875
-61.34033203125
-63.17138671875
-62.255859375
-66.83349609375
-65.00244140625
-62.255859375
-61.34033203125
-67.7490234375
-71.4111328125
-65.00244140625
-58.59375
-68.66455078125
-77.81982421875
-75.0732421875
-78.7353515625
-70.49560546875
-65.00244140625
-79.65087890625
-84.228515625
-82.3974609375
-78.7353515625
-78.7353515625
-77.81982421875
-75.98876953125
-83.31298828125
-86.0595703125
-83.31298828125
-80.56640625
