ECG
-15.56396484375
-10.986328125
-24.71923828125
-13.73291015625
-24.71923828125
-22.88818359375
-28.38134765625
-32.958984375
-30.21240234375
-30.21240234375
-31.1279296875
-35.70556640625
-34.7900390625
-35.70556640625
-36.62109375
-40.283203125
-33.87451171875
-50.35400390625
-43.9453125
-38.4521484375
-41.19873046875
-37.53662109375
-46.69189453125
-43.02978515625
-49.4384765625
-55.84716796875
-48.52294921875
-45.7763671875
-44.86083984375
-50.35400390625
-47.607421875
-43.9453125
-47.607421875
-61.34033203125
-62.255859375
-56.7626953125
-61.34033203125
-60.4248046875
-64.0869140625
-63.17138671875
-47.607421875
-27.4658203125
-27.4658203125
-13.73291015625
-1.8310546875
6.40869140625
13.73291015625
19.22607421875
15.56396484375
21.05712890625
27.4658203125
52.18505859375
67.7490234375
72.32666015625
74.15771484375
81.48193359375
83.31298828125
79.65087890625
69.580078125
60.4248046875
61.34033203125
67.7490234375
50.35400390625
41.19873046875
41.19873046875
30.21240234375
15.56396484375
0
-13.73291015625
-21.97265625
-25.634765625
-33.87451171875
-46.69189453125
-53.1005859375
-52.18505859375
-59.50927734375
-58.59375
-73.2421875
-85.14404296875
-82.3974609375
-74.15771484375
-79.65087890625
-99.79248046875
-86.97509765625
-90.63720703125
-97.0458984375
-97.0458984375
-89.7216796875
-89.7216796875
-89.7216796875
-87.890625
-79.65087890625
-90.63720703125
-92.46826171875
-91.552734375
-90.63720703125
-93.3837890625
-97.96142578125
-100.7080078125
-91.552734375
-91.552734375
-114.44091796875
-138.24462890625
-158.38623046875
-155.6396484375
-151.06201171875
-133.6669921875
-119.0185546875
-69.580078125
7.32421875
122.6806640625
263.671875
421.142578125
571.2890625
705.87158203125
820.3125
933.837890625
997.9248046875
1007.99560546875
893.5546875
668.3349609375
466.00341796875
282.89794921875
113.525390625
32.04345703125
-31.1279296875
-88.80615234375
-136.41357421875
-147.39990234375
-149.23095703125
-148.3154296875
-133.6669921875
-122.6806640625
-107.11669921875
-86.0595703125
-86.0595703125
-90.63720703125
-97.96142578125
-97.96142578125
-95.21484375
-99.79248046875
-97.0458984375
-108.0322265625
-107.11669921875
-103.45458984375
-102.5390625
-107.11669921875
-113.525390625
-108.94775390625
-102.5390625
-98.876953125
-107.11669921875
-103.45458984375
-108.0322265625
-108.0322265625
-106.201171875
-108.94775390625
-107.11669921875
-100.7080078125
-102.5390625
-104.3701171875
-102.5390625
-107.11669921875
-105.28564453125
-103.45458984375
-99.79248046875
-101.62353515625
-105.28564453125
-109.86328125
-104.3701171875
-101.62353515625
-103.45458984375
-107.11669921875
-104.3701171875
-104.3701171875
-104.3701171875
-104.3701171875
-104.3701171875
-108.94775390625
-108.0322265625
-96.13037109375
-97.0458984375
-99.79248046875
-97.0458984375
-98.876953125
-110.77880859375
-108.0322265625
-108.0322265625
-109.86328125
-108.0322265625
-97.96142578125
-104.3701171875
-109.86328125
-112.60986328125
-112.60986328125
-101.62353515625
-108.0322265625
-116.27197265625
-108.0322265625
-104.3701171875
-104.3701171875
-100.7080078125
-97.0458984375
-100.7080078125
-108.0322265625
-97.96142578125
-108.0322265625
-108.94775390625
-103.45458984375
-94.29931640625
-93.3837890625
-88.80615234375
-92.46826171875
-90.63720703125
-92.46826171875
-93.3837890625
-97.96142578125
-100.7080078125
-99.79248046875
-92.46826171875
-83.31298828125
-83.31298828125
-94.29931640625
-95.21484375
-97.96142578125
-98.876953125
-94.29931640625
-91.552734375
-94.29931640625
-88.80615234375
-88.80615234375
-86.0595703125
-90.63720703125
-94.29931640625
-86.97509765625
-76.904296875
-81.48193359375
-87.890625
-88.80615234375
-79.65087890625
-73.2421875
-76.904296875
-73.2421875
-74.15771484375
-68.66455078125
-65.91796875
-70.49560546875
-68.66455078125
-67.7490234375
-66.83349609375
-60.4248046875
-47.607421875
-54.01611328125
-54.01611328125
-59.50927734375
-56.7626953125
-62.255859375
-67.7490234375
-64.0869140625
-64.0869140625
-61.34033203125
-61.34033203125
-67.7490234375
-70.49560546875
-73.2421875
-73.2421875
-72.32666015625
-72.32666015625
-71.4111328125
-74.15771484375
-66.83349609375
-63.17138671875
-76.904296875
-68.66455078125
-69.580078125
-69.580078125
-68.66455078125
-70.49560546875
-64.0869140625
-68.66455078125
-54.931640625
-55.84716796875
-59.50927734375
-49.4384765625
-40.283203125
-39.36767578125
-53.1005859375
-64.0869140625
-56.7626953125
-53.1005859375
-50.35400390625
-49.4384765625
-52.18505859375
-52.18505859375
-41.19873046875
-52.18505859375
-48.52294921875
-56.7626953125
-45.7763671875
-38.4521484375
-35.70556640625
-46.69189453125
-49.4384765625
-46.69189453125
-43.02978515625
-43.9453125
-41.19873046875
-41.19873046875
-33.87451171875
-36.62109375
-35.70556640625
-35.70556640625
-39.36767578125
-36.62109375
-33.87451171875
-38.4521484375
-43.02978515625
-48.52294921875
-46.69189453125
-39.36767578125
-42.1142578125
-41.19873046875
-54.01611328125
-51.26953125
-50.35400390625
-49.4384765625
-51.26953125
-59.50927734375
-60.4248046875
-49.4384765625
-54.931640625
-62.255859375
-57.67822265625
-56.7626953125
-61.34033203125
-58.59375
-65.00244140625
-56.7626953125
-54.01611328125
-65.00244140625
-60.4248046875
-66.83349609375
-70.49560546875
-71.4111328125
-73.2421875
-68.66455078125
-78.7353515625
-75.0732421875
-66.83349609375
-73.2421875
-76.904296875
-73.2421875
-74.15771484375
-80.56640625
-80.56640625
-75.0732421875
-73.2421875
-75.98876953125
-77.81982421875
-69.580078125
-73.2421875
-78.7353515625
-86.97509765625
-90.63720703125
-76.904296875
-73.2421875
-59.50927734375
-44.86083984375
-32.04345703125
-21.05712890625
-11.90185546875
4.57763671875
-0.91552734375
-8.23974609375
0
17.39501953125
25.634765625
35.70556640625
54.931640625
56.7626953125
61.34033203125
66.83349609375
50.35400390625
50.35400390625
47.607421875
46.69189453125
33.87451171875
29.296875
18.310546875
11.90185546875
7.32421875
-4.57763671875
-22.88818359375
-35.70556640625
-50.35400390625
-56.7626953125
-68.66455078125
-81.48193359375
-79.65087890625
-74.15771484375
-76.904296875
-85.14404296875
-101.62353515625
-109.86328125
-105.28564453125
-108.0322265625
-105.28564453125
-108.0322265625
-108.94775390625
-103.45458984375
-104.3701171875
-108.94775390625
-119.0185546875
-114.44091796875
-117.1875
-116.27197265625
-117.1875
-115.3564453125
-108.94775390625
-109.86328125
-104.3701171875
-112.60986328125
-119.93408203125
-117.1875
-109.86328125
-119.0185546875
-151.06201171875
-172.119140625
-180.35888671875
-176.69677734375
-164.794921875
-145.56884765625
-108.0322265625
-52.18505859375
45.7763671875
166.6259765625
331.4208984375
497.13134765625
639.0380859375
769.95849609375
884.3994140625
968.6279296875
1011.65771484375
963.134765625
773.62060546875
541.07666015625
348.81591796875
169.37255859375
43.02978515625
-28.38134765625
-80.56640625
-128.173828125
-164.794921875
-166.6259765625
-162.9638671875
-153.80859375
-129.08935546875
-119.0185546875
-113.525390625
-108.94775390625
-104.3701171875
-114.44091796875
-119.0185546875
-118.10302734375
-119.93408203125
-122.6806640625
-128.173828125
-127.25830078125
-125.42724609375
-126.3427734375
-127.25830078125
-133.6669921875
-129.08935546875
-125.42724609375
-127.25830078125
-125.42724609375
-123.59619140625
-126.3427734375
-119.0185546875
-119.0185546875
-114.44091796875
-115.3564453125
-116.27197265625
-120.849609375
-123.59619140625
-120.849609375
-123.59619140625
-123.59619140625
-126.3427734375
-127.25830078125
-124.51171875
-115.3564453125
-130.0048828125
-118.10302734375
-121.76513671875
-121.76513671875
-120.849609375
-120.849609375
-126.3427734375
-119.0185546875
-113.525390625
-109.86328125
-119.0185546875
-112.60986328125
-111.6943359375
-111.6943359375
-120.849609375
-119.0185546875
-123.59619140625
-120.849609375
-118.10302734375
-126.3427734375
-123.59619140625
-122.6806640625
-125.42724609375
-114.44091796875
-118.10302734375
-126.3427734375
-123.59619140625
-121.76513671875
-117.1875
-113.525390625
-115.3564453125
-118.10302734375
-117.1875
-121.76513671875
-117.1875
-112.60986328125
-116.27197265625
-108.0322265625
-103.45458984375
-105.28564453125
-106.201171875
-105.28564453125
-112.60986328125
-106.201171875
-107.11669921875
-108.94775390625
-103.45458984375
-93.3837890625
-103.45458984375
-108.94775390625
-106.201171875
-99.79248046875
-103.45458984375
-106.201171875
-105.28564453125
-99.79248046875
-97.96142578125
-92.46826171875
-88.80615234375
-97.0458984375
-99.79248046875
-98.876953125
-94.29931640625
-98.876953125
-103.45458984375
-97.96142578125
-97.96142578125
-93.3837890625
-85.14404296875
-85.14404296875
-90.63720703125
-87.890625
-85.14404296875
-74.15771484375
-78.7353515625
-79.65087890625
-77.81982421875
-73.2421875
-70.49560546875
-65.00244140625
-68.66455078125
-67.7490234375
-73.2421875
-70.49560546875
-57.67822265625
-72.32666015625
-70.49560546875
-64.0869140625
-57.67822265625
-56.7626953125
-66.83349609375
-74.15771484375
-82.3974609375
-80.56640625
-72.32666015625
-78.7353515625
-78.7353515625
-71.4111328125
-75.0732421875
-75.98876953125
-79.65087890625
-71.4111328125
-73.2421875
-72.32666015625
-75.0732421875
-80.56640625
-75.0732421875
-67.7490234375
-72.32666015625
-75.0732421875
-74.15771484375
-74.15771484375
-71.4111328125
-67.7490234375
-67.7490234375
-65.91796875
-59.50927734375
-60.4248046875
-61.34033203125
-61.34033203125
-59.50927734375
-54.931640625
-45.7763671875
-41.19873046875
-48.52294921875
-54.931640625
-48.52294921875
-47.607421875
-48.52294921875
-43.9453125
-38.4521484375
-46.69189453125
-46.69189453125
-45.7763671875
-48.52294921875
-48.52294921875
-47.607421875
-41.19873046875
-43.02978515625
-45.7763671875
-45.7763671875
-43.02978515625
-39.36767578125
-40.283203125
-43.02978515625
-44.86083984375
-44.86083984375
-32.958984375
-37.53662109375
-41.19873046875
-47.607421875
-41.19873046875
-28.38134765625
-43.9453125
-49.4384765625
-51.26953125
-50.35400390625
-49.4384765625
-47.607421875
-40.283203125
-46.69189453125
-49.4384765625
-56.7626953125
-61.34033203125
-62.255859375
-61.34033203125
-63.17138671875
-60.4248046875
-69.580078125
-61.34033203125
-63.17138671875
-67.7490234375
-60.4248046875
-60.4248046875
-68.66455078125
-62.255859375
-64.0869140625
-57.67822265625
-65.91796875
-67.7490234375
-62.255859375
-63.17138671875
-67.7490234375
-71.4111328125
-72.32666015625
-76.904296875
-75.0732421875
-73.2421875
-74.15771484375
-69.580078125
-77.81982421875
-84.228515625
-89.7216796875
-84.228515625
-84.228515625
-85.14404296875
-80.56640625
-77.81982421875
-79.65087890625
-80.56640625
-83.31298828125
-82.3974609375
-80.56640625
-80.56640625
-72.32666015625
-64.0869140625
-46.69189453125
-29.296875
-9.1552734375
-7.32421875
-0.91552734375
10.986328125
5.4931640625
3.662109375
10.986328125
24.71923828125
36.62109375
54.01611328125
54.931640625
61.34033203125
56.7626953125
54.01611328125
49.4384765625
43.9453125
42.1142578125
41.19873046875
40.283203125
24.71923828125
25.634765625
14.6484375
0.91552734375
-18.310546875
-28.38134765625
-43.02978515625
-54.931640625
-62.255859375
-65.91796875
-68.66455078125
-66.83349609375
-72.32666015625
-84.228515625
-91.552734375
-102.5390625
-101.62353515625
-108.0322265625
-108.94775390625
-102.5390625
-100.7080078125
-99.79248046875
-108.0322265625
-96.13037109375
-95.21484375
-102.5390625
-102.5390625
-108.94775390625
-104.3701171875
-104.3701171875
-97.96142578125
-98.876953125
-108.0322265625
-110.77880859375
-100.7080078125
-96.13037109375
-99.79248046875
-112.60986328125
-140.07568359375
-151.06201171875
-167.54150390625
-173.9501953125
-168.45703125
-152.89306640625
-116.27197265625
-59.50927734375
24.71923828125
136.41357421875
291.1376953125
469.66552734375
616.14990234375
745.2392578125
863.34228515625
957.6416015625
1016.2353515625
1005.2490234375
845.03173828125
600.5859375
402.83203125
219.7265625
80.56640625
2.74658203125
-64.0869140625
-113.525390625
-152.89306640625
-153.80859375
-151.9775390625
-155.6396484375
-147.39990234375
-118.10302734375
-98.876953125
-91.552734375
-94.29931640625
-106.201171875
-108.94775390625
-108.0322265625
-108.0322265625
-116.27197265625
-111.6943359375
-109.86328125
-104.3701171875
-112.60986328125
-121.76513671875
-121.76513671875
-117.1875
-111.6943359375
-113.525390625
-106.201171875
-118.10302734375
-107.11669921875
-113.525390625
-117.1875
-113.525390625
-118.10302734375
-116.27197265625
-119.0185546875
-118.10302734375
-122.6806640625
-119.0185546875
-112.60986328125
-108.94775390625
-105.28564453125
-110.77880859375
-116.27197265625
-111.6943359375
-106.201171875
-113.525390625
-115.3564453125
-114.44091796875
-116.27197265625
-112.60986328125
-118.10302734375
-127.25830078125
-112.60986328125
-106.201171875
-113.525390625
-110.77880859375
-110.77880859375
-118.10302734375
-111.6943359375
-113.525390625
-109.86328125
-115.3564453125
-110.77880859375
-113.525390625
-109.86328125
-108.94775390625
-109.86328125
-115.3564453125
-118.10302734375
-109.86328125
-103.45458984375
-112.60986328125
-109.86328125
-108.94775390625
-108.94775390625
-102.5390625
-104.3701171875
-105.28564453125
-108.0322265625
-113.525390625
-104.3701171875
-103.45458984375
-103.45458984375
-105.28564453125
-105.28564453125
-111.6943359375
-106.201171875
-108.94775390625
-101.62353515625
-98.876953125
-101.62353515625
-106.201171875
-98.876953125
-85.14404296875
-95.21484375
-90.63720703125
-87.890625
-98.876953125
-98.876953125
-93.3837890625
-86.97509765625
-90.63720703125
-98.876953125
-96.13037109375
-88.80615234375
-93.3837890625
-100.7080078125
-97.0458984375
-92.46826171875
-84.228515625
-87.890625
-90.63720703125
-88.80615234375
-73.2421875
-79.65087890625
-81.48193359375
-76.904296875
-73.2421875
-75.0732421875
-53.1005859375
-54.01611328125
-62.255859375
-58.59375
-57.67822265625
-54.931640625
-58.59375
-57.67822265625
-64.0869140625
-47.607421875
-37.53662109375
-37.53662109375
-42.1142578125
-50.35400390625
-43.9453125
-38.4521484375
-37.53662109375
-49.4384765625
-54.931640625
-54.01611328125
-50.35400390625
-52.18505859375
-51.26953125
-64.0869140625
-59.50927734375
-63.17138671875
-55.84716796875
-54.931640625
-70.49560546875
-59.50927734375
-58.59375
-61.34033203125
-57.67822265625
-57.67822265625
-60.4248046875
-50.35400390625
-46.69189453125
-47.607421875
-56.7626953125
-48.52294921875
-38.4521484375
-41.19873046875
-45.7763671875
-49.4384765625
-49.4384765625
-42.1142578125
-36.62109375
-40.283203125
-36.62109375
-32.04345703125
-33.87451171875
-34.7900390625
-43.02978515625
-31.1279296875
-36.62109375
-41.19873046875
-32.04345703125
-31.1279296875
-31.1279296875
-22.88818359375
-23.8037109375
-22.88818359375
-34.7900390625
-38.4521484375
-29.296875
-30.21240234375
-28.38134765625
-36.62109375
-35.70556640625
-38.4521484375
-33.87451171875
-35.70556640625
-40.283203125
-36.62109375
-21.05712890625
-27.4658203125
-43.02978515625
-45.7763671875
-45.7763671875
-44.86083984375
-32.958984375
-46.69189453125
-43.02978515625
-50.35400390625
-47.607421875
-40.283203125
-45.7763671875
-50.35400390625
-48.52294921875
-45.7763671875
-59.50927734375
-51.26953125
-50.35400390625
-50.35400390625
-55.84716796875
-53.1005859375
-49.4384765625
-59.50927734375
-64.0869140625
-50.35400390625
-54.01611328125
-53.1005859375
-54.931640625
-64.0869140625
-65.91796875
-72.32666015625
-58.59375
-67.7490234375
-65.91796875
-66.83349609375
-62.255859375
-56.7626953125
-78.7353515625
-77.81982421875
-71.4111328125
-71.4111328125
-72.32666015625
-66.83349609375
-74.15771484375
-64.0869140625
-54.931640625
-44.86083984375
-29.296875
-18.310546875
-7.32421875
-1.8310546875
-5.4931640625
-1.8310546875
-0.91552734375
10.986328125
27.4658203125
43.9453125
53.1005859375
64.0869140625
61.34033203125
64.0869140625
61.34033203125
63.17138671875
52.18505859375
52.18505859375
54.931640625
49.4384765625
33.87451171875
23.8037109375
17.39501953125
-1.8310546875
-13.73291015625
-29.296875
-46.69189453125
-51.26953125
-54.01611328125
-48.52294921875
-56.7626953125
-75.98876953125
-83.31298828125
-83.31298828125
-90.63720703125
-100.7080078125
-97.0458984375
-85.14404296875
-91.552734375
-96.13037109375
-82.3974609375
-95.21484375
-106.201171875
-105.28564453125
-106.201171875
-102.5390625
-104.3701171875
-105.28564453125
-102.5390625
-103.45458984375
-102.5390625
-102.5390625
-107.11669921875
-100.7080078125
-97.0458984375
-100.7080078125
-105.28564453125
-114.44091796875
-132.75146484375
-149.23095703125
-170.2880859375
-171.20361328125
-162.9638671875
-142.822265625
-127.25830078125
-70.49560546875
21.97265625
139.16015625
299.37744140625
461.42578125
611.572265625
743.408203125
858.7646484375
953.9794921875
1013.48876953125
988.76953125
834.9609375
590.51513671875
403.74755859375
223.388671875
79.65087890625
20.1416015625
-28.38134765625
-91.552734375
-132.75146484375
-160.21728515625
-160.21728515625
-160.21728515625
-155.6396484375
-117.1875
-118.10302734375
-104.3701171875
-99.79248046875
-111.6943359375
-112.60986328125
-116.27197265625
-115.3564453125
-104.3701171875
-114.44091796875
-109.86328125
-120.849609375
-121.76513671875
-121.76513671875
-119.0185546875
-115.3564453125
-121.76513671875
-126.3427734375
-119.0185546875
-123.59619140625
-117.1875
-123.59619140625
-121.76513671875
-130.0048828125
-131.8359375
-120.849609375
-116.27197265625
-122.6806640625
-112.60986328125
-112.60986328125
-115.3564453125
-112.60986328125
-108.0322265625
-107.11669921875
-119.0185546875
-124.51171875
-115.3564453125
-110.77880859375
-116.27197265625
-112.60986328125
-108.0322265625
-122.6806640625
-114.44091796875
-103.45458984375
-117.1875
-113.525390625
-111.6943359375
-108.94775390625
-117.1875
-112.60986328125
-120.849609375
-137.3291015625
-119.0185546875
-112.60986328125
-131.8359375
-130.0048828125
-125.42724609375
-125.42724609375
-114.44091796875
-124.51171875
-120.849609375
-123.59619140625
-124.51171875
-112.60986328125
-122.6806640625
-117.1875
-123.59619140625
-132.75146484375
-120.849609375
-119.93408203125
-120.849609375
-119.0185546875
-115.3564453125
-118.10302734375
-111.6943359375
-132.75146484375
-133.6669921875
-124.51171875
-111.6943359375
-113.525390625
-109.86328125
-113.525390625
-119.93408203125
-119.0185546875
-112.60986328125
-108.94775390625
-110.77880859375
-119.93408203125
-103.45458984375
-105.28564453125
-108.94775390625
-114.44091796875
-108.94775390625
-102.5390625
-91.552734375
-107.11669921875
-118.10302734375
-121.76513671875
-114.44091796875
-105.28564453125
-97.0458984375
-113.525390625
-103.45458984375
-92.46826171875
-86.97509765625
-96.13037109375
-101.62353515625
-94.29931640625
-90.63720703125
-97.96142578125
-71.4111328125
-75.98876953125
-79.65087890625
-65.91796875
-65.00244140625
-74.15771484375
-89.7216796875
-78.7353515625
-65.91796875
-55.84716796875
-65.00244140625
-72.32666015625
-70.49560546875
-66.83349609375
-60.4248046875
-68.66455078125
-83.31298828125
-84.228515625
-75.0732421875
-79.65087890625
-80.56640625
-86.97509765625
-88.80615234375
-86.97509765625
-79.65087890625
-68.66455078125
-74.15771484375
-87.890625
-75.0732421875
-77.81982421875
-76.904296875
-94.29931640625
-81.48193359375
-87.890625
-79.65087890625
-70.49560546875
-85.14404296875
-82.3974609375
-80.56640625
-73.2421875
-75.98876953125
-74.15771484375
-73.2421875
-77.81982421875
-79.65087890625
-71.4111328125
-73.2421875
-65.91796875
-61.34033203125
-61.34033203125
-48.52294921875
-47.607421875
-55.84716796875
-58.59375
-43.02978515625
-54.931640625
-55.84716796875
-52.18505859375
-52.18505859375
-50.35400390625
-50.35400390625
-57.67822265625
-46.69189453125
-54.931640625
-47.607421875
-40.283203125
-51.26953125
-50.35400390625
-51.26953125
-50.35400390625
-52.18505859375
-61.34033203125
-54.931640625
-50.35400390625
-42.1142578125
-65.00244140625
-60.4248046875
-52.18505859375
-59.50927734375
-68.66455078125
-53.1005859375
-62.255859375
-65.00244140625
-66.83349609375
-61.34033203125
-82.3974609375
-70.49560546875
-75.98876953125
-64.0869140625
-65.00244140625
-69.580078125
-78.7353515625
-77.81982421875
-75.98876953125
-72.32666015625
-80.56640625
-86.97509765625
-82.3974609375
-87.890625
-87.890625
-73.2421875
-76.904296875
-58.59375
-43.9453125
-41.19873046875
-35.70556640625
-33.87451171875
-21.05712890625
-20.1416015625
-12.8173828125
-10.07080078125
4.57763671875
10.07080078125
16.4794921875
47.607421875
65.91796875
57.67822265625
58.59375
46.69189453125
43.9453125
40.283203125
28.38134765625
41.19873046875
36.62109375
25.634765625
17.39501953125
-0.91552734375
-8.23974609375
-19.22607421875
-46.69189453125
-61.34033203125
-69.580078125
-65.91796875
-71.4111328125
-79.65087890625
-83.31298828125
-76.904296875
-90.63720703125
-103.45458984375
-111.6943359375
-110.77880859375
-122.6806640625
-123.59619140625
-110.77880859375
-117.1875
-118.10302734375
-114.44091796875
-121.76513671875
-122.6806640625
-119.0185546875
-123.59619140625
-113.525390625
-104.3701171875
-101.62353515625
-108.94775390625
-110.77880859375
-122.6806640625
-119.0185546875
-117.1875
-112.60986328125
-107.11669921875
-116.27197265625
-148.3154296875
-163.87939453125
-174.86572265625
-188.5986328125
-193.17626953125
-171.20361328125
-147.39990234375
-96.13037109375
-25.634765625
71.4111328125
203.2470703125
356.14013671875
522.76611328125
665.58837890625
782.77587890625
879.82177734375
956.72607421875
975.9521484375
899.96337890625
671.08154296875
465.087890625
292.96875
127.25830078125
15.56396484375
-30.21240234375
-78.7353515625
-121.76513671875
-146.484375
-160.21728515625
-170.2880859375
-167.54150390625
-165.71044921875
-155.6396484375
-136.41357421875
-121.76513671875
-119.93408203125
-123.59619140625
-122.6806640625
-121.76513671875
-134.58251953125
-135.498046875
-129.08935546875
-126.3427734375
-127.25830078125
-130.0048828125
-138.24462890625
-137.3291015625
-118.10302734375
-121.76513671875
-125.42724609375
-131.8359375
-127.25830078125
-127.25830078125
-134.58251953125
-137.3291015625
-124.51171875
-117.1875
-127.25830078125
-139.16015625
-129.08935546875
-126.3427734375
-130.92041015625
-140.9912109375
-124.51171875
-116.27197265625
-118.10302734375
-120.849609375
-116.27197265625
-119.93408203125
-111.6943359375
-109.86328125
-120.849609375
-127.25830078125
-117.1875
-129.08935546875
-130.0048828125
-129.08935546875
-123.59619140625
-124.51171875
-122.6806640625
-124.51171875
-127.25830078125
-128.173828125
-126.3427734375
-127.25830078125
-123.59619140625
-119.0185546875
-118.10302734375
-120.849609375
-125.42724609375
-132.75146484375
-125.42724609375
-130.0048828125
-118.10302734375
-125.42724609375
-136.41357421875
-128.173828125
-125.42724609375
-119.93408203125
-119.0185546875
-131.8359375
-126.3427734375
-119.0185546875
-126.3427734375
-125.42724609375
-128.173828125
-125.42724609375
-119.93408203125
-118.10302734375
-127.25830078125
-110.77880859375
-110.77880859375
-123.59619140625
-120.849609375
-119.93408203125
-118.10302734375
-118.10302734375
-116.27197265625
-112.60986328125
-127.25830078125
-111.6943359375
-109.86328125
-110.77880859375
-122.6806640625
-130.0048828125
-124.51171875
-114.44091796875
-113.525390625
-112.60986328125
-115.3564453125
-115.3564453125
-122.6806640625
-124.51171875
-117.1875
-110.77880859375
-110.77880859375
-105.28564453125
-95.21484375
-101.62353515625
-93.3837890625
-90.63720703125
-93.3837890625
-86.97509765625
-90.63720703125
-95.21484375
-84.228515625
-75.98876953125
-70.49560546875
-79.65087890625
-90.63720703125
-81.48193359375
-80.56640625
-90.63720703125
-89.7216796875
-81.48193359375
-85.14404296875
-84.228515625
-91.552734375
-90.63720703125
-101.62353515625
-96.13037109375
-93.3837890625
-106.201171875
-105.28564453125
-97.96142578125
-89.7216796875
-94.29931640625
-97.0458984375
-99.79248046875
-102.5390625
-97.0458984375
-95.21484375
-93.3837890625
-97.96142578125
-97.0458984375
-97.96142578125
-89.7216796875
-78.7353515625
-84.228515625
-89.7216796875
-90.63720703125
-82.3974609375
-83.31298828125
-82.3974609375
-86.0595703125
-86.97509765625
-75.98876953125
-78.7353515625
-72.32666015625
-70.49560546875
-63.17138671875
-62.255859375
-69.580078125
-69.580078125
-66.83349609375
-68.66455078125
-66.83349609375
-59.50927734375
-50.35400390625
-54.931640625
-63.17138671875
-54.01611328125
-52.18505859375
-63.17138671875
-72.32666015625
-63.17138671875
-64.0869140625
-62.255859375
-52.18505859375
-62.255859375
-53.1005859375
-50.35400390625
-54.01611328125
-56.7626953125
-74.15771484375
-56.7626953125
-54.01611328125
-61.34033203125
-61.34033203125
-59.50927734375
-54.01611328125
-56.7626953125
-60.4248046875
-64.0869140625
-69.580078125
-63.17138671875
-65.91796875
-65.00244140625
-67.7490234375
-63.17138671875
-60.4248046875
-71.4111328125
-80.56640625
-79.65087890625
-75.0732421875
-76.904296875
-72.32666015625
-69.580078125
-75.98876953125
-84.228515625
-89.7216796875
-86.0595703125
-73.2421875
-65.00244140625
-47.607421875
-42.1142578125
-32.04345703125
-12.8173828125
-1.8310546875
-10.07080078125
-0.91552734375
-4.57763671875
-4.57763671875
7.32421875
22.88818359375
38.4521484375
51.26953125
63.17138671875
60.4248046875
57.67822265625
62.255859375
48.52294921875
46.69189453125
39.36767578125
31.1279296875
28.38134765625
21.97265625
18.310546875
4.57763671875
-18.310546875
-36.62109375
-41.19873046875
-45.7763671875
-54.931640625
-61.34033203125
-69.580078125
-72.32666015625
-81.48193359375
-94.29931640625
-94.29931640625
-100.7080078125
-109.86328125
-102.5390625
-106.201171875
-109.86328125
-112.60986328125
-113.525390625
-113.525390625
-119.93408203125
-122.6806640625
-121.76513671875
-111.6943359375
-115.3564453125
-118.10302734375
-128.173828125
-119.0185546875
-118.10302734375
-114.44091796875
-111.6943359375
-122.6806640625
-117.1875
-114.44091796875
-108.94775390625
-121.76513671875
-152.89306640625
-165.71044921875
-179.443359375
-181.2744140625
-173.9501953125
-158.38623046875
-127.25830078125
-76.904296875
8.23974609375
115.3564453125
249.0234375
424.8046875
574.951171875
704.9560546875
807.4951171875
898.13232421875
970.458984375
960.38818359375
816.650390625
577.69775390625
393.6767578125
214.2333984375
73.2421875
-6.40869140625
-58.59375
-111.6943359375
-160.21728515625
-165.71044921875
-166.6259765625
-165.71044921875
-155.6396484375
-132.75146484375
-124.51171875
-115.3564453125
-115.3564453125
-117.1875
-122.6806640625
-118.10302734375
-130.0048828125
-131.8359375
-136.41357421875
-125.42724609375
-119.0185546875
-117.1875
-124.51171875
-118.10302734375
-115.3564453125
-129.08935546875
-121.76513671875
-126.3427734375
-139.16015625
-127.25830078125
-123.59619140625
-122.6806640625
-125.42724609375
-125.42724609375
-130.92041015625
-128.173828125
-119.0185546875
-124.51171875
-125.42724609375
-128.173828125
-118.10302734375
-117.1875
-126.3427734375
-121.76513671875
-127.25830078125
-122.6806640625
-116.27197265625
-121.76513671875
-121.76513671875
-121.76513671875
-113.525390625
-111.6943359375
-118.10302734375
-119.0185546875
-108.0322265625
-116.27197265625
-111.6943359375
-109.86328125
-106.201171875
-119.0185546875
-120.849609375
-119.93408203125
-114.44091796875
-120.849609375
-114.44091796875
-119.93408203125
-120.849609375
-117.1875
-119.0185546875
-119.93408203125
-116.27197265625
-115.3564453125
-111.6943359375
-120.849609375
-108.94775390625
-110.77880859375
-122.6806640625
-118.10302734375
-116.27197265625
-118.10302734375
-108.94775390625
-100.7080078125
-109.86328125
-109.86328125
-120.849609375
-124.51171875
-108.0322265625
-108.94775390625
-107.11669921875
-111.6943359375
-111.6943359375
-101.62353515625
-108.94775390625
-109.86328125
-111.6943359375
-119.93408203125
-97.96142578125
-106.201171875
-109.86328125
-100.7080078125
-97.96142578125
-103.45458984375
-104.3701171875
-99.79248046875
-97.96142578125
-96.13037109375
-91.552734375
-88.80615234375
-89.7216796875
-91.552734375
-93.3837890625
-95.21484375
-89.7216796875
-90.63720703125
-89.7216796875
-82.3974609375
-82.3974609375
-86.0595703125
-78.7353515625
-70.49560546875
-68.66455078125
-67.7490234375
-71.4111328125
-76.904296875
-59.50927734375
-61.34033203125
-63.17138671875
-56.7626953125
-56.7626953125
-57.67822265625
-54.01611328125
-54.01611328125
-63.17138671875
-65.00244140625
-60.4248046875
-63.17138671875
-73.2421875
-68.66455078125
-65.91796875
-68.66455078125
-71.4111328125
-62.255859375
-75.0732421875
-79.65087890625
-73.2421875
-69.580078125
-68.66455078125
-76.904296875
-67.7490234375
-65.00244140625
-65.00244140625
-68.66455078125
-75.0732421875
-80.56640625
-71.4111328125
-57.67822265625
-58.59375
-66.83349609375
-64.0869140625
-56.7626953125
-55.84716796875
-58.59375
-57.67822265625
-44.86083984375
-46.69189453125
-51.26953125
-52.18505859375
-56.7626953125
-49.4384765625
-43.02978515625
-38.4521484375
-35.70556640625
-44.86083984375
-45.7763671875
-43.9453125
-44.86083984375
-45.7763671875
-46.69189453125
-44.86083984375
-41.19873046875
-38.4521484375
-29.296875
-33.87451171875
-28.38134765625
-28.38134765625
-35.70556640625
-39.36767578125
-46.69189453125
-46.69189453125
-30.21240234375
-27.4658203125
-31.1279296875
-31.1279296875
-31.1279296875
-43.02978515625
-43.9453125
-50.35400390625
-41.19873046875
-43.9453125
-43.9453125
-37.53662109375
-38.4521484375
-51.26953125
-51.26953125
-47.607421875
-46.69189453125
-53.1005859375
-52.18505859375
-46.69189453125
-51.26953125
-48.52294921875
-45.7763671875
-51.26953125
-54.01611328125
-58.59375
-55.84716796875
-57.67822265625
-58.59375
-64.0869140625
-62.255859375
-56.7626953125
-54.931640625
-63.17138671875
-60.4248046875
-64.0869140625
-66.83349609375
-55.84716796875
-40.283203125
-21.05712890625
-9.1552734375
6.40869140625
21.97265625
25.634765625
21.05712890625
15.56396484375
20.1416015625
33.87451171875
36.62109375
52.18505859375
75.98876953125
81.48193359375
79.65087890625
76.904296875
67.7490234375
67.7490234375
67.7490234375
70.49560546875
65.91796875
52.18505859375
53.1005859375
36.62109375
22.88818359375
15.56396484375
-7.32421875
-15.56396484375
-30.21240234375
-39.36767578125
-43.02978515625
-54.931640625
-53.1005859375
-56.7626953125
-67.7490234375
-76.904296875
-85.14404296875
-86.0595703125
-87.890625
-88.80615234375
-85.14404296875
-86.97509765625
-92.46826171875
-89.7216796875
-86.97509765625
-88.80615234375
-94.29931640625
-95.21484375
-93.3837890625
-88.80615234375
-86.97509765625
-90.63720703125
-93.3837890625
-92.46826171875
-87.890625
-92.46826171875
-95.21484375
-97.96142578125
-93.3837890625
-108.0322265625
-122.6806640625
-142.822265625
-162.04833984375
-171.20361328125
-163.87939453125
-151.9775390625
-122.6806640625
-77.81982421875
10.986328125
119.0185546875
260.009765625
438.53759765625
587.7685546875
722.35107421875
854.18701171875
950.3173828125
1018.06640625
1018.98193359375
899.0478515625
663.75732421875
451.35498046875
274.658203125
121.76513671875
30.21240234375
-39.36767578125
-86.0595703125
-130.0048828125
-148.3154296875
-143.73779296875
-143.73779296875
-132.75146484375
-117.1875
-104.3701171875
-87.890625
-86.0595703125
-93.3837890625
-92.46826171875
-87.890625
-91.552734375
-99.79248046875
-103.45458984375
-104.3701171875
-102.5390625
-108.0322265625
-99.79248046875
-108.94775390625
-101.62353515625
-105.28564453125
-104.3701171875
-106.201171875
-106.201171875
-99.79248046875
-99.79248046875
-97.0458984375
-99.79248046875
-95.21484375
-103.45458984375
-103.45458984375
-100.7080078125
-97.96142578125
-97.0458984375
-91.552734375
-93.3837890625
-95.21484375
-91.552734375
-95.21484375
-99.79248046875
-105.28564453125
-98.876953125
-103.45458984375
-100.7080078125
-100.7080078125
-101.62353515625
-93.3837890625
-94.29931640625
-102.5390625
-101.62353515625
-101.62353515625
-97.96142578125
-102.5390625
-100.7080078125
-96.13037109375
-100.7080078125
-95.21484375
-93.3837890625
-90.63720703125
-96.13037109375
-95.21484375
-97.0458984375
-104.3701171875
-106.201171875
-93.3837890625
-88.80615234375
-84.228515625
-86.97509765625
-96.13037109375
-92.46826171875
-100.7080078125
-93.3837890625
-91.552734375
-94.29931640625
-97.96142578125
-93.3837890625
-84.228515625
-86.0595703125
-86.0595703125
-86.0595703125
-91.552734375
-81.48193359375
-80.56640625
-96.13037109375
-89.7216796875
-88.80615234375
-76.904296875
-78.7353515625
-82.3974609375
-77.81982421875
-75.98876953125
-75.0732421875
-83.31298828125
-83.31298828125
-79.65087890625
-76.904296875
-74.15771484375
-77.81982421875
-73.2421875
-65.00244140625
-63.17138671875
-65.91796875
-67.7490234375
-71.4111328125
-71.4111328125
-69.580078125
-65.91796875
-58.59375
-61.34033203125
-66.83349609375
-61.34033203125
-51.26953125
-46.69189453125
-51.26953125
-43.02978515625
-43.9453125
-45.7763671875
-44.86083984375
-43.02978515625
-41.19873046875
-37.53662109375
-38.4521484375
-42.1142578125
-39.36767578125
-34.7900390625
-31.1279296875
-36.62109375
-38.4521484375
-37.53662109375
-37.53662109375
-42.1142578125
-36.62109375
-45.7763671875
-50.35400390625
-49.4384765625
-41.19873046875
-45.7763671875
-45.7763671875
-45.7763671875
-54.931640625
-48.52294921875
-53.1005859375
-51.26953125
-43.9453125
-45.7763671875
-47.607421875
-45.7763671875
-34.7900390625
-34.7900390625
-40.283203125
-39.36767578125
-38.4521484375
-44.86083984375
-43.9453125
-45.7763671875
-35.70556640625
-35.70556640625
-24.71923828125
-33.87451171875
-32.04345703125
-31.1279296875
-30.21240234375
-31.1279296875
-28.38134765625
-35.70556640625
-36.62109375
-16.4794921875
-24.71923828125
-30.21240234375
-19.22607421875
-25.634765625
-24.71923828125
-24.71923828125
-26.55029296875
-27.4658203125
-21.97265625
-19.22607421875
-21.05712890625
-24.71923828125
-23.8037109375
-25.634765625
-21.05712890625
-21.97265625
-23.8037109375
-20.1416015625
-22.88818359375
-20.1416015625
-21.97265625
-24.71923828125
-19.22607421875
-19.22607421875
-20.1416015625
-32.958984375
-30.21240234375
-36.62109375
-34.7900390625
-28.38134765625
-27.4658203125
-32.958984375
-43.02978515625
-37.53662109375
-33.87451171875
-43.02978515625
-43.02978515625
-55.84716796875
-46.69189453125
-34.7900390625
-41.19873046875
-43.9453125
-47.607421875
-52.18505859375
-50.35400390625
-55.84716796875
-55.84716796875
-49.4384765625
-44.86083984375
-43.02978515625
-62.255859375
-63.17138671875
-54.931640625
-65.00244140625
-56.7626953125
-61.34033203125
-72.32666015625
-66.83349609375
-57.67822265625
-39.36767578125
-20.1416015625
-11.90185546875
-1.8310546875
7.32421875
16.4794921875
21.97265625
10.986328125
22.88818359375
31.1279296875
40.283203125
54.931640625
58.59375
64.0869140625
72.32666015625
77.81982421875
78.7353515625
75.98876953125
68.66455078125
58.59375
59.50927734375
62.255859375
54.931640625
46.69189453125
31.1279296875
22.88818359375
0.91552734375
-20.1416015625
-36.62109375
-41.19873046875
-43.02978515625
-49.4384765625
-58.59375
-64.0869140625
-64.0869140625
-75.98876953125
-93.3837890625
-88.80615234375
-98.876953125
-93.3837890625
-91.552734375
-95.21484375
-97.96142578125
-97.96142578125
-99.79248046875
-98.876953125
-101.62353515625
-110.77880859375
-111.6943359375
-106.201171875
-113.525390625
-119.0185546875
-126.3427734375
-108.94775390625
-107.11669921875
-112.60986328125
-120.849609375
-115.3564453125
-114.44091796875
-119.0185546875
-127.25830078125
-151.06201171875
-183.10546875
-191.34521484375
-186.767578125
-176.69677734375
-154.72412109375
-120.849609375
-42.1142578125
71.4111328125
189.51416015625
353.3935546875
513.61083984375
658.26416015625
791.015625
902.7099609375
988.76953125
1018.98193359375
951.23291015625
733.33740234375
505.37109375
304.87060546875
130.92041015625
31.1279296875
-51.26953125
-96.13037109375
-135.498046875
-163.87939453125
-163.87939453125
-167.54150390625
-147.39990234375
-124.51171875
-120.849609375
-104.3701171875
-101.62353515625
-112.60986328125
-112.60986328125
-118.10302734375
-114.44091796875
-122.6806640625
-119.0185546875
-123.59619140625
-130.92041015625
-126.3427734375
-128.173828125
-123.59619140625
-125.42724609375
-127.25830078125
-129.08935546875
-128.173828125
-121.76513671875
-123.59619140625
-126.3427734375
-129.08935546875
-127.25830078125
-121.76513671875
-128.173828125
-128.173828125
-129.08935546875
-122.6806640625
-119.0185546875
-124.51171875
-121.76513671875
-120.849609375
-119.0185546875
-128.173828125
-134.58251953125
-135.498046875
-134.58251953125
-130.92041015625
-124.51171875
-125.42724609375
-134.58251953125
-129.08935546875
-130.92041015625
-129.08935546875
-138.24462890625
-126.3427734375
-121.76513671875
-126.3427734375
-126.3427734375
-131.8359375
-127.25830078125
-129.08935546875
-130.92041015625
-129.08935546875
-138.24462890625
-146.484375
-141.90673828125
-129.08935546875
-134.58251953125
-138.24462890625
-134.58251953125
-137.3291015625
-125.42724609375
-129.08935546875
-136.41357421875
-140.9912109375
-129.08935546875
-129.08935546875
-128.173828125
-132.75146484375
-138.24462890625
-127.25830078125
-132.75146484375
-126.3427734375
-129.08935546875
-122.6806640625
-118.10302734375
-122.6806640625
-126.3427734375
-126.3427734375
-130.0048828125
-130.92041015625
-128.173828125
-126.3427734375
-126.3427734375
-127.25830078125
-128.173828125
-129.08935546875
-122.6806640625
-121.76513671875
-125.42724609375
-120.849609375
-126.3427734375
-130.92041015625
-116.27197265625
-128.173828125
-123.59619140625
-121.76513671875
-117.1875
-119.93408203125
-111.6943359375
-108.94775390625
-107.11669921875
-106.201171875
-108.0322265625
-115.3564453125
-114.44091796875
-103.45458984375
-97.0458984375
-92.46826171875
-94.29931640625
-85.14404296875
-86.97509765625
-94.29931640625
-99.79248046875
-93.3837890625
-87.890625
-87.890625
-79.65087890625
-86.0595703125
-83.31298828125
-79.65087890625
-77.81982421875
-76.904296875
-83.31298828125
-87.890625
-82.3974609375
-82.3974609375
-88.80615234375
-91.552734375
-102.5390625
-109.86328125
-102.5390625
-99.79248046875
-96.13037109375
-94.29931640625
-98.876953125
-97.96142578125
-93.3837890625
-91.552734375
-95.21484375
-94.29931640625
-96.13037109375
-92.46826171875
-94.29931640625
-92.46826171875
-92.46826171875
-82.3974609375
-79.65087890625
-82.3974609375
-81.48193359375
-85.14404296875
-79.65087890625
-82.3974609375
-85.14404296875
-81.48193359375
-80.56640625
-82.3974609375
-77.81982421875
-79.65087890625
-83.31298828125
-83.31298828125
-81.48193359375
-73.2421875
-84.228515625
-89.7216796875
-81.48193359375
-70.49560546875
-68.66455078125
-77.81982421875
-76.904296875
-72.32666015625
-73.2421875
-83.31298828125
-80.56640625
-80.56640625
-77.81982421875
-69.580078125
-72.32666015625
-77.81982421875
-85.14404296875
-84.228515625
-76.904296875
-86.0595703125
-86.97509765625
-82.3974609375
-85.14404296875
-82.3974609375
-86.0595703125
-87.890625
-90.63720703125
-92.46826171875
-101.62353515625
-102.5390625
-94.29931640625
-96.13037109375
-99.79248046875
-86.0595703125
-95.21484375
-98.876953125
-103.45458984375
-96.13037109375
-93.3837890625
-108.0322265625
-100.7080078125
-105.28564453125
-109.86328125
-103.45458984375
-108.94775390625
-107.11669921875
-108.94775390625
-109.86328125
-117.1875
-117.1875
-117.1875
-118.10302734375
-121.76513671875
-122.6806640625
-115.3564453125
-115.3564453125
-124.51171875
-115.3564453125
-108.94775390625
-95.21484375
-88.80615234375
-67.7490234375
-55.84716796875
-45.7763671875
-31.1279296875
-24.71923828125
-39.36767578125
-24.71923828125
-21.97265625
-16.4794921875
-2.74658203125
12.8173828125
14.6484375
6.40869140625
16.4794921875
16.4794921875
10.986328125
9.1552734375
4.57763671875
2.74658203125
-6.40869140625
-19.22607421875
-28.38134765625
-40.283203125
-54.01611328125
-62.255859375
-86.97509765625
-89.7216796875
-105.28564453125
-116.27197265625
-119.0185546875
-122.6806640625
-122.6806640625
-124.51171875
-130.0048828125
-149.23095703125
-151.9775390625
-148.3154296875
-148.3154296875
-157.470703125
-162.9638671875
-162.04833984375
-163.87939453125
-164.794921875
-160.21728515625
-158.38623046875
-161.1328125
-171.20361328125
-167.54150390625
-162.04833984375
-173.9501953125
-166.6259765625
-157.470703125
-162.9638671875
-155.6396484375
-153.80859375
-162.9638671875
-169.37255859375
-168.45703125
-198.66943359375
-238.037109375
-238.95263671875
-236.2060546875
-227.05078125
-203.2470703125
-181.2744140625
-119.93408203125
-14.6484375
97.96142578125
251.77001953125
416.56494140625
563.04931640625
697.6318359375
833.1298828125
915.52734375
963.134765625
928.3447265625
750.732421875
500.79345703125
303.955078125
111.6943359375
-11.90185546875
-85.14404296875
-136.41357421875
-178.52783203125
-212.40234375
-228.8818359375
-234.375
-226.13525390625
-195.9228515625
-178.52783203125
-171.20361328125
-176.69677734375
-173.03466796875
-181.2744140625
-184.9365234375
-180.35888671875
-174.86572265625
-172.119140625
-170.2880859375
-187.68310546875
-194.091796875
-193.17626953125
-197.75390625
-188.5986328125
-192.2607421875
-195.9228515625
-194.091796875
-192.2607421875
-187.68310546875
-197.75390625
-197.75390625
-197.75390625
-191.34521484375
-195.00732421875
-189.51416015625
-193.17626953125
-190.4296875
-193.17626953125
-198.66943359375
-195.00732421875
-186.767578125
-189.51416015625
-183.10546875
-188.5986328125
-195.9228515625
-202.33154296875
-199.5849609375
-197.75390625
-186.767578125
-200.50048828125
-202.33154296875
-201.416015625
-191.34521484375
-191.34521484375
-197.75390625
-206.9091796875
-203.2470703125
-193.17626953125
-194.091796875
-193.17626953125
-199.5849609375
-206.9091796875
-206.9091796875
-196.83837890625
-212.40234375
-215.14892578125
-205.99365234375
-211.48681640625
-204.16259765625
-205.99365234375
-208.740234375
-198.66943359375
-202.33154296875
-209.65576171875
-214.2333984375
-207.82470703125
-210.5712890625
-205.99365234375
-202.33154296875
-206.9091796875
-211.48681640625
-212.40234375
-203.2470703125
-203.2470703125
-212.40234375
-211.48681640625
-212.40234375
-203.2470703125
-206.9091796875
-218.81103515625
-202.33154296875
-192.2607421875
-207.82470703125
-210.5712890625
-198.66943359375
-195.00732421875
-200.50048828125
-189.51416015625
-201.416015625
-216.064453125
-210.5712890625
-212.40234375
-210.5712890625
-198.66943359375
-205.078125
-210.5712890625
-205.99365234375
-200.50048828125
-199.5849609375
-205.078125
-205.078125
-205.078125
-190.4296875
-184.02099609375
-193.17626953125
-185.85205078125
-185.85205078125
-180.35888671875
-177.6123046875
-177.6123046875
-178.52783203125
-174.86572265625
-168.45703125
-168.45703125
-168.45703125
-172.119140625
-167.54150390625
-158.38623046875
-162.9638671875
-170.2880859375
-164.794921875
-156.55517578125
-167.54150390625
-168.45703125
-170.2880859375
-173.03466796875
-179.443359375
-165.71044921875
-171.20361328125
-186.767578125
-181.2744140625
-182.18994140625
-181.2744140625
-177.6123046875
-185.85205078125
-182.18994140625
-173.9501953125
-173.9501953125
-172.119140625
-178.52783203125
-185.85205078125
-180.35888671875
-178.52783203125
-173.9501953125
-176.69677734375
-174.86572265625
-167.54150390625
-168.45703125
-178.52783203125
-168.45703125
-165.71044921875
-152.89306640625
-157.470703125
-169.37255859375
-168.45703125
-168.45703125
-161.1328125
-156.55517578125
-149.23095703125
-159.3017578125
-151.9775390625
-151.9775390625
-157.470703125
-150.146484375
-160.21728515625
-164.794921875
-163.87939453125
-154.72412109375
-152.89306640625
-159.3017578125
-152.89306640625
-160.21728515625
-164.794921875
-155.6396484375
-162.04833984375
-157.470703125
-148.3154296875
-149.23095703125
-153.80859375
-150.146484375
-147.39990234375
-162.04833984375
-165.71044921875
-166.6259765625
-170.2880859375
-145.56884765625
-156.55517578125
-166.6259765625
-176.69677734375
-164.794921875
-166.6259765625
-173.9501953125
-173.03466796875
-173.03466796875
-188.5986328125
-178.52783203125
-184.02099609375
-177.6123046875
-173.9501953125
-184.02099609375
-185.85205078125
-181.2744140625
-184.9365234375
-176.69677734375
-178.52783203125
-181.2744140625
-170.2880859375
-167.54150390625
-180.35888671875
-182.18994140625
-160.21728515625
-146.484375
-140.07568359375
-131.8359375
-130.0048828125
-119.0185546875
-120.849609375
-122.6806640625
-112.60986328125
-101.62353515625
-94.29931640625
-76.904296875
-67.7490234375
-67.7490234375
-65.00244140625
-61.34033203125
-56.7626953125
-66.83349609375
-72.32666015625
-73.2421875
-79.65087890625
-82.3974609375
-91.552734375
-94.29931640625
-112.60986328125
-129.08935546875
-157.470703125
-165.71044921875
-165.71044921875
-188.5986328125
-197.75390625
-187.68310546875
-198.66943359375
-193.17626953125
-185.85205078125
-201.416015625
-207.82470703125
-216.064453125
-229.79736328125
-225.2197265625
-232.5439453125
-231.62841796875
-228.8818359375
-234.375
-230.712890625
-226.13525390625
-235.29052734375
-242.61474609375
-226.13525390625
-234.375
-233.45947265625
-238.95263671875
-239.8681640625
-231.62841796875
-238.037109375
-239.8681640625
-241.69921875
-238.95263671875
-226.13525390625
-237.12158203125
-257.26318359375
-277.40478515625
-290.22216796875
-293.88427734375
-308.53271484375
-286.56005859375
-256.34765625
-196.83837890625
-118.10302734375
0
140.9912109375
309.4482421875
467.83447265625
606.0791015625
730.5908203125
812.07275390625
879.82177734375
854.18701171875
694.88525390625
448.6083984375
270.99609375
106.201171875
-50.35400390625
-131.8359375
-167.54150390625
-205.99365234375
-263.671875
-281.06689453125
-294.7998046875
-294.7998046875
-293.88427734375
-276.4892578125
-260.92529296875
-242.61474609375
-243.5302734375
-245.361328125
-237.12158203125
-241.69921875
-256.34765625
-248.10791015625
-253.60107421875
-257.26318359375
-247.1923828125
-266.41845703125
-246.27685546875
-249.0234375
-255.43212890625
-253.60107421875
-247.1923828125
-258.1787109375
-261.8408203125
-261.8408203125
-257.26318359375
-239.8681640625
-249.0234375
-256.34765625
-253.60107421875
-246.27685546875
-244.44580078125
-255.43212890625
-248.10791015625
-252.685546875
-249.93896484375
-248.10791015625
-263.671875
-262.75634765625
-250.8544921875
-249.0234375
-248.10791015625
-245.361328125
-267.333984375
-257.26318359375
-245.361328125
-250.8544921875
-254.5166015625
-249.93896484375
-245.361328125
-255.43212890625
-255.43212890625
-248.10791015625
-252.685546875
-248.10791015625
-233.45947265625
-243.5302734375
-252.685546875
-255.43212890625
-256.34765625
-262.75634765625
-263.671875
-249.0234375
-252.685546875
-247.1923828125
-252.685546875
-258.1787109375
-256.34765625
-253.60107421875
-248.10791015625
-255.43212890625
-247.1923828125
-253.60107421875
-248.10791015625
-246.27685546875
-235.29052734375
-243.5302734375
-250.8544921875
-256.34765625
-253.60107421875
-247.1923828125
-254.5166015625
-257.26318359375
-244.44580078125
-246.27685546875
-240.78369140625
-244.44580078125
-251.77001953125
-247.1923828125
-254.5166015625
-250.8544921875
-249.0234375
-249.93896484375
-249.93896484375
-250.8544921875
-244.44580078125
-240.78369140625
-247.1923828125
-244.44580078125
-240.78369140625
-240.78369140625
-238.037109375
-242.61474609375
-239.8681640625
-235.29052734375
-236.2060546875
-239.8681640625
-233.45947265625
-221.5576171875
-217.8955078125
-218.81103515625
-221.5576171875
-212.40234375
-213.31787109375
-206.9091796875
-198.66943359375
-196.83837890625
-195.00732421875
-206.9091796875
-194.091796875
-202.33154296875
-208.740234375
-212.40234375
-210.5712890625
-196.83837890625
-195.00732421875
-198.66943359375
-202.33154296875
-196.83837890625
-214.2333984375
-216.064453125
-206.9091796875
-215.14892578125
-215.14892578125
-205.99365234375
-207.82470703125
-202.33154296875
-213.31787109375
-216.97998046875
-214.2333984375
-200.50048828125
-209.65576171875
-213.31787109375
-213.31787109375
-215.14892578125
-204.16259765625
-206.9091796875
-212.40234375
-208.740234375
-207.82470703125
-200.50048828125
-203.2470703125
-210.5712890625
-201.416015625
-202.33154296875
-195.9228515625
-186.767578125
-185.85205078125
-186.767578125
-193.17626953125
-195.9228515625
-186.767578125
-189.51416015625
-192.2607421875
-188.5986328125
-192.2607421875
-183.10546875
-187.68310546875
-173.03466796875
-166.6259765625
-173.03466796875
-180.35888671875
-175.78125
-180.35888671875
-173.9501953125
-165.71044921875
-173.03466796875
-178.52783203125
-172.119140625
-172.119140625
-171.20361328125
-173.03466796875
-175.78125
-179.443359375
-168.45703125
-173.03466796875
-179.443359375
-175.78125
-174.86572265625
-169.37255859375
-166.6259765625
-177.6123046875
-184.02099609375
-191.34521484375
-185.85205078125
-186.767578125
-176.69677734375
-179.443359375
-184.9365234375
-193.17626953125
-181.2744140625
-185.85205078125
-186.767578125
-185.85205078125
-195.9228515625
-190.4296875
-185.85205078125
-183.10546875
-173.9501953125
-149.23095703125
-137.3291015625
-138.24462890625
-130.0048828125
-128.173828125
-119.0185546875
-118.10302734375
-102.5390625
-103.45458984375
-88.80615234375
-72.32666015625
-57.67822265625
-55.84716796875
-48.52294921875
-50.35400390625
-49.4384765625
-53.1005859375
-66.83349609375
-72.32666015625
-68.66455078125
-80.56640625
-90.63720703125
-93.3837890625
-111.6943359375
-128.173828125
-143.73779296875
-153.80859375
-163.87939453125
-170.2880859375
-174.86572265625
-173.03466796875
-177.6123046875
-191.34521484375
-201.416015625
-207.82470703125
-213.31787109375
-216.97998046875
-210.5712890625
-217.8955078125
-222.47314453125
-223.388671875
-224.30419921875
-234.375
-232.5439453125
-233.45947265625
-220.64208984375
-226.13525390625
-227.96630859375
-220.64208984375
-216.97998046875
-224.30419921875
-216.97998046875
-216.97998046875
-227.96630859375
-229.79736328125
-227.05078125
-217.8955078125
-216.97998046875
-238.037109375
-255.43212890625
-270.99609375
-283.8134765625
-294.7998046875
-292.96875
-273.74267578125
-246.27685546875
-200.50048828125
-123.59619140625
-8.23974609375
125.42724609375
291.1376953125
440.36865234375
564.88037109375
677.490234375
771.78955078125
849.609375
856.93359375
736.083984375
497.13134765625
307.6171875
139.16015625
-12.8173828125
-97.0458984375
-146.484375
-200.50048828125
-242.61474609375
-277.40478515625
-286.56005859375
-291.1376953125
-281.982421875
-265.5029296875
-249.0234375
-240.78369140625
-239.8681640625
-238.95263671875
-221.5576171875
-230.712890625
-236.2060546875
-246.27685546875
-244.44580078125
-237.12158203125
-234.375
-239.8681640625
-242.61474609375
-233.45947265625
-243.5302734375
-247.1923828125
-236.2060546875
-242.61474609375
-246.27685546875
-238.95263671875
-234.375
-228.8818359375
-228.8818359375
-224.30419921875
-227.05078125
-225.2197265625
-228.8818359375
-235.29052734375
-237.12158203125
-236.2060546875
-227.05078125
-224.30419921875
-237.12158203125
-229.79736328125
-238.95263671875
-226.13525390625
-216.064453125
-232.5439453125
-228.8818359375
-227.96630859375
-231.62841796875
-228.8818359375
-223.388671875
-224.30419921875
-217.8955078125
-221.5576171875
-222.47314453125
-226.13525390625
-225.2197265625
-224.30419921875
-223.388671875
-222.47314453125
-227.96630859375
-231.62841796875
-228.8818359375
-216.064453125
-217.8955078125
-226.13525390625
-211.48681640625
-217.8955078125
-215.14892578125
-223.388671875
-227.05078125
-220.64208984375
-215.14892578125
-208.740234375
-215.14892578125
-217.8955078125
-221.5576171875
-216.97998046875
-208.740234375
-208.740234375
-215.14892578125
-215.14892578125
-209.65576171875
-200.50048828125
-192.2607421875
-208.740234375
-207.82470703125
-216.064453125
-215.14892578125
-216.97998046875
-216.064453125
-197.75390625
-205.078125
-206.9091796875
-203.2470703125
-208.740234375
-212.40234375
-207.82470703125
-194.091796875
-203.2470703125
-208.740234375
-199.5849609375
-195.9228515625
-204.16259765625
-195.9228515625
-195.9228515625
-187.68310546875
-196.83837890625
-195.00732421875
-185.85205078125
-185.85205078125
-179.443359375
-173.03466796875
-167.54150390625
-172.119140625
-179.443359375
-176.69677734375
-167.54150390625
-172.119140625
-167.54150390625
-162.9638671875
-159.3017578125
-161.1328125
-156.55517578125
-162.9638671875
-161.1328125
-152.89306640625
-158.38623046875
-157.470703125
-161.1328125
-163.87939453125
-166.6259765625
-159.3017578125
-150.146484375
-160.21728515625
-169.37255859375
-172.119140625
-173.9501953125
-164.794921875
-166.6259765625
-179.443359375
-170.2880859375
-169.37255859375
-162.9638671875
-166.6259765625
-166.6259765625
-163.87939453125
-165.71044921875
-166.6259765625
-165.71044921875
-172.119140625
-158.38623046875
-154.72412109375
-146.484375
-158.38623046875
-165.71044921875
-164.794921875
-156.55517578125
-146.484375
-155.6396484375
-151.06201171875
-144.6533203125
-138.24462890625
-139.16015625
-142.822265625
-154.72412109375
-139.16015625
-139.16015625
-141.90673828125
-134.58251953125
-141.90673828125
-131.8359375
-125.42724609375
-124.51171875
-130.92041015625
-131.8359375
-128.173828125
-124.51171875
-123.59619140625
-128.173828125
-123.59619140625
-122.6806640625
-121.76513671875
-119.0185546875
-117.1875
-119.0185546875
-122.6806640625
-121.76513671875
-114.44091796875
-119.0185546875
-118.10302734375
-113.525390625
-113.525390625
-114.44091796875
-125.42724609375
-134.58251953125
-127.25830078125
-126.3427734375
-122.6806640625
-123.59619140625
-134.58251953125
-133.6669921875
-129.08935546875
-128.173828125
-127.25830078125
-130.92041015625
-134.58251953125
-139.16015625
-142.822265625
-124.51171875
-130.92041015625
-131.8359375
-139.16015625
-136.41357421875
-136.41357421875
-138.24462890625
-140.9912109375
-131.8359375
-107.11669921875
-99.79248046875
-78.7353515625
-60.4248046875
-48.52294921875
-50.35400390625
-65.91796875
-63.17138671875
-52.18505859375
-36.62109375
-34.7900390625
-25.634765625
-4.57763671875
0
-2.74658203125
1.8310546875
-3.662109375
-8.23974609375
-19.22607421875
-11.90185546875
-19.22607421875
-26.55029296875
-27.4658203125
-40.283203125
-53.1005859375
-61.34033203125
-87.890625
-100.7080078125
-111.6943359375
-113.525390625
-125.42724609375
-126.3427734375
-133.6669921875
-140.07568359375
-137.3291015625
-150.146484375
-154.72412109375
-165.71044921875
-173.9501953125
-163.87939453125
-162.9638671875
-167.54150390625
-154.72412109375
-155.6396484375
-156.55517578125
-162.9638671875
-167.54150390625
-167.54150390625
-162.04833984375
-161.1328125
-154.72412109375
-163.87939453125
-164.794921875
-167.54150390625
-168.45703125
-162.04833984375
-164.794921875
-173.9501953125
-173.03466796875
-177.6123046875
-199.5849609375
-225.2197265625
-235.29052734375
-237.12158203125
-226.13525390625
-195.9228515625
-173.03466796875
-127.25830078125
-32.958984375
86.0595703125
235.29052734375
403.74755859375
543.8232421875
671.9970703125
793.76220703125
886.23046875
942.07763671875
915.52734375
760.80322265625
539.24560546875
350.64697265625
168.45703125
20.1416015625
-54.931640625
-112.60986328125
-158.38623046875
-198.66943359375
-206.9091796875
-207.82470703125
-203.2470703125
-188.5986328125
-176.69677734375
-160.21728515625
-159.3017578125
-153.80859375
-145.56884765625
-158.38623046875
-162.04833984375
-161.1328125
-163.87939453125
-160.21728515625
-173.03466796875
-173.03466796875
-167.54150390625
-158.38623046875
-167.54150390625
-168.45703125
-169.37255859375
-161.1328125
-158.38623046875
-158.38623046875
-162.9638671875
-171.20361328125
-165.71044921875
-163.87939453125
-165.71044921875
-174.86572265625
-167.54150390625
-164.794921875
-166.6259765625
-155.6396484375
-160.21728515625
-164.794921875
-156.55517578125
-157.470703125
-151.06201171875
-159.3017578125
-170.2880859375
-165.71044921875
-154.72412109375
-152.89306640625
-160.21728515625
-164.794921875
-151.06201171875
-155.6396484375
-149.23095703125
-149.23095703125
-152.89306640625
-146.484375
-148.3154296875
-155.6396484375
-157.470703125
-162.9638671875
-162.04833984375
-148.3154296875
-142.822265625
-152.89306640625
-151.9775390625
-152.89306640625
-152.89306640625
-149.23095703125
-145.56884765625
-151.9775390625
-159.3017578125
-150.146484375
-145.56884765625
-151.06201171875
-151.06201171875
-148.3154296875
-151.9775390625
-148.3154296875
-149.23095703125
-148.3154296875
-143.73779296875
-141.90673828125
-138.24462890625
-136.41357421875
-142.822265625
-135.498046875
-134.58251953125
-146.484375
-137.3291015625
-133.6669921875
-138.24462890625
-131.8359375
-128.173828125
-129.08935546875
-122.6806640625
-131.8359375
-129.08935546875
-127.25830078125
-130.92041015625
-127.25830078125
-131.8359375
-119.0185546875
-113.525390625
-115.3564453125
-121.76513671875
-116.27197265625
-115.3564453125
-120.849609375
-119.0185546875
-117.1875
-119.0185546875
-112.60986328125
-109.86328125
-114.44091796875
-116.27197265625
-109.86328125
-99.79248046875
-98.876953125
-94.29931640625
-101.62353515625
-95.21484375
-93.3837890625
-87.890625
-97.0458984375
-95.21484375
-89.7216796875
-87.890625
-89.7216796875
-87.890625
-89.7216796875
-86.97509765625
-77.81982421875
-75.98876953125
-86.97509765625
-86.0595703125
-96.13037109375
-99.79248046875
-93.3837890625
-100.7080078125
-100.7080078125
-97.96142578125
-88.80615234375
-88.80615234375
-93.3837890625
-91.552734375
-92.46826171875
-94.29931640625
-92.46826171875
-102.5390625
-94.29931640625
-91.552734375
-89.7216796875
-86.97509765625
-95.21484375
-88.80615234375
-89.7216796875
-91.552734375
-89.7216796875
-86.97509765625
-83.31298828125
-84.228515625
-84.228515625
-75.0732421875
-77.81982421875
-73.2421875
-74.15771484375
-75.98876953125
-73.2421875
-76.904296875
-79.65087890625
-68.66455078125
-59.50927734375
-63.17138671875
-73.2421875
-62.255859375
-65.91796875
-65.00244140625
-64.0869140625
-69.580078125
-65.00244140625
-59.50927734375
-57.67822265625
-48.52294921875
-53.1005859375
-57.67822265625
-55.84716796875
-63.17138671875
-65.91796875
-61.34033203125
-63.17138671875
-65.91796875
-60.4248046875
-62.255859375
-65.00244140625
-65.91796875
-57.67822265625
-52.18505859375
-54.931640625
-65.91796875
-63.17138671875
-69.580078125
-64.0869140625
-66.83349609375
-68.66455078125
-69.580078125
-69.580078125
-69.580078125
-72.32666015625
-72.32666015625
-78.7353515625
-79.65087890625
-69.580078125
-67.7490234375
-81.48193359375
-77.81982421875
-80.56640625
-75.0732421875
-76.904296875
-76.904296875
-77.81982421875
-76.904296875
-75.0732421875
-82.3974609375
-92.46826171875
-87.890625
-76.904296875
-73.2421875
-63.17138671875
-52.18505859375
-36.62109375
-25.634765625
-10.986328125
-0.91552734375
-7.32421875
-6.40869140625
-1.8310546875
17.39501953125
31.1279296875
42.1142578125
51.26953125
55.84716796875
62.255859375
56.7626953125
53.1005859375
48.52294921875
42.1142578125
32.958984375
40.283203125
32.04345703125
20.1416015625
4.57763671875
5.4931640625
-4.57763671875
-27.4658203125
-39.36767578125
-55.84716796875
-62.255859375
-64.0869140625
-71.4111328125
-80.56640625
-82.3974609375
-80.56640625
-95.21484375
-103.45458984375
-110.77880859375
-113.525390625
-106.201171875
-113.525390625
-120.849609375
-108.94775390625
-114.44091796875
-116.27197265625
-111.6943359375
-112.60986328125
-110.77880859375
-112.60986328125
-113.525390625
-117.1875
-122.6806640625
-108.0322265625
-112.60986328125
-117.1875
-109.86328125
-114.44091796875
-113.525390625
-104.3701171875
-119.0185546875
-134.58251953125
-162.9638671875
-188.5986328125
-198.66943359375
-183.10546875
-160.21728515625
-140.9912109375
-90.63720703125
19.22607421875
137.3291015625
287.4755859375
458.67919921875
605.16357421875
736.99951171875
858.7646484375
962.21923828125
1014.404296875
994.2626953125
830.38330078125
585.02197265625
382.6904296875
199.5849609375
63.17138671875
-10.07080078125
-66.83349609375
-110.77880859375
-159.3017578125
-154.72412109375
-154.72412109375
-141.90673828125
-126.3427734375
-119.93408203125
-114.44091796875
-109.86328125
-107.11669921875
-112.60986328125
-117.1875
-111.6943359375
-118.10302734375
-119.0185546875
-124.51171875
-131.8359375
-124.51171875
-122.6806640625
-116.27197265625
-111.6943359375
-119.0185546875
-115.3564453125
-119.93408203125
-124.51171875
-122.6806640625
-122.6806640625
-121.76513671875
-124.51171875
-124.51171875
-120.849609375
-122.6806640625
-119.93408203125
-125.42724609375
-122.6806640625
-118.10302734375
-119.0185546875
-124.51171875
-109.86328125
-104.3701171875
-106.201171875
-115.3564453125
-116.27197265625
-111.6943359375
-117.1875
-118.10302734375
-110.77880859375
-117.1875
-119.93408203125
-119.0185546875
-118.10302734375
-124.51171875
-125.42724609375
-117.1875
-107.11669921875
-114.44091796875
-120.849609375
-116.27197265625
-113.525390625
-113.525390625
-115.3564453125
-122.6806640625
-118.10302734375
-119.93408203125
-123.59619140625
-113.525390625
-122.6806640625
-119.93408203125
-107.11669921875
-106.201171875
-103.45458984375
-109.86328125
-109.86328125
-114.44091796875
-105.28564453125
-102.5390625
-103.45458984375
-108.94775390625
-105.28564453125
-104.3701171875
-104.3701171875
-108.0322265625
-102.5390625
-102.5390625
-103.45458984375
-106.201171875
-106.201171875
-95.21484375
-96.13037109375
-97.0458984375
-95.21484375
-107.11669921875
-98.876953125
-91.552734375
-86.0595703125
-86.0595703125
-92.46826171875
-91.552734375
-90.63720703125
-86.0595703125
-86.0595703125
-91.552734375
-90.63720703125
-83.31298828125
-88.80615234375
-80.56640625
-82.3974609375
-81.48193359375
-76.904296875
-74.15771484375
-69.580078125
-66.83349609375
-67.7490234375
-61.34033203125
-65.91796875
-72.32666015625
-66.83349609375
-68.66455078125
-61.34033203125
-54.931640625
-57.67822265625
-59.50927734375
-60.4248046875
-51.26953125
-34.7900390625
-50.35400390625
-64.0869140625
-50.35400390625
-43.9453125
-48.52294921875
-55.84716796875
-54.931640625
-61.34033203125
-65.91796875
-60.4248046875
-62.255859375
-61.34033203125
-60.4248046875
-60.4248046875
-57.67822265625
-43.9453125
-52.18505859375
-50.35400390625
-58.59375
-60.4248046875
-61.34033203125
-65.91796875
-67.7490234375
-60.4248046875
-57.67822265625
-56.7626953125
-54.01611328125
-58.59375
-53.1005859375
-52.18505859375
-53.1005859375
-54.931640625
-51.26953125
-43.02978515625
-43.9453125
-49.4384765625
-37.53662109375
-41.19873046875
-35.70556640625
-36.62109375
-36.62109375
-37.53662109375
-30.21240234375
-31.1279296875
-34.7900390625
-27.4658203125
-37.53662109375
-35.70556640625
-33.87451171875
-36.62109375
-34.7900390625
-34.7900390625
-44.86083984375
-34.7900390625
-25.634765625
-31.1279296875
-33.87451171875
-32.04345703125
-32.958984375
-29.296875
-32.958984375
-35.70556640625
-36.62109375
-30.21240234375
-32.958984375
-34.7900390625
-36.62109375
-42.1142578125
-37.53662109375
-32.958984375
-41.19873046875
-50.35400390625
-48.52294921875
-44.86083984375
-42.1142578125
-46.69189453125
-48.52294921875
-53.1005859375
-46.69189453125
-49.4384765625
-57.67822265625
-60.4248046875
-53.1005859375
-53.1005859375
-57.67822265625
-51.26953125
-61.34033203125
-56.7626953125
-53.1005859375
-54.01611328125
-56.7626953125
-56.7626953125
-52.18505859375
-55.84716796875
-59.50927734375
-56.7626953125
-67.7490234375
-65.91796875
-67.7490234375
-66.83349609375
-61.34033203125
-45.7763671875
-31.1279296875
-8.23974609375
1.8310546875
12.8173828125
15.56396484375
16.4794921875
20.1416015625
33.87451171875
35.70556640625
43.9453125
63.17138671875
78.7353515625
86.0595703125
87.890625
80.56640625
77.81982421875
72.32666015625
64.0869140625
60.4248046875
56.7626953125
51.26953125
43.9453125
38.4521484375
19.22607421875
-4.57763671875
-14.6484375
-29.296875
-35.70556640625
-46.69189453125
-54.01611328125
-52.18505859375
-53.1005859375
-53.1005859375
-65.91796875
-81.48193359375
-79.65087890625
-88.80615234375
-83.31298828125
-84.228515625
-88.80615234375
-88.80615234375
-87.890625
-87.890625
-91.552734375
-90.63720703125
-91.552734375
-93.3837890625
-91.552734375
-97.96142578125
-102.5390625
-99.79248046875
-93.3837890625
-92.46826171875
-97.0458984375
-103.45458984375
-97.0458984375
-96.13037109375
-100.7080078125
-119.0185546875
-133.6669921875
-156.55517578125
-172.119140625
-170.2880859375
-163.87939453125
-153.80859375
-119.93408203125
-61.34033203125
36.62109375
155.6396484375
303.03955078125
477.9052734375
638.12255859375
775.45166015625
894.47021484375
978.69873046875
1032.71484375
1010.7421875
840.4541015625
595.0927734375
399.169921875
216.064453125
72.32666015625
-2.74658203125
-63.17138671875
-113.525390625
-150.146484375
-152.89306640625
-153.80859375
-145.56884765625
-133.6669921875
-119.93408203125
-105.28564453125
-86.0595703125
-92.46826171875
-98.876953125
-105.28564453125
-96.13037109375
-97.0458984375
-103.45458984375
-108.0322265625
-111.6943359375
-110.77880859375
-104.3701171875
-109.86328125
-107.11669921875
-107.11669921875
-104.3701171875
-98.876953125
-113.525390625
-109.86328125
-108.0322265625
-106.201171875
-108.94775390625
-109.86328125
-112.60986328125
-108.0322265625
-115.3564453125
-111.6943359375
-110.77880859375
-109.86328125
-112.60986328125
-101.62353515625
-100.7080078125
-106.201171875
-108.0322265625
-97.0458984375
-107.11669921875
-104.3701171875
-108.0322265625
-111.6943359375
-108.94775390625
-107.11669921875
-104.3701171875
-107.11669921875
-105.28564453125
-108.0322265625
-105.28564453125
-103.45458984375
-106.201171875
-104.3701171875
-105.28564453125
-108.94775390625
-104.3701171875
-108.0322265625
-111.6943359375
-103.45458984375
-102.5390625
-101.62353515625
-103.45458984375
-110.77880859375
-107.11669921875
-106.201171875
-100.7080078125
-102.5390625
-102.5390625
-107.11669921875
-107.11669921875
-108.0322265625
-109.86328125
-103.45458984375
-104.3701171875
-106.201171875
-99.79248046875
-99.79248046875
-96.13037109375
-98.876953125
-93.3837890625
-100.7080078125
-98.876953125
-93.3837890625
-97.96142578125
-98.876953125
-95.21484375
-82.3974609375
-89.7216796875
-93.3837890625
-82.3974609375
-73.2421875
-85.14404296875
-89.7216796875
-90.63720703125
-91.552734375
-81.48193359375
-84.228515625
-87.890625
-86.97509765625
-89.7216796875
-75.98876953125
-78.7353515625
-85.14404296875
-84.228515625
-75.0732421875
-66.83349609375
-75.0732421875
-73.2421875
-69.580078125
-62.255859375
-59.50927734375
-62.255859375
-62.255859375
-51.26953125
-49.4384765625
-53.1005859375
-50.35400390625
-48.52294921875
-39.36767578125
-41.19873046875
-41.19873046875
-43.9453125
-46.69189453125
-38.4521484375
-37.53662109375
-36.62109375
-42.1142578125
-48.52294921875
-43.9453125
-44.86083984375
-44.86083984375
-47.607421875
-45.7763671875
-53.1005859375
-47.607421875
-50.35400390625
-47.607421875
-60.4248046875
-53.1005859375
-53.1005859375
-56.7626953125
-52.18505859375
-53.1005859375
-49.4384765625
-48.52294921875
-38.4521484375
-35.70556640625
-40.283203125
-46.69189453125
-49.4384765625
-44.86083984375
-39.36767578125
-49.4384765625
-42.1142578125
-34.7900390625
-28.38134765625
-29.296875
-33.87451171875
-27.4658203125
-25.634765625
-32.958984375
-33.87451171875
-24.71923828125
-29.296875
-25.634765625
-21.05712890625
-26.55029296875
-28.38134765625
-10.986328125
-3.662109375
-11.90185546875
-12.8173828125
-18.310546875
-21.97265625
-24.71923828125
-21.05712890625
-20.1416015625
-21.97265625
-16.4794921875
-21.05712890625
-30.21240234375
-25.634765625
-21.05712890625
-20.1416015625
-14.6484375
-12.8173828125
-21.05712890625
-33.87451171875
-18.310546875
-22.88818359375
-28.38134765625
-32.04345703125
-26.55029296875
-24.71923828125
-24.71923828125
-24.71923828125
-32.04345703125
-41.19873046875
-33.87451171875
-43.02978515625
-45.7763671875
-44.86083984375
-47.607421875
-36.62109375
-34.7900390625
-26.55029296875
-28.38134765625
-33.87451171875
-29.296875
-35.70556640625
-47.607421875
-43.9453125
-47.607421875
-35.70556640625
-43.02978515625
-47.607421875
-56.7626953125
-56.7626953125
-64.0869140625
-56.7626953125
-53.1005859375
-51.26953125
-55.84716796875
-54.01611328125
-51.26953125
-62.255859375
-63.17138671875
-64.0869140625
-58.59375
-65.00244140625
-64.0869140625
-63.17138671875
-61.34033203125
-58.59375
-57.67822265625
-58.59375
-65.00244140625
-57.67822265625
-30.21240234375
-16.4794921875
-3.662109375
-5.4931640625
-3.662109375
10.986328125
16.4794921875
25.634765625
24.71923828125
22.88818359375
45.7763671875
66.83349609375
83.31298828125
68.66455078125
75.0732421875
68.66455078125
64.0869140625
60.4248046875
55.84716796875
53.1005859375
52.18505859375
45.7763671875
40.283203125
25.634765625
15.56396484375
0.91552734375
-10.07080078125
-21.97265625
-26.55029296875
-39.36767578125
-48.52294921875
-48.52294921875
-54.931640625
-57.67822265625
-63.17138671875
-66.83349609375
-77.81982421875
-80.56640625
-82.3974609375
-86.0595703125
-84.228515625
-78.7353515625
-91.552734375
-86.97509765625
-89.7216796875
-87.890625
-86.0595703125
-87.890625
-95.21484375
-99.79248046875
-88.80615234375
-84.228515625
-77.81982421875
-84.228515625
-91.552734375
-91.552734375
-79.65087890625
-86.0595703125
-86.0595703125
-105.28564453125
-131.8359375
-154.72412109375
-168.45703125
-167.54150390625
-151.06201171875
-118.10302734375
-83.31298828125
-6.40869140625
97.96142578125
226.13525390625
388.18359375
552.978515625
699.462890625
810.24169921875
919.189453125
1001.5869140625
1035.46142578125
959.47265625
736.083984375
515.44189453125
333.251953125
153.80859375
55.84716796875
-24.71923828125
-66.83349609375
-108.0322265625
-132.75146484375
-131.8359375
-140.9912109375
-145.56884765625
-131.8359375
-103.45458984375
-86.0595703125
-102.5390625
-99.79248046875
-92.46826171875
-93.3837890625
-97.0458984375
-107.11669921875
-101.62353515625
-111.6943359375
-99.79248046875
-108.94775390625
-118.10302734375
-119.0185546875
-100.7080078125
-102.5390625
-98.876953125
-108.0322265625
-110.77880859375
-107.11669921875
-102.5390625
-107.11669921875
-117.1875
-102.5390625
-99.79248046875
-102.5390625
-95.21484375
-96.13037109375
-106.201171875
-119.93408203125
-119.93408203125
-112.60986328125
-111.6943359375
-110.77880859375
-114.44091796875
-109.86328125
-108.94775390625
-112.60986328125
-112.60986328125
-109.86328125
-97.0458984375
-114.44091796875
-122.6806640625
-108.0322265625
-104.3701171875
-107.11669921875
-104.3701171875
-107.11669921875
-111.6943359375
-112.60986328125
-115.3564453125
-109.86328125
-121.76513671875
-108.0322265625
-102.5390625
-101.62353515625
-109.86328125
-101.62353515625
-96.13037109375
-102.5390625
-104.3701171875
-114.44091796875
-108.94775390625
-111.6943359375
-100.7080078125
-103.45458984375
-108.94775390625
-113.525390625
-109.86328125
-106.201171875
-100.7080078125
-97.96142578125
-106.201171875
-116.27197265625
-117.1875
-97.0458984375
-105.28564453125
-103.45458984375
-100.7080078125
-100.7080078125
-100.7080078125
-100.7080078125
-112.60986328125
-101.62353515625
-102.5390625
-96.13037109375
-88.80615234375
-97.96142578125
-108.0322265625
-105.28564453125
-100.7080078125
-101.62353515625
-104.3701171875
-92.46826171875
-92.46826171875
-91.552734375
-96.13037109375
-97.0458984375
-96.13037109375
-78.7353515625
-79.65087890625
-93.3837890625
-97.96142578125
-93.3837890625
-87.890625
-84.228515625
-86.0595703125
-80.56640625
-79.65087890625
-74.15771484375
-75.98876953125
-71.4111328125
-75.98876953125
-74.15771484375
-68.66455078125
-64.0869140625
-56.7626953125
-63.17138671875
-60.4248046875
-58.59375
-61.34033203125
-62.255859375
-76.904296875
-60.4248046875
-47.607421875
-59.50927734375
-59.50927734375
-61.34033203125
-70.49560546875
-77.81982421875
-65.91796875
-68.66455078125
-75.98876953125
-74.15771484375
-73.2421875
-74.15771484375
-67.7490234375
-73.2421875
-74.15771484375
-73.2421875
-75.98876953125
-84.228515625
-84.228515625
-80.56640625
-79.65087890625
-72.32666015625
-65.91796875
-75.98876953125
-70.49560546875
-65.00244140625
-58.59375
-60.4248046875
-61.34033203125
-60.4248046875
-63.17138671875
-57.67822265625
-59.50927734375
-51.26953125
-47.607421875
-48.52294921875
-50.35400390625
-47.607421875
-50.35400390625
-58.59375
-62.255859375
-56.7626953125
-54.931640625
-54.931640625
-52.18505859375
-44.86083984375
-45.7763671875
-44.86083984375
-46.69189453125
-51.26953125
-49.4384765625
-45.7763671875
-37.53662109375
-43.02978515625
-35.70556640625
-42.1142578125
-42.1142578125
-49.4384765625
-49.4384765625
-43.02978515625
-38.4521484375
-42.1142578125
-43.9453125
-46.69189453125
-43.9453125
-45.7763671875
-47.607421875
-59.50927734375
-54.01611328125
-54.931640625
-62.255859375
-55.84716796875
-59.50927734375
-59.50927734375
-62.255859375
-55.84716796875
-58.59375
-59.50927734375
-66.83349609375
-64.0869140625
-69.580078125
-70.49560546875
-67.7490234375
-70.49560546875
-65.91796875
-58.59375
-43.9453125
-38.4521484375
-24.71923828125
-19.22607421875
-11.90185546875
-7.32421875
4.57763671875
-4.57763671875
1.8310546875
19.22607421875
28.38134765625
42.1142578125
46.69189453125
44.86083984375
53.1005859375
65.91796875
63.17138671875
54.931640625
47.607421875
49.4384765625
44.86083984375
33.87451171875
17.39501953125
29.296875
21.97265625
10.986328125
-8.23974609375
-42.1142578125
-50.35400390625
-53.1005859375
-58.59375
-71.4111328125
-69.580078125
-83.31298828125
-86.0595703125
-90.63720703125
-82.3974609375
-94.29931640625
-108.0322265625
-96.13037109375
-100.7080078125
-98.876953125
-101.62353515625
-103.45458984375
-106.201171875
-102.5390625
-108.94775390625
-106.201171875
-99.79248046875
-101.62353515625
-106.201171875
-116.27197265625
-110.77880859375
-113.525390625
-116.27197265625
-100.7080078125
-112.60986328125
-110.77880859375
-110.77880859375
-118.10302734375
-126.3427734375
-145.56884765625
-165.71044921875
-177.6123046875
-177.6123046875
-161.1328125
-143.73779296875
-105.28564453125
-42.1142578125
57.67822265625
173.03466796875
345.15380859375
498.96240234375
641.78466796875
767.2119140625
883.48388671875
977.783203125
1011.65771484375
945.73974609375
733.33740234375
504.45556640625
328.67431640625
151.06201171875
40.283203125
-17.39501953125
-56.7626953125
-113.525390625
-149.23095703125
-161.1328125
-168.45703125
-163.87939453125
-145.56884765625
-137.3291015625
-125.42724609375
-110.77880859375
-104.3701171875
-101.62353515625
-109.86328125
-112.60986328125
-112.60986328125
-116.27197265625
-114.44091796875
-121.76513671875
-117.1875
-110.77880859375
-112.60986328125
-114.44091796875
-123.59619140625
-125.42724609375
-122.6806640625
-117.1875
-121.76513671875
-119.93408203125
-111.6943359375
-110.77880859375
-105.28564453125
-106.201171875
-107.11669921875
-109.86328125
-110.77880859375
-112.60986328125
-122.6806640625
-114.44091796875
-121.76513671875
-123.59619140625
-107.11669921875
-107.11669921875
-112.60986328125
-111.6943359375
-115.3564453125
-110.77880859375
-110.77880859375
-114.44091796875
-108.0322265625
-103.45458984375
-110.77880859375
-109.86328125
-107.11669921875
-117.1875
-111.6943359375
-109.86328125
-106.201171875
-114.44091796875
-115.3564453125
-110.77880859375
-107.11669921875
-108.94775390625
-112.60986328125
-108.94775390625
-106.201171875
-103.45458984375
-101.62353515625
-106.201171875
-106.201171875
-110.77880859375
-99.79248046875
-98.876953125
-115.3564453125
-113.525390625
-94.29931640625
-105.28564453125
-97.0458984375
-98.876953125
-104.3701171875
-106.201171875
-106.201171875
-98.876953125
-108.94775390625
-107.11669921875
-105.28564453125
-99.79248046875
-105.28564453125
-105.28564453125
-98.876953125
-96.13037109375
-88.80615234375
-97.96142578125
-99.79248046875
-95.21484375
-102.5390625
-103.45458984375
-97.96142578125
-97.96142578125
-93.3837890625
-87.890625
-87.890625
-84.228515625
-93.3837890625
-101.62353515625
-97.0458984375
-93.3837890625
-90.63720703125
-87.890625
-83.31298828125
-83.31298828125
-74.15771484375
-72.32666015625
-77.81982421875
-76.904296875
-69.580078125
-69.580078125
-72.32666015625
-67.7490234375
-64.0869140625
-60.4248046875
-57.67822265625
-53.1005859375
-53.1005859375
-48.52294921875
-44.86083984375
-51.26953125
-43.02978515625
-46.69189453125
-54.01611328125
-55.84716796875
-49.4384765625
-47.607421875
-54.931640625
-56.7626953125
-62.255859375
-56.7626953125
-61.34033203125
-59.50927734375
-51.26953125
-43.02978515625
-53.1005859375
-58.59375
-57.67822265625
-60.4248046875
-64.0869140625
-65.91796875
-54.01611328125
-55.84716796875
-56.7626953125
-54.931640625
-47.607421875
-47.607421875
-53.1005859375
-50.35400390625
-48.52294921875
-49.4384765625
-50.35400390625
-48.52294921875
-40.283203125
-39.36767578125
-43.02978515625
-38.4521484375
-28.38134765625
-26.55029296875
-25.634765625
-35.70556640625
-33.87451171875
-35.70556640625
-24.71923828125
-16.4794921875
-14.6484375
-19.22607421875
-23.8037109375
-20.1416015625
-22.88818359375
-23.8037109375
-21.97265625
-21.05712890625
-14.6484375
-11.90185546875
-17.39501953125
-18.310546875
-16.4794921875
-12.8173828125
-17.39501953125
-14.6484375
-18.310546875
-20.1416015625
-23.8037109375
-10.07080078125
-3.662109375
-5.4931640625
-19.22607421875
-19.22607421875
-12.8173828125
-13.73291015625
-20.1416015625
-26.55029296875
-26.55029296875
-24.71923828125
-27.4658203125
-31.1279296875
-31.1279296875
-33.87451171875
-30.21240234375
-28.38134765625
-40.283203125
-43.02978515625
-38.4521484375
-35.70556640625
-29.296875
-33.87451171875
-38.4521484375
-35.70556640625
-35.70556640625
-44.86083984375
-40.283203125
-44.86083984375
-49.4384765625
-39.36767578125
-50.35400390625
-50.35400390625
-42.1142578125
-43.02978515625
-40.283203125
-43.9453125
-47.607421875
-54.931640625
-60.4248046875
-50.35400390625
-38.4521484375
-44.86083984375
-54.931640625
-27.4658203125
-12.8173828125
0.91552734375
7.32421875
12.8173828125
19.22607421875
19.22607421875
26.55029296875
39.36767578125
43.02978515625
56.7626953125
66.83349609375
76.904296875
86.0595703125
86.0595703125
86.0595703125
87.890625
79.65087890625
78.7353515625
74.15771484375
75.98876953125
67.7490234375
61.34033203125
49.4384765625
35.70556640625
20.1416015625
6.40869140625
-11.90185546875
-21.97265625
-32.04345703125
-33.87451171875
-37.53662109375
-38.4521484375
-41.19873046875
-55.84716796875
-65.91796875
-64.0869140625
-69.580078125
-64.0869140625
-74.15771484375
-73.2421875
-78.7353515625
-70.49560546875
-76.904296875
-81.48193359375
-77.81982421875
-78.7353515625
-78.7353515625
-88.80615234375
-76.904296875
-69.580078125
-65.91796875
-73.2421875
-75.98876953125
-79.65087890625
-78.7353515625
-75.98876953125
-75.0732421875
-74.15771484375
-91.552734375
-114.44091796875
-130.92041015625
-138.24462890625
-146.484375
-140.9912109375
-113.525390625
-87.890625
-43.02978515625
50.35400390625
163.87939453125
315.85693359375
479.736328125
617.98095703125
759.8876953125
875.244140625
965.88134765625
1037.29248046875
1028.13720703125
871.58203125
633.544921875
442.19970703125
263.671875
113.525390625
32.04345703125
-44.86083984375
-85.14404296875
-118.10302734375
-128.173828125
-135.498046875
-125.42724609375
-107.11669921875
-90.63720703125
-80.56640625
-73.2421875
-72.32666015625
-74.15771484375
-78.7353515625
-78.7353515625
-82.3974609375
-80.56640625
-85.14404296875
-86.0595703125
-86.0595703125
-90.63720703125
-96.13037109375
-91.552734375
-88.80615234375
-86.97509765625
-78.7353515625
-78.7353515625
-80.56640625
-85.14404296875
-89.7216796875
-92.46826171875
-94.29931640625
-93.3837890625
-91.552734375
-80.56640625
-90.63720703125
-90.63720703125
-75.98876953125
-82.3974609375
-82.3974609375
-83.31298828125
-86.97509765625
-83.31298828125
-75.98876953125
-76.904296875
-83.31298828125
-88.80615234375
-86.0595703125
-86.0595703125
-85.14404296875
-82.3974609375
-91.552734375
-84.228515625
-80.56640625
-77.81982421875
-80.56640625
-91.552734375
-86.0595703125
-86.0595703125
-85.14404296875
-89.7216796875
-94.29931640625
-91.552734375
-78.7353515625
-70.49560546875
-78.7353515625
-86.97509765625
-84.228515625
-87.890625
-91.552734375
-93.3837890625
-91.552734375
-82.3974609375
-82.3974609375
-80.56640625
-82.3974609375
-83.31298828125
-89.7216796875
-83.31298828125
-84.228515625
-78.7353515625
-85.14404296875
-81.48193359375
-72.32666015625
-70.49560546875
-72.32666015625
-77.81982421875
-75.0732421875
-72.32666015625
-63.17138671875
-68.66455078125
-85.14404296875
-74.15771484375
-68.66455078125
-71.4111328125
-68.66455078125
-65.91796875
-55.84716796875
-54.931640625
-56.7626953125
-64.0869140625
-64.0869140625
-65.91796875
-66.83349609375
-58.59375
-61.34033203125
-57.67822265625
-55.84716796875
-60.4248046875
-56.7626953125
-53.1005859375
-48.52294921875
-42.1142578125
-36.62109375
-34.7900390625
-35.70556640625
-40.283203125
-36.62109375
-31.1279296875
-24.71923828125
-19.22607421875
-24.71923828125
-11.90185546875
-12.8173828125
-21.05712890625
-25.634765625
-21.05712890625
-20.1416015625
-7.32421875
-12.8173828125
-14.6484375
-21.97265625
-13.73291015625
-12.8173828125
-10.986328125
-14.6484375
-21.97265625
-18.310546875
-22.88818359375
-26.55029296875
-34.7900390625
-35.70556640625
-29.296875
-26.55029296875
-18.310546875
-22.88818359375
-31.1279296875
-28.38134765625
-29.296875
-28.38134765625
-32.04345703125
-26.55029296875
-21.05712890625
-22.88818359375
0
-7.32421875
-20.1416015625
-14.6484375
-11.90185546875
-11.90185546875
-13.73291015625
-16.4794921875
-10.07080078125
-13.73291015625
-6.40869140625
-2.74658203125
-7.32421875
-3.662109375
-3.662109375
-1.8310546875
-6.40869140625
-6.40869140625
-0.91552734375
3.662109375
9.1552734375
0
3.662109375
1.8310546875
3.662109375
10.07080078125
5.4931640625
2.74658203125
10.986328125
12.8173828125
10.07080078125
2.74658203125
13.73291015625
1.8310546875
-1.8310546875
0.91552734375
9.1552734375
0
3.662109375
7.32421875
4.57763671875
1.8310546875
4.57763671875
-2.74658203125
6.40869140625
2.74658203125
-10.07080078125
-2.74658203125
-4.57763671875
-5.4931640625
-4.57763671875
-12.8173828125
-11.90185546875
-10.986328125
-9.1552734375
-14.6484375
-13.73291015625
-13.73291015625
-20.1416015625
-11.90185546875
-11.90185546875
-17.39501953125
-23.8037109375
-22.88818359375
-14.6484375
-15.56396484375
-13.73291015625
-19.22607421875
-28.38134765625
-27.4658203125
-23.8037109375
-37.53662109375
-36.62109375
-24.71923828125
-31.1279296875
-31.1279296875
-30.21240234375
-37.53662109375
-36.62109375
-24.71923828125
-25.634765625
-28.38134765625
-16.4794921875
2.74658203125
15.56396484375
25.634765625
21.05712890625
35.70556640625
43.9453125
50.35400390625
57.67822265625
65.00244140625
77.81982421875
95.21484375
108.94775390625
108.94775390625
105.28564453125
104.3701171875
106.201171875
108.0322265625
99.79248046875
95.21484375
91.552734375
84.228515625
68.66455078125
67.7490234375
62.255859375
43.02978515625
21.97265625
12.8173828125
3.662109375
-12.8173828125
-15.56396484375
-19.22607421875
-17.39501953125
-29.296875
-34.7900390625
-42.1142578125
-48.52294921875
-48.52294921875
-53.1005859375
-64.0869140625
-65.91796875
-55.84716796875
-58.59375
-64.0869140625
-67.7490234375
-63.17138671875
-65.00244140625
-52.18505859375
-53.1005859375
-57.67822265625
-64.0869140625
-65.91796875
-68.66455078125
-68.66455078125
-65.91796875
-75.98876953125
-73.2421875
-68.66455078125
-58.59375
-73.2421875
-85.14404296875
-105.28564453125
-130.92041015625
-140.9912109375
-140.07568359375
-123.59619140625
-98.876953125
-44.86083984375
38.4521484375
145.56884765625
281.982421875
458.67919921875
610.65673828125
744.32373046875
869.7509765625
976.86767578125
1048.27880859375
1059.26513671875
946.6552734375
713.19580078125
501.708984375
325.927734375
162.04833984375
61.34033203125
-10.986328125
-54.01611328125
-97.0458984375
-114.44091796875
-108.94775390625
-117.1875
-105.28564453125
-90.63720703125
-69.580078125
-65.00244140625
-68.66455078125
-64.0869140625
-67.7490234375
-68.66455078125
-71.4111328125
-75.98876953125
-73.2421875
-79.65087890625
-74.15771484375
-72.32666015625
-80.56640625
-86.0595703125
-79.65087890625
-81.48193359375
-75.0732421875
-75.98876953125
-72.32666015625
-79.65087890625
-71.4111328125
-74.15771484375
-78.7353515625
-66.83349609375
-71.4111328125
-74.15771484375
-77.81982421875
-77.81982421875
-86.0595703125
-74.15771484375
-66.83349609375
-75.0732421875
-74.15771484375
-67.7490234375
-74.15771484375
-70.49560546875
-66.83349609375
-75.98876953125
-77.81982421875
-70.49560546875
-67.7490234375
-76.904296875
-64.0869140625
-71.4111328125
-64.0869140625
-72.32666015625
-70.49560546875
-71.4111328125
-75.98876953125
-69.580078125
-68.66455078125
-75.0732421875
-75.98876953125
-76.904296875
-75.98876953125
-73.2421875
-74.15771484375
-75.98876953125
-72.32666015625
-76.904296875
-83.31298828125
-73.2421875
-79.65087890625
-84.228515625
-76.904296875
-82.3974609375
-81.48193359375
-85.14404296875
-67.7490234375
-70.49560546875
-75.0732421875
-83.31298828125
-86.0595703125
-83.31298828125
-72.32666015625
-75.0732421875
-75.98876953125
-73.2421875
-75.0732421875
-79.65087890625
-82.3974609375
-81.48193359375
-86.0595703125
-78.7353515625
-80.56640625
-70.49560546875
-67.7490234375
-75.98876953125
-79.65087890625
-66.83349609375
-69.580078125
-69.580078125
-69.580078125
-67.7490234375
-74.15771484375
-64.0869140625
-55.84716796875
-65.00244140625
-68.66455078125
-57.67822265625
-54.931640625
-56.7626953125
-58.59375
-55.84716796875
-60.4248046875
-47.607421875
-46.69189453125
-45.7763671875
-43.02978515625
-45.7763671875
-38.4521484375
-40.283203125
-43.9453125
-45.7763671875
-32.958984375
-32.04345703125
-24.71923828125
-23.8037109375
-32.04345703125
-36.62109375
-27.4658203125
-32.04345703125
-33.87451171875
-31.1279296875
-27.4658203125
-37.53662109375
-28.38134765625
-32.958984375
-34.7900390625
-36.62109375
-38.4521484375
-43.9453125
-39.36767578125
-48.52294921875
-47.607421875
-43.02978515625
-51.26953125
-49.4384765625
-48.52294921875
-44.86083984375
-45.7763671875
-44.86083984375
-46.69189453125
-42.1142578125
-36.62109375
-37.53662109375
-25.634765625
-32.04345703125
-35.70556640625
-25.634765625
-27.4658203125
-29.296875
-30.21240234375
-46.69189453125
-43.02978515625
-26.55029296875
-19.22607421875
-26.55029296875
-10.986328125
-12.8173828125
-16.4794921875
-14.6484375
-20.1416015625
-20.1416015625
-26.55029296875
-29.296875
-29.296875
-29.296875
-19.22607421875
-27.4658203125
-26.55029296875
-15.56396484375
-21.97265625
-27.4658203125
-14.6484375
-14.6484375
-24.71923828125
-22.88818359375
-30.21240234375
-20.1416015625
-17.39501953125
-27.4658203125
-8.23974609375
-8.23974609375
-27.4658203125
-43.9453125
-25.634765625
-26.55029296875
-23.8037109375
-32.958984375
-30.21240234375
-37.53662109375
-47.607421875
-34.7900390625
-42.1142578125
-46.69189453125
-38.4521484375
-49.4384765625
-43.9453125
-46.69189453125
-43.02978515625
-44.86083984375
-51.26953125
-43.02978515625
-55.84716796875
-60.4248046875
-53.1005859375
-59.50927734375
-54.931640625
-58.59375
-63.17138671875
-67.7490234375
-65.00244140625
-65.00244140625
-70.49560546875
-64.0869140625
-54.01611328125
-63.17138671875
-61.34033203125
-68.66455078125
-65.91796875
-51.26953125
-41.19873046875
-23.8037109375
-13.73291015625
-1.8310546875
5.4931640625
-1.8310546875
-3.662109375
10.986328125
25.634765625
31.1279296875
30.21240234375
48.52294921875
53.1005859375
63.17138671875
62.255859375
64.0869140625
57.67822265625
60.4248046875
46.69189453125
43.9453125
22.88818359375
18.310546875
31.1279296875
23.8037109375
-0.91552734375
-30.21240234375
-46.69189453125
-44.86083984375
-61.34033203125
-67.7490234375
-70.49560546875
-73.2421875
-70.49560546875
-62.255859375
-73.2421875
-82.3974609375
-95.21484375
-97.0458984375
-92.46826171875
-100.7080078125
-112.60986328125
-107.11669921875
-96.13037109375
-101.62353515625
-96.13037109375
-97.96142578125
-119.93408203125
-111.6943359375
-96.13037109375
-97.0458984375
-108.94775390625
-109.86328125
-97.96142578125
-107.11669921875
-97.0458984375
-112.60986328125
-105.28564453125
-88.80615234375
-103.45458984375
-130.0048828125
-139.16015625
-159.3017578125
-169.37255859375
-162.04833984375
-144.6533203125
-136.41357421875
-104.3701171875
-43.9453125
50.35400390625
194.091796875
352.47802734375
510.8642578125
666.50390625
796.5087890625
901.79443359375
973.20556640625
1011.65771484375
954.89501953125
741.5771484375
515.44189453125
346.0693359375
163.87939453125
51.26953125
-15.56396484375
-65.00244140625
-121.76513671875
-140.07568359375
-155.6396484375
-165.71044921875
-170.2880859375
-162.9638671875
-130.92041015625
-116.27197265625
-105.28564453125
-104.3701171875
-102.5390625
-110.77880859375
-107.11669921875
-126.3427734375
-115.3564453125
-114.44091796875
-117.1875
-135.498046875
-111.6943359375
-111.6943359375
-106.201171875
-109.86328125
-112.60986328125
-113.525390625
-108.94775390625
-128.173828125
-130.0048828125
-115.3564453125
-115.3564453125
-114.44091796875
-117.1875
-120.849609375
-116.27197265625
-114.44091796875
-119.0185546875
-124.51171875
-138.24462890625
-123.59619140625
-109.86328125
-113.525390625
-117.1875
-118.10302734375
-119.0185546875
-132.75146484375
-128.173828125
-125.42724609375
-112.60986328125
-117.1875
-108.94775390625
-117.1875
-122.6806640625
-121.76513671875
-125.42724609375
-124.51171875
-124.51171875
-122.6806640625
-115.3564453125
-122.6806640625
-122.6806640625
-105.28564453125
-104.3701171875
-119.93408203125
-129.08935546875
-117.1875
-119.0185546875
-134.58251953125
-126.3427734375
-115.3564453125
-121.76513671875
-108.94775390625
-124.51171875
-119.0185546875
-119.93408203125
-116.27197265625
-119.0185546875
-124.51171875
-125.42724609375
-127.25830078125
-112.60986328125
-104.3701171875
-119.93408203125
-115.3564453125
-120.849609375
-115.3564453125
-114.44091796875
-121.76513671875
-122.6806640625
-117.1875
-98.876953125
-106.201171875
-110.77880859375
-110.77880859375
-115.3564453125
-115.3564453125
-115.3564453125
-108.0322265625
-104.3701171875
-112.60986328125
-110.77880859375
-107.11669921875
-113.525390625
-104.3701171875
-108.94775390625
-103.45458984375
-105.28564453125
-114.44091796875
-111.6943359375
-112.60986328125
-101.62353515625
-86.97509765625
-102.5390625
-97.0458984375
-94.29931640625
-98.876953125
-98.876953125
-98.876953125
-87.890625
-88.80615234375
-87.890625
-86.0595703125
-77.81982421875
-77.81982421875
-78.7353515625
-72.32666015625
-72.32666015625
-72.32666015625
-68.66455078125
-79.65087890625
-79.65087890625
-80.56640625
-88.80615234375
-88.80615234375
-80.56640625
-82.3974609375
-90.63720703125
-98.876953125
-94.29931640625
-84.228515625
-94.29931640625
-94.29931640625
-97.96142578125
-99.79248046875
-86.0595703125
-96.13037109375
-100.7080078125
-104.3701171875
-95.21484375
-92.46826171875
-86.97509765625
-95.21484375
-107.11669921875
-97.0458984375
-97.96142578125
-86.97509765625
-89.7216796875
-84.228515625
-89.7216796875
-82.3974609375
-65.91796875
-68.66455078125
-79.65087890625
-78.7353515625
-75.0732421875
-82.3974609375
-87.890625
-88.80615234375
-81.48193359375
-80.56640625
-75.98876953125
-73.2421875
-76.904296875
-79.65087890625
-67.7490234375
-61.34033203125
-59.50927734375
-68.66455078125
-53.1005859375
-60.4248046875
-61.34033203125
-54.931640625
-52.18505859375
-57.67822265625
-58.59375
-50.35400390625
-66.83349609375
-74.15771484375
-65.91796875
-54.01611328125
-54.01611328125
-53.1005859375
-59.50927734375
-63.17138671875
-54.01611328125
-54.931640625
-54.931640625
-55.84716796875
-63.17138671875
-61.34033203125
-55.84716796875
-62.255859375
-71.4111328125
-82.3974609375
-67.7490234375
-65.00244140625
-67.7490234375
-67.7490234375
-80.56640625
-77.81982421875
-71.4111328125
-79.65087890625
-83.31298828125
-86.0595703125
-78.7353515625
-87.890625
-87.890625
-75.98876953125
-58.59375
-45.7763671875
-36.62109375
-21.05712890625
-10.986328125
-8.23974609375
-7.32421875
-13.73291015625
-10.986328125
-7.32421875
10.986328125
24.71923828125
50.35400390625
40.283203125
55.84716796875
57.67822265625
55.84716796875
46.69189453125
36.62109375
36.62109375
30.21240234375
21.97265625
23.8037109375
14.6484375
5.4931640625
-8.23974609375
-39.36767578125
-48.52294921875
-48.52294921875
-68.66455078125
-67.7490234375
-79.65087890625
-86.0595703125
-75.0732421875
-80.56640625
-86.97509765625
-103.45458984375
-101.62353515625
-106.201171875
-113.525390625
-112.60986328125
-103.45458984375
-105.28564453125
-112.60986328125
-113.525390625
-120.849609375
-115.3564453125
-119.0185546875
-121.76513671875
-129.08935546875
-120.849609375
-113.525390625
-116.27197265625
-113.525390625
-119.0185546875
-121.76513671875
-116.27197265625
-124.51171875
-123.59619140625
-124.51171875
-135.498046875
-155.6396484375
-161.1328125
-178.52783203125
-183.10546875
-162.9638671875
-142.822265625
-104.3701171875
-43.9453125
54.931640625
162.9638671875
329.58984375
492.5537109375
620.7275390625
736.99951171875
850.52490234375
936.58447265625
969.54345703125
908.203125
714.111328125
498.96240234375
335.0830078125
164.794921875
40.283203125
-27.4658203125
-75.98876953125
-121.76513671875
-156.55517578125
-165.71044921875
-184.9365234375
-174.86572265625
-149.23095703125
-130.0048828125
-125.42724609375
-111.6943359375
-108.94775390625
-120.849609375
-120.849609375
-119.0185546875
-127.25830078125
-130.92041015625
-126.3427734375
-127.25830078125
-129.08935546875
-137.3291015625
-134.58251953125
-124.51171875
-121.76513671875
-130.92041015625
-123.59619140625
-126.3427734375
-121.76513671875
-128.173828125
-114.44091796875
-125.42724609375
-139.16015625
-120.849609375
-122.6806640625
-130.0048828125
-127.25830078125
-130.92041015625
-137.3291015625
-122.6806640625
-121.76513671875
-128.173828125
-128.173828125
-126.3427734375
-120.849609375
-119.0185546875
-112.60986328125
-105.28564453125
-111.6943359375
-112.60986328125
-119.93408203125
-121.76513671875
-124.51171875
-119.0185546875
-119.93408203125
-113.525390625
-107.11669921875
-111.6943359375
-113.525390625
-102.5390625
-112.60986328125
-118.10302734375
-119.93408203125
-118.10302734375
-110.77880859375
-109.86328125
-111.6943359375
-111.6943359375
-105.28564453125
-115.3564453125
-110.77880859375
-100.7080078125
-106.201171875
-103.45458984375
-104.3701171875
-111.6943359375
-113.525390625
-103.45458984375
-97.96142578125
-97.0458984375
-104.3701171875
-103.45458984375
-98.876953125
-98.876953125
-106.201171875
-105.28564453125
-102.5390625
-86.97509765625
-97.96142578125
-92.46826171875
-91.552734375
-101.62353515625
-103.45458984375
-91.552734375
-96.13037109375
-100.7080078125
-97.96142578125
-98.876953125
-100.7080078125
-90.63720703125
-89.7216796875
-88.80615234375
-96.13037109375
-93.3837890625
-93.3837890625
-95.21484375
-96.13037109375
-93.3837890625
-87.890625
-78.7353515625
-80.56640625
-83.31298828125
-85.14404296875
-79.65087890625
-76.904296875
-76.904296875
-70.49560546875
-64.0869140625
-63.17138671875
-60.4248046875
-60.4248046875
-65.91796875
-61.34033203125
-53.1005859375
-62.255859375
-61.34033203125
-62.255859375
-54.01611328125
-53.1005859375
-54.01611328125
-54.01611328125
-55.84716796875
-48.52294921875
-49.4384765625
-55.84716796875
-65.00244140625
-62.255859375
-64.0869140625
-61.34033203125
-58.59375
-67.7490234375
-69.580078125
-55.84716796875
-52.18505859375
-57.67822265625
-61.34033203125
-66.83349609375
-60.4248046875
-66.83349609375
-66.83349609375
-61.34033203125
-61.34033203125
-63.17138671875
-61.34033203125
-61.34033203125
-60.4248046875
-58.59375
-54.931640625
-54.931640625
-51.26953125
-43.02978515625
-46.69189453125
-54.01611328125
-46.69189453125
-42.1142578125
-43.9453125
-52.18505859375
-42.1142578125
-40.283203125
-38.4521484375
-33.87451171875
-23.8037109375
-28.38134765625
-26.55029296875
-30.21240234375
-29.296875
-43.9453125
-24.71923828125
-27.4658203125
-25.634765625
-25.634765625
-24.71923828125
-29.296875
-25.634765625
-16.4794921875
-24.71923828125
-22.88818359375
-24.71923828125
-20.1416015625
-26.55029296875
-21.97265625
-15.56396484375
-20.1416015625
-18.310546875
-30.21240234375
-20.1416015625
-24.71923828125
-18.310546875
-18.310546875
-25.634765625
-29.296875
-27.4658203125
-26.55029296875
-28.38134765625
-20.1416015625
-19.22607421875
-21.97265625
-29.296875
-36.62109375
-30.21240234375
-29.296875
-35.70556640625
-34.7900390625
-30.21240234375
-30.21240234375
-43.9453125
-42.1142578125
-42.1142578125
-43.02978515625
-47.607421875
-39.36767578125
-38.4521484375
-46.69189453125
-39.36767578125
-44.86083984375
-45.7763671875
-41.19873046875
-39.36767578125
-33.87451171875
-39.36767578125
-43.9453125
-45.7763671875
-37.53662109375
-13.73291015625
10.07080078125
10.07080078125
13.73291015625
30.21240234375
42.1142578125
43.9453125
52.18505859375
54.01611328125
64.0869140625
79.65087890625
90.63720703125
87.890625
89.7216796875
96.13037109375
92.46826171875
86.97509765625
77.81982421875
72.32666015625
72.32666015625
70.49560546875
62.255859375
51.26953125
28.38134765625
20.1416015625
5.4931640625
-7.32421875
-14.6484375
-29.296875
-30.21240234375
-33.87451171875
-35.70556640625
-41.19873046875
-55.84716796875
-55.84716796875
-63.17138671875
-63.17138671875
-59.50927734375
-56.7626953125
-62.255859375
-74.15771484375
-65.91796875
-75.98876953125
-83.31298828125
-75.0732421875
-71.4111328125
-70.49560546875
-75.98876953125
-79.65087890625
-75.0732421875
-70.49560546875
-77.81982421875
-78.7353515625
-74.15771484375
-72.32666015625
-65.00244140625
-62.255859375
-66.83349609375
-80.56640625
-104.3701171875
-118.10302734375
-136.41357421875
-146.484375
-132.75146484375
-114.44091796875
-86.0595703125
-37.53662109375
62.255859375
157.470703125
307.6171875
472.412109375
617.0654296875
747.0703125
869.7509765625
970.458984375
1029.96826171875
1020.81298828125
894.47021484375
655.517578125
454.1015625
282.89794921875
131.8359375
41.19873046875
-32.958984375
-69.580078125
-103.45458984375
-114.44091796875
-125.42724609375
-121.76513671875
-100.7080078125
-82.3974609375
-67.7490234375
-60.4248046875
-59.50927734375
-70.49560546875
-72.32666015625
-81.48193359375
-75.0732421875
-76.904296875
-81.48193359375
-77.81982421875
-78.7353515625
-83.31298828125
-77.81982421875
-81.48193359375
-80.56640625
-76.904296875
-77.81982421875
-83.31298828125
-76.904296875
-76.904296875
-76.904296875
-84.228515625
-79.65087890625
-81.48193359375
-82.3974609375
-65.00244140625
-63.17138671875
-71.4111328125
-80.56640625
-69.580078125
-68.66455078125
-82.3974609375
-82.3974609375
-78.7353515625
-74.15771484375
-77.81982421875
-76.904296875
-68.66455078125
-80.56640625
-80.56640625
-71.4111328125
-76.904296875
-68.66455078125
-74.15771484375
-82.3974609375
-65.00244140625
-73.2421875
-80.56640625
-68.66455078125
-66.83349609375
-64.0869140625
-67.7490234375
-70.49560546875
-70.49560546875
-61.34033203125
-60.4248046875
-64.0869140625
-69.580078125
-74.15771484375
-67.7490234375
-72.32666015625
-70.49560546875
-75.98876953125
-70.49560546875
-65.00244140625
-67.7490234375
-63.17138671875
-66.83349609375
-54.01611328125
-58.59375
-61.34033203125
-70.49560546875
-60.4248046875
-59.50927734375
-54.931640625
-55.84716796875
-56.7626953125
-52.18505859375
-52.18505859375
-40.283203125
-43.02978515625
-50.35400390625
-51.26953125
-47.607421875
-42.1142578125
-42.1142578125
-46.69189453125
-50.35400390625
-45.7763671875
-35.70556640625
-35.70556640625
-37.53662109375
-38.4521484375
-31.1279296875
-30.21240234375
-30.21240234375
-32.04345703125
-29.296875
-31.1279296875
-32.958984375
-25.634765625
-28.38134765625
-32.958984375
-28.38134765625
-17.39501953125
-12.8173828125
-14.6484375
-16.4794921875
-11.90185546875
-9.1552734375
-7.32421875
-10.07080078125
0.91552734375
4.57763671875
-2.74658203125
1.8310546875
-0.91552734375
-2.74658203125
-1.8310546875
5.4931640625
0
2.74658203125
5.4931640625
8.23974609375
3.662109375
3.662109375
2.74658203125
-2.74658203125
-5.4931640625
-3.662109375
-3.662109375
-4.57763671875
-7.32421875
-7.32421875
-1.8310546875
0
-10.986328125
-15.56396484375
-13.73291015625
-10.07080078125
-15.56396484375
-13.73291015625
-9.1552734375
-3.662109375
8.23974609375
13.73291015625
0
-4.57763671875
-13.73291015625
-5.4931640625
-5.4931640625
-4.57763671875
-1.8310546875
-1.8310546875
8.23974609375
7.32421875
10.986328125
20.1416015625
17.39501953125
20.1416015625
20.1416015625
18.310546875
20.1416015625
20.1416015625
20.1416015625
18.310546875
20.1416015625
16.4794921875
28.38134765625
20.1416015625
25.634765625
21.97265625
21.97265625
25.634765625
24.71923828125
30.21240234375
25.634765625
34.7900390625
25.634765625
32.04345703125
30.21240234375
32.04345703125
37.53662109375
32.04345703125
24.71923828125
25.634765625
21.05712890625
23.8037109375
23.8037109375
18.310546875
7.32421875
10.07080078125
17.39501953125
16.4794921875
18.310546875
16.4794921875
14.6484375
10.07080078125
6.40869140625
12.8173828125
7.32421875
4.57763671875
0
5.4931640625
5.4931640625
8.23974609375
-3.662109375
-3.662109375
0
-0.91552734375
-3.662109375
-16.4794921875
-9.1552734375
-9.1552734375
-0.91552734375
-1.8310546875
3.662109375
12.8173828125
26.55029296875
38.4521484375
42.1142578125
60.4248046875
58.59375
75.0732421875
77.81982421875
81.48193359375
84.228515625
90.63720703125
104.3701171875
122.6806640625
135.498046875
128.173828125
129.08935546875
132.75146484375
131.8359375
124.51171875
105.28564453125
108.0322265625
108.0322265625
114.44091796875
104.3701171875
93.3837890625
78.7353515625
54.01611328125
43.02978515625
33.87451171875
16.4794921875
7.32421875
-4.57763671875
6.40869140625
4.57763671875
-9.1552734375
-18.310546875
-24.71923828125
-26.55029296875
-26.55029296875
-21.05712890625
-34.7900390625
-38.4521484375
-36.62109375
-38.4521484375
-40.283203125
-45.7763671875
-43.9453125
-35.70556640625
-40.283203125
-46.69189453125
-47.607421875
-48.52294921875
-44.86083984375
-38.4521484375
-43.9453125
-45.7763671875
-48.52294921875
-43.9453125
-45.7763671875
-51.26953125
-61.34033203125
-77.81982421875
-94.29931640625
-110.77880859375
-128.173828125
-123.59619140625
-98.876953125
-54.01611328125
0
99.79248046875
210.5712890625
363.46435546875
532.8369140625
684.814453125
809.326171875
934.75341796875
1028.13720703125
1082.1533203125
1068.42041015625
893.5546875
660.09521484375
465.087890625
282.89794921875
144.6533203125
60.4248046875
-5.4931640625
-46.69189453125
-81.48193359375
-86.97509765625
-89.7216796875
-80.56640625
-65.00244140625
-51.26953125
-40.283203125
-33.87451171875
-42.1142578125
-37.53662109375
-37.53662109375
-41.19873046875
-45.7763671875
-48.52294921875
-46.69189453125
-42.1142578125
-45.7763671875
-52.18505859375
-54.01611328125
-44.86083984375
-41.19873046875
-46.69189453125
-44.86083984375
-52.18505859375
-52.18505859375
-43.9453125
-49.4384765625
-50.35400390625
-49.4384765625
-43.02978515625
-35.70556640625
-43.02978515625
-43.9453125
-53.1005859375
-50.35400390625
-46.69189453125
-50.35400390625
-54.931640625
-51.26953125
-46.69189453125
-40.283203125
-48.52294921875
-51.26953125
-55.84716796875
-49.4384765625
-45.7763671875
-51.26953125
-50.35400390625
-53.1005859375
-48.52294921875
-47.607421875
-45.7763671875
-49.4384765625
-64.0869140625
-45.7763671875
-50.35400390625
-47.607421875
-36.62109375
-44.86083984375
-43.02978515625
-43.02978515625
-38.4521484375
-41.19873046875
-43.9453125
-50.35400390625
-41.19873046875
-42.1142578125
-43.02978515625
-40.283203125
-36.62109375
-34.7900390625
-36.62109375
-39.36767578125
-37.53662109375
-43.9453125
-43.02978515625
-38.4521484375
-43.02978515625
-43.9453125
-43.02978515625
-39.36767578125
-37.53662109375
-35.70556640625
-38.4521484375
-41.19873046875
-31.1279296875
-34.7900390625
-36.62109375
-34.7900390625
-32.958984375
-32.958984375
-34.7900390625
-35.70556640625
-32.04345703125
-33.87451171875
-28.38134765625
-24.71923828125
-30.21240234375
-21.05712890625
-19.22607421875
-16.4794921875
-18.310546875
-23.8037109375
-22.88818359375
-19.22607421875
-6.40869140625
-7.32421875
-10.07080078125
-1.8310546875
1.8310546875
0.91552734375
-4.57763671875
10.986328125
2.74658203125
10.07080078125
11.90185546875
13.73291015625
11.90185546875
13.73291015625
12.8173828125
16.4794921875
16.4794921875
12.8173828125
16.4794921875
21.97265625
10.986328125
14.6484375
24.71923828125
14.6484375
22.88818359375
18.310546875
14.6484375
12.8173828125
6.40869140625
4.57763671875
8.23974609375
-1.8310546875
-1.8310546875
-1.8310546875
1.8310546875
12.8173828125
9.1552734375
4.57763671875
0
10.986328125
10.986328125
4.57763671875
4.57763671875
5.4931640625
11.90185546875
14.6484375
11.90185546875
14.6484375
14.6484375
20.1416015625
17.39501953125
17.39501953125
19.22607421875
23.8037109375
25.634765625
26.55029296875
30.21240234375
30.21240234375
29.296875
30.21240234375
39.36767578125
38.4521484375
37.53662109375
34.7900390625
36.62109375
37.53662109375
34.7900390625
29.296875
35.70556640625
34.7900390625
40.283203125
39.36767578125
36.62109375
35.70556640625
35.70556640625
41.19873046875
46.69189453125
45.7763671875
35.70556640625
32.958984375
37.53662109375
32.04345703125
26.55029296875
31.1279296875
30.21240234375
32.04345703125
32.958984375
36.62109375
28.38134765625
25.634765625
28.38134765625
29.296875
23.8037109375
23.8037109375
24.71923828125
23.8037109375
25.634765625
24.71923828125
14.6484375
6.40869140625
18.310546875
11.90185546875
10.986328125
9.1552734375
10.986328125
12.8173828125
13.73291015625
7.32421875
7.32421875
6.40869140625
12.8173828125
11.90185546875
8.23974609375
1.8310546875
-1.8310546875
9.1552734375
5.4931640625
-3.662109375
-7.32421875
0
10.07080078125
7.32421875
-0.91552734375
-1.8310546875
-1.8310546875
1.8310546875
-2.74658203125
1.8310546875
19.22607421875
42.1142578125
49.4384765625
56.7626953125
59.50927734375
61.34033203125
85.14404296875
85.14404296875
82.3974609375
89.7216796875
111.6943359375
123.59619140625
129.08935546875
130.0048828125
122.6806640625
126.3427734375
129.08935546875
124.51171875
103.45458984375
105.28564453125
107.11669921875
95.21484375
97.96142578125
82.3974609375
69.580078125
54.01611328125
39.36767578125
26.55029296875
20.1416015625
2.74658203125
2.74658203125
-3.662109375
-0.91552734375
-5.4931640625
-13.73291015625
-32.04345703125
-38.4521484375
-35.70556640625
-35.70556640625
-35.70556640625
-33.87451171875
-27.4658203125
-40.283203125
-41.19873046875
-48.52294921875
-49.4384765625
-46.69189453125
-42.1142578125
-42.1142578125
-40.283203125
-49.4384765625
-52.18505859375
-47.607421875
-38.4521484375
-50.35400390625
-45.7763671875
-36.62109375
-49.4384765625
-50.35400390625
-64.0869140625
-86.0595703125
-96.13037109375
-117.1875
-130.92041015625
-124.51171875
-101.62353515625
-65.91796875
-10.07080078125
89.7216796875
189.51416015625
340.576171875
516.357421875
663.75732421875
793.76220703125
910.94970703125
1011.65771484375
1077.57568359375
1049.1943359375
898.13232421875
645.44677734375
450.439453125
272.8271484375
129.08935546875
59.50927734375
1.8310546875
-43.9453125
-78.7353515625
-85.14404296875
-93.3837890625
-94.29931640625
-82.3974609375
-66.83349609375
-57.67822265625
-50.35400390625
-58.59375
-53.1005859375
-54.01611328125
-56.7626953125
-56.7626953125
-66.83349609375
-65.00244140625
-68.66455078125
-74.15771484375
-68.66455078125
-76.904296875
-69.580078125
-65.00244140625
-63.17138671875
-66.83349609375
-72.32666015625
-74.15771484375
-72.32666015625
-71.4111328125
-66.83349609375
-66.83349609375
-71.4111328125
-67.7490234375
-77.81982421875
-76.904296875
-71.4111328125
-65.91796875
-75.98876953125
-75.98876953125
-65.00244140625
-71.4111328125
-73.2421875
-75.0732421875
-72.32666015625
-74.15771484375
-74.15771484375
-73.2421875
-69.580078125
-71.4111328125
-75.0732421875
-75.0732421875
-73.2421875
-69.580078125
-68.66455078125
-69.580078125
-79.65087890625
-76.904296875
-81.48193359375
-76.904296875
-87.890625
-98.876953125
-81.48193359375
-65.91796875
-55.84716796875
-63.17138671875
-65.91796875
-76.904296875
-67.7490234375
-79.65087890625
-86.97509765625
-76.904296875
-82.3974609375
-82.3974609375
-69.580078125
-68.66455078125
-77.81982421875
-76.904296875
-68.66455078125
-67.7490234375
-67.7490234375
-77.81982421875
-72.32666015625
-65.00244140625
-57.67822265625
-63.17138671875
-71.4111328125
-74.15771484375
-65.91796875
-56.7626953125
-74.15771484375
-61.34033203125
-61.34033203125
-67.7490234375
-57.67822265625
-58.59375
-67.7490234375
-66.83349609375
-61.34033203125
-56.7626953125
-57.67822265625
-56.7626953125
-58.59375
-62.255859375
-51.26953125
-41.19873046875
-46.69189453125
-44.86083984375
-51.26953125
-48.52294921875
-50.35400390625
-51.26953125
-50.35400390625
-46.69189453125
-42.1142578125
-39.36767578125
-34.7900390625
-38.4521484375
-38.4521484375
-32.04345703125
-30.21240234375
-36.62109375
-27.4658203125
-24.71923828125
-21.97265625
-13.73291015625
-21.05712890625
-10.07080078125
-20.1416015625
-13.73291015625
-16.4794921875
-30.21240234375
-27.4658203125
-18.310546875
-28.38134765625
-29.296875
-32.04345703125
-31.1279296875
-35.70556640625
-34.7900390625
-35.70556640625
-32.04345703125
-47.607421875
-46.69189453125
-39.36767578125
-40.283203125
-54.01611328125
-41.19873046875
-34.7900390625
-34.7900390625
-35.70556640625
-32.04345703125
-35.70556640625
-26.55029296875
-28.38134765625
-31.1279296875
-39.36767578125
-34.7900390625
-32.04345703125
-40.283203125
-40.283203125
-29.296875
-21.97265625
-29.296875
-29.296875
-33.87451171875
-38.4521484375
-32.04345703125
-24.71923828125
-27.4658203125
-24.71923828125
-25.634765625
-26.55029296875
-21.05712890625
-10.986328125
-5.4931640625
-10.986328125
-9.1552734375
-10.07080078125
-8.23974609375
-8.23974609375
-21.05712890625
-19.22607421875
-22.88818359375
-8.23974609375
-22.88818359375
-23.8037109375
-25.634765625
-12.8173828125
0
-10.07080078125
-25.634765625
-6.40869140625
-12.8173828125
-16.4794921875
-26.55029296875
-23.8037109375
-17.39501953125
-14.6484375
-31.1279296875
-34.7900390625
-32.04345703125
-28.38134765625
-27.4658203125
-32.04345703125
-38.4521484375
-36.62109375
-40.283203125
-21.97265625
-26.55029296875
-24.71923828125
-39.36767578125
-33.87451171875
-29.296875
-23.8037109375
-21.05712890625
-12.8173828125
7.32421875
6.40869140625
18.310546875
22.88818359375
17.39501953125
19.22607421875
29.296875
25.634765625
42.1142578125
64.0869140625
88.80615234375
89.7216796875
103.45458984375
101.62353515625
86.0595703125
75.0732421875
83.31298828125
96.13037109375
86.0595703125
81.48193359375
76.904296875
65.91796875
65.00244140625
34.7900390625
11.90185546875
-1.8310546875
-13.73291015625
-23.8037109375
-35.70556640625
-35.70556640625
-40.283203125
-44.86083984375
-50.35400390625
-60.4248046875
-65.00244140625
-81.48193359375
-71.4111328125
-65.91796875
-78.7353515625
-81.48193359375
-76.904296875
-84.228515625
-88.80615234375
-91.552734375
-80.56640625
-86.0595703125
-92.46826171875
-72.32666015625
-91.552734375
-94.29931640625
-80.56640625
-70.49560546875
-75.98876953125
-75.0732421875
-90.63720703125
-92.46826171875
-83.31298828125
-85.14404296875
-91.552734375
-112.60986328125
-124.51171875
-141.90673828125
-163.87939453125
-162.9638671875
-150.146484375
-130.0048828125
-81.48193359375
-2.74658203125
95.21484375
223.388671875
393.6767578125
555.72509765625
695.80078125
807.4951171875
916.44287109375
994.2626953125
1021.728515625
944.82421875
706.787109375
476.98974609375
323.18115234375
160.21728515625
71.4111328125
0.91552734375
-51.26953125
-95.21484375
-125.42724609375
-142.822265625
-162.9638671875
-160.21728515625
-144.6533203125
-116.27197265625
-102.5390625
-103.45458984375
-95.21484375
-97.0458984375
-88.80615234375
-93.3837890625
-96.13037109375
-102.5390625
-112.60986328125
-107.11669921875
-106.201171875
-113.525390625
-112.60986328125
-117.1875
-103.45458984375
-108.94775390625
-107.11669921875
-117.1875
-119.93408203125
-108.0322265625
-108.0322265625
-112.60986328125
-111.6943359375
-117.1875
-112.60986328125
-105.28564453125
-109.86328125
-106.201171875
-110.77880859375
-108.0322265625
-101.62353515625
-110.77880859375
-115.3564453125
-112.60986328125
-108.0322265625
-102.5390625
-107.11669921875
-105.28564453125
-103.45458984375
-99.79248046875
-97.96142578125
-94.29931640625
-102.5390625
-107.11669921875
-111.6943359375
-92.46826171875
-96.13037109375
-97.96142578125
-105.28564453125
-99.79248046875
-106.201171875
-108.0322265625
-102.5390625
-105.28564453125
-106.201171875
-102.5390625
-102.5390625
-112.60986328125
-112.60986328125
-100.7080078125
-97.0458984375
-102.5390625
-104.3701171875
-101.62353515625
-100.7080078125
-105.28564453125
-103.45458984375
-108.0322265625
-99.79248046875
-106.201171875
-103.45458984375
-98.876953125
-108.94775390625
-106.201171875
-91.552734375
-89.7216796875
-93.3837890625
-101.62353515625
-98.876953125
-97.0458984375
-95.21484375
-97.0458984375
-96.13037109375
-92.46826171875
-87.890625
-80.56640625
-83.31298828125
-93.3837890625
-100.7080078125
-100.7080078125
-94.29931640625
-85.14404296875
-91.552734375
-98.876953125
-88.80615234375
-85.14404296875
-81.48193359375
-86.97509765625
-75.98876953125
-76.904296875
-76.904296875
-82.3974609375
-85.14404296875
-84.228515625
-74.15771484375
-71.4111328125
-69.580078125
-71.4111328125
-73.2421875
-61.34033203125
-57.67822265625
-67.7490234375
-63.17138671875
-63.17138671875
-54.01611328125
-50.35400390625
-49.4384765625
-61.34033203125
-52.18505859375
-50.35400390625
-52.18505859375
-54.01611328125
-63.17138671875
-58.59375
-53.1005859375
-50.35400390625
-52.18505859375
-64.0869140625
-60.4248046875
-50.35400390625
-59.50927734375
-65.91796875
-65.91796875
-62.255859375
-57.67822265625
-59.50927734375
-67.7490234375
-73.2421875
-64.0869140625
-72.32666015625
-62.255859375
-67.7490234375
-69.580078125
-62.255859375
-51.26953125
-51.26953125
-52.18505859375
-57.67822265625
-55.84716796875
-46.69189453125
-51.26953125
-50.35400390625
-43.9453125
-47.607421875
-34.7900390625
-35.70556640625
-41.19873046875
-42.1142578125
-38.4521484375
-33.87451171875
-31.1279296875
-35.70556640625
-33.87451171875
-32.958984375
-32.04345703125
-19.22607421875
-21.05712890625
-25.634765625
-23.8037109375
-21.97265625
-34.7900390625
-36.62109375
-27.4658203125
-26.55029296875
-15.56396484375
-28.38134765625
-27.4658203125
-32.04345703125
-25.634765625
-23.8037109375
-24.71923828125
-29.296875
-37.53662109375
-21.05712890625
-22.88818359375
-25.634765625
-21.05712890625
-24.71923828125
-18.310546875
-25.634765625
-25.634765625
-28.38134765625
-31.1279296875
-36.62109375
-36.62109375
-35.70556640625
-26.55029296875
-36.62109375
-36.62109375
-36.62109375
-40.283203125
-43.02978515625
-41.19873046875
-45.7763671875
-34.7900390625
-23.8037109375
-13.73291015625
-1.8310546875
12.8173828125
21.97265625
40.283203125
42.1142578125
44.86083984375
41.19873046875
52.18505859375
59.50927734375
62.255859375
79.65087890625
90.63720703125
91.552734375
87.890625
87.890625
96.13037109375
97.0458984375
88.80615234375
86.97509765625
80.56640625
75.0732421875
62.255859375
55.84716796875
41.19873046875
32.958984375
7.32421875
-17.39501953125
-18.310546875
-21.05712890625
-25.634765625
-38.4521484375
-31.1279296875
-39.36767578125
-40.283203125
-54.01611328125
-59.50927734375
-66.83349609375
-61.34033203125
-61.34033203125
-72.32666015625
-74.15771484375
-79.65087890625
-78.7353515625
-83.31298828125
-77.81982421875
-84.228515625
-74.15771484375
-75.98876953125
-70.49560546875
-75.98876953125
-80.56640625
-77.81982421875
-82.3974609375
-84.228515625
-78.7353515625
-81.48193359375
-76.904296875
-75.0732421875
-86.97509765625
-105.28564453125
-125.42724609375
-139.16015625
-139.16015625
-128.173828125
-108.94775390625
-97.0458984375
-57.67822265625
30.21240234375
140.07568359375
270.08056640625
429.38232421875
582.275390625
707.70263671875
830.38330078125
918.27392578125
986.02294921875
1005.2490234375
904.541015625
669.25048828125
458.67919921875
281.982421875
117.1875
47.607421875
-10.986328125
-63.17138671875
-106.201171875
-114.44091796875
-113.525390625
-108.94775390625
-105.28564453125
-87.890625
-81.48193359375
-65.00244140625
-60.4248046875
-65.91796875
-68.66455078125
-69.580078125
-69.580078125
-66.83349609375
-79.65087890625
-83.31298828125
-73.2421875
-76.904296875
-84.228515625
-84.228515625
-76.904296875
-86.0595703125
-69.580078125
-69.580078125
-81.48193359375
-85.14404296875
-78.7353515625
-69.580078125
-71.4111328125
-75.98876953125
-72.32666015625
-68.66455078125
-69.580078125
-64.0869140625
-65.00244140625
-69.580078125
-63.17138671875
-57.67822265625
-65.00244140625
-69.580078125
-75.0732421875
-75.0732421875
-73.2421875
-67.7490234375
-66.83349609375
-69.580078125
-63.17138671875
-58.59375
-62.255859375
-65.00244140625
-69.580078125
-62.255859375
-58.59375
-64.0869140625
-56.7626953125
-61.34033203125
-63.17138671875
-67.7490234375
-65.91796875
-62.255859375
-67.7490234375
-64.0869140625
-58.59375
-57.67822265625
-65.00244140625
-56.7626953125
-58.59375
-56.7626953125
-58.59375
-58.59375
-63.17138671875
-59.50927734375
-49.4384765625
-45.7763671875
-62.255859375
-59.50927734375
-54.931640625
-50.35400390625
-45.7763671875
-49.4384765625
-54.01611328125
-57.67822265625
-54.01611328125
-46.69189453125
-43.9453125
-53.1005859375
-48.52294921875
-42.1142578125
-44.86083984375
-41.19873046875
-46.69189453125
-44.86083984375
-49.4384765625
-41.19873046875
-34.7900390625
-40.283203125
-46.69189453125
-52.18505859375
-43.9453125
-46.69189453125
-41.19873046875
-40.283203125
-36.62109375
-32.958984375
-34.7900390625
-48.52294921875
-39.36767578125
-27.4658203125
-31.1279296875
-33.87451171875
-27.4658203125
-28.38134765625
-18.310546875
-11.90185546875
-17.39501953125
-14.6484375
-3.662109375
-6.40869140625
-3.662109375
-11.90185546875
-6.40869140625
-0.91552734375
0
0
3.662109375
7.32421875
3.662109375
-2.74658203125
-3.662109375
-7.32421875
-12.8173828125
-3.662109375
1.8310546875
-5.4931640625
-10.07080078125
-12.8173828125
-7.32421875
-10.986328125
-5.4931640625
-14.6484375
-13.73291015625
-6.40869140625
-4.57763671875
-3.662109375
-6.40869140625
-8.23974609375
-11.90185546875
-9.1552734375
-11.90185546875
-6.40869140625
-7.32421875
-7.32421875
0.91552734375
3.662109375
-1.8310546875
-5.4931640625
-1.8310546875
0.91552734375
3.662109375
0
3.662109375
6.40869140625
9.1552734375
12.8173828125
24.71923828125
20.1416015625
22.88818359375
14.6484375
21.05712890625
19.22607421875
18.310546875
18.310546875
24.71923828125
21.05712890625
20.1416015625
20.1416015625
17.39501953125
25.634765625
18.310546875
16.4794921875
19.22607421875
21.97265625
28.38134765625
31.1279296875
24.71923828125
21.05712890625
30.21240234375
25.634765625
22.88818359375
21.05712890625
26.55029296875
22.88818359375
19.22607421875
26.55029296875
23.8037109375
18.310546875
17.39501953125
20.1416015625
4.57763671875
21.05712890625
10.07080078125
8.23974609375
11.90185546875
8.23974609375
6.40869140625
14.6484375
11.90185546875
11.90185546875
15.56396484375
8.23974609375
2.74658203125
0
10.986328125
4.57763671875
-0.91552734375
11.90185546875
36.62109375
47.607421875
51.26953125
61.34033203125
67.7490234375
79.65087890625
86.97509765625
95.21484375
89.7216796875
100.7080078125
114.44091796875
129.08935546875
136.41357421875
136.41357421875
136.41357421875
142.822265625
140.07568359375
138.24462890625
130.92041015625
133.6669921875
124.51171875
116.27197265625
108.94775390625
88.80615234375
76.904296875
59.50927734375
43.9453125
32.958984375
16.4794921875
15.56396484375
11.90185546875
25.634765625
7.32421875
-15.56396484375
-13.73291015625
-8.23974609375
-18.310546875
-27.4658203125
-33.87451171875
-32.958984375
-34.7900390625
-38.4521484375
-30.21240234375
-35.70556640625
-37.53662109375
-35.70556640625
-35.70556640625
-33.87451171875
-40.283203125
-43.9453125
-39.36767578125
-36.62109375
-36.62109375
-34.7900390625
-32.958984375
-34.7900390625
-37.53662109375
-38.4521484375
-34.7900390625
-51.26953125
-69.580078125
-97.0458984375
-110.77880859375
-119.93408203125
-109.86328125
-90.63720703125
-65.91796875
4.57763671875
92.46826171875
199.5849609375
337.82958984375
531.005859375
682.06787109375
812.98828125
931.09130859375
1031.79931640625
1089.4775390625
1074.8291015625
917.3583984375
674.74365234375
476.98974609375
295.71533203125
148.3154296875
60.4248046875
-6.40869140625
-36.62109375
-71.4111328125
-79.65087890625
-88.80615234375
-79.65087890625
-63.17138671875
-50.35400390625
-44.86083984375
-36.62109375
-39.36767578125
-35.70556640625
-33.87451171875
-40.283203125
-45.7763671875
-49.4384765625
-54.931640625
-44.86083984375
-50.35400390625
-49.4384765625
