ECG
-44.86083984375
-38.4521484375
-36.62109375
-40.283203125
-33.87451171875
-37.53662109375
-35.70556640625
-35.70556640625
-33.87451171875
-29.296875
-26.55029296875
-31.1279296875
-29.296875
-32.04345703125
-33.87451171875
-32.04345703125
-30.21240234375
-36.62109375
-37.53662109375
-36.62109375
-26.55029296875
-23.8037109375
-32.04345703125
-31.1279296875
-37.53662109375
-36.62109375
-39.36767578125
-42.1142578125
-38.4521484375
-43.02978515625
-41.19873046875
-36.62109375
-35.70556640625
-37.53662109375
-37.53662109375
-40.283203125
-41.19873046875
-47.607421875
-49.4384765625
-47.607421875
-43.9453125
-45.7763671875
-43.02978515625
-40.283203125
-48.52294921875
-51.26953125
-52.18505859375
-58.59375
-53.1005859375
-43.9453125
-42.1142578125
-45.7763671875
-47.607421875
-53.1005859375
-48.52294921875
-53.1005859375
-57.67822265625
-60.4248046875
-54.931640625
-53.1005859375
-51.26953125
-45.7763671875
-47.607421875
-52.18505859375
-51.26953125
-58.59375
-56.7626953125
-58.59375
-58.59375
-49.4384765625
-52.18505859375
-59.50927734375
-55.84716796875
-49.4384765625
-51.26953125
-59.50927734375
-60.4248046875
-62.255859375
-61.34033203125
-57.67822265625
-55.84716796875
-56.7626953125
-59.50927734375
-54.01611328125
-57.67822265625
-62.255859375
-64.0869140625
-65.91796875
-70.49560546875
-65.00244140625
-59.50927734375
-47.607421875
-51.26953125
-57.67822265625
-69.580078125
-65.91796875
-62.255859375
-77.81982421875
-77.81982421875
-70.49560546875
-69.580078125
-65.00244140625
-54.01611328125
-65.91796875
-64.0869140625
-65.91796875
-68.66455078125
-64.0869140625
-65.91796875
-54.931640625
-27.4658203125
1.8310546875
23.8037109375
23.8037109375
19.22607421875
14.6484375
4.57763671875
0
-1.8310546875
5.4931640625
0.91552734375
5.4931640625
15.56396484375
21.05712890625
16.4794921875
13.73291015625
13.73291015625
11.90185546875
4.57763671875
-5.4931640625
-10.986328125
-8.23974609375
-11.90185546875
-20.1416015625
-34.7900390625
-38.4521484375
-37.53662109375
-44.86083984375
-52.18505859375
-56.7626953125
-60.4248046875
-57.67822265625
-43.9453125
-42.1142578125
-51.26953125
-54.01611328125
-57.67822265625
-74.15771484375
-92.46826171875
-86.0595703125
-90.63720703125
-91.552734375
-89.7216796875
-87.890625
-82.3974609375
-83.31298828125
-87.890625
-93.3837890625
-95.21484375
-89.7216796875
-86.0595703125
-83.31298828125
-82.3974609375
-81.48193359375
-77.81982421875
-81.48193359375
-86.0595703125
-81.48193359375
-81.48193359375
-77.81982421875
-66.83349609375
-66.83349609375
-65.00244140625
-70.49560546875
-66.83349609375
-64.0869140625
-70.49560546875
-75.0732421875
-79.65087890625
-86.0595703125
-93.3837890625
-88.80615234375
-76.904296875
-81.48193359375
-69.580078125
-44.86083984375
-9.1552734375
45.7763671875
124.51171875
233.45947265625
348.81591796875
486.14501953125
611.572265625
691.22314453125
738.83056640625
763.5498046875
743.408203125
648.193359375
462.34130859375
224.30419921875
20.1416015625
-163.87939453125
-292.96875
-326.84326171875
-308.53271484375
-302.1240234375
-270.99609375
-257.26318359375
-226.13525390625
-191.34521484375
-161.1328125
-118.10302734375
-81.48193359375
-53.1005859375
-38.4521484375
-22.88818359375
-14.6484375
-2.74658203125
-0.91552734375
3.662109375
2.74658203125
6.40869140625
3.662109375
5.4931640625
0.91552734375
0.91552734375
0
1.8310546875
4.57763671875
4.57763671875
17.39501953125
16.4794921875
11.90185546875
10.986328125
11.90185546875
13.73291015625
13.73291015625
5.4931640625
10.07080078125
17.39501953125
26.55029296875
32.958984375
30.21240234375
30.21240234375
28.38134765625
34.7900390625
33.87451171875
31.1279296875
34.7900390625
34.7900390625
45.7763671875
50.35400390625
51.26953125
51.26953125
53.1005859375
52.18505859375
53.1005859375
54.931640625
49.4384765625
55.84716796875
65.00244140625
74.15771484375
82.3974609375
84.228515625
82.3974609375
78.7353515625
81.48193359375
83.31298828125
87.890625
93.3837890625
102.5390625
105.28564453125
108.0322265625
116.27197265625
115.3564453125
115.3564453125
116.27197265625
117.1875
122.6806640625
130.92041015625
140.9912109375
148.3154296875
150.146484375
147.39990234375
152.89306640625
155.6396484375
164.794921875
170.2880859375
181.2744140625
181.2744140625
195.9228515625
204.16259765625
206.9091796875
205.99365234375
210.5712890625
213.31787109375
223.388671875
224.30419921875
227.05078125
230.712890625
236.2060546875
248.10791015625
244.44580078125
240.78369140625
240.78369140625
247.1923828125
250.8544921875
246.27685546875
244.44580078125
245.361328125
254.5166015625
252.685546875
250.8544921875
249.0234375
248.10791015625
246.27685546875
225.2197265625
231.62841796875
235.29052734375
226.13525390625
223.388671875
216.064453125
215.14892578125
198.66943359375
184.02099609375
182.18994140625
174.86572265625
158.38623046875
142.822265625
131.8359375
125.42724609375
125.42724609375
115.3564453125
98.876953125
86.97509765625
68.66455078125
62.255859375
52.18505859375
44.86083984375
38.4521484375
24.71923828125
26.55029296875
21.05712890625
9.1552734375
10.986328125
4.57763671875
-5.4931640625
-12.8173828125
-10.986328125
-5.4931640625
-6.40869140625
-2.74658203125
-10.07080078125
-15.56396484375
-19.22607421875
-20.1416015625
-32.04345703125
-31.1279296875
-33.87451171875
-30.21240234375
-35.70556640625
-25.634765625
-22.88818359375
-23.8037109375
-32.04345703125
-36.62109375
-35.70556640625
-36.62109375
-43.9453125
-35.70556640625
-22.88818359375
-23.8037109375
-34.7900390625
-31.1279296875
-24.71923828125
-24.71923828125
-26.55029296875
-32.04345703125
-32.04345703125
-28.38134765625
-24.71923828125
-14.6484375
-13.73291015625
-18.310546875
-23.8037109375
-16.4794921875
-17.39501953125
-21.05712890625
-16.4794921875
-16.4794921875
-10.986328125
-2.74658203125
-3.662109375
-6.40869140625
-9.1552734375
-15.56396484375
-11.90185546875
-12.8173828125
-7.32421875
-3.662109375
-6.40869140625
-3.662109375
-11.90185546875
-8.23974609375
-8.23974609375
-17.39501953125
-10.986328125
-9.1552734375
-9.1552734375
-6.40869140625
-5.4931640625
-7.32421875
-10.07080078125
-6.40869140625
-6.40869140625
-12.8173828125
-10.986328125
-16.4794921875
-21.05712890625
-15.56396484375
-18.310546875
-12.8173828125
-12.8173828125
-14.6484375
-10.986328125
-23.8037109375
-27.4658203125
-32.04345703125
-38.4521484375
-35.70556640625
-28.38134765625
-14.6484375
-9.1552734375
-15.56396484375
-27.4658203125
-26.55029296875
-21.05712890625
-27.4658203125
-34.7900390625
-34.7900390625
-28.38134765625
-24.71923828125
-25.634765625
-27.4658203125
-32.958984375
-34.7900390625
-38.4521484375
-41.19873046875
-34.7900390625
-26.55029296875
-22.88818359375
-22.88818359375
-22.88818359375
-32.958984375
-33.87451171875
-40.283203125
-39.36767578125
-38.4521484375
-43.02978515625
-37.53662109375
-33.87451171875
-29.296875
-29.296875
-30.21240234375
-35.70556640625
-37.53662109375
-35.70556640625
-42.1142578125
-50.35400390625
-41.19873046875
-37.53662109375
-38.4521484375
-32.958984375
-34.7900390625
-40.283203125
-43.9453125
-41.19873046875
-51.26953125
-54.01611328125
-48.52294921875
-43.02978515625
-40.283203125
-42.1142578125
-40.283203125
-42.1142578125
-45.7763671875
-46.69189453125
-51.26953125
-54.01611328125
-45.7763671875
-42.1142578125
-39.36767578125
-31.1279296875
-33.87451171875
-40.283203125
-44.86083984375
-48.52294921875
-47.607421875
-54.931640625
-52.18505859375
-43.02978515625
-42.1142578125
-46.69189453125
-39.36767578125
-42.1142578125
-43.02978515625
-37.53662109375
-26.55029296875
-12.8173828125
-6.40869140625
17.39501953125
34.7900390625
43.02978515625
37.53662109375
35.70556640625
33.87451171875
31.1279296875
28.38134765625
20.1416015625
17.39501953125
17.39501953125
29.296875
45.7763671875
34.7900390625
37.53662109375
35.70556640625
32.04345703125
25.634765625
21.97265625
10.07080078125
5.4931640625
5.4931640625
-2.74658203125
-10.986328125
-25.634765625
-32.958984375
-29.296875
-32.04345703125
-45.7763671875
-56.7626953125
-50.35400390625
-34.7900390625
-28.38134765625
-29.296875
-29.296875
-45.7763671875
-59.50927734375
-66.83349609375
-74.15771484375
-76.904296875
-71.4111328125
-70.49560546875
-70.49560546875
-76.904296875
-75.0732421875
-78.7353515625
-70.49560546875
-62.255859375
-71.4111328125
-70.49560546875
-67.7490234375
-62.255859375
-55.84716796875
-57.67822265625
-64.0869140625
-73.2421875
-70.49560546875
-69.580078125
-67.7490234375
-61.34033203125
-61.34033203125
-61.34033203125
-65.00244140625
-61.34033203125
-58.59375
-63.17138671875
-68.66455078125
-70.49560546875
-78.7353515625
-79.65087890625
-84.228515625
-70.49560546875
-70.49560546875
-71.4111328125
-53.1005859375
-25.634765625
9.1552734375
70.49560546875
173.03466796875
284.72900390625
401.0009765625
543.8232421875
657.3486328125
724.18212890625
779.11376953125
783.69140625
729.67529296875
602.4169921875
390.93017578125
162.04833984375
-43.9453125
-214.2333984375
-315.85693359375
-316.7724609375
-300.29296875
-292.05322265625
-268.24951171875
-239.8681640625
-205.078125
-184.02099609375
-150.146484375
-107.11669921875
-72.32666015625
-49.4384765625
-21.97265625
-9.1552734375
-8.23974609375
-2.74658203125
0
-0.91552734375
3.662109375
-1.8310546875
6.40869140625
7.32421875
9.1552734375
13.73291015625
0.91552734375
-0.91552734375
-2.74658203125
0
0.91552734375
7.32421875
15.56396484375
15.56396484375
18.310546875
14.6484375
10.07080078125
3.662109375
6.40869140625
12.8173828125
12.8173828125
16.4794921875
31.1279296875
31.1279296875
23.8037109375
24.71923828125
25.634765625
26.55029296875
21.05712890625
28.38134765625
40.283203125
43.02978515625
48.52294921875
50.35400390625
44.86083984375
43.9453125
43.9453125
51.26953125
50.35400390625
51.26953125
61.34033203125
72.32666015625
75.98876953125
71.4111328125
69.580078125
75.98876953125
76.904296875
75.0732421875
78.7353515625
84.228515625
88.80615234375
97.96142578125
100.7080078125
103.45458984375
108.0322265625
112.60986328125
119.93408203125
116.27197265625
123.59619140625
135.498046875
142.822265625
155.6396484375
155.6396484375
149.23095703125
153.80859375
164.794921875
165.71044921875
168.45703125
173.03466796875
181.2744140625
190.4296875
196.83837890625
205.99365234375
212.40234375
218.81103515625
219.7265625
226.13525390625
227.96630859375
221.5576171875
219.7265625
235.29052734375
243.5302734375
242.61474609375
241.69921875
244.44580078125
252.685546875
246.27685546875
235.29052734375
240.78369140625
243.5302734375
244.44580078125
240.78369140625
238.95263671875
243.5302734375
245.361328125
238.037109375
232.5439453125
231.62841796875
222.47314453125
222.47314453125
213.31787109375
205.078125
203.2470703125
199.5849609375
184.9365234375
167.54150390625
154.72412109375
153.80859375
138.24462890625
130.92041015625
116.27197265625
114.44091796875
105.28564453125
93.3837890625
78.7353515625
68.66455078125
61.34033203125
48.52294921875
34.7900390625
32.04345703125
28.38134765625
24.71923828125
16.4794921875
10.07080078125
7.32421875
9.1552734375
-0.91552734375
-7.32421875
-10.07080078125
-16.4794921875
-20.1416015625
-17.39501953125
-19.22607421875
-24.71923828125
-21.97265625
-21.97265625
-31.1279296875
-40.283203125
-41.19873046875
-39.36767578125
-40.283203125
-42.1142578125
-32.958984375
-31.1279296875
-38.4521484375
-42.1142578125
-41.19873046875
-33.87451171875
-35.70556640625
-39.36767578125
-29.296875
-27.4658203125
-31.1279296875
-28.38134765625
-33.87451171875
-41.19873046875
-31.1279296875
-32.958984375
-40.283203125
-30.21240234375
-26.55029296875
-24.71923828125
-20.1416015625
-15.56396484375
-18.310546875
-24.71923828125
-18.310546875
-15.56396484375
-15.56396484375
-21.97265625
-21.05712890625
-10.986328125
-13.73291015625
-13.73291015625
-18.310546875
-16.4794921875
-19.22607421875
-15.56396484375
-13.73291015625
-20.1416015625
-21.05712890625
-18.310546875
-13.73291015625
-16.4794921875
-10.07080078125
-11.90185546875
-10.07080078125
-12.8173828125
-14.6484375
-19.22607421875
-19.22607421875
-12.8173828125
-15.56396484375
-19.22607421875
-16.4794921875
-25.634765625
-32.958984375
-21.97265625
-13.73291015625
-20.1416015625
-19.22607421875
-11.90185546875
-9.1552734375
-17.39501953125
-20.1416015625
-17.39501953125
-26.55029296875
-25.634765625
-28.38134765625
-25.634765625
-22.88818359375
-28.38134765625
-23.8037109375
-25.634765625
-29.296875
-31.1279296875
-29.296875
-22.88818359375
-24.71923828125
-32.958984375
-31.1279296875
-24.71923828125
-21.97265625
-24.71923828125
-25.634765625
-30.21240234375
-34.7900390625
-35.70556640625
-40.283203125
-39.36767578125
-36.62109375
-32.958984375
-32.958984375
-37.53662109375
-40.283203125
-46.69189453125
-46.69189453125
-46.69189453125
-42.1142578125
-40.283203125
-39.36767578125
-36.62109375
-32.958984375
-37.53662109375
-41.19873046875
-49.4384765625
-54.01611328125
-54.01611328125
-48.52294921875
-44.86083984375
-46.69189453125
-48.52294921875
-44.86083984375
-45.7763671875
-43.02978515625
-48.52294921875
-47.607421875
-40.283203125
-41.19873046875
-45.7763671875
-48.52294921875
-42.1142578125
-37.53662109375
-47.607421875
-50.35400390625
-46.69189453125
-46.69189453125
-46.69189453125
-44.86083984375
-46.69189453125
-47.607421875
-38.4521484375
-49.4384765625
-54.931640625
-52.18505859375
-46.69189453125
-54.01611328125
-59.50927734375
-59.50927734375
-56.7626953125
-50.35400390625
-49.4384765625
-45.7763671875
-43.9453125
-47.607421875
-49.4384765625
-47.607421875
-48.52294921875
-56.7626953125
-47.607421875
-48.52294921875
-48.52294921875
-35.70556640625
-29.296875
-27.4658203125
-28.38134765625
-10.986328125
10.986328125
21.05712890625
32.04345703125
31.1279296875
26.55029296875
28.38134765625
20.1416015625
13.73291015625
10.986328125
0.91552734375
-0.91552734375
14.6484375
32.958984375
27.4658203125
34.7900390625
31.1279296875
21.97265625
8.23974609375
9.1552734375
5.4931640625
2.74658203125
-3.662109375
-15.56396484375
-31.1279296875
-29.296875
-29.296875
-31.1279296875
-41.19873046875
-51.26953125
-55.84716796875
-53.1005859375
-49.4384765625
-43.02978515625
-35.70556640625
-31.1279296875
-41.19873046875
-50.35400390625
-58.59375
-75.98876953125
-86.97509765625
-89.7216796875
-86.0595703125
-81.48193359375
-77.81982421875
-77.81982421875
-74.15771484375
-76.904296875
-80.56640625
-79.65087890625
-84.228515625
-81.48193359375
-83.31298828125
-91.552734375
-86.97509765625
-80.56640625
-80.56640625
-74.15771484375
-68.66455078125
-79.65087890625
-79.65087890625
-72.32666015625
-68.66455078125
-71.4111328125
-71.4111328125
-71.4111328125
-63.17138671875
-63.17138671875
-75.98876953125
-80.56640625
-92.46826171875
-88.80615234375
-81.48193359375
-85.14404296875
-72.32666015625
-42.1142578125
-18.310546875
17.39501953125
81.48193359375
177.6123046875
285.64453125
407.40966796875
545.654296875
660.09521484375
724.18212890625
777.28271484375
791.015625
732.421875
598.7548828125
383.60595703125
157.470703125
-62.255859375
-236.2060546875
-321.35009765625
-314.94140625
-292.05322265625
-276.4892578125
-251.77001953125
-228.8818359375
-205.99365234375
-182.18994140625
-151.06201171875
-114.44091796875
-86.97509765625
-54.01611328125
-24.71923828125
-13.73291015625
-0.91552734375
0
-2.74658203125
-6.40869140625
-11.90185546875
-9.1552734375
-4.57763671875
-3.662109375
6.40869140625
2.74658203125
8.23974609375
1.8310546875
-0.91552734375
8.23974609375
13.73291015625
7.32421875
6.40869140625
6.40869140625
9.1552734375
17.39501953125
12.8173828125
10.986328125
10.986328125
14.6484375
21.97265625
21.97265625
28.38134765625
37.53662109375
43.02978515625
43.9453125
42.1142578125
42.1142578125
41.19873046875
42.1142578125
42.1142578125
45.7763671875
50.35400390625
48.52294921875
56.7626953125
59.50927734375
56.7626953125
59.50927734375
67.7490234375
62.255859375
70.49560546875
74.15771484375
77.81982421875
87.890625
86.97509765625
96.13037109375
101.62353515625
92.46826171875
90.63720703125
93.3837890625
98.876953125
99.79248046875
109.86328125
113.525390625
121.76513671875
122.6806640625
126.3427734375
130.0048828125
130.92041015625
141.90673828125
148.3154296875
144.6533203125
147.39990234375
161.1328125
178.52783203125
184.9365234375
191.34521484375
190.4296875
195.9228515625
196.83837890625
199.5849609375
210.5712890625
216.064453125
219.7265625
227.96630859375
231.62841796875
235.29052734375
240.78369140625
236.2060546875
243.5302734375
249.0234375
240.78369140625
240.78369140625
252.685546875
249.0234375
259.09423828125
263.671875
262.75634765625
260.009765625
257.26318359375
254.5166015625
249.0234375
255.43212890625
258.1787109375
266.41845703125
262.75634765625
256.34765625
254.5166015625
243.5302734375
238.95263671875
228.8818359375
221.5576171875
211.48681640625
205.078125
199.5849609375
186.767578125
177.6123046875
164.794921875
151.9775390625
138.24462890625
125.42724609375
114.44091796875
108.0322265625
103.45458984375
96.13037109375
85.14404296875
73.2421875
60.4248046875
49.4384765625
40.283203125
39.36767578125
30.21240234375
22.88818359375
22.88818359375
24.71923828125
13.73291015625
6.40869140625
-1.8310546875
-6.40869140625
-13.73291015625
-10.986328125
-19.22607421875
-20.1416015625
-19.22607421875
-24.71923828125
-21.05712890625
-27.4658203125
-33.87451171875
-33.87451171875
-35.70556640625
-35.70556640625
-37.53662109375
-42.1142578125
-32.958984375
-27.4658203125
-23.8037109375
-25.634765625
-31.1279296875
-28.38134765625
-34.7900390625
-32.04345703125
-32.958984375
-30.21240234375
-23.8037109375
-9.1552734375
-10.07080078125
-18.310546875
-19.22607421875
-21.97265625
-15.56396484375
-18.310546875
-20.1416015625
-21.97265625
-21.05712890625
-10.986328125
-12.8173828125
-6.40869140625
-10.07080078125
-6.40869140625
0
-6.40869140625
-10.07080078125
-6.40869140625
-1.8310546875
5.4931640625
8.23974609375
7.32421875
2.74658203125
-2.74658203125
-1.8310546875
-2.74658203125
2.74658203125
3.662109375
-1.8310546875
-1.8310546875
1.8310546875
1.8310546875
4.57763671875
-3.662109375
-10.986328125
-16.4794921875
-9.1552734375
-5.4931640625
-7.32421875
2.74658203125
3.662109375
-2.74658203125
-13.73291015625
-10.986328125
-6.40869140625
-5.4931640625
-12.8173828125
-10.07080078125
-10.07080078125
-4.57763671875
2.74658203125
0
-10.986328125
-10.07080078125
-7.32421875
-16.4794921875
-21.97265625
-21.97265625
-19.22607421875
-14.6484375
-10.07080078125
-16.4794921875
-18.310546875
-23.8037109375
-25.634765625
-23.8037109375
-24.71923828125
-27.4658203125
-24.71923828125
-21.97265625
-20.1416015625
-18.310546875
-20.1416015625
-21.97265625
-23.8037109375
-26.55029296875
-31.1279296875
-31.1279296875
-32.04345703125
-26.55029296875
-25.634765625
-30.21240234375
-25.634765625
-27.4658203125
-26.55029296875
-38.4521484375
-45.7763671875
-41.19873046875
-36.62109375
-24.71923828125
-22.88818359375
-31.1279296875
-33.87451171875
-34.7900390625
-40.283203125
-35.70556640625
-35.70556640625
-38.4521484375
-33.87451171875
-23.8037109375
-21.97265625
-32.04345703125
-35.70556640625
-33.87451171875
-35.70556640625
-39.36767578125
-40.283203125
-37.53662109375
-36.62109375
-30.21240234375
-27.4658203125
-30.21240234375
-39.36767578125
-37.53662109375
-32.04345703125
-31.1279296875
-35.70556640625
-33.87451171875
-35.70556640625
-36.62109375
-27.4658203125
-30.21240234375
-31.1279296875
-35.70556640625
-32.04345703125
-27.4658203125
-30.21240234375
-28.38134765625
-32.958984375
-29.296875
-23.8037109375
-21.97265625
-28.38134765625
-25.634765625
-36.62109375
-38.4521484375
-33.87451171875
-30.21240234375
-26.55029296875
-24.71923828125
-12.8173828125
-7.32421875
-2.74658203125
0
13.73291015625
30.21240234375
39.36767578125
43.9453125
51.26953125
51.26953125
47.607421875
43.9453125
44.86083984375
38.4521484375
31.1279296875
24.71923828125
32.958984375
45.7763671875
49.4384765625
50.35400390625
46.69189453125
43.9453125
38.4521484375
30.21240234375
23.8037109375
20.1416015625
9.1552734375
5.4931640625
-0.91552734375
-2.74658203125
-10.07080078125
-17.39501953125
-24.71923828125
-38.4521484375
-45.7763671875
-36.62109375
-30.21240234375
-30.21240234375
-26.55029296875
-23.8037109375
-24.71923828125
-29.296875
-43.02978515625
-55.84716796875
-60.4248046875
-72.32666015625
-73.2421875
-77.81982421875
-68.66455078125
-54.931640625
-54.01611328125
-53.1005859375
-57.67822265625
-57.67822265625
-49.4384765625
-57.67822265625
-57.67822265625
-57.67822265625
-57.67822265625
-58.59375
-49.4384765625
-54.931640625
-55.84716796875
-44.86083984375
-44.86083984375
-48.52294921875
-53.1005859375
-45.7763671875
-48.52294921875
-45.7763671875
-48.52294921875
-48.52294921875
-53.1005859375
-63.17138671875
-69.580078125
-76.904296875
-80.56640625
-75.98876953125
-67.7490234375
-41.19873046875
-8.23974609375
27.4658203125
81.48193359375
180.35888671875
291.1376953125
410.15625
533.75244140625
645.44677734375
721.435546875
774.5361328125
792.8466796875
754.39453125
637.20703125
433.04443359375
207.82470703125
-7.32421875
-191.34521484375
-300.29296875
-305.7861328125
-291.1376953125
-279.23583984375
-248.10791015625
-224.30419921875
-197.75390625
-173.9501953125
-142.822265625
-115.3564453125
-80.56640625
-38.4521484375
-10.07080078125
8.23974609375
8.23974609375
5.4931640625
12.8173828125
17.39501953125
15.56396484375
8.23974609375
13.73291015625
14.6484375
19.22607421875
15.56396484375
12.8173828125
11.90185546875
10.986328125
16.4794921875
26.55029296875
22.88818359375
16.4794921875
19.22607421875
25.634765625
35.70556640625
36.62109375
37.53662109375
29.296875
25.634765625
27.4658203125
27.4658203125
31.1279296875
33.87451171875
43.02978515625
51.26953125
55.84716796875
54.931640625
52.18505859375
48.52294921875
54.931640625
49.4384765625
50.35400390625
55.84716796875
75.0732421875
74.15771484375
65.91796875
72.32666015625
77.81982421875
78.7353515625
82.3974609375
77.81982421875
76.904296875
83.31298828125
94.29931640625
101.62353515625
107.11669921875
103.45458984375
108.0322265625
98.876953125
104.3701171875
112.60986328125
114.44091796875
126.3427734375
130.0048828125
140.07568359375
139.16015625
147.39990234375
152.89306640625
149.23095703125
145.56884765625
156.55517578125
167.54150390625
174.86572265625
182.18994140625
186.767578125
192.2607421875
197.75390625
202.33154296875
203.2470703125
207.82470703125
215.14892578125
216.064453125
220.64208984375
234.375
243.5302734375
243.5302734375
252.685546875
255.43212890625
252.685546875
252.685546875
250.8544921875
253.60107421875
260.009765625
259.09423828125
268.24951171875
274.658203125
269.1650390625
266.41845703125
270.08056640625
272.8271484375
260.92529296875
255.43212890625
256.34765625
259.09423828125
266.41845703125
260.009765625
252.685546875
247.1923828125
243.5302734375
234.375
221.5576171875
216.064453125
216.97998046875
211.48681640625
201.416015625
194.091796875
181.2744140625
162.9638671875
151.06201171875
139.16015625
130.0048828125
112.60986328125
101.62353515625
98.876953125
98.876953125
85.14404296875
75.98876953125
63.17138671875
52.18505859375
45.7763671875
25.634765625
31.1279296875
36.62109375
31.1279296875
25.634765625
10.07080078125
2.74658203125
1.8310546875
5.4931640625
-5.4931640625
-13.73291015625
-15.56396484375
-11.90185546875
-2.74658203125
-0.91552734375
-8.23974609375
-14.6484375
-15.56396484375
-14.6484375
-21.05712890625
-25.634765625
-23.8037109375
-29.296875
-30.21240234375
-15.56396484375
-17.39501953125
-20.1416015625
-18.310546875
-12.8173828125
-10.986328125
-13.73291015625
-15.56396484375
-22.88818359375
-16.4794921875
-14.6484375
-10.986328125
-4.57763671875
-8.23974609375
-8.23974609375
-9.1552734375
-5.4931640625
-8.23974609375
-11.90185546875
-1.8310546875
2.74658203125
0
-2.74658203125
-0.91552734375
-6.40869140625
-8.23974609375
-11.90185546875
-6.40869140625
-3.662109375
1.8310546875
3.662109375
3.662109375
3.662109375
4.57763671875
8.23974609375
4.57763671875
-2.74658203125
-4.57763671875
1.8310546875
3.662109375
10.986328125
6.40869140625
0.91552734375
2.74658203125
5.4931640625
3.662109375
2.74658203125
-4.57763671875
1.8310546875
2.74658203125
5.4931640625
10.07080078125
10.07080078125
0
-6.40869140625
1.8310546875
0
0.91552734375
-0.91552734375
-5.4931640625
0
-4.57763671875
-7.32421875
-3.662109375
3.662109375
-4.57763671875
-13.73291015625
-16.4794921875
-13.73291015625
-7.32421875
-5.4931640625
-0.91552734375
-6.40869140625
-14.6484375
-14.6484375
-18.310546875
-12.8173828125
-26.55029296875
-25.634765625
-23.8037109375
-22.88818359375
-23.8037109375
-21.05712890625
-19.22607421875
-22.88818359375
-30.21240234375
-30.21240234375
-28.38134765625
-30.21240234375
-26.55029296875
-27.4658203125
-24.71923828125
-28.38134765625
-25.634765625
-32.04345703125
-34.7900390625
-39.36767578125
-45.7763671875
-41.19873046875
-36.62109375
-42.1142578125
-32.04345703125
-36.62109375
-40.283203125
-38.4521484375
-41.19873046875
-47.607421875
-54.01611328125
-47.607421875
-43.02978515625
-41.19873046875
-46.69189453125
-46.69189453125
-49.4384765625
-45.7763671875
-50.35400390625
-47.607421875
-49.4384765625
-46.69189453125
-43.02978515625
-37.53662109375
-42.1142578125
-42.1142578125
-48.52294921875
-46.69189453125
-43.02978515625
-54.01611328125
-56.7626953125
-55.84716796875
-51.26953125
-43.02978515625
-45.7763671875
-49.4384765625
-42.1142578125
-51.26953125
-44.86083984375
-50.35400390625
-58.59375
-54.931640625
-62.255859375
-54.931640625
-47.607421875
-43.02978515625
-45.7763671875
-54.01611328125
-53.1005859375
-55.84716796875
-55.84716796875
-53.1005859375
-51.26953125
-40.283203125
-32.04345703125
-32.958984375
-25.634765625
-7.32421875
2.74658203125
-3.662109375
3.662109375
6.40869140625
10.986328125
8.23974609375
11.90185546875
9.1552734375
3.662109375
-5.4931640625
-13.73291015625
-4.57763671875
9.1552734375
17.39501953125
25.634765625
35.70556640625
34.7900390625
20.1416015625
12.8173828125
3.662109375
-0.91552734375
-2.74658203125
-8.23974609375
-16.4794921875
-20.1416015625
-23.8037109375
-21.05712890625
-30.21240234375
-37.53662109375
-41.19873046875
-44.86083984375
-39.36767578125
-39.36767578125
-43.9453125
-39.36767578125
-42.1142578125
-40.283203125
-51.26953125
-67.7490234375
-71.4111328125
-67.7490234375
-61.34033203125
-65.00244140625
-67.7490234375
-63.17138671875
-62.255859375
-59.50927734375
-54.01611328125
-61.34033203125
-62.255859375
-65.91796875
-75.0732421875
-75.98876953125
-64.0869140625
-56.7626953125
-54.931640625
-54.01611328125
-56.7626953125
-59.50927734375
-57.67822265625
-59.50927734375
-65.91796875
-66.83349609375
-62.255859375
-59.50927734375
-53.1005859375
-55.84716796875
-64.0869140625
-77.81982421875
-83.31298828125
-82.3974609375
-74.15771484375
-71.4111328125
-65.00244140625
-37.53662109375
-17.39501953125
14.6484375
71.4111328125
162.9638671875
260.009765625
362.548828125
474.2431640625
579.52880859375
641.78466796875
684.814453125
694.88525390625
647.27783203125
509.033203125
292.05322265625
93.3837890625
-76.904296875
-214.2333984375
-292.05322265625
-283.8134765625
-272.8271484375
-260.009765625
-225.2197265625
-212.40234375
-201.416015625
-174.86572265625
-157.470703125
-134.58251953125
-106.201171875
-78.7353515625
-48.52294921875
-22.88818359375
-5.4931640625
0
-1.8310546875
4.57763671875
4.57763671875
0.91552734375
5.4931640625
1.8310546875
9.1552734375
7.32421875
5.4931640625
11.90185546875
9.1552734375
7.32421875
13.73291015625
4.57763671875
4.57763671875
10.07080078125
15.56396484375
25.634765625
31.1279296875
21.97265625
21.05712890625
21.97265625
28.38134765625
25.634765625
19.22607421875
25.634765625
31.1279296875
36.62109375
42.1142578125
45.7763671875
50.35400390625
46.69189453125
45.7763671875
51.26953125
38.4521484375
48.52294921875
56.7626953125
65.91796875
69.580078125
72.32666015625
66.83349609375
67.7490234375
70.49560546875
70.49560546875
75.0732421875
79.65087890625
79.65087890625
90.63720703125
97.0458984375
92.46826171875
94.29931640625
95.21484375
105.28564453125
104.3701171875
102.5390625
108.94775390625
118.10302734375
130.92041015625
130.0048828125
129.08935546875
133.6669921875
142.822265625
147.39990234375
148.3154296875
147.39990234375
157.470703125
163.87939453125
177.6123046875
180.35888671875
180.35888671875
181.2744140625
187.68310546875
189.51416015625
194.091796875
205.99365234375
214.2333984375
217.8955078125
225.2197265625
227.05078125
237.12158203125
236.2060546875
235.29052734375
238.037109375
240.78369140625
240.78369140625
244.44580078125
242.61474609375
249.93896484375
253.60107421875
256.34765625
254.5166015625
255.43212890625
249.0234375
247.1923828125
247.1923828125
243.5302734375
247.1923828125
247.1923828125
238.95263671875
238.037109375
238.037109375
227.05078125
215.14892578125
205.99365234375
207.82470703125
202.33154296875
193.17626953125
188.5986328125
174.86572265625
173.9501953125
154.72412109375
141.90673828125
124.51171875
114.44091796875
105.28564453125
99.79248046875
97.96142578125
87.890625
79.65087890625
79.65087890625
75.98876953125
55.84716796875
46.69189453125
34.7900390625
29.296875
33.87451171875
34.7900390625
25.634765625
20.1416015625
18.310546875
12.8173828125
9.1552734375
2.74658203125
-5.4931640625
-9.1552734375
-9.1552734375
-1.8310546875
4.57763671875
6.40869140625
-4.57763671875
-4.57763671875
-3.662109375
-4.57763671875
-15.56396484375
-14.6484375
-10.986328125
-6.40869140625
-6.40869140625
-3.662109375
-0.91552734375
5.4931640625
-9.1552734375
-0.91552734375
-0.91552734375
-6.40869140625
-0.91552734375
-9.1552734375
-2.74658203125
4.57763671875
4.57763671875
-3.662109375
-5.4931640625
2.74658203125
0.91552734375
-3.662109375
6.40869140625
11.90185546875
10.986328125
10.07080078125
15.56396484375
9.1552734375
7.32421875
12.8173828125
10.986328125
5.4931640625
12.8173828125
12.8173828125
14.6484375
15.56396484375
10.986328125
19.22607421875
20.1416015625
13.73291015625
17.39501953125
18.310546875
12.8173828125
12.8173828125
21.97265625
25.634765625
17.39501953125
21.05712890625
27.4658203125
16.4794921875
14.6484375
15.56396484375
21.97265625
19.22607421875
24.71923828125
26.55029296875
24.71923828125
21.97265625
17.39501953125
15.56396484375
4.57763671875
-0.91552734375
16.4794921875
24.71923828125
24.71923828125
23.8037109375
17.39501953125
14.6484375
21.05712890625
15.56396484375
12.8173828125
5.4931640625
5.4931640625
10.986328125
13.73291015625
12.8173828125
13.73291015625
12.8173828125
5.4931640625
1.8310546875
-1.8310546875
-3.662109375
2.74658203125
0.91552734375
4.57763671875
7.32421875
8.23974609375
7.32421875
4.57763671875
2.74658203125
-0.91552734375
1.8310546875
-3.662109375
1.8310546875
5.4931640625
4.57763671875
-0.91552734375
0.91552734375
0.91552734375
5.4931640625
-12.8173828125
-10.986328125
-6.40869140625
-11.90185546875
-10.07080078125
-7.32421875
-1.8310546875
0.91552734375
-10.986328125
-11.90185546875
-3.662109375
-7.32421875
-10.07080078125
-11.90185546875
-7.32421875
-5.4931640625
-10.07080078125
-7.32421875
-1.8310546875
-0.91552734375
-5.4931640625
-13.73291015625
-10.986328125
-9.1552734375
-4.57763671875
-9.1552734375
-18.310546875
-16.4794921875
-8.23974609375
-11.90185546875
-18.310546875
-21.97265625
-10.07080078125
-7.32421875
-8.23974609375
-4.57763671875
0
-5.4931640625
-11.90185546875
-12.8173828125
-15.56396484375
-17.39501953125
-18.310546875
-13.73291015625
-4.57763671875
6.40869140625
19.22607421875
21.05712890625
21.97265625
41.19873046875
59.50927734375
74.15771484375
69.580078125
63.17138671875
64.0869140625
57.67822265625
54.931640625
48.52294921875
48.52294921875
46.69189453125
50.35400390625
59.50927734375
56.7626953125
59.50927734375
60.4248046875
62.255859375
54.01611328125
49.4384765625
50.35400390625
40.283203125
37.53662109375
31.1279296875
20.1416015625
13.73291015625
12.8173828125
7.32421875
5.4931640625
1.8310546875
-9.1552734375
-12.8173828125
-16.4794921875
-11.90185546875
-6.40869140625
-0.91552734375
-4.57763671875
-10.986328125
-21.97265625
-29.296875
-37.53662109375
-37.53662109375
-41.19873046875
-52.18505859375
-39.36767578125
-33.87451171875
-33.87451171875
-32.958984375
-28.38134765625
-31.1279296875
-36.62109375
-41.19873046875
-39.36767578125
-40.283203125
-35.70556640625
-32.04345703125
-21.97265625
-11.90185546875
-22.88818359375
-27.4658203125
-32.04345703125
-27.4658203125
-30.21240234375
-33.87451171875
-29.296875
-24.71923828125
-20.1416015625
-21.97265625
-23.8037109375
-29.296875
-36.62109375
-47.607421875
-48.52294921875
-39.36767578125
-37.53662109375
-12.8173828125
18.310546875
59.50927734375
116.27197265625
202.33154296875
305.7861328125
422.05810546875
552.06298828125
662.841796875
736.99951171875
790.10009765625
802.001953125
773.62060546875
653.6865234375
444.03076171875
211.48681640625
7.32421875
-167.54150390625
-272.8271484375
-286.56005859375
-267.333984375
-254.5166015625
-223.388671875
-202.33154296875
-170.2880859375
-146.484375
-118.10302734375
-86.0595703125
-56.7626953125
-21.05712890625
0
21.05712890625
29.296875
38.4521484375
41.19873046875
42.1142578125
46.69189453125
35.70556640625
30.21240234375
36.62109375
35.70556640625
35.70556640625
43.9453125
37.53662109375
34.7900390625
36.62109375
32.958984375
39.36767578125
36.62109375
37.53662109375
42.1142578125
44.86083984375
45.7763671875
43.9453125
48.52294921875
54.01611328125
53.1005859375
52.18505859375
44.86083984375
46.69189453125
49.4384765625
58.59375
65.00244140625
59.50927734375
62.255859375
65.91796875
71.4111328125
65.91796875
61.34033203125
65.91796875
70.49560546875
73.2421875
79.65087890625
79.65087890625
73.2421875
74.15771484375
82.3974609375
87.890625
90.63720703125
94.29931640625
101.62353515625
107.11669921875
108.94775390625
108.0322265625
110.77880859375
114.44091796875
117.1875
118.10302734375
110.77880859375
119.93408203125
128.173828125
144.6533203125
151.06201171875
161.1328125
150.146484375
150.146484375
151.06201171875
165.71044921875
173.03466796875
180.35888671875
178.52783203125
188.5986328125
203.2470703125
202.33154296875
204.16259765625
219.7265625
216.97998046875
216.064453125
218.81103515625
230.712890625
239.8681640625
252.685546875
256.34765625
260.009765625
261.8408203125
260.009765625
267.333984375
266.41845703125
269.1650390625
276.4892578125
277.40478515625
285.64453125
287.4755859375
284.72900390625
288.39111328125
283.8134765625
281.06689453125
281.982421875
276.4892578125
278.3203125
279.23583984375
284.72900390625
279.23583984375
273.74267578125
264.58740234375
256.34765625
251.77001953125
240.78369140625
228.8818359375
217.8955078125
213.31787109375
205.078125
196.83837890625
191.34521484375
173.03466796875
152.89306640625
143.73779296875
130.92041015625
121.76513671875
119.0185546875
108.0322265625
89.7216796875
80.56640625
68.66455078125
64.0869140625
54.931640625
46.69189453125
43.02978515625
32.958984375
35.70556640625
27.4658203125
25.634765625
22.88818359375
14.6484375
6.40869140625
9.1552734375
7.32421875
-1.8310546875
-10.986328125
-8.23974609375
-0.91552734375
4.57763671875
2.74658203125
-4.57763671875
-10.07080078125
-15.56396484375
-15.56396484375
-21.97265625
-24.71923828125
-21.05712890625
-18.310546875
-14.6484375
-14.6484375
-13.73291015625
-6.40869140625
-10.07080078125
-18.310546875
-19.22607421875
-25.634765625
-21.97265625
-15.56396484375
-10.07080078125
-0.91552734375
-3.662109375
-9.1552734375
-12.8173828125
-13.73291015625
-16.4794921875
-16.4794921875
-15.56396484375
-13.73291015625
-10.07080078125
-3.662109375
1.8310546875
-0.91552734375
-1.8310546875
-1.8310546875
1.8310546875
7.32421875
3.662109375
3.662109375
10.07080078125
6.40869140625
3.662109375
12.8173828125
10.07080078125
6.40869140625
8.23974609375
1.8310546875
1.8310546875
10.07080078125
20.1416015625
14.6484375
10.986328125
15.56396484375
19.22607421875
13.73291015625
3.662109375
7.32421875
8.23974609375
16.4794921875
19.22607421875
10.986328125
12.8173828125
6.40869140625
-0.91552734375
-3.662109375
-8.23974609375
-1.8310546875
2.74658203125
2.74658203125
0.91552734375
3.662109375
-0.91552734375
-1.8310546875
1.8310546875
-7.32421875
-7.32421875
-15.56396484375
-8.23974609375
-11.90185546875
-11.90185546875
-3.662109375
3.662109375
0.91552734375
0
-9.1552734375
-11.90185546875
-14.6484375
-7.32421875
0
-4.57763671875
-5.4931640625
-7.32421875
-6.40869140625
-10.986328125
-22.88818359375
-22.88818359375
-22.88818359375
-10.07080078125
-11.90185546875
-17.39501953125
-14.6484375
-15.56396484375
-20.1416015625
-17.39501953125
-18.310546875
-19.22607421875
-25.634765625
-19.22607421875
-23.8037109375
-20.1416015625
-7.32421875
-12.8173828125
-22.88818359375
-20.1416015625
-22.88818359375
-19.22607421875
-21.05712890625
-22.88818359375
-22.88818359375
-24.71923828125
-23.8037109375
-24.71923828125
-22.88818359375
-22.88818359375
-29.296875
-26.55029296875
-27.4658203125
-34.7900390625
-31.1279296875
-29.296875
-28.38134765625
-30.21240234375
-25.634765625
-26.55029296875
-26.55029296875
-35.70556640625
-30.21240234375
-33.87451171875
-31.1279296875
-25.634765625
-30.21240234375
-31.1279296875
-20.1416015625
-23.8037109375
-32.958984375
-34.7900390625
-36.62109375
-33.87451171875
-28.38134765625
-29.296875
-23.8037109375
-14.6484375
-21.05712890625
-17.39501953125
-15.56396484375
-12.8173828125
-16.4794921875
7.32421875
37.53662109375
60.4248046875
58.59375
50.35400390625
49.4384765625
48.52294921875
42.1142578125
37.53662109375
27.4658203125
17.39501953125
24.71923828125
38.4521484375
51.26953125
44.86083984375
47.607421875
48.52294921875
36.62109375
28.38134765625
24.71923828125
25.634765625
28.38134765625
33.87451171875
22.88818359375
3.662109375
-7.32421875
-15.56396484375
-15.56396484375
-21.05712890625
-27.4658203125
-31.1279296875
-27.4658203125
-13.73291015625
-5.4931640625
-16.4794921875
-18.310546875
-28.38134765625
-39.36767578125
-54.01611328125
-63.17138671875
-65.91796875
-65.91796875
-57.67822265625
-50.35400390625
-50.35400390625
-57.67822265625
-54.01611328125
-61.34033203125
-61.34033203125
-52.18505859375
-60.4248046875
-62.255859375
-51.26953125
-48.52294921875
-48.52294921875
-45.7763671875
-46.69189453125
-48.52294921875
-52.18505859375
-58.59375
-54.01611328125
-56.7626953125
-52.18505859375
-43.02978515625
-42.1142578125
-37.53662109375
-36.62109375
-45.7763671875
-40.283203125
-53.1005859375
-65.91796875
-59.50927734375
-53.1005859375
-52.18505859375
-43.9453125
-20.1416015625
8.23974609375
35.70556640625
101.62353515625
200.50048828125
306.70166015625
432.12890625
574.03564453125
688.4765625
762.63427734375
808.41064453125
812.07275390625
757.14111328125
622.55859375
395.5078125
181.2744140625
-12.8173828125
-176.69677734375
-277.40478515625
-277.40478515625
-267.333984375
-253.60107421875
-230.712890625
-213.31787109375
-189.51416015625
-162.9638671875
-130.0048828125
-84.228515625
-49.4384765625
-28.38134765625
-5.4931640625
4.57763671875
7.32421875
17.39501953125
21.97265625
19.22607421875
16.4794921875
13.73291015625
16.4794921875
18.310546875
21.05712890625
25.634765625
26.55029296875
23.8037109375
28.38134765625
30.21240234375
25.634765625
31.1279296875
43.9453125
43.9453125
47.607421875
42.1142578125
44.86083984375
38.4521484375
36.62109375
37.53662109375
43.02978515625
54.931640625
56.7626953125
62.255859375
59.50927734375
55.84716796875
58.59375
56.7626953125
57.67822265625
58.59375
65.00244140625
69.580078125
75.0732421875
75.98876953125
85.14404296875
83.31298828125
77.81982421875
75.0732421875
87.890625
89.7216796875
90.63720703125
104.3701171875
108.94775390625
108.94775390625
102.5390625
99.79248046875
104.3701171875
110.77880859375
111.6943359375
118.10302734375
125.42724609375
129.08935546875
138.24462890625
140.9912109375
144.6533203125
146.484375
150.146484375
156.55517578125
156.55517578125
162.04833984375
172.119140625
182.18994140625
186.767578125
192.2607421875
195.00732421875
203.2470703125
209.65576171875
213.31787109375
216.064453125
216.064453125
230.712890625
243.5302734375
254.5166015625
257.26318359375
258.1787109375
256.34765625
257.26318359375
260.009765625
265.5029296875
270.99609375
282.89794921875
293.88427734375
290.22216796875
292.05322265625
294.7998046875
295.71533203125
299.37744140625
299.37744140625
292.05322265625
290.22216796875
290.22216796875
292.96875
286.56005859375
291.1376953125
297.54638671875
291.1376953125
285.64453125
283.8134765625
277.40478515625
270.08056640625
261.8408203125
253.60107421875
245.361328125
227.05078125
215.14892578125
210.5712890625
205.078125
187.68310546875
162.04833984375
151.06201171875
149.23095703125
144.6533203125
135.498046875
121.76513671875
108.0322265625
106.201171875
97.0458984375
89.7216796875
71.4111328125
54.931640625
53.1005859375
58.59375
52.18505859375
44.86083984375
33.87451171875
21.05712890625
23.8037109375
15.56396484375
13.73291015625
10.986328125
12.8173828125
3.662109375
7.32421875
7.32421875
4.57763671875
1.8310546875
-4.57763671875
-4.57763671875
-5.4931640625
-6.40869140625
-7.32421875
-9.1552734375
0
-3.662109375
-12.8173828125
-7.32421875
-12.8173828125
-17.39501953125
-12.8173828125
-16.4794921875
-18.310546875
-10.986328125
-4.57763671875
0.91552734375
-5.4931640625
-1.8310546875
-3.662109375
-6.40869140625
-8.23974609375
-6.40869140625
-2.74658203125
8.23974609375
6.40869140625
9.1552734375
6.40869140625
2.74658203125
3.662109375
6.40869140625
1.8310546875
8.23974609375
2.74658203125
2.74658203125
10.07080078125
4.57763671875
12.8173828125
11.90185546875
14.6484375
13.73291015625
4.57763671875
8.23974609375
13.73291015625
17.39501953125
20.1416015625
15.56396484375
22.88818359375
21.05712890625
14.6484375
18.310546875
10.07080078125
7.32421875
15.56396484375
17.39501953125
18.310546875
12.8173828125
16.4794921875
19.22607421875
16.4794921875
9.1552734375
9.1552734375
4.57763671875
2.74658203125
13.73291015625
13.73291015625
10.07080078125
16.4794921875
17.39501953125
13.73291015625
7.32421875
8.23974609375
13.73291015625
13.73291015625
4.57763671875
1.8310546875
2.74658203125
7.32421875
9.1552734375
4.57763671875
0.91552734375
1.8310546875
-4.57763671875
-9.1552734375
0.91552734375
0.91552734375
2.74658203125
1.8310546875
5.4931640625
-3.662109375
-7.32421875
-9.1552734375
-9.1552734375
-7.32421875
-1.8310546875
-3.662109375
-6.40869140625
-5.4931640625
-5.4931640625
-15.56396484375
-20.1416015625
-18.310546875
-16.4794921875
-10.07080078125
-3.662109375
-3.662109375
-6.40869140625
-0.91552734375
-7.32421875
-10.07080078125
-12.8173828125
-15.56396484375
-15.56396484375
-13.73291015625
-14.6484375
-6.40869140625
-6.40869140625
-10.986328125
-10.986328125
-7.32421875
-10.986328125
-16.4794921875
-21.05712890625
-10.986328125
-6.40869140625
-4.57763671875
-9.1552734375
-8.23974609375
-10.07080078125
-8.23974609375
-7.32421875
-13.73291015625
-21.05712890625
-17.39501953125
-11.90185546875
-3.662109375
-1.8310546875
-10.986328125
-16.4794921875
-21.97265625
-26.55029296875
-19.22607421875
-19.22607421875
-18.310546875
-14.6484375
-9.1552734375
-9.1552734375
-14.6484375
-15.56396484375
-21.05712890625
-23.8037109375
-27.4658203125
-34.7900390625
-23.8037109375
-13.73291015625
-13.73291015625
-15.56396484375
-10.07080078125
-22.88818359375
-23.8037109375
-14.6484375
-12.8173828125
-12.8173828125
-6.40869140625
7.32421875
29.296875
43.02978515625
53.1005859375
55.84716796875
47.607421875
50.35400390625
50.35400390625
51.26953125
40.283203125
41.19873046875
43.02978515625
38.4521484375
43.02978515625
53.1005859375
48.52294921875
50.35400390625
52.18505859375
46.69189453125
38.4521484375
38.4521484375
40.283203125
35.70556640625
28.38134765625
21.05712890625
8.23974609375
-8.23974609375
-11.90185546875
-11.90185546875
-11.90185546875
-24.71923828125
-19.22607421875
-19.22607421875
-10.07080078125
-3.662109375
-14.6484375
-13.73291015625
-26.55029296875
-34.7900390625
-46.69189453125
-53.1005859375
-58.59375
-53.1005859375
-42.1142578125
-43.9453125
-52.18505859375
-54.01611328125
-51.26953125
-51.26953125
-49.4384765625
-50.35400390625
-42.1142578125
-42.1142578125
-50.35400390625
-46.69189453125
-51.26953125
-55.84716796875
-48.52294921875
-46.69189453125
-51.26953125
-46.69189453125
-38.4521484375
-42.1142578125
-43.9453125
-40.283203125
-43.02978515625
-39.36767578125
-45.7763671875
-43.9453125
-47.607421875
-48.52294921875
-53.1005859375
-54.01611328125
-57.67822265625
-70.49560546875
-70.49560546875
-54.01611328125
-30.21240234375
5.4931640625
59.50927734375
131.8359375
240.78369140625
355.224609375
479.736328125
610.65673828125
704.04052734375
767.2119140625
802.001953125
784.60693359375
708.6181640625
556.640625
339.66064453125
129.08935546875
-74.15771484375
-216.064453125
-286.56005859375
-280.1513671875
-266.41845703125
-240.78369140625
-225.2197265625
-196.83837890625
-168.45703125
-145.56884765625
-118.10302734375
-80.56640625
-55.84716796875
-28.38134765625
-10.07080078125
7.32421875
19.22607421875
32.04345703125
33.87451171875
33.87451171875
24.71923828125
21.05712890625
24.71923828125
32.04345703125
18.310546875
16.4794921875
29.296875
29.296875
28.38134765625
35.70556640625
35.70556640625
31.1279296875
33.87451171875
32.958984375
31.1279296875
36.62109375
36.62109375
43.02978515625
45.7763671875
44.86083984375
41.19873046875
43.02978515625
43.9453125
43.9453125
45.7763671875
49.4384765625
57.67822265625
53.1005859375
55.84716796875
65.00244140625
62.255859375
63.17138671875
66.83349609375
72.32666015625
66.83349609375
65.91796875
66.83349609375
75.0732421875
81.48193359375
86.97509765625
90.63720703125
88.80615234375
83.31298828125
92.46826171875
88.80615234375
97.0458984375
99.79248046875
108.94775390625
119.93408203125
120.849609375
130.0048828125
132.75146484375
134.58251953125
123.59619140625
129.08935546875
137.3291015625
145.56884765625
161.1328125
162.9638671875
164.794921875
160.21728515625
177.6123046875
176.69677734375
185.85205078125
184.02099609375
186.767578125
191.34521484375
207.82470703125
216.97998046875
227.96630859375
228.8818359375
238.037109375
240.78369140625
242.61474609375
247.1923828125
255.43212890625
260.009765625
260.92529296875
266.41845703125
270.08056640625
273.74267578125
270.99609375
270.08056640625
270.08056640625
267.333984375
271.91162109375
280.1513671875
289.306640625
287.4755859375
281.982421875
284.72900390625
292.96875
286.56005859375
285.64453125
277.40478515625
273.74267578125
274.658203125
270.99609375
273.74267578125
260.92529296875
251.77001953125
243.5302734375
232.5439453125
221.5576171875
215.14892578125
197.75390625
185.85205078125
178.52783203125
168.45703125
160.21728515625
152.89306640625
137.3291015625
121.76513671875
112.60986328125
98.876953125
92.46826171875
80.56640625
72.32666015625
65.91796875
67.7490234375
54.01611328125
42.1142578125
36.62109375
31.1279296875
24.71923828125
13.73291015625
14.6484375
20.1416015625
16.4794921875
14.6484375
5.4931640625
-7.32421875
-12.8173828125
-10.07080078125
-10.986328125
-4.57763671875
-10.07080078125
-12.8173828125
-10.07080078125
-7.32421875
-10.07080078125
-14.6484375
-10.986328125
-13.73291015625
-16.4794921875
-12.8173828125
-15.56396484375
-14.6484375
-11.90185546875
-3.662109375
-10.986328125
-14.6484375
-14.6484375
-11.90185546875
-15.56396484375
-15.56396484375
-10.07080078125
-10.07080078125
-0.91552734375
2.74658203125
-2.74658203125
-0.91552734375
-5.4931640625
-0.91552734375
-2.74658203125
2.74658203125
11.90185546875
5.4931640625
2.74658203125
7.32421875
10.986328125
17.39501953125
11.90185546875
7.32421875
10.07080078125
7.32421875
10.07080078125
10.986328125
11.90185546875
23.8037109375
20.1416015625
16.4794921875
10.07080078125
10.07080078125
9.1552734375
5.4931640625
9.1552734375
10.986328125
9.1552734375
16.4794921875
9.1552734375
6.40869140625
11.90185546875
7.32421875
-4.57763671875
-3.662109375
7.32421875
21.05712890625
18.310546875
20.1416015625
22.88818359375
14.6484375
11.90185546875
6.40869140625
0.91552734375
4.57763671875
4.57763671875
9.1552734375
15.56396484375
19.22607421875
16.4794921875
10.986328125
9.1552734375
-0.91552734375
1.8310546875
-0.91552734375
-0.91552734375
8.23974609375
10.986328125
12.8173828125
12.8173828125
8.23974609375
6.40869140625
-0.91552734375
-0.91552734375
0
0.91552734375
2.74658203125
14.6484375
10.986328125
10.986328125
2.74658203125
0
-9.1552734375
-9.1552734375
-9.1552734375
-2.74658203125
-3.662109375
-2.74658203125
0
-7.32421875
-6.40869140625
-13.73291015625
-14.6484375
-12.8173828125
-16.4794921875
-15.56396484375
-10.07080078125
-6.40869140625
-1.8310546875
3.662109375
0
-8.23974609375
-12.8173828125
-16.4794921875
-14.6484375
-10.07080078125
-1.8310546875
-3.662109375
-4.57763671875
-10.986328125
-17.39501953125
-16.4794921875
-14.6484375
-20.1416015625
-12.8173828125
-10.07080078125
-10.07080078125
-3.662109375
-0.91552734375
-9.1552734375
-3.662109375
-9.1552734375
-17.39501953125
-19.22607421875
-17.39501953125
-10.986328125
-7.32421875
-2.74658203125
-8.23974609375
1.8310546875
5.4931640625
-1.8310546875
-6.40869140625
-16.4794921875
-11.90185546875
-10.07080078125
-7.32421875
-5.4931640625
-10.07080078125
-2.74658203125
0
-3.662109375
-5.4931640625
-12.8173828125
-17.39501953125
-18.310546875
-8.23974609375
0
3.662109375
-2.74658203125
-4.57763671875
16.4794921875
29.296875
47.607421875
55.84716796875
62.255859375
68.66455078125
67.7490234375
57.67822265625
53.1005859375
52.18505859375
40.283203125
32.958984375
38.4521484375
46.69189453125
54.01611328125
55.84716796875
60.4248046875
65.00244140625
59.50927734375
54.931640625
51.26953125
47.607421875
44.86083984375
26.55029296875
20.1416015625
9.1552734375
0.91552734375
3.662109375
3.662109375
3.662109375
-6.40869140625
-14.6484375
-10.07080078125
-3.662109375
-4.57763671875
0.91552734375
3.662109375
-7.32421875
-15.56396484375
-20.1416015625
-31.1279296875
-36.62109375
-40.283203125
-45.7763671875
-43.02978515625
-32.958984375
-24.71923828125
-23.8037109375
-21.97265625
-34.7900390625
-35.70556640625
-32.04345703125
-32.04345703125
-30.21240234375
-25.634765625
-26.55029296875
-21.97265625
-20.1416015625
-25.634765625
-24.71923828125
-32.958984375
-36.62109375
-32.958984375
-34.7900390625
-33.87451171875
-20.1416015625
-15.56396484375
-11.90185546875
-23.8037109375
-27.4658203125
-28.38134765625
-42.1142578125
-47.607421875
-43.9453125
-38.4521484375
-34.7900390625
-17.39501953125
10.986328125
42.1142578125
93.3837890625
183.10546875
288.39111328125
401.91650390625
536.4990234375
664.6728515625
753.47900390625
816.650390625
845.947265625
809.326171875
713.19580078125
529.1748046875
313.1103515625
107.11669921875
-86.0595703125
-212.40234375
-257.26318359375
-246.27685546875
-233.45947265625
-205.078125
-185.85205078125
-161.1328125
-143.73779296875
-116.27197265625
-90.63720703125
-61.34033203125
-24.71923828125
4.57763671875
21.05712890625
32.04345703125
38.4521484375
41.19873046875
37.53662109375
37.53662109375
32.958984375
34.7900390625
40.283203125
43.02978515625
44.86083984375
39.36767578125
40.283203125
44.86083984375
44.86083984375
40.283203125
39.36767578125
48.52294921875
45.7763671875
47.607421875
54.931640625
59.50927734375
64.0869140625
59.50927734375
55.84716796875
64.0869140625
59.50927734375
60.4248046875
65.91796875
74.15771484375
76.904296875
82.3974609375
89.7216796875
83.31298828125
80.56640625
80.56640625
84.228515625
82.3974609375
83.31298828125
91.552734375
100.7080078125
101.62353515625
108.0322265625
104.3701171875
99.79248046875
111.6943359375
113.525390625
119.0185546875
125.42724609375
137.3291015625
137.3291015625
134.58251953125
134.58251953125
138.24462890625
142.822265625
140.9912109375
144.6533203125
152.89306640625
158.38623046875
168.45703125
168.45703125
163.87939453125
168.45703125
173.9501953125
173.03466796875
184.9365234375
192.2607421875
195.9228515625
197.75390625
204.16259765625
221.5576171875
227.96630859375
233.45947265625
238.037109375
239.8681640625
248.10791015625
251.77001953125
262.75634765625
267.333984375
270.08056640625
271.91162109375
279.23583984375
291.1376953125
290.22216796875
294.7998046875
300.29296875
300.29296875
303.955078125
313.1103515625
314.02587890625
318.603515625
319.51904296875
320.4345703125
322.265625
327.7587890625
319.51904296875
316.7724609375
314.94140625
317.68798828125
323.18115234375
314.94140625
306.70166015625
300.29296875
296.630859375
295.71533203125
282.89794921875
274.658203125
255.43212890625
257.26318359375
251.77001953125
238.037109375
233.45947265625
225.2197265625
210.5712890625
194.091796875
179.443359375
158.38623046875
155.6396484375
147.39990234375
139.16015625
130.92041015625
122.6806640625
116.27197265625
103.45458984375
94.29931640625
82.3974609375
70.49560546875
65.00244140625
62.255859375
59.50927734375
55.84716796875
54.01611328125
47.607421875
40.283203125
32.958984375
34.7900390625
28.38134765625
32.958984375
34.7900390625
31.1279296875
31.1279296875
26.55029296875
25.634765625
20.1416015625
13.73291015625
14.6484375
18.310546875
16.4794921875
18.310546875
19.22607421875
20.1416015625
18.310546875
15.56396484375
13.73291015625
17.39501953125
27.4658203125
24.71923828125
21.05712890625
25.634765625
21.05712890625
18.310546875
19.22607421875
28.38134765625
21.05712890625
21.05712890625
21.05712890625
19.22607421875
17.39501953125
22.88818359375
35.70556640625
35.70556640625
32.04345703125
34.7900390625
32.958984375
31.1279296875
33.87451171875
25.634765625
21.97265625
25.634765625
34.7900390625
43.02978515625
32.958984375
29.296875
24.71923828125
21.05712890625
31.1279296875
28.38134765625
34.7900390625
29.296875
29.296875
42.1142578125
43.9453125
43.02978515625
37.53662109375
33.87451171875
29.296875
25.634765625
30.21240234375
35.70556640625
36.62109375
33.87451171875
41.19873046875
50.35400390625
41.19873046875
34.7900390625
29.296875
31.1279296875
29.296875
38.4521484375
43.02978515625
46.69189453125
45.7763671875
31.1279296875
24.71923828125
23.8037109375
21.05712890625
20.1416015625
22.88818359375
29.296875
37.53662109375
37.53662109375
28.38134765625
12.8173828125
16.4794921875
20.1416015625
18.310546875
21.05712890625
10.07080078125
16.4794921875
17.39501953125
19.22607421875
18.310546875
12.8173828125
11.90185546875
13.73291015625
13.73291015625
6.40869140625
10.07080078125
12.8173828125
10.986328125
10.07080078125
1.8310546875
7.32421875
7.32421875
2.74658203125
5.4931640625
-2.74658203125
1.8310546875
10.986328125
11.90185546875
7.32421875
14.6484375
17.39501953125
10.07080078125
5.4931640625
0.91552734375
0.91552734375
1.8310546875
8.23974609375
5.4931640625
2.74658203125
-2.74658203125
-3.662109375
-1.8310546875
-4.57763671875
-5.4931640625
-4.57763671875
-3.662109375
2.74658203125
3.662109375
0.91552734375
-0.91552734375
0.91552734375
-2.74658203125
-0.91552734375
-2.74658203125
-9.1552734375
-7.32421875
0
0
3.662109375
-1.8310546875
0
-1.8310546875
-0.91552734375
-11.90185546875
-10.07080078125
-10.986328125
-8.23974609375
2.74658203125
6.40869140625
3.662109375
-3.662109375
-10.07080078125
-8.23974609375
-15.56396484375
-19.22607421875
-20.1416015625
-12.8173828125
-12.8173828125
-7.32421875
-5.4931640625
-6.40869140625
-5.4931640625
-3.662109375
-6.40869140625
-2.74658203125
10.07080078125
20.1416015625
38.4521484375
54.931640625
67.7490234375
61.34033203125
68.66455078125
58.59375
48.52294921875
43.9453125
43.02978515625
41.19873046875
35.70556640625
48.52294921875
63.17138671875
63.17138671875
61.34033203125
55.84716796875
60.4248046875
50.35400390625
41.19873046875
39.36767578125
44.86083984375
45.7763671875
31.1279296875
26.55029296875
6.40869140625
-1.8310546875
-10.986328125
-10.07080078125
-2.74658203125
-10.986328125
-9.1552734375
8.23974609375
6.40869140625
2.74658203125
-0.91552734375
-7.32421875
-13.73291015625
-25.634765625
-31.1279296875
-39.36767578125
-40.283203125
-35.70556640625
-33.87451171875
-40.283203125
-45.7763671875
-39.36767578125
-41.19873046875
-45.7763671875
-35.70556640625
-33.87451171875
-26.55029296875
-25.634765625
-23.8037109375
-21.05712890625
-24.71923828125
-26.55029296875
-30.21240234375
-32.958984375
-33.87451171875
-27.4658203125
-25.634765625
-21.97265625
-17.39501953125
-21.97265625
-22.88818359375
-26.55029296875
-27.4658203125
-27.4658203125
-32.04345703125
-43.02978515625
-40.283203125
-32.958984375
-28.38134765625
-33.87451171875
-29.296875
-20.1416015625
4.57763671875
32.04345703125
100.7080078125
197.75390625
299.37744140625
411.9873046875
540.1611328125
655.517578125
725.09765625
757.14111328125
759.8876953125
721.435546875
603.33251953125
404.6630859375
198.66943359375
11.90185546875
-150.146484375
-249.93896484375
-261.8408203125
-254.5166015625
-245.361328125
-216.064453125
-193.17626953125
-171.20361328125
-161.1328125
-133.6669921875
-100.7080078125
-75.0732421875
-51.26953125
-28.38134765625
-9.1552734375
10.07080078125
23.8037109375
27.4658203125
30.21240234375
40.283203125
32.958984375
32.04345703125
29.296875
28.38134765625
30.21240234375
31.1279296875
22.88818359375
25.634765625
38.4521484375
44.86083984375
43.02978515625
46.69189453125
40.283203125
42.1142578125
39.36767578125
39.36767578125
44.86083984375
47.607421875
54.01611328125
55.84716796875
58.59375
56.7626953125
54.931640625
54.931640625
53.1005859375
58.59375
60.4248046875
66.83349609375
72.32666015625
74.15771484375
73.2421875
69.580078125
69.580078125
81.48193359375
79.65087890625
86.97509765625
88.80615234375
95.21484375
98.876953125
101.62353515625
100.7080078125
100.7080078125
106.201171875
106.201171875
100.7080078125
108.0322265625
108.94775390625
110.77880859375
119.93408203125
123.59619140625
134.58251953125
130.0048828125
125.42724609375
119.93408203125
123.59619140625
140.07568359375
141.90673828125
142.822265625
159.3017578125
169.37255859375
174.86572265625
176.69677734375
178.52783203125
179.443359375
187.68310546875
185.85205078125
196.83837890625
201.416015625
216.064453125
217.8955078125
217.8955078125
218.81103515625
222.47314453125
229.79736328125
240.78369140625
241.69921875
242.61474609375
249.0234375
254.5166015625
261.8408203125
265.5029296875
266.41845703125
270.08056640625
266.41845703125
263.671875
253.60107421875
260.92529296875
266.41845703125
268.24951171875
272.8271484375
275.57373046875
281.982421875
280.1513671875
274.658203125
265.5029296875
260.92529296875
257.26318359375
255.43212890625
247.1923828125
246.27685546875
234.375
221.5576171875
220.64208984375
205.99365234375
196.83837890625
177.6123046875
171.20361328125
167.54150390625
164.794921875
160.21728515625
145.56884765625
120.849609375
108.0322265625
104.3701171875
89.7216796875
76.904296875
73.2421875
65.91796875
61.34033203125
55.84716796875
45.7763671875
43.9453125
26.55029296875
15.56396484375
15.56396484375
6.40869140625
4.57763671875
-1.8310546875
5.4931640625
8.23974609375
0
-3.662109375
-9.1552734375
-16.4794921875
-11.90185546875
-11.90185546875
-22.88818359375
-29.296875
-24.71923828125
-16.4794921875
-22.88818359375
-27.4658203125
-27.4658203125
-30.21240234375
-22.88818359375
-20.1416015625
-26.55029296875
-27.4658203125
-21.05712890625
-16.4794921875
-18.310546875
-14.6484375
-13.73291015625
-13.73291015625
-20.1416015625
-18.310546875
-17.39501953125
-21.97265625
-17.39501953125
-10.986328125
-15.56396484375
-17.39501953125
-10.986328125
-15.56396484375
-21.05712890625
-16.4794921875
-8.23974609375
-11.90185546875
-5.4931640625
-3.662109375
-0.91552734375
-0.91552734375
-2.74658203125
-2.74658203125
0.91552734375
-6.40869140625
-9.1552734375
-5.4931640625
-2.74658203125
6.40869140625
-1.8310546875
-1.8310546875
-4.57763671875
0
-1.8310546875
-9.1552734375
-6.40869140625
1.8310546875
4.57763671875
7.32421875
10.986328125
14.6484375
7.32421875
3.662109375
0
-7.32421875
-6.40869140625
-3.662109375
1.8310546875
1.8310546875
2.74658203125
0.91552734375
-1.8310546875
-6.40869140625
-10.986328125
-13.73291015625
-10.07080078125
-10.986328125
-8.23974609375
-7.32421875
-4.57763671875
-2.74658203125
-10.07080078125
-13.73291015625
-20.1416015625
-25.634765625
-30.21240234375
-21.97265625
-9.1552734375
-11.90185546875
-17.39501953125
-21.05712890625
-20.1416015625
-19.22607421875
-20.1416015625
-17.39501953125
-21.05712890625
-21.05712890625
-19.22607421875
-16.4794921875
-11.90185546875
-22.88818359375
-28.38134765625
-24.71923828125
-23.8037109375
-21.97265625
-22.88818359375
-27.4658203125
-26.55029296875
-22.88818359375
-20.1416015625
-21.05712890625
-25.634765625
-31.1279296875
-33.87451171875
-32.958984375
-36.62109375
-36.62109375
-31.1279296875
-29.296875
-30.21240234375
-30.21240234375
-32.958984375
-31.1279296875
-38.4521484375
-45.7763671875
-42.1142578125
-40.283203125
-31.1279296875
-25.634765625
-28.38134765625
-28.38134765625
-24.71923828125
-36.62109375
-37.53662109375
-36.62109375
-36.62109375
-31.1279296875
-34.7900390625
-32.958984375
-32.04345703125
-30.21240234375
-34.7900390625
-37.53662109375
-31.1279296875
-36.62109375
-39.36767578125
-29.296875
-28.38134765625
-28.38134765625
-23.8037109375
-27.4658203125
-27.4658203125
-40.283203125
-40.283203125
-39.36767578125
-41.19873046875
-38.4521484375
-35.70556640625
-32.958984375
-27.4658203125
-31.1279296875
-39.36767578125
-38.4521484375
-40.283203125
-29.296875
-28.38134765625
-32.04345703125
-9.1552734375
3.662109375
12.8173828125
28.38134765625
39.36767578125
42.1142578125
30.21240234375
20.1416015625
18.310546875
21.05712890625
12.8173828125
13.73291015625
15.56396484375
21.05712890625
36.62109375
34.7900390625
29.296875
26.55029296875
24.71923828125
34.7900390625
28.38134765625
21.05712890625
21.05712890625
19.22607421875
12.8173828125
-5.4931640625
-23.8037109375
-30.21240234375
-36.62109375
-22.88818359375
-18.310546875
-30.21240234375
-36.62109375
-32.958984375
-26.55029296875
-32.04345703125
-34.7900390625
-34.7900390625
-44.86083984375
-61.34033203125
-56.7626953125
-58.59375
-70.49560546875
-65.00244140625
-59.50927734375
-62.255859375
-65.91796875
-66.83349609375
-55.84716796875
-58.59375
-63.17138671875
-65.91796875
-66.83349609375
-64.0869140625
-62.255859375
-58.59375
-56.7626953125
-60.4248046875
-61.34033203125
-56.7626953125
-54.931640625
-48.52294921875
-48.52294921875
-53.1005859375
-56.7626953125
-62.255859375
-58.59375
-62.255859375
-64.0869140625
-65.00244140625
-67.7490234375
-65.00244140625
-73.2421875
-81.48193359375
-75.98876953125
-70.49560546875
-64.0869140625
-49.4384765625
-17.39501953125
25.634765625
97.0458984375
189.51416015625
305.7861328125
429.38232421875
563.04931640625
658.26416015625
713.19580078125
754.39453125
768.12744140625
712.2802734375
585.9375
367.12646484375
146.484375
-43.9453125
-197.75390625
-288.39111328125
-291.1376953125
-282.89794921875
-272.8271484375
-238.037109375
-215.14892578125
-191.34521484375
-173.03466796875
-148.3154296875
-110.77880859375
-73.2421875
-52.18505859375
-37.53662109375
-24.71923828125
0
11.90185546875
11.90185546875
16.4794921875
17.39501953125
12.8173828125
13.73291015625
10.986328125
8.23974609375
11.90185546875
18.310546875
14.6484375
18.310546875
20.1416015625
16.4794921875
12.8173828125
21.05712890625
22.88818359375
18.310546875
21.05712890625
23.8037109375
26.55029296875
32.958984375
33.87451171875
35.70556640625
35.70556640625
29.296875
31.1279296875
32.04345703125
37.53662109375
39.36767578125
40.283203125
45.7763671875
46.69189453125
50.35400390625
50.35400390625
53.1005859375
55.84716796875
57.67822265625
54.01611328125
56.7626953125
65.91796875
71.4111328125
74.15771484375
75.98876953125
78.7353515625
79.65087890625
79.65087890625
78.7353515625
82.3974609375
85.14404296875
90.63720703125
102.5390625
109.86328125
106.201171875
108.94775390625
122.6806640625
122.6806640625
121.76513671875
129.08935546875
133.6669921875
144.6533203125
145.56884765625
151.06201171875
161.1328125
156.55517578125
160.21728515625
165.71044921875
170.2880859375
172.119140625
178.52783203125
189.51416015625
203.2470703125
210.5712890625
204.16259765625
213.31787109375
215.14892578125
220.64208984375
227.96630859375
229.79736328125
240.78369140625
252.685546875
261.8408203125
265.5029296875
260.92529296875
257.26318359375
261.8408203125
259.09423828125
261.8408203125
266.41845703125
274.658203125
280.1513671875
276.4892578125
281.06689453125
277.40478515625
273.74267578125
276.4892578125
274.658203125
262.75634765625
255.43212890625
254.5166015625
257.26318359375
258.1787109375
245.361328125
241.69921875
233.45947265625
220.64208984375
206.9091796875
196.83837890625
184.02099609375
179.443359375
165.71044921875
150.146484375
146.484375
135.498046875
127.25830078125
113.525390625
100.7080078125
88.80615234375
85.14404296875
75.0732421875
66.83349609375
65.00244140625
53.1005859375
47.607421875
41.19873046875
28.38134765625
19.22607421875
10.986328125
3.662109375
2.74658203125
1.8310546875
4.57763671875
-1.8310546875
-6.40869140625
-10.07080078125
-10.986328125
-21.05712890625
-23.8037109375
-24.71923828125
-26.55029296875
-25.634765625
-21.05712890625
-19.22607421875
-27.4658203125
-26.55029296875
-30.21240234375
-34.7900390625
-41.19873046875
-33.87451171875
-30.21240234375
-28.38134765625
-26.55029296875
-26.55029296875
-39.36767578125
-42.1142578125
-35.70556640625
-33.87451171875
-31.1279296875
-33.87451171875
-33.87451171875
-36.62109375
-27.4658203125
-24.71923828125
-27.4658203125
-27.4658203125
-19.22607421875
-17.39501953125
-18.310546875
-27.4658203125
-31.1279296875
-18.310546875
-8.23974609375
-8.23974609375
-13.73291015625
-16.4794921875
-23.8037109375
-24.71923828125
-29.296875
-16.4794921875
-14.6484375
-12.8173828125
-9.1552734375
-5.4931640625
-7.32421875
-4.57763671875
-8.23974609375
-16.4794921875
-13.73291015625
-11.90185546875
-13.73291015625
-3.662109375
6.40869140625
-3.662109375
-11.90185546875
-11.90185546875
-12.8173828125
-13.73291015625
-13.73291015625
-18.310546875
-16.4794921875
-15.56396484375
-8.23974609375
-6.40869140625
-15.56396484375
-20.1416015625
-19.22607421875
-15.56396484375
-16.4794921875
-17.39501953125
-10.07080078125
-15.56396484375
-11.90185546875
-10.986328125
-10.07080078125
-18.310546875
-19.22607421875
-18.310546875
-24.71923828125
-24.71923828125
-25.634765625
-18.310546875
-14.6484375
-13.73291015625
-23.8037109375
-29.296875
-28.38134765625
-32.04345703125
-42.1142578125
-37.53662109375
-32.04345703125
-30.21240234375
-24.71923828125
-26.55029296875
-25.634765625
-31.1279296875
-35.70556640625
-39.36767578125
-44.86083984375
-42.1142578125
-41.19873046875
-36.62109375
-25.634765625
-23.8037109375
-36.62109375
-40.283203125
-44.86083984375
-44.86083984375
-44.86083984375
-42.1142578125
-48.52294921875
-43.9453125
-38.4521484375
-43.02978515625
-40.283203125
-39.36767578125
-43.9453125
-47.607421875
-50.35400390625
-45.7763671875
-40.283203125
-45.7763671875
-42.1142578125
-39.36767578125
-43.9453125
-42.1142578125
-43.02978515625
-48.52294921875
-50.35400390625
-54.01611328125
-40.283203125
-35.70556640625
-32.958984375
-38.4521484375
-46.69189453125
-43.02978515625
-45.7763671875
-51.26953125
-43.9453125
-47.607421875
-48.52294921875
-49.4384765625
-43.9453125
-47.607421875
-42.1142578125
-44.86083984375
-52.18505859375
-56.7626953125
-46.69189453125
-54.931640625
-56.7626953125
-48.52294921875
-45.7763671875
-44.86083984375
-53.1005859375
-50.35400390625
-53.1005859375
-52.18505859375
-54.01611328125
-54.01611328125
-49.4384765625
-43.02978515625
-39.36767578125
-40.283203125
-40.283203125
-31.1279296875
-26.55029296875
-10.986328125
3.662109375
13.73291015625
21.05712890625
27.4658203125
20.1416015625
13.73291015625
16.4794921875
21.05712890625
13.73291015625
1.8310546875
0
13.73291015625
22.88818359375
24.71923828125
28.38134765625
30.21240234375
20.1416015625
7.32421875
7.32421875
8.23974609375
-0.91552734375
-9.1552734375
-9.1552734375
-26.55029296875
-31.1279296875
-40.283203125
-39.36767578125
-37.53662109375
-43.02978515625
-45.7763671875
-40.283203125
-43.02978515625
-32.958984375
-35.70556640625
-38.4521484375
-35.70556640625
-54.931640625
-65.00244140625
-71.4111328125
-76.904296875
-90.63720703125
-89.7216796875
-84.228515625
-75.98876953125
-71.4111328125
-70.49560546875
-68.66455078125
-65.00244140625
-66.83349609375
-71.4111328125
-75.0732421875
-73.2421875
-77.81982421875
-75.98876953125
-71.4111328125
-69.580078125
-69.580078125
-59.50927734375
-65.00244140625
-69.580078125
-66.83349609375
-65.00244140625
-69.580078125
-73.2421875
-67.7490234375
-59.50927734375
-64.0869140625
-74.15771484375
-75.98876953125
-77.81982421875
-82.3974609375
-87.890625
-80.56640625
-81.48193359375
-65.00244140625
-35.70556640625
-4.57763671875
45.7763671875
123.59619140625
238.037109375
353.3935546875
487.060546875
617.0654296875
706.787109375
767.2119140625
811.1572265625
786.43798828125
693.9697265625
520.93505859375
292.96875
75.0732421875
-125.42724609375
-257.26318359375
-307.6171875
-292.96875
-272.8271484375
-264.58740234375
-244.44580078125
-214.2333984375
-184.9365234375
-162.9638671875
-130.92041015625
-96.13037109375
-64.0869140625
-33.87451171875
-9.1552734375
0.91552734375
6.40869140625
8.23974609375
8.23974609375
0.91552734375
-4.57763671875
-8.23974609375
1.8310546875
13.73291015625
17.39501953125
1.8310546875
0
3.662109375
1.8310546875
-3.662109375
9.1552734375
13.73291015625
18.310546875
17.39501953125
15.56396484375
17.39501953125
24.71923828125
21.97265625
11.90185546875
10.986328125
11.90185546875
19.22607421875
24.71923828125
26.55029296875
34.7900390625
33.87451171875
39.36767578125
41.19873046875
39.36767578125
32.04345703125
36.62109375
42.1142578125
46.69189453125
47.607421875
47.607421875
54.01611328125
54.931640625
62.255859375
65.91796875
60.4248046875
54.931640625
61.34033203125
69.580078125
80.56640625
90.63720703125
83.31298828125
85.14404296875
95.21484375
97.96142578125
92.46826171875
99.79248046875
110.77880859375
115.3564453125
114.44091796875
119.0185546875
122.6806640625
125.42724609375
130.92041015625
131.8359375
127.25830078125
131.8359375
142.822265625
161.1328125
168.45703125
171.20361328125
170.2880859375
175.78125
186.767578125
193.17626953125
195.00732421875
200.50048828125
210.5712890625
217.8955078125
219.7265625
226.13525390625
234.375
240.78369140625
236.2060546875
234.375
242.61474609375
249.93896484375
252.685546875
251.77001953125
260.009765625
263.671875
267.333984375
275.57373046875
268.24951171875
261.8408203125
269.1650390625
270.08056640625
271.91162109375
270.99609375
270.08056640625
277.40478515625
271.91162109375
259.09423828125
253.60107421875
249.0234375
237.12158203125
226.13525390625
220.64208984375
216.064453125
212.40234375
203.2470703125
187.68310546875
169.37255859375
161.1328125
146.484375
136.41357421875
126.3427734375
107.11669921875
97.96142578125
91.552734375
77.81982421875
67.7490234375
65.00244140625
59.50927734375
50.35400390625
39.36767578125
27.4658203125
28.38134765625
21.97265625
20.1416015625
14.6484375
10.07080078125
1.8310546875
-5.4931640625
-13.73291015625
-22.88818359375
-19.22607421875
-21.97265625
-25.634765625
-16.4794921875
-21.97265625
-25.634765625
-32.04345703125
-40.283203125
-35.70556640625
-42.1142578125
-41.19873046875
-37.53662109375
-38.4521484375
-32.958984375
-23.8037109375
-25.634765625
-32.958984375
-42.1142578125
-41.19873046875
-39.36767578125
-44.86083984375
-40.283203125
-40.283203125
-36.62109375
-32.958984375
-32.958984375
-34.7900390625
-40.283203125
-39.36767578125
-36.62109375
-36.62109375
-36.62109375
-30.21240234375
-21.05712890625
-19.22607421875
-22.88818359375
-20.1416015625
-21.05712890625
-24.71923828125
-30.21240234375
-29.296875
-28.38134765625
-30.21240234375
-21.97265625
-20.1416015625
-19.22607421875
-21.05712890625
-24.71923828125
-23.8037109375
-27.4658203125
-24.71923828125
-25.634765625
-18.310546875
-12.8173828125
-9.1552734375
-10.986328125
-9.1552734375
-11.90185546875
-18.310546875
-16.4794921875
-16.4794921875
-16.4794921875
-12.8173828125
-14.6484375
-11.90185546875
-13.73291015625
-14.6484375
-16.4794921875
-19.22607421875
-21.05712890625
-27.4658203125
-22.88818359375
-21.05712890625
-19.22607421875
-10.986328125
-11.90185546875
-20.1416015625
-21.97265625
-28.38134765625
-28.38134765625
-28.38134765625
-28.38134765625
-22.88818359375
-21.97265625
-21.97265625
-15.56396484375
-23.8037109375
-31.1279296875
-31.1279296875
-38.4521484375
-34.7900390625
-35.70556640625
-34.7900390625
-26.55029296875
-29.296875
-37.53662109375
-39.36767578125
-36.62109375
-40.283203125
-37.53662109375
-39.36767578125
-41.19873046875
-36.62109375
-31.1279296875
-25.634765625
-32.04345703125
-42.1142578125
-44.86083984375
-43.9453125
-42.1142578125
-43.02978515625
-32.958984375
-34.7900390625
-32.958984375
-37.53662109375
-43.9453125
-38.4521484375
-40.283203125
-51.26953125
-54.01611328125
-52.18505859375
-46.69189453125
-47.607421875
-48.52294921875
-49.4384765625
-47.607421875
-43.9453125
-44.86083984375
-38.4521484375
-43.02978515625
-47.607421875
-49.4384765625
-41.19873046875
-32.958984375
-38.4521484375
-42.1142578125
-49.4384765625
-54.931640625
-52.18505859375
-55.84716796875
-52.18505859375
-44.86083984375
-43.02978515625
-42.1142578125
-48.52294921875
-43.9453125
-38.4521484375
-40.283203125
-43.9453125
-51.26953125
-54.931640625
-52.18505859375
-50.35400390625
-43.02978515625
-38.4521484375
-42.1142578125
-45.7763671875
-44.86083984375
-50.35400390625
-54.01611328125
-56.7626953125
-54.01611328125
-46.69189453125
-52.18505859375
-48.52294921875
-46.69189453125
-40.283203125
-29.296875
-26.55029296875
-21.05712890625
-5.4931640625
10.07080078125
30.21240234375
32.04345703125
35.70556640625
23.8037109375
15.56396484375
18.310546875
15.56396484375
10.986328125
0
1.8310546875
18.310546875
30.21240234375
27.4658203125
21.97265625
19.22607421875
15.56396484375
17.39501953125
5.4931640625
-12.8173828125
-9.1552734375
-2.74658203125
-16.4794921875
-28.38134765625
-33.87451171875
-32.958984375
-33.87451171875
-40.283203125
-49.4384765625
-52.18505859375
-46.69189453125
-38.4521484375
-38.4521484375
-36.62109375
-41.19873046875
-51.26953125
-60.4248046875
-66.83349609375
-71.4111328125
-76.904296875
-73.2421875
-71.4111328125
-69.580078125
-73.2421875
-72.32666015625
-71.4111328125
-74.15771484375
-68.66455078125
-73.2421875
-79.65087890625
-74.15771484375
-73.2421875
-69.580078125
-65.00244140625
-68.66455078125
-65.00244140625
-70.49560546875
-72.32666015625
-70.49560546875
-75.98876953125
-67.7490234375
-63.17138671875
-57.67822265625
-61.34033203125
-55.84716796875
-60.4248046875
-66.83349609375
-66.83349609375
-75.98876953125
-86.97509765625
-82.3974609375
-70.49560546875
-70.49560546875
-64.0869140625
-54.931640625
-26.55029296875
17.39501953125
81.48193359375
162.9638671875
267.333984375
389.09912109375
527.34375
650.93994140625
730.5908203125
779.11376953125
802.001953125
763.5498046875
647.27783203125
446.77734375
228.8818359375
21.97265625
-167.54150390625
-278.3203125
-301.20849609375
-292.96875
-281.06689453125
-255.43212890625
-233.45947265625
-199.5849609375
-177.6123046875
-152.89306640625
-117.1875
-75.0732421875
-50.35400390625
-32.04345703125
-9.1552734375
0.91552734375
10.07080078125
6.40869140625
0.91552734375
3.662109375
1.8310546875
5.4931640625
7.32421875
9.1552734375
10.07080078125
5.4931640625
8.23974609375
2.74658203125
-6.40869140625
5.4931640625
9.1552734375
14.6484375
19.22607421875
20.1416015625
25.634765625
21.97265625
23.8037109375
24.71923828125
24.71923828125
28.38134765625
26.55029296875
32.04345703125
32.04345703125
31.1279296875
38.4521484375
33.87451171875
33.87451171875
28.38134765625
33.87451171875
40.283203125
46.69189453125
52.18505859375
60.4248046875
56.7626953125
57.67822265625
68.66455078125
68.66455078125
65.00244140625
54.931640625
59.50927734375
68.66455078125
86.97509765625
85.14404296875
81.48193359375
84.228515625
86.97509765625
84.228515625
86.0595703125
92.46826171875
96.13037109375
106.201171875
111.6943359375
113.525390625
118.10302734375
125.42724609375
130.0048828125
124.51171875
130.0048828125
131.8359375
142.822265625
151.9775390625
158.38623046875
163.87939453125
172.119140625
173.9501953125
180.35888671875
182.18994140625
188.5986328125
185.85205078125
198.66943359375
207.82470703125
216.97998046875
223.388671875
229.79736328125
241.69921875
240.78369140625
229.79736328125
243.5302734375
253.60107421875
253.60107421875
252.685546875
254.5166015625
264.58740234375
274.658203125
279.23583984375
269.1650390625
266.41845703125
272.8271484375
268.24951171875
263.671875
266.41845703125
272.8271484375
281.982421875
273.74267578125
270.08056640625
268.24951171875
261.8408203125
255.43212890625
247.1923828125
237.12158203125
225.2197265625
222.47314453125
216.97998046875
204.16259765625
193.17626953125
183.10546875
163.87939453125
158.38623046875
130.92041015625
125.42724609375
122.6806640625
117.1875
108.0322265625
95.21484375
88.80615234375
72.32666015625
54.01611328125
50.35400390625
38.4521484375
28.38134765625
17.39501953125
20.1416015625
13.73291015625
5.4931640625
8.23974609375
3.662109375
-15.56396484375
-10.07080078125
-10.986328125
-17.39501953125
-15.56396484375
-9.1552734375
-19.22607421875
-22.88818359375
-22.88818359375
-28.38134765625
-37.53662109375
-44.86083984375
-43.02978515625
-45.7763671875
-46.69189453125
-34.7900390625
-29.296875
-30.21240234375
-36.62109375
-38.4521484375
-38.4521484375
-37.53662109375
-38.4521484375
-44.86083984375
-45.7763671875
-36.62109375
-34.7900390625
-28.38134765625
-26.55029296875
-26.55029296875
-39.36767578125
-38.4521484375
-35.70556640625
-40.283203125
-32.958984375
-29.296875
-40.283203125
-43.02978515625
-38.4521484375
-32.958984375
-21.97265625
-21.97265625
-23.8037109375
-21.97265625
-20.1416015625
-17.39501953125
-10.986328125
-17.39501953125
-17.39501953125
-14.6484375
-17.39501953125
-20.1416015625
-25.634765625
-26.55029296875
-18.310546875
-16.4794921875
-11.90185546875
-9.1552734375
-12.8173828125
-14.6484375
-24.71923828125
-28.38134765625
-23.8037109375
-19.22607421875
-21.97265625
-12.8173828125
-10.986328125
-17.39501953125
-8.23974609375
-7.32421875
-18.310546875
-19.22607421875
-20.1416015625
-30.21240234375
-27.4658203125
-23.8037109375
-21.05712890625
-22.88818359375
-24.71923828125
-23.8037109375
-29.296875
-33.87451171875
-36.62109375
-36.62109375
-32.958984375
-21.97265625
-25.634765625
-24.71923828125
-22.88818359375
-31.1279296875
-32.04345703125
-32.958984375
-37.53662109375
-42.1142578125
-44.86083984375
-38.4521484375
-32.04345703125
-32.958984375
-29.296875
-35.70556640625
-38.4521484375
-40.283203125
-51.26953125
-54.01611328125
-52.18505859375
-41.19873046875
-38.4521484375
-43.02978515625
-42.1142578125
-51.26953125
-51.26953125
-43.9453125
-46.69189453125
-48.52294921875
-44.86083984375
-38.4521484375
-39.36767578125
-39.36767578125
-41.19873046875
-40.283203125
-39.36767578125
-43.02978515625
-41.19873046875
-46.69189453125
-46.69189453125
-38.4521484375
-35.70556640625
-43.9453125
-49.4384765625
-54.01611328125
-52.18505859375
-49.4384765625
-51.26953125
-61.34033203125
-63.17138671875
-58.59375
-54.931640625
-54.01611328125
-50.35400390625
-53.1005859375
-54.931640625
-49.4384765625
-55.84716796875
-56.7626953125
-49.4384765625
-48.52294921875
-45.7763671875
-43.9453125
-43.9453125
-54.931640625
-53.1005859375
-55.84716796875
-60.4248046875
-54.01611328125
-49.4384765625
-45.7763671875
-49.4384765625
-50.35400390625
-45.7763671875
-47.607421875
-42.1142578125
-42.1142578125
-40.283203125
-15.56396484375
6.40869140625
14.6484375
20.1416015625
21.97265625
17.39501953125
10.986328125
15.56396484375
15.56396484375
11.90185546875
4.57763671875
0.91552734375
5.4931640625
24.71923828125
25.634765625
22.88818359375
23.8037109375
21.97265625
8.23974609375
0.91552734375
0
-13.73291015625
-11.90185546875
-16.4794921875
-27.4658203125
-37.53662109375
-37.53662109375
-40.283203125
-38.4521484375
-47.607421875
-52.18505859375
-58.59375
-40.283203125
-38.4521484375
-43.02978515625
-44.86083984375
-59.50927734375
-57.67822265625
-72.32666015625
-85.14404296875
-86.0595703125
-87.890625
-80.56640625
-75.0732421875
-79.65087890625
-86.97509765625
-80.56640625
-84.228515625
-90.63720703125
-87.890625
-89.7216796875
-93.3837890625
-90.63720703125
-85.14404296875
-75.98876953125
-80.56640625
-77.81982421875
-83.31298828125
-81.48193359375
-76.904296875
-85.14404296875
-77.81982421875
-74.15771484375
-69.580078125
-65.00244140625
-68.66455078125
-69.580078125
-82.3974609375
-81.48193359375
-88.80615234375
-100.7080078125
-97.96142578125
-94.29931640625
-85.14404296875
-87.890625
-86.97509765625
-61.34033203125
-32.958984375
-6.40869140625
54.931640625
151.9775390625
261.8408203125
377.197265625
499.8779296875
606.0791015625
676.57470703125
712.2802734375
719.6044921875
664.6728515625
539.24560546875
322.265625
121.76513671875
-60.4248046875
-208.740234375
-300.29296875
-308.53271484375
-297.54638671875
-290.22216796875
-271.91162109375
-250.8544921875
-238.037109375
-218.81103515625
-180.35888671875
-135.498046875
-113.525390625
-84.228515625
-59.50927734375
-45.7763671875
-32.04345703125
-28.38134765625
-22.88818359375
-21.05712890625
-25.634765625
-15.56396484375
-11.90185546875
-12.8173828125
-10.986328125
-18.310546875
-12.8173828125
-6.40869140625
-17.39501953125
-22.88818359375
-9.1552734375
-1.8310546875
1.8310546875
-1.8310546875
-5.4931640625
-8.23974609375
-5.4931640625
-10.07080078125
-10.986328125
1.8310546875
3.662109375
10.07080078125
19.22607421875
18.310546875
10.07080078125
15.56396484375
20.1416015625
18.310546875
17.39501953125
21.05712890625
30.21240234375
32.04345703125
25.634765625
30.21240234375
32.04345703125
26.55029296875
28.38134765625
30.21240234375
37.53662109375
45.7763671875
48.52294921875
50.35400390625
51.26953125
54.01611328125
56.7626953125
59.50927734375
59.50927734375
66.83349609375
62.255859375
64.0869140625
84.228515625
90.63720703125
91.552734375
98.876953125
94.29931640625
88.80615234375
91.552734375
92.46826171875
101.62353515625
115.3564453125
126.3427734375
140.07568359375
140.07568359375
150.146484375
144.6533203125
144.6533203125
146.484375
145.56884765625
154.72412109375
163.87939453125
180.35888671875
191.34521484375
196.83837890625
195.00732421875
204.16259765625
205.078125
216.064453125
211.48681640625
213.31787109375
227.96630859375
237.12158203125
245.361328125
242.61474609375
237.12158203125
238.037109375
231.62841796875
235.29052734375
234.375
238.037109375
238.037109375
246.27685546875
249.0234375
248.10791015625
243.5302734375
241.69921875
241.69921875
227.05078125
221.5576171875
216.97998046875
211.48681640625
216.97998046875
215.14892578125
198.66943359375
185.85205078125
168.45703125
158.38623046875
138.24462890625
121.76513671875
109.86328125
106.201171875
102.5390625
93.3837890625
88.80615234375
81.48193359375
65.91796875
44.86083984375
32.04345703125
22.88818359375
10.07080078125
4.57763671875
10.07080078125
0.91552734375
0
-9.1552734375
-16.4794921875
-17.39501953125
-16.4794921875
-24.71923828125
-38.4521484375
-43.9453125
-38.4521484375
-34.7900390625
-31.1279296875
-43.02978515625
-48.52294921875
-45.7763671875
-52.18505859375
-54.01611328125
-60.4248046875
-62.255859375
-62.255859375
-58.59375
-54.931640625
-55.84716796875
-63.17138671875
-62.255859375
-59.50927734375
-58.59375
-57.67822265625
-62.255859375
-58.59375
-56.7626953125
-56.7626953125
-54.931640625
-54.01611328125
-63.17138671875
-67.7490234375
-65.91796875
-62.255859375
-56.7626953125
-54.931640625
-49.4384765625
-47.607421875
-52.18505859375
-46.69189453125
-47.607421875
-53.1005859375
-54.01611328125
-54.931640625
-47.607421875
-35.70556640625
-39.36767578125
-39.36767578125
-41.19873046875
-43.02978515625
-36.62109375
-35.70556640625
-40.283203125
-44.86083984375
-37.53662109375
-30.21240234375
-31.1279296875
-31.1279296875
-28.38134765625
-27.4658203125
-29.296875
-32.04345703125
-35.70556640625
-43.9453125
-37.53662109375
-31.1279296875
-23.8037109375
-20.1416015625
-19.22607421875
-27.4658203125
-30.21240234375
-30.21240234375
-38.4521484375
-36.62109375
-33.87451171875
-25.634765625
-24.71923828125
-17.39501953125
-19.22607421875
-27.4658203125
-34.7900390625
-38.4521484375
-41.19873046875
-40.283203125
-36.62109375
-32.04345703125
-36.62109375
-37.53662109375
-29.296875
-40.283203125
-36.62109375
-37.53662109375
-37.53662109375
-42.1142578125
-40.283203125
-39.36767578125
-40.283203125
-35.70556640625
-43.9453125
-53.1005859375
-52.18505859375
-44.86083984375
-49.4384765625
-53.1005859375
-52.18505859375
-46.69189453125
-45.7763671875
-38.4521484375
-37.53662109375
-45.7763671875
-54.01611328125
-49.4384765625
-46.69189453125
-50.35400390625
-56.7626953125
-49.4384765625
-47.607421875
-43.9453125
-51.26953125
-53.1005859375
-59.50927734375
-57.67822265625
-55.84716796875
-56.7626953125
-62.255859375
-51.26953125
-50.35400390625
-54.931640625
-53.1005859375
-49.4384765625
-46.69189453125
-54.931640625
-54.931640625
-59.50927734375
-62.255859375
-63.17138671875
-55.84716796875
-53.1005859375
-50.35400390625
-56.7626953125
-56.7626953125
-60.4248046875
-66.83349609375
-67.7490234375
-64.0869140625
-50.35400390625
-33.87451171875
-22.88818359375
-6.40869140625
6.40869140625
18.310546875
21.05712890625
11.90185546875
8.23974609375
13.73291015625
15.56396484375
10.07080078125
-3.662109375
-10.07080078125
3.662109375
18.310546875
16.4794921875
10.986328125
6.40869140625
10.986328125
13.73291015625
18.310546875
10.07080078125
1.8310546875
-1.8310546875
-10.07080078125
-24.71923828125
-32.958984375
-39.36767578125
-40.283203125
-43.02978515625
-42.1142578125
-47.607421875
-48.52294921875
-39.36767578125
-35.70556640625
-38.4521484375
-40.283203125
-55.84716796875
-66.83349609375
-65.91796875
-62.255859375
-69.580078125
-72.32666015625
-75.0732421875
-75.98876953125
-79.65087890625
-85.14404296875
-87.890625
-67.7490234375
-65.91796875
-65.91796875
-74.15771484375
-73.2421875
-70.49560546875
-66.83349609375
-69.580078125
-75.0732421875
-78.7353515625
-70.49560546875
-68.66455078125
-62.255859375
-62.255859375
-66.83349609375
-63.17138671875
-64.0869140625
-68.66455078125
-71.4111328125
-69.580078125
-66.83349609375
-68.66455078125
-61.34033203125
-69.580078125
-76.904296875
-82.3974609375
-83.31298828125
-82.3974609375
-72.32666015625
-56.7626953125
-29.296875
6.40869140625
66.83349609375
145.56884765625
243.5302734375
357.97119140625
482.48291015625
598.7548828125
661.0107421875
700.37841796875
715.02685546875
692.138671875
586.85302734375
375.3662109375
157.470703125
-25.634765625
-166.6259765625
-267.333984375
-300.29296875
-289.306640625
-271.91162109375
-239.8681640625
-208.740234375
-193.17626953125
-184.02099609375
-162.04833984375
-130.92041015625
-106.201171875
-79.65087890625
-53.1005859375
-34.7900390625
-14.6484375
0
-3.662109375
-10.07080078125
-5.4931640625
-4.57763671875
-6.40869140625
-7.32421875
-5.4931640625
-7.32421875
-2.74658203125
10.07080078125
13.73291015625
16.4794921875
13.73291015625
11.90185546875
14.6484375
6.40869140625
-2.74658203125
-2.74658203125
-0.91552734375
16.4794921875
22.88818359375
22.88818359375
21.05712890625
31.1279296875
29.296875
18.310546875
19.22607421875
21.05712890625
28.38134765625
29.296875
40.283203125
44.86083984375
41.19873046875
38.4521484375
44.86083984375
39.36767578125
35.70556640625
38.4521484375
51.26953125
55.84716796875
58.59375
66.83349609375
65.91796875
62.255859375
62.255859375
65.91796875
67.7490234375
71.4111328125
82.3974609375
86.97509765625
88.80615234375
95.21484375
98.876953125
104.3701171875
107.11669921875
106.201171875
109.86328125
112.60986328125
127.25830078125
137.3291015625
143.73779296875
144.6533203125
144.6533203125
148.3154296875
150.146484375
158.38623046875
159.3017578125
164.794921875
178.52783203125
183.10546875
187.68310546875
196.83837890625
199.5849609375
200.50048828125
205.99365234375
217.8955078125
220.64208984375
227.96630859375
238.037109375
251.77001953125
254.5166015625
256.34765625
250.8544921875
255.43212890625
263.671875
255.43212890625
244.44580078125
259.09423828125
266.41845703125
278.3203125
278.3203125
270.99609375
270.99609375
270.99609375
274.658203125
269.1650390625
259.09423828125
262.75634765625
266.41845703125
260.92529296875
248.10791015625
241.69921875
234.375
222.47314453125
210.5712890625
193.17626953125
184.02099609375
173.03466796875
164.794921875
158.38623046875
152.89306640625
144.6533203125
121.76513671875
102.5390625
95.21484375
91.552734375
76.904296875
61.34033203125
55.84716796875
52.18505859375
41.19873046875
37.53662109375
25.634765625
17.39501953125
15.56396484375
4.57763671875
-3.662109375
-5.4931640625
-7.32421875
-10.07080078125
-9.1552734375
-16.4794921875
-24.71923828125
-30.21240234375
-32.958984375
-37.53662109375
-36.62109375
-37.53662109375
-43.9453125
-34.7900390625
-27.4658203125
-28.38134765625
-33.87451171875
-38.4521484375
-41.19873046875
-36.62109375
-44.86083984375
-44.86083984375
-50.35400390625
-45.7763671875
-29.296875
-31.1279296875
-33.87451171875
-36.62109375
-42.1142578125
-50.35400390625
-45.7763671875
-41.19873046875
-45.7763671875
-41.19873046875
-33.87451171875
-30.21240234375
-30.21240234375
-31.1279296875
-38.4521484375
-35.70556640625
-39.36767578125
-42.1142578125
-41.19873046875
-35.70556640625
-21.97265625
-21.05712890625
-19.22607421875
-27.4658203125
-37.53662109375
-28.38134765625
-35.70556640625
-35.70556640625
-27.4658203125
-21.05712890625
-15.56396484375
-13.73291015625
-10.07080078125
-11.90185546875
-15.56396484375
-18.310546875
-20.1416015625
-22.88818359375
-19.22607421875
-9.1552734375
-7.32421875
-10.07080078125
-10.986328125
-13.73291015625
-10.986328125
-13.73291015625
-16.4794921875
-20.1416015625
-15.56396484375
-19.22607421875
-10.07080078125
-2.74658203125
-14.6484375
-29.296875
-38.4521484375
-38.4521484375
-35.70556640625
-29.296875
-30.21240234375
-31.1279296875
-32.04345703125
-19.22607421875
-32.04345703125
-40.283203125
-28.38134765625
-16.4794921875
-16.4794921875
-26.55029296875
-32.958984375
-28.38134765625
-38.4521484375
-37.53662109375
-35.70556640625
-30.21240234375
-27.4658203125
-40.283203125
-43.02978515625
-49.4384765625
-32.04345703125
-32.04345703125
-24.71923828125
-26.55029296875
-21.05712890625
-13.73291015625
-22.88818359375
-39.36767578125
-62.255859375
-57.67822265625
-48.52294921875
-50.35400390625
-39.36767578125
-26.55029296875
-35.70556640625
-46.69189453125
-47.607421875
-44.86083984375
-48.52294921875
-48.52294921875
-52.18505859375
-54.931640625
-54.931640625
-54.01611328125
-47.607421875
-38.4521484375
-25.634765625
-29.296875
-33.87451171875
-46.69189453125
-47.607421875
-54.01611328125
-53.1005859375
-53.1005859375
-43.9453125
-31.1279296875
-37.53662109375
-45.7763671875
-45.7763671875
-54.931640625
-58.59375
-54.01611328125
-56.7626953125
-54.931640625
-52.18505859375
-50.35400390625
-39.36767578125
-50.35400390625
-51.26953125
-49.4384765625
-49.4384765625
-32.958984375
-9.1552734375
13.73291015625
35.70556640625
30.21240234375
26.55029296875
15.56396484375
0.91552734375
-4.57763671875
0
1.8310546875
3.662109375
10.986328125
27.4658203125
27.4658203125
20.1416015625
11.90185546875
4.57763671875
2.74658203125
12.8173828125
1.8310546875
-3.662109375
-0.91552734375
2.74658203125
-10.986328125
-24.71923828125
-47.607421875
-48.52294921875
-43.02978515625
-37.53662109375
-38.4521484375
-49.4384765625
-47.607421875
-49.4384765625
-57.67822265625
-61.34033203125
-70.49560546875
-72.32666015625
-69.580078125
-69.580078125
-68.66455078125
-71.4111328125
-86.97509765625
-85.14404296875
-77.81982421875
-72.32666015625
-72.32666015625
-86.97509765625
-97.0458984375
-102.5390625
-102.5390625
-80.56640625
-70.49560546875
-67.7490234375
-66.83349609375
-75.0732421875
-75.98876953125
-84.228515625
-82.3974609375
-67.7490234375
-62.255859375
-58.59375
-67.7490234375
-76.904296875
-76.904296875
-80.56640625
-83.31298828125
-73.2421875
-62.255859375
-63.17138671875
-67.7490234375
-74.15771484375
-82.3974609375
-84.228515625
-81.48193359375
-81.48193359375
-72.32666015625
-44.86083984375
-14.6484375
30.21240234375
114.44091796875
228.8818359375
335.99853515625
475.15869140625
596.923828125
695.80078125
756.2255859375
796.5087890625
788.26904296875
713.19580078125
548.40087890625
325.01220703125
115.3564453125
-92.46826171875
-248.10791015625
-318.603515625
-309.4482421875
-302.1240234375
-280.1513671875
-256.34765625
-222.47314453125
-185.85205078125
-157.470703125
-131.8359375
-91.552734375
-68.66455078125
-54.01611328125
-43.02978515625
-21.97265625
-16.4794921875
-2.74658203125
-10.07080078125
-8.23974609375
-3.662109375
-8.23974609375
-12.8173828125
-4.57763671875
-8.23974609375
-1.8310546875
-6.40869140625
-3.662109375
-0.91552734375
-2.74658203125
-3.662109375
-1.8310546875
-1.8310546875
-4.57763671875
0.91552734375
3.662109375
7.32421875
21.97265625
15.56396484375
10.986328125
10.07080078125
16.4794921875
14.6484375
14.6484375
10.986328125
14.6484375
15.56396484375
19.22607421875
29.296875
32.958984375
32.04345703125
27.4658203125
33.87451171875
37.53662109375
28.38134765625
41.19873046875
46.69189453125
53.1005859375
58.59375
63.17138671875
58.59375
64.0869140625
63.17138671875
66.83349609375
65.91796875
69.580078125
75.98876953125
87.890625
91.552734375
90.63720703125
88.80615234375
85.14404296875
96.13037109375
97.0458984375
92.46826171875
109.86328125
120.849609375
127.25830078125
132.75146484375
132.75146484375
143.73779296875
150.146484375
144.6533203125
154.72412109375
161.1328125
175.78125
189.51416015625
194.091796875
201.416015625
200.50048828125
202.33154296875
198.66943359375
203.2470703125
208.740234375
220.64208984375
227.96630859375
232.5439453125
249.93896484375
265.5029296875
259.09423828125
258.1787109375
258.1787109375
256.34765625
251.77001953125
264.58740234375
264.58740234375
269.1650390625
274.658203125
281.982421875
290.22216796875
273.74267578125
276.4892578125
271.91162109375
254.5166015625
255.43212890625
251.77001953125
260.009765625
259.09423828125
263.671875
257.26318359375
242.61474609375
229.79736328125
209.65576171875
188.5986328125
180.35888671875
176.69677734375
168.45703125
161.1328125
143.73779296875
131.8359375
118.10302734375
97.0458984375
83.31298828125
79.65087890625
66.83349609375
59.50927734375
53.1005859375
50.35400390625
38.4521484375
30.21240234375
27.4658203125
17.39501953125
10.986328125
0.91552734375
-10.986328125
-9.1552734375
-12.8173828125
-9.1552734375
-5.4931640625
-22.88818359375
-25.634765625
-35.70556640625
-31.1279296875
-31.1279296875
-33.87451171875
-29.296875
-18.310546875
-20.1416015625
-21.97265625
-27.4658203125
-30.21240234375
-38.4521484375
-38.4521484375
-43.02978515625
-52.18505859375
-43.02978515625
-25.634765625
-22.88818359375
-29.296875
-35.70556640625
-45.7763671875
-58.59375
-51.26953125
-47.607421875
-48.52294921875
-45.7763671875
-41.19873046875
-39.36767578125
-38.4521484375
-31.1279296875
-31.1279296875
-37.53662109375
-35.70556640625
-33.87451171875
-42.1142578125
-39.36767578125
-28.38134765625
-20.1416015625
-10.986328125
-10.07080078125
-10.986328125
-13.73291015625
-22.88818359375
-21.05712890625
-24.71923828125
-17.39501953125
-6.40869140625
-6.40869140625
1.8310546875
-1.8310546875
-0.91552734375
-2.74658203125
-11.90185546875
-20.1416015625
-22.88818359375
-28.38134765625
-26.55029296875
-17.39501953125
-13.73291015625
-9.1552734375
-20.1416015625
-12.8173828125
-3.662109375
-7.32421875
-9.1552734375
-5.4931640625
1.8310546875
-0.91552734375
-10.986328125
-23.8037109375
-23.8037109375
-15.56396484375
-16.4794921875
-14.6484375
-18.310546875
-12.8173828125
-12.8173828125
-10.07080078125
-8.23974609375
-16.4794921875
-31.1279296875
-36.62109375
-41.19873046875
-32.958984375
-30.21240234375
-20.1416015625
-29.296875
-32.04345703125
-15.56396484375
-14.6484375
-24.71923828125
-28.38134765625
-32.958984375
-29.296875
-40.283203125
-32.958984375
-29.296875
-27.4658203125
-19.22607421875
-21.97265625
-31.1279296875
-43.02978515625
-38.4521484375
-30.21240234375
-35.70556640625
-38.4521484375
-32.958984375
-29.296875
-25.634765625
-23.8037109375
-33.87451171875
-31.1279296875
-30.21240234375
-36.62109375
-36.62109375
-40.283203125
-46.69189453125
-44.86083984375
-38.4521484375
-31.1279296875
-39.36767578125
-38.4521484375
-32.958984375
-45.7763671875
-44.86083984375
-40.283203125
-38.4521484375
-33.87451171875
-30.21240234375
-33.87451171875
-52.18505859375
-61.34033203125
-73.2421875
-65.91796875
-65.91796875
-69.580078125
-66.83349609375
-53.1005859375
-43.9453125
-29.296875
-26.55029296875
-25.634765625
-20.1416015625
-29.296875
-21.05712890625
-22.88818359375
-21.05712890625
-7.32421875
5.4931640625
0
-10.07080078125
-7.32421875
8.23974609375
38.4521484375
35.70556640625
22.88818359375
21.05712890625
26.55029296875
32.958984375
38.4521484375
36.62109375
24.71923828125
8.23974609375
10.07080078125
11.90185546875
24.71923828125
9.1552734375
18.310546875
34.7900390625
24.71923828125
18.310546875
17.39501953125
6.40869140625
1.8310546875
-5.4931640625
1.8310546875
-0.91552734375
0.91552734375
-12.8173828125
-20.1416015625
-31.1279296875
-32.958984375
-27.4658203125
-23.8037109375
-25.634765625
-31.1279296875
-36.62109375
-47.607421875
-41.19873046875
-44.86083984375
-54.931640625
-60.4248046875
-65.91796875
-68.66455078125
-65.91796875
-65.00244140625
-53.1005859375
-37.53662109375
-43.02978515625
-54.931640625
-62.255859375
-76.904296875
-70.49560546875
-60.4248046875
-60.4248046875
-54.931640625
-45.7763671875
-38.4521484375
-39.36767578125
-43.9453125
-51.26953125
-55.84716796875
-44.86083984375
-39.36767578125
-47.607421875
-56.7626953125
-55.84716796875
-62.255859375
-62.255859375
-62.255859375
-55.84716796875
-55.84716796875
-54.931640625
-63.17138671875
-54.931640625
-56.7626953125
-54.01611328125
-24.71923828125
2.74658203125
31.1279296875
93.3837890625
205.078125
310.36376953125
435.791015625
583.19091796875
698.54736328125
770.8740234375
835.87646484375
843.20068359375
780.94482421875
628.0517578125
398.25439453125
198.66943359375
-16.4794921875
-195.9228515625
-274.658203125
-263.671875
-242.61474609375
-218.81103515625
-202.33154296875
-188.5986328125
-176.69677734375
-173.03466796875
-173.03466796875
-130.0048828125
-79.65087890625
-37.53662109375
-11.90185546875
18.310546875
29.296875
34.7900390625
36.62109375
22.88818359375
10.986328125
13.73291015625
7.32421875
6.40869140625
22.88818359375
39.36767578125
34.7900390625
21.05712890625
14.6484375
22.88818359375
38.4521484375
34.7900390625
37.53662109375
29.296875
18.310546875
10.986328125
10.07080078125
21.05712890625
44.86083984375
66.83349609375
66.83349609375
50.35400390625
41.19873046875
55.84716796875
63.17138671875
75.0732421875
69.580078125
52.18505859375
56.7626953125
52.18505859375
47.607421875
50.35400390625
54.01611328125
61.34033203125
75.98876953125
76.904296875
84.228515625
96.13037109375
85.14404296875
77.81982421875
68.66455078125
70.49560546875
60.4248046875
77.81982421875
93.3837890625
113.525390625
127.25830078125
130.92041015625
119.93408203125
108.0322265625
113.525390625
132.75146484375
149.23095703125
154.72412109375
155.6396484375
162.9638671875
162.9638671875
173.03466796875
182.18994140625
178.52783203125
175.78125
167.54150390625
152.89306640625
157.470703125
170.2880859375
185.85205078125
192.2607421875
194.091796875
201.416015625
223.388671875
241.69921875
249.0234375
254.5166015625
266.41845703125
272.8271484375
270.99609375
275.57373046875
281.982421875
287.4755859375
302.1240234375
299.37744140625
290.22216796875
285.64453125
290.22216796875
298.4619140625
305.7861328125
318.603515625
311.279296875
303.955078125
308.53271484375
309.4482421875
312.19482421875
315.85693359375
303.03955078125
292.05322265625
262.75634765625
236.2060546875
237.12158203125
252.685546875
258.1787109375
253.60107421875
250.8544921875
251.77001953125
256.34765625
242.61474609375
221.5576171875
195.9228515625
173.9501953125
159.3017578125
146.484375
143.73779296875
131.8359375
119.93408203125
118.10302734375
116.27197265625
109.86328125
89.7216796875
73.2421875
58.59375
46.69189453125
46.69189453125
37.53662109375
35.70556640625
32.958984375
30.21240234375
13.73291015625
7.32421875
6.40869140625
0.91552734375
4.57763671875
3.662109375
1.8310546875
-3.662109375
-36.62109375
-62.255859375
-66.83349609375
-41.19873046875
-33.87451171875
-28.38134765625
-11.90185546875
-6.40869140625
-13.73291015625
-22.88818359375
-21.97265625
-25.634765625
-16.4794921875
-0.91552734375
-18.310546875
-36.62109375
-24.71923828125
-36.62109375
-60.4248046875
-85.14404296875
-85.14404296875
-37.53662109375
2.74658203125
13.73291015625
10.07080078125
-8.23974609375
-17.39501953125
-28.38134765625
-32.04345703125
-22.88818359375
-21.05712890625
-19.22607421875
1.8310546875
4.57763671875
2.74658203125
-14.6484375
-39.36767578125
-44.86083984375
-47.607421875
-52.18505859375
-34.7900390625
-12.8173828125
0
8.23974609375
15.56396484375
29.296875
31.1279296875
34.7900390625
28.38134765625
0.91552734375
-22.88818359375
-53.1005859375
-49.4384765625
-26.55029296875
-8.23974609375
-3.662109375
0.91552734375
10.07080078125
25.634765625
13.73291015625
2.74658203125
8.23974609375
22.88818359375
20.1416015625
3.662109375
-17.39501953125
-27.4658203125
-39.36767578125
-48.52294921875
-38.4521484375
-22.88818359375
-5.4931640625
-7.32421875
0.91552734375
7.32421875
9.1552734375
0.91552734375
-5.4931640625
-13.73291015625
-13.73291015625
-10.986328125
-11.90185546875
-31.1279296875
-41.19873046875
-37.53662109375
-36.62109375
-28.38134765625
-36.62109375
-34.7900390625
-47.607421875
-40.283203125
-19.22607421875
-11.90185546875
-13.73291015625
-20.1416015625
-20.1416015625
-24.71923828125
-22.88818359375
-32.04345703125
-32.958984375
-36.62109375
-35.70556640625
-50.35400390625
-70.49560546875
-74.15771484375
-55.84716796875
-38.4521484375
-32.04345703125
-32.958984375
-35.70556640625
-30.21240234375
-22.88818359375
-21.05712890625
-27.4658203125
-26.55029296875
-32.958984375
-48.52294921875
-52.18505859375
-54.931640625
-50.35400390625
-55.84716796875
-53.1005859375
-43.9453125
-46.69189453125
-47.607421875
-53.1005859375
-54.931640625
-48.52294921875
-53.1005859375
-51.26953125
-54.01611328125
-56.7626953125
-54.931640625
-39.36767578125
-41.19873046875
-46.69189453125
-56.7626953125
-60.4248046875
-65.91796875
-59.50927734375
-57.67822265625
-62.255859375
-52.18505859375
-43.02978515625
-37.53662109375
-35.70556640625
-26.55029296875
-13.73291015625
-7.32421875
-1.8310546875
9.1552734375
17.39501953125
25.634765625
17.39501953125
15.56396484375
9.1552734375
4.57763671875
-7.32421875
-9.1552734375
-0.91552734375
5.4931640625
10.07080078125
17.39501953125
15.56396484375
11.90185546875
6.40869140625
0
-1.8310546875
-10.986328125
-25.634765625
-26.55029296875
-33.87451171875
-41.19873046875
-42.1142578125
-35.70556640625
-42.1142578125
-59.50927734375
-67.7490234375
-65.91796875
-63.17138671875
-56.7626953125
-55.84716796875
-51.26953125
-54.931640625
-63.17138671875
-74.15771484375
-86.97509765625
-97.96142578125
-110.77880859375
-102.5390625
-100.7080078125
-90.63720703125
-78.7353515625
-83.31298828125
-75.98876953125
-80.56640625
-91.552734375
-84.228515625
-93.3837890625
-97.96142578125
-99.79248046875
-97.96142578125
-88.80615234375
-77.81982421875
-79.65087890625
-82.3974609375
-89.7216796875
-89.7216796875
-91.552734375
-94.29931640625
-81.48193359375
-78.7353515625
-79.65087890625
-75.98876953125
-75.0732421875
-85.14404296875
-96.13037109375
-100.7080078125
-107.11669921875
-109.86328125
-97.0458984375
-88.80615234375
-83.31298828125
-55.84716796875
-25.634765625
9.1552734375
65.91796875
161.1328125
271.91162109375
382.6904296875
509.94873046875
623.47412109375
687.56103515625
716.85791015625
713.19580078125
658.26416015625
512.6953125
292.05322265625
95.21484375
-88.80615234375
-222.47314453125
-298.4619140625
-295.71533203125
-281.982421875
-267.333984375
-240.78369140625
-226.13525390625
-212.40234375
-202.33154296875
-188.5986328125
-155.6396484375
-118.10302734375
-86.0595703125
-54.931640625
-43.9453125
-28.38134765625
-23.8037109375
-28.38134765625
-32.04345703125
-27.4658203125
-19.22607421875
-7.32421875
-5.4931640625
-5.4931640625
0
-1.8310546875
-8.23974609375
-9.1552734375
-12.8173828125
-21.97265625
-13.73291015625
-7.32421875
-6.40869140625
4.57763671875
5.4931640625
9.1552734375
7.32421875
0.91552734375
-0.91552734375
1.8310546875
10.986328125
11.90185546875
17.39501953125
16.4794921875
11.90185546875
7.32421875
13.73291015625
13.73291015625
16.4794921875
14.6484375
18.310546875
28.38134765625
35.70556640625
35.70556640625
37.53662109375
40.283203125
51.26953125
43.9453125
43.9453125
40.283203125
49.4384765625
65.00244140625
74.15771484375
71.4111328125
73.2421875
72.32666015625
71.4111328125
83.31298828125
84.228515625
77.81982421875
83.31298828125
96.13037109375
105.28564453125
106.201171875
111.6943359375
123.59619140625
131.8359375
130.0048828125
126.3427734375
127.25830078125
130.0048828125
137.3291015625
144.6533203125
161.1328125
170.2880859375
173.03466796875
180.35888671875
186.767578125
188.5986328125
193.17626953125
197.75390625
211.48681640625
217.8955078125
231.62841796875
236.2060546875
243.5302734375
237.12158203125
238.037109375
249.0234375
249.0234375
253.60107421875
259.09423828125
261.8408203125
260.92529296875
258.1787109375
258.1787109375
254.5166015625
260.009765625
265.5029296875
260.92529296875
262.75634765625
268.24951171875
270.08056640625
262.75634765625
262.75634765625
255.43212890625
253.60107421875
240.78369140625
225.2197265625
216.97998046875
213.31787109375
219.7265625
202.33154296875
188.5986328125
172.119140625
161.1328125
150.146484375
131.8359375
119.0185546875
110.77880859375
97.0458984375
91.552734375
90.63720703125
84.228515625
66.83349609375
64.0869140625
42.1142578125
33.87451171875
26.55029296875
14.6484375
13.73291015625
6.40869140625
6.40869140625
4.57763671875
-4.57763671875
-10.986328125
-10.07080078125
-18.310546875
-27.4658203125
-30.21240234375
-23.8037109375
-25.634765625
-28.38134765625
-24.71923828125
-28.38134765625
-29.296875
-30.21240234375
-33.87451171875
-45.7763671875
-57.67822265625
-49.4384765625
-46.69189453125
-44.86083984375
-39.36767578125
-41.19873046875
-38.4521484375
-39.36767578125
-45.7763671875
-53.1005859375
-56.7626953125
-44.86083984375
-30.21240234375
-32.04345703125
-26.55029296875
-33.87451171875
-32.04345703125
-41.19873046875
-48.52294921875
-49.4384765625
-59.50927734375
-67.7490234375
-60.4248046875
-45.7763671875
-31.1279296875
-20.1416015625
-14.6484375
-21.05712890625
-22.88818359375
-27.4658203125
-31.1279296875
-31.1279296875
-19.22607421875
-16.4794921875
-14.6484375
-19.22607421875
-25.634765625
-28.38134765625
-32.04345703125
-34.7900390625
-30.21240234375
-24.71923828125
-16.4794921875
-16.4794921875
-17.39501953125
-12.8173828125
-12.8173828125
-22.88818359375
-25.634765625
-30.21240234375
-30.21240234375
-20.1416015625
-15.56396484375
-13.73291015625
-8.23974609375
-4.57763671875
-9.1552734375
-14.6484375
-11.90185546875
-18.310546875
-28.38134765625
-31.1279296875
-14.6484375
-16.4794921875
-11.90185546875
-10.07080078125
-9.1552734375
-20.1416015625
-22.88818359375
-26.55029296875
-32.958984375
-30.21240234375
-24.71923828125
-10.07080078125
-13.73291015625
-15.56396484375
-25.634765625
-30.21240234375
-30.21240234375
-36.62109375
-34.7900390625
-33.87451171875
-26.55029296875
-21.05712890625
-21.05712890625
-19.22607421875
-15.56396484375
-24.71923828125
-34.7900390625
-42.1142578125
-42.1142578125
-39.36767578125
-35.70556640625
-30.21240234375
-25.634765625
-31.1279296875
-33.87451171875
-34.7900390625
-40.283203125
-47.607421875
-48.52294921875
-46.69189453125
-31.1279296875
-25.634765625
-22.88818359375
-28.38134765625
-35.70556640625
-34.7900390625
-32.04345703125
-37.53662109375
-46.69189453125
-45.7763671875
-48.52294921875
-29.296875
-26.55029296875
-33.87451171875
-41.19873046875
-44.86083984375
-41.19873046875
-39.36767578125
-39.36767578125
-30.21240234375
-20.1416015625
-16.4794921875
3.662109375
19.22607421875
30.21240234375
32.958984375
24.71923828125
22.88818359375
22.88818359375
21.97265625
18.310546875
21.97265625
18.310546875
12.8173828125
23.8037109375
31.1279296875
33.87451171875
26.55029296875
33.87451171875
35.70556640625
28.38134765625
16.4794921875
15.56396484375
13.73291015625
7.32421875
5.4931640625
-8.23974609375
-29.296875
-32.04345703125
-22.88818359375
-17.39501953125
-17.39501953125
-27.4658203125
-30.21240234375
-26.55029296875
-25.634765625
-36.62109375
-45.7763671875
-42.1142578125
-44.86083984375
-46.69189453125
-48.52294921875
-56.7626953125
-67.7490234375
-70.49560546875
-68.66455078125
-63.17138671875
-59.50927734375
-70.49560546875
-65.00244140625
-54.931640625
-49.4384765625
-48.52294921875
-60.4248046875
-57.67822265625
-64.0869140625
-65.91796875
-71.4111328125
-67.7490234375
-61.34033203125
-61.34033203125
-54.01611328125
-52.18505859375
-47.607421875
-52.18505859375
-65.91796875
-66.83349609375
-60.4248046875
-58.59375
-60.4248046875
-53.1005859375
-49.4384765625
-54.931640625
-54.01611328125
-61.34033203125
-59.50927734375
-60.4248046875
-68.66455078125
-54.01611328125
-28.38134765625
8.23974609375
68.66455078125
145.56884765625
239.8681640625
339.66064453125
465.087890625
578.61328125
651.85546875
698.54736328125
713.19580078125
684.814453125
593.26171875
391.845703125
189.51416015625
21.05712890625
-130.92041015625
-245.361328125
-281.982421875
-274.658203125
-268.24951171875
-226.13525390625
-194.091796875
-178.52783203125
-173.03466796875
-158.38623046875
-130.0048828125
-101.62353515625
-75.0732421875
-53.1005859375
-34.7900390625
-11.90185546875
0
9.1552734375
10.986328125
8.23974609375
3.662109375
3.662109375
0.91552734375
0.91552734375
0.91552734375
7.32421875
13.73291015625
14.6484375
16.4794921875
10.986328125
10.986328125
7.32421875
10.986328125
8.23974609375
10.07080078125
15.56396484375
24.71923828125
29.296875
26.55029296875
25.634765625
27.4658203125
31.1279296875
29.296875
23.8037109375
21.97265625
30.21240234375
39.36767578125
44.86083984375
47.607421875
45.7763671875
48.52294921875
44.86083984375
38.4521484375
43.02978515625
47.607421875
43.9453125
54.01611328125
70.49560546875
80.56640625
74.15771484375
75.98876953125
66.83349609375
74.15771484375
77.81982421875
82.3974609375
91.552734375
91.552734375
90.63720703125
97.0458984375
104.3701171875
105.28564453125
106.201171875
105.28564453125
106.201171875
118.10302734375
127.25830078125
134.58251953125
138.24462890625
137.3291015625
144.6533203125
151.06201171875
155.6396484375
156.55517578125
158.38623046875
168.45703125
176.69677734375
186.767578125
193.17626953125
203.2470703125
210.5712890625
217.8955078125
214.2333984375
208.740234375
216.97998046875
232.5439453125
245.361328125
256.34765625
259.09423828125
260.009765625
267.333984375
256.34765625
251.77001953125
258.1787109375
256.34765625
258.1787109375
269.1650390625
268.24951171875
260.92529296875
267.333984375
271.91162109375
267.333984375
258.1787109375
258.1787109375
257.26318359375
260.009765625
255.43212890625
255.43212890625
251.77001953125
243.5302734375
227.05078125
223.388671875
215.14892578125
198.66943359375
185.85205078125
165.71044921875
156.55517578125
159.3017578125
144.6533203125
126.3427734375
118.10302734375
95.21484375
77.81982421875
67.7490234375
56.7626953125
48.52294921875
54.931640625
53.1005859375
46.69189453125
28.38134765625
20.1416015625
10.986328125
3.662109375
-1.8310546875
-17.39501953125
-20.1416015625
-18.310546875
-18.310546875
-15.56396484375
-15.56396484375
-22.88818359375
-32.04345703125
-35.70556640625
-35.70556640625
-39.36767578125
-41.19873046875
-37.53662109375
-37.53662109375
-37.53662109375
-35.70556640625
-32.958984375
-40.283203125
-44.86083984375
-42.1142578125
-47.607421875
-58.59375
-46.69189453125
-38.4521484375
-33.87451171875
-37.53662109375
-48.52294921875
-48.52294921875
-48.52294921875
-57.67822265625
-64.0869140625
-58.59375
-49.4384765625
-44.86083984375
-36.62109375
-43.9453125
-47.607421875
-47.607421875
-45.7763671875
-55.84716796875
-54.931640625
-47.607421875
-39.36767578125
-34.7900390625
-35.70556640625
-34.7900390625
-32.958984375
-32.958984375
-33.87451171875
-34.7900390625
-42.1142578125
-33.87451171875
-24.71923828125
-14.6484375
-11.90185546875
-14.6484375
-15.56396484375
-22.88818359375
-29.296875
-25.634765625
-26.55029296875
-26.55029296875
-20.1416015625
-14.6484375
-14.6484375
-10.07080078125
-18.310546875
-24.71923828125
-15.56396484375
-21.05712890625
-30.21240234375
-21.97265625
-19.22607421875
-5.4931640625
-10.986328125
-12.8173828125
-21.97265625
-29.296875
-24.71923828125
-31.1279296875
-41.19873046875
-36.62109375
-27.4658203125
-24.71923828125
-16.4794921875
-17.39501953125
-22.88818359375
-26.55029296875
-21.05712890625
-32.958984375
-42.1142578125
-44.86083984375
-43.9453125
-32.04345703125
-26.55029296875
-25.634765625
-26.55029296875
-35.70556640625
-43.9453125
-44.86083984375
-51.26953125
-42.1142578125
-32.04345703125
-25.634765625
-20.1416015625
-30.21240234375
-37.53662109375
-45.7763671875
-36.62109375
-32.04345703125
-43.9453125
-45.7763671875
-43.9453125
-33.87451171875
-27.4658203125
-32.958984375
-26.55029296875
-27.4658203125
-36.62109375
-40.283203125
-42.1142578125
-47.607421875
-47.607421875
-39.36767578125
-38.4521484375
-40.283203125
-39.36767578125
-43.9453125
-42.1142578125
-43.9453125
-54.931640625
-51.26953125
-52.18505859375
-43.02978515625
-32.958984375
-34.7900390625
-42.1142578125
-44.86083984375
-52.18505859375
-56.7626953125
-58.59375
-54.01611328125
-50.35400390625
-46.69189453125
-33.87451171875
-31.1279296875
-21.97265625
-14.6484375
-12.8173828125
-0.91552734375
13.73291015625
26.55029296875
32.04345703125
31.1279296875
35.70556640625
36.62109375
30.21240234375
21.05712890625
8.23974609375
2.74658203125
9.1552734375
21.05712890625
20.1416015625
21.97265625
24.71923828125
19.22607421875
16.4794921875
18.310546875
12.8173828125
5.4931640625
2.74658203125
-3.662109375
-11.90185546875
-17.39501953125
-23.8037109375
-26.55029296875
-35.70556640625
-42.1142578125
-47.607421875
-53.1005859375
-54.01611328125
-43.9453125
-43.9453125
-41.19873046875
-39.36767578125
-46.69189453125
-57.67822265625
-72.32666015625
-78.7353515625
-86.0595703125
-97.0458984375
-94.29931640625
-90.63720703125
-74.15771484375
-73.2421875
-67.7490234375
-65.91796875
-76.904296875
-78.7353515625
-78.7353515625
-82.3974609375
-78.7353515625
-68.66455078125
-64.0869140625
-62.255859375
-60.4248046875
-60.4248046875
-60.4248046875
-65.91796875
-69.580078125
-72.32666015625
-75.98876953125
-73.2421875
-68.66455078125
-65.91796875
-66.83349609375
-65.91796875
-74.15771484375
-82.3974609375
-89.7216796875
-94.29931640625
-85.14404296875
-82.3974609375
-65.91796875
-34.7900390625
-4.57763671875
29.296875
97.0458984375
194.091796875
308.53271484375
428.466796875
568.54248046875
676.57470703125
736.083984375
780.029296875
784.60693359375
714.111328125
552.978515625
333.251953125
126.3427734375
-80.56640625
-237.12158203125
-313.1103515625
-314.02587890625
-291.1376953125
-285.64453125
-269.1650390625
-249.93896484375
-208.740234375
-182.18994140625
-156.55517578125
-124.51171875
-80.56640625
-50.35400390625
-26.55029296875
-11.90185546875
-2.74658203125
-3.662109375
-8.23974609375
-10.07080078125
-17.39501953125
-21.05712890625
-12.8173828125
0.91552734375
2.74658203125
-0.91552734375
-1.8310546875
-3.662109375
-4.57763671875
-6.40869140625
-5.4931640625
-6.40869140625
-10.07080078125
1.8310546875
2.74658203125
7.32421875
6.40869140625
7.32421875
5.4931640625
6.40869140625
9.1552734375
11.90185546875
24.71923828125
35.70556640625
33.87451171875
30.21240234375
25.634765625
21.97265625
22.88818359375
23.8037109375
23.8037109375
27.4658203125
37.53662109375
43.02978515625
46.69189453125
52.18505859375
50.35400390625
49.4384765625
48.52294921875
43.02978515625
46.69189453125
53.1005859375
54.01611328125
69.580078125
67.7490234375
71.4111328125
81.48193359375
83.31298828125
81.48193359375
78.7353515625
84.228515625
86.0595703125
95.21484375
105.28564453125
113.525390625
119.93408203125
127.25830078125
119.93408203125
125.42724609375
133.6669921875
138.24462890625
138.24462890625
149.23095703125
162.04833984375
162.9638671875
168.45703125
167.54150390625
173.9501953125
179.443359375
180.35888671875
178.52783203125
190.4296875
204.16259765625
214.2333984375
227.05078125
228.8818359375
230.712890625
231.62841796875
243.5302734375
239.8681640625
238.95263671875
243.5302734375
257.26318359375
266.41845703125
271.91162109375
270.99609375
272.8271484375
269.1650390625
268.24951171875
264.58740234375
260.009765625
261.8408203125
263.671875
269.1650390625
272.8271484375
267.333984375
260.009765625
258.1787109375
247.1923828125
227.05078125
214.2333984375
211.48681640625
200.50048828125
197.75390625
189.51416015625
173.03466796875
153.80859375
138.24462890625
130.0048828125
116.27197265625
100.7080078125
91.552734375
83.31298828125
72.32666015625
62.255859375
51.26953125
44.86083984375
31.1279296875
8.23974609375
-2.74658203125
-4.57763671875
-2.74658203125
-6.40869140625
-13.73291015625
-10.986328125
-15.56396484375
-26.55029296875
-31.1279296875
-33.87451171875
-37.53662109375
-40.283203125
-44.86083984375
-42.1142578125
-42.1142578125
-43.9453125
-49.4384765625
-51.26953125
-57.67822265625
-65.00244140625
-63.17138671875
-58.59375
-55.84716796875
-66.83349609375
-65.91796875
-54.01611328125
-52.18505859375
-58.59375
-62.255859375
-59.50927734375
-66.83349609375
-67.7490234375
-66.83349609375
-69.580078125
-62.255859375
-57.67822265625
-58.59375
-66.83349609375
-65.00244140625
-57.67822265625
-51.26953125
-55.84716796875
-54.01611328125
-54.01611328125
-53.1005859375
-42.1142578125
-41.19873046875
-43.02978515625
-38.4521484375
-49.4384765625
-52.18505859375
-50.35400390625
-61.34033203125
-49.4384765625
-39.36767578125
-35.70556640625
-37.53662109375
-40.283203125
-36.62109375
-38.4521484375
-40.283203125
-40.283203125
-37.53662109375
-36.62109375
-24.71923828125
-19.22607421875
-26.55029296875
-24.71923828125
-26.55029296875
-29.296875
-30.21240234375
-34.7900390625
-33.87451171875
-36.62109375
-33.87451171875
-36.62109375
-31.1279296875
-30.21240234375
-33.87451171875
-34.7900390625
-33.87451171875
-40.283203125
-40.283203125
-43.02978515625
-37.53662109375
-34.7900390625
-32.04345703125
-35.70556640625
-30.21240234375
-40.283203125
-51.26953125
-59.50927734375
-63.17138671875
-54.01611328125
-51.26953125
-43.9453125
-48.52294921875
-43.02978515625
-54.931640625
-61.34033203125
-54.01611328125
-48.52294921875
-54.931640625
-53.1005859375
-58.59375
-52.18505859375
-59.50927734375
-56.7626953125
-54.01611328125
-59.50927734375
-54.01611328125
-62.255859375
-66.83349609375
-58.59375
-62.255859375
-65.91796875
-65.91796875
-64.0869140625
-62.255859375
-61.34033203125
-67.7490234375
-71.4111328125
-61.34033203125
-54.01611328125
-62.255859375
-57.67822265625
-65.91796875
-71.4111328125
-65.91796875
-70.49560546875
-73.2421875
-68.66455078125
-73.2421875
-67.7490234375
-61.34033203125
-60.4248046875
-59.50927734375
-53.1005859375
-64.0869140625
-69.580078125
-78.7353515625
-75.98876953125
-73.2421875
-73.2421875
-76.904296875
-72.32666015625
-65.00244140625
-62.255859375
-69.580078125
-76.904296875
-72.32666015625
-74.15771484375
-70.49560546875
-75.98876953125
-66.83349609375
-60.4248046875
-51.26953125
-41.19873046875
-40.283203125
-22.88818359375
-1.8310546875
3.662109375
5.4931640625
0.91552734375
-3.662109375
1.8310546875
-0.91552734375
-3.662109375
-11.90185546875
-19.22607421875
-21.97265625
-10.986328125
-3.662109375
0.91552734375
5.4931640625
4.57763671875
-3.662109375
-9.1552734375
-10.986328125
-16.4794921875
-27.4658203125
-37.53662109375
-43.02978515625
-59.50927734375
-62.255859375
-56.7626953125
-62.255859375
-59.50927734375
-75.98876953125
-87.890625
-80.56640625
-71.4111328125
-67.7490234375
-63.17138671875
-65.91796875
-64.0869140625
-69.580078125
-83.31298828125
-97.0458984375
-106.201171875
-107.11669921875
-105.28564453125
-110.77880859375
-112.60986328125
-103.45458984375
-97.0458984375
-98.876953125
-98.876953125
-93.3837890625
-98.876953125
-102.5390625
-103.45458984375
-105.28564453125
-100.7080078125
-96.13037109375
-92.46826171875
-90.63720703125
-91.552734375
-87.890625
-81.48193359375
-83.31298828125
-94.29931640625
-100.7080078125
-95.21484375
-85.14404296875
-87.890625
-89.7216796875
-91.552734375
-98.876953125
-106.201171875
-112.60986328125
-114.44091796875
-106.201171875
-98.876953125
-84.228515625
-58.59375
-39.36767578125
