ECG
-15.56396484375
-17.39501953125
-13.73291015625
-11.90185546875
-14.6484375
-17.39501953125
-21.05712890625
-20.1416015625
-19.22607421875
-19.22607421875
-17.39501953125
-12.8173828125
-14.6484375
-11.90185546875
-14.6484375
-14.6484375
-20.1416015625
-20.1416015625
-20.1416015625
-12.8173828125
-7.32421875
-10.07080078125
-5.4931640625
-3.662109375
-12.8173828125
-9.1552734375
-7.32421875
-12.8173828125
-12.8173828125
-2.74658203125
-9.1552734375
-8.23974609375
3.662109375
-4.57763671875
-10.07080078125
-5.4931640625
-2.74658203125
-3.662109375
-6.40869140625
0.91552734375
-4.57763671875
-4.57763671875
0
-7.32421875
-13.73291015625
-17.39501953125
-15.56396484375
-12.8173828125
-10.07080078125
-6.40869140625
-10.986328125
-9.1552734375
-3.662109375
-4.57763671875
-11.90185546875
-17.39501953125
-11.90185546875
-15.56396484375
-10.07080078125
-10.986328125
-10.07080078125
-14.6484375
-10.986328125
-10.07080078125
-11.90185546875
-13.73291015625
-14.6484375
-16.4794921875
-13.73291015625
-16.4794921875
-17.39501953125
-17.39501953125
-12.8173828125
-15.56396484375
-19.22607421875
-22.88818359375
-25.634765625
-28.38134765625
-22.88818359375
-19.22607421875
-16.4794921875
-15.56396484375
-18.310546875
-26.55029296875
-22.88818359375
-23.8037109375
-35.70556640625
-31.1279296875
-32.04345703125
-26.55029296875
-21.05712890625
-26.55029296875
-31.1279296875
-27.4658203125
-32.04345703125
-33.87451171875
-36.62109375
-31.1279296875
-38.4521484375
-36.62109375
-26.55029296875
-26.55029296875
-30.21240234375
-28.38134765625
-27.4658203125
-32.04345703125
-31.1279296875
-39.36767578125
-40.283203125
-41.19873046875
-30.21240234375
-32.04345703125
-30.21240234375
-33.87451171875
-34.7900390625
-31.1279296875
-37.53662109375
-35.70556640625
-32.958984375
-34.7900390625
-25.634765625
-33.87451171875
-29.296875
-28.38134765625
-33.87451171875
-34.7900390625
-31.1279296875
-32.958984375
-35.70556640625
-34.7900390625
-37.53662109375
-42.1142578125
-30.21240234375
-20.1416015625
-23.8037109375
-17.39501953125
-13.73291015625
-0.91552734375
10.07080078125
27.4658203125
32.958984375
30.21240234375
32.958984375
25.634765625
13.73291015625
14.6484375
9.1552734375
2.74658203125
4.57763671875
19.22607421875
30.21240234375
26.55029296875
31.1279296875
32.04345703125
29.296875
21.05712890625
13.73291015625
11.90185546875
14.6484375
7.32421875
5.4931640625
-0.91552734375
-14.6484375
-21.97265625
-21.05712890625
-21.05712890625
-33.87451171875
-44.86083984375
-36.62109375
-32.04345703125
-27.4658203125
-24.71923828125
-21.97265625
-31.1279296875
-45.7763671875
-46.69189453125
-57.67822265625
-65.91796875
-61.34033203125
-62.255859375
-64.0869140625
-66.83349609375
-60.4248046875
-59.50927734375
-57.67822265625
-54.931640625
-57.67822265625
-62.255859375
-57.67822265625
-59.50927734375
-54.01611328125
-54.931640625
-52.18505859375
-55.84716796875
-54.931640625
-51.26953125
-48.52294921875
-45.7763671875
-52.18505859375
-54.931640625
-50.35400390625
-43.02978515625
-51.26953125
-48.52294921875
-54.01611328125
-53.1005859375
-54.01611328125
-60.4248046875
-63.17138671875
-67.7490234375
-66.83349609375
-64.0869140625
-56.7626953125
-35.70556640625
-15.56396484375
26.55029296875
82.3974609375
179.443359375
279.23583984375
390.0146484375
515.44189453125
610.65673828125
667.41943359375
697.6318359375
695.80078125
639.95361328125
502.62451171875
282.89794921875
97.96142578125
-58.59375
-184.02099609375
-257.26318359375
-244.44580078125
-233.45947265625
-227.05078125
-196.83837890625
-177.6123046875
-179.443359375
-160.21728515625
-129.08935546875
-99.79248046875
-75.98876953125
-45.7763671875
-14.6484375
-5.4931640625
5.4931640625
12.8173828125
14.6484375
19.22607421875
13.73291015625
21.05712890625
19.22607421875
17.39501953125
18.310546875
15.56396484375
23.8037109375
21.97265625
16.4794921875
21.05712890625
30.21240234375
28.38134765625
32.04345703125
35.70556640625
30.21240234375
33.87451171875
31.1279296875
29.296875
37.53662109375
40.283203125
42.1142578125
37.53662109375
37.53662109375
40.283203125
44.86083984375
39.36767578125
37.53662109375
43.9453125
49.4384765625
51.26953125
54.01611328125
58.59375
61.34033203125
65.00244140625
65.00244140625
69.580078125
69.580078125
68.66455078125
64.0869140625
67.7490234375
75.0732421875
82.3974609375
86.97509765625
83.31298828125
89.7216796875
94.29931640625
92.46826171875
93.3837890625
97.0458984375
104.3701171875
109.86328125
113.525390625
110.77880859375
120.849609375
126.3427734375
129.08935546875
125.42724609375
131.8359375
134.58251953125
148.3154296875
148.3154296875
162.04833984375
159.3017578125
165.71044921875
173.9501953125
186.767578125
184.02099609375
185.85205078125
199.5849609375
205.078125
195.9228515625
206.9091796875
210.5712890625
221.5576171875
233.45947265625
235.29052734375
235.29052734375
238.037109375
243.5302734375
246.27685546875
250.8544921875
253.60107421875
256.34765625
259.09423828125
260.009765625
252.685546875
258.1787109375
255.43212890625
255.43212890625
261.8408203125
266.41845703125
265.5029296875
270.99609375
265.5029296875
262.75634765625
259.09423828125
261.8408203125
257.26318359375
247.1923828125
237.12158203125
237.12158203125
232.5439453125
221.5576171875
215.14892578125
202.33154296875
183.10546875
179.443359375
169.37255859375
155.6396484375
145.56884765625
134.58251953125
123.59619140625
114.44091796875
105.28564453125
92.46826171875
82.3974609375
75.98876953125
65.00244140625
57.67822265625
51.26953125
44.86083984375
38.4521484375
27.4658203125
21.97265625
19.22607421875
21.05712890625
13.73291015625
-3.662109375
-11.90185546875
-7.32421875
-3.662109375
-6.40869140625
-10.07080078125
-11.90185546875
-10.07080078125
-10.986328125
-15.56396484375
-21.05712890625
-26.55029296875
-21.05712890625
-23.8037109375
-24.71923828125
-22.88818359375
-28.38134765625
-31.1279296875
-32.958984375
-29.296875
-30.21240234375
-31.1279296875
-28.38134765625
-28.38134765625
-24.71923828125
-22.88818359375
-15.56396484375
-14.6484375
-23.8037109375
-21.05712890625
-20.1416015625
-24.71923828125
-23.8037109375
-16.4794921875
-15.56396484375
-13.73291015625
-8.23974609375
-11.90185546875
-14.6484375
-13.73291015625
-10.07080078125
-6.40869140625
-13.73291015625
-10.986328125
-4.57763671875
-4.57763671875
-2.74658203125
-1.8310546875
-9.1552734375
-10.07080078125
-3.662109375
-2.74658203125
3.662109375
-1.8310546875
0.91552734375
6.40869140625
3.662109375
0.91552734375
-0.91552734375
-1.8310546875
-3.662109375
-5.4931640625
-2.74658203125
-7.32421875
-0.91552734375
0
-1.8310546875
-2.74658203125
-2.74658203125
-4.57763671875
-0.91552734375
-0.91552734375
-3.662109375
-6.40869140625
-7.32421875
-4.57763671875
-7.32421875
1.8310546875
-2.74658203125
-8.23974609375
-11.90185546875
-17.39501953125
-13.73291015625
-13.73291015625
-15.56396484375
-13.73291015625
-13.73291015625
-9.1552734375
-10.07080078125
-12.8173828125
-14.6484375
-16.4794921875
-18.310546875
-21.05712890625
-20.1416015625
-23.8037109375
-21.97265625
-21.97265625
-24.71923828125
-24.71923828125
-25.634765625
-21.97265625
-16.4794921875
-21.97265625
-23.8037109375
-19.22607421875
-16.4794921875
-23.8037109375
-26.55029296875
-32.04345703125
-37.53662109375
-29.296875
-24.71923828125
-24.71923828125
-20.1416015625
-18.310546875
-20.1416015625
-21.05712890625
-17.39501953125
-22.88818359375
-21.97265625
-28.38134765625
-29.296875
-25.634765625
-26.55029296875
-29.296875
-32.04345703125
-35.70556640625
-32.958984375
-32.04345703125
-31.1279296875
-33.87451171875
-29.296875
-32.04345703125
-33.87451171875
-26.55029296875
-24.71923828125
-28.38134765625
-28.38134765625
-27.4658203125
-33.87451171875
-36.62109375
-32.958984375
-27.4658203125
-24.71923828125
-30.21240234375
-32.04345703125
-32.04345703125
-33.87451171875
-41.19873046875
-40.283203125
-39.36767578125
-30.21240234375
-29.296875
-32.958984375
-30.21240234375
-26.55029296875
-23.8037109375
-22.88818359375
-21.05712890625
-16.4794921875
-11.90185546875
9.1552734375
28.38134765625
37.53662109375
48.52294921875
43.9453125
41.19873046875
35.70556640625
29.296875
32.958984375
25.634765625
23.8037109375
20.1416015625
32.958984375
43.02978515625
43.9453125
42.1142578125
43.02978515625
38.4521484375
21.97265625
17.39501953125
15.56396484375
25.634765625
21.97265625
10.07080078125
0
-13.73291015625
-17.39501953125
-16.4794921875
-21.97265625
-29.296875
-32.958984375
-32.04345703125
-16.4794921875
-21.05712890625
-23.8037109375
-22.88818359375
-34.7900390625
-45.7763671875
-54.01611328125
-59.50927734375
-58.59375
-58.59375
-60.4248046875
-66.83349609375
-64.0869140625
-62.255859375
-58.59375
-64.0869140625
-70.49560546875
-68.66455078125
-55.84716796875
-60.4248046875
-62.255859375
-61.34033203125
-63.17138671875
-58.59375
-54.01611328125
-54.931640625
-58.59375
-56.7626953125
-52.18505859375
-53.1005859375
-46.69189453125
-50.35400390625
-52.18505859375
-51.26953125
-50.35400390625
-49.4384765625
-55.84716796875
-63.17138671875
-67.7490234375
-65.91796875
-67.7490234375
-65.00244140625
-60.4248046875
-47.607421875
-23.8037109375
0.91552734375
47.607421875
117.1875
219.7265625
327.7587890625
456.84814453125
585.9375
685.72998046875
747.98583984375
781.8603515625
773.62060546875
704.9560546875
541.9921875
318.603515625
110.77880859375
-80.56640625
-226.13525390625
-287.4755859375
-272.8271484375
-268.24951171875
-236.2060546875
-220.64208984375
-206.9091796875
-173.9501953125
-144.6533203125
-114.44091796875
-72.32666015625
-45.7763671875
-25.634765625
-10.986328125
1.8310546875
8.23974609375
13.73291015625
18.310546875
18.310546875
20.1416015625
22.88818359375
23.8037109375
21.97265625
21.05712890625
11.90185546875
16.4794921875
14.6484375
16.4794921875
19.22607421875
31.1279296875
27.4658203125
29.296875
32.958984375
28.38134765625
32.04345703125
34.7900390625
41.19873046875
46.69189453125
47.607421875
42.1142578125
46.69189453125
54.931640625
48.52294921875
38.4521484375
49.4384765625
45.7763671875
45.7763671875
50.35400390625
53.1005859375
58.59375
62.255859375
63.17138671875
65.91796875
60.4248046875
61.34033203125
65.91796875
72.32666015625
75.0732421875
75.98876953125
80.56640625
91.552734375
94.29931640625
94.29931640625
98.876953125
99.79248046875
92.46826171875
93.3837890625
99.79248046875
108.0322265625
111.6943359375
113.525390625
127.25830078125
124.51171875
122.6806640625
133.6669921875
140.9912109375
145.56884765625
146.484375
158.38623046875
158.38623046875
164.794921875
173.9501953125
184.02099609375
186.767578125
184.02099609375
191.34521484375
200.50048828125
204.16259765625
209.65576171875
222.47314453125
229.79736328125
233.45947265625
238.95263671875
241.69921875
247.1923828125
252.685546875
260.009765625
263.671875
270.08056640625
273.74267578125
275.57373046875
280.1513671875
281.982421875
287.4755859375
280.1513671875
281.982421875
284.72900390625
284.72900390625
281.06689453125
283.8134765625
287.4755859375
292.96875
290.22216796875
280.1513671875
280.1513671875
271.91162109375
268.24951171875
263.671875
261.8408203125
258.1787109375
251.77001953125
243.5302734375
219.7265625
204.16259765625
194.091796875
181.2744140625
161.1328125
154.72412109375
148.3154296875
140.07568359375
133.6669921875
127.25830078125
111.6943359375
92.46826171875
77.81982421875
68.66455078125
55.84716796875
41.19873046875
32.04345703125
31.1279296875
28.38134765625
30.21240234375
31.1279296875
23.8037109375
12.8173828125
5.4931640625
8.23974609375
10.986328125
6.40869140625
-3.662109375
-1.8310546875
-5.4931640625
-20.1416015625
-23.8037109375
-13.73291015625
-3.662109375
-5.4931640625
-11.90185546875
-14.6484375
-11.90185546875
-17.39501953125
-19.22607421875
-15.56396484375
-14.6484375
-18.310546875
-22.88818359375
-25.634765625
-29.296875
-22.88818359375
-21.97265625
-23.8037109375
-17.39501953125
-10.07080078125
-11.90185546875
-16.4794921875
-20.1416015625
-19.22607421875
-19.22607421875
-15.56396484375
-8.23974609375
-15.56396484375
-14.6484375
-12.8173828125
-4.57763671875
-7.32421875
-12.8173828125
-7.32421875
-6.40869140625
-10.07080078125
-5.4931640625
-6.40869140625
0
1.8310546875
-1.8310546875
0.91552734375
-0.91552734375
0
-5.4931640625
-0.91552734375
0
6.40869140625
9.1552734375
4.57763671875
0.91552734375
3.662109375
4.57763671875
1.8310546875
3.662109375
5.4931640625
1.8310546875
-1.8310546875
4.57763671875
11.90185546875
8.23974609375
-3.662109375
-5.4931640625
-1.8310546875
-1.8310546875
-2.74658203125
-1.8310546875
4.57763671875
-2.74658203125
-4.57763671875
-0.91552734375
-2.74658203125
-8.23974609375
-1.8310546875
-4.57763671875
-8.23974609375
-3.662109375
-3.662109375
-3.662109375
-7.32421875
-10.07080078125
-12.8173828125
-13.73291015625
-10.986328125
-8.23974609375
-10.986328125
-6.40869140625
-12.8173828125
-12.8173828125
-14.6484375
-23.8037109375
-21.05712890625
-16.4794921875
-20.1416015625
-18.310546875
-15.56396484375
-17.39501953125
-19.22607421875
-19.22607421875
-19.22607421875
-17.39501953125
-19.22607421875
-22.88818359375
-24.71923828125
-21.05712890625
-16.4794921875
-8.23974609375
-8.23974609375
-17.39501953125
-20.1416015625
-18.310546875
-22.88818359375
-19.22607421875
-17.39501953125
-28.38134765625
-26.55029296875
-18.310546875
-20.1416015625
-15.56396484375
-15.56396484375
-17.39501953125
-27.4658203125
-30.21240234375
-24.71923828125
-21.97265625
-24.71923828125
-21.97265625
-21.97265625
-23.8037109375
-20.1416015625
-31.1279296875
-33.87451171875
-28.38134765625
-34.7900390625
-32.04345703125
-27.4658203125
-31.1279296875
-28.38134765625
-28.38134765625
-31.1279296875
-32.958984375
-28.38134765625
-29.296875
-30.21240234375
-30.21240234375
-26.55029296875
-28.38134765625
-33.87451171875
-32.04345703125
-37.53662109375
-30.21240234375
-26.55029296875
-30.21240234375
-27.4658203125
-27.4658203125
-32.958984375
-21.97265625
-12.8173828125
-6.40869140625
-5.4931640625
0
19.22607421875
32.958984375
43.9453125
50.35400390625
50.35400390625
39.36767578125
33.87451171875
35.70556640625
33.87451171875
26.55029296875
21.05712890625
20.1416015625
39.36767578125
42.1142578125
37.53662109375
43.02978515625
46.69189453125
40.283203125
33.87451171875
33.87451171875
24.71923828125
19.22607421875
9.1552734375
5.4931640625
-1.8310546875
-11.90185546875
-8.23974609375
-8.23974609375
-11.90185546875
-19.22607421875
-24.71923828125
-32.958984375
-25.634765625
-28.38134765625
-27.4658203125
-22.88818359375
-22.88818359375
-37.53662109375
-51.26953125
-55.84716796875
-58.59375
-62.255859375
-64.0869140625
-58.59375
-55.84716796875
-50.35400390625
-47.607421875
-44.86083984375
-48.52294921875
-54.01611328125
-54.01611328125
-54.931640625
-54.01611328125
-50.35400390625
-51.26953125
-42.1142578125
-40.283203125
-46.69189453125
-46.69189453125
-46.69189453125
-43.9453125
-43.9453125
-45.7763671875
-44.86083984375
-39.36767578125
-33.87451171875
-38.4521484375
-38.4521484375
-37.53662109375
-45.7763671875
-57.67822265625
-65.91796875
-67.7490234375
-58.59375
-58.59375
-48.52294921875
-21.97265625
4.57763671875
28.38134765625
86.97509765625
184.02099609375
297.54638671875
420.22705078125
557.55615234375
676.57470703125
752.5634765625
802.001953125
823.05908203125
781.8603515625
650.93994140625
445.86181640625
238.037109375
27.4658203125
-159.3017578125
-258.1787109375
-268.24951171875
-253.60107421875
-237.12158203125
-216.064453125
-193.17626953125
-162.04833984375
-141.90673828125
-110.77880859375
-73.2421875
-43.9453125
-18.310546875
1.8310546875
10.986328125
22.88818359375
27.4658203125
32.958984375
27.4658203125
25.634765625
32.958984375
30.21240234375
35.70556640625
34.7900390625
35.70556640625
41.19873046875
32.04345703125
27.4658203125
23.8037109375
27.4658203125
30.21240234375
34.7900390625
32.958984375
26.55029296875
35.70556640625
36.62109375
35.70556640625
43.9453125
36.62109375
37.53662109375
46.69189453125
51.26953125
60.4248046875
48.52294921875
56.7626953125
62.255859375
62.255859375
59.50927734375
58.59375
62.255859375
69.580078125
66.83349609375
68.66455078125
70.49560546875
77.81982421875
80.56640625
77.81982421875
83.31298828125
85.14404296875
88.80615234375
100.7080078125
97.96142578125
101.62353515625
103.45458984375
110.77880859375
119.0185546875
118.10302734375
119.0185546875
120.849609375
119.93408203125
129.08935546875
139.16015625
140.9912109375
145.56884765625
152.89306640625
155.6396484375
152.89306640625
160.21728515625
160.21728515625
160.21728515625
173.03466796875
178.52783203125
187.68310546875
193.17626953125
205.078125
215.14892578125
215.14892578125
219.7265625
223.388671875
230.712890625
235.29052734375
240.78369140625
249.93896484375
253.60107421875
259.09423828125
269.1650390625
268.24951171875
269.1650390625
273.74267578125
277.40478515625
281.06689453125
288.39111328125
292.05322265625
294.7998046875
295.71533203125
291.1376953125
291.1376953125
294.7998046875
299.37744140625
293.88427734375
291.1376953125
302.1240234375
303.955078125
301.20849609375
303.03955078125
300.29296875
291.1376953125
289.306640625
285.64453125
277.40478515625
268.24951171875
260.009765625
245.361328125
235.29052734375
224.30419921875
217.8955078125
195.9228515625
186.767578125
174.86572265625
162.04833984375
160.21728515625
148.3154296875
130.0048828125
121.76513671875
112.60986328125
97.96142578125
86.0595703125
71.4111328125
65.00244140625
57.67822265625
49.4384765625
44.86083984375
38.4521484375
31.1279296875
27.4658203125
23.8037109375
15.56396484375
4.57763671875
10.986328125
11.90185546875
7.32421875
6.40869140625
2.74658203125
-5.4931640625
-7.32421875
-7.32421875
-9.1552734375
-14.6484375
-20.1416015625
-17.39501953125
-14.6484375
-6.40869140625
-11.90185546875
-13.73291015625
-10.986328125
-14.6484375
-14.6484375
-13.73291015625
-10.986328125
-11.90185546875
-10.986328125
-11.90185546875
-14.6484375
-16.4794921875
-8.23974609375
-11.90185546875
-12.8173828125
-10.986328125
-10.986328125
-7.32421875
-3.662109375
2.74658203125
-3.662109375
0
4.57763671875
2.74658203125
3.662109375
7.32421875
3.662109375
6.40869140625
5.4931640625
4.57763671875
13.73291015625
13.73291015625
12.8173828125
10.07080078125
11.90185546875
10.986328125
10.07080078125
13.73291015625
10.07080078125
5.4931640625
10.07080078125
8.23974609375
10.07080078125
14.6484375
9.1552734375
3.662109375
6.40869140625
6.40869140625
8.23974609375
10.07080078125
14.6484375
9.1552734375
9.1552734375
8.23974609375
7.32421875
6.40869140625
2.74658203125
7.32421875
7.32421875
3.662109375
-0.91552734375
0.91552734375
4.57763671875
7.32421875
0
0.91552734375
0
0
-1.8310546875
-0.91552734375
9.1552734375
10.986328125
8.23974609375
3.662109375
1.8310546875
-9.1552734375
-8.23974609375
-8.23974609375
-7.32421875
-6.40869140625
-0.91552734375
-2.74658203125
-1.8310546875
-4.57763671875
-1.8310546875
-3.662109375
-5.4931640625
-8.23974609375
-2.74658203125
-7.32421875
-6.40869140625
-2.74658203125
-8.23974609375
-9.1552734375
-7.32421875
-7.32421875
-11.90185546875
-16.4794921875
-17.39501953125
-16.4794921875
-14.6484375
-17.39501953125
-17.39501953125
-23.8037109375
-20.1416015625
-21.05712890625
-21.05712890625
-21.97265625
-23.8037109375
-22.88818359375
-19.22607421875
-23.8037109375
-23.8037109375
-21.97265625
-25.634765625
-25.634765625
-26.55029296875
-32.04345703125
-32.04345703125
-28.38134765625
-26.55029296875
-23.8037109375
-23.8037109375
-18.310546875
-23.8037109375
-28.38134765625
-28.38134765625
-30.21240234375
-31.1279296875
-30.21240234375
-26.55029296875
-27.4658203125
-28.38134765625
-28.38134765625
-28.38134765625
-26.55029296875
-32.04345703125
-30.21240234375
-32.04345703125
-31.1279296875
-29.296875
-28.38134765625
-21.05712890625
-22.88818359375
-23.8037109375
-28.38134765625
-28.38134765625
-25.634765625
-29.296875
-25.634765625
-18.310546875
-11.90185546875
-4.57763671875
8.23974609375
21.05712890625
31.1279296875
41.19873046875
42.1142578125
43.9453125
31.1279296875
32.958984375
32.04345703125
30.21240234375
24.71923828125
14.6484375
18.310546875
32.04345703125
42.1142578125
36.62109375
31.1279296875
31.1279296875
27.4658203125
29.296875
23.8037109375
17.39501953125
21.97265625
7.32421875
-1.8310546875
-12.8173828125
-12.8173828125
-13.73291015625
-13.73291015625
-11.90185546875
-23.8037109375
-30.21240234375
-32.04345703125
-25.634765625
-23.8037109375
-19.22607421875
-24.71923828125
-36.62109375
-43.9453125
-43.9453125
-47.607421875
-52.18505859375
-57.67822265625
-60.4248046875
-64.0869140625
-61.34033203125
-54.931640625
-51.26953125
-44.86083984375
-44.86083984375
-49.4384765625
-55.84716796875
-53.1005859375
-52.18505859375
-56.7626953125
-60.4248046875
-54.01611328125
-47.607421875
-47.607421875
-49.4384765625
-52.18505859375
-54.931640625
-55.84716796875
-51.26953125
-54.01611328125
-57.67822265625
-58.59375
-53.1005859375
-46.69189453125
-50.35400390625
-52.18505859375
-57.67822265625
-75.0732421875
-75.0732421875
-68.66455078125
-73.2421875
-64.0869140625
-42.1142578125
-18.310546875
20.1416015625
87.890625
182.18994140625
294.7998046875
418.39599609375
545.654296875
661.92626953125
742.49267578125
793.76220703125
808.41064453125
766.29638671875
642.7001953125
437.6220703125
225.2197265625
13.73291015625
-171.20361328125
-268.24951171875
-273.74267578125
-257.26318359375
-245.361328125
-221.5576171875
-201.416015625
-173.03466796875
-150.146484375
-122.6806640625
-86.97509765625
-56.7626953125
-32.958984375
-8.23974609375
6.40869140625
19.22607421875
21.97265625
20.1416015625
18.310546875
21.97265625
19.22607421875
15.56396484375
15.56396484375
19.22607421875
17.39501953125
19.22607421875
21.97265625
21.05712890625
12.8173828125
15.56396484375
19.22607421875
21.97265625
26.55029296875
22.88818359375
30.21240234375
27.4658203125
27.4658203125
30.21240234375
28.38134765625
30.21240234375
32.04345703125
38.4521484375
42.1142578125
44.86083984375
52.18505859375
54.931640625
54.931640625
48.52294921875
52.18505859375
54.01611328125
55.84716796875
56.7626953125
61.34033203125
66.83349609375
64.0869140625
68.66455078125
75.0732421875
76.904296875
70.49560546875
74.15771484375
85.14404296875
88.80615234375
87.890625
91.552734375
98.876953125
104.3701171875
109.86328125
106.201171875
102.5390625
109.86328125
115.3564453125
119.0185546875
119.0185546875
128.173828125
135.498046875
151.9775390625
146.484375
144.6533203125
148.3154296875
153.80859375
156.55517578125
162.04833984375
171.20361328125
179.443359375
179.443359375
188.5986328125
195.00732421875
202.33154296875
207.82470703125
214.2333984375
219.7265625
225.2197265625
234.375
239.8681640625
245.361328125
250.8544921875
258.1787109375
260.009765625
265.5029296875
266.41845703125
271.91162109375
279.23583984375
285.64453125
289.306640625
287.4755859375
288.39111328125
290.22216796875
284.72900390625
281.982421875
283.8134765625
292.96875
293.88427734375
290.22216796875
288.39111328125
291.1376953125
288.39111328125
282.89794921875
279.23583984375
264.58740234375
256.34765625
246.27685546875
242.61474609375
237.12158203125
227.05078125
211.48681640625
200.50048828125
188.5986328125
173.9501953125
151.9775390625
138.24462890625
130.0048828125
122.6806640625
109.86328125
95.21484375
89.7216796875
73.2421875
66.83349609375
51.26953125
43.02978515625
42.1142578125
34.7900390625
29.296875
22.88818359375
22.88818359375
13.73291015625
10.07080078125
6.40869140625
-2.74658203125
-12.8173828125
-22.88818359375
-18.310546875
-10.986328125
-8.23974609375
-13.73291015625
-15.56396484375
-15.56396484375
-14.6484375
-23.8037109375
-28.38134765625
-32.04345703125
-27.4658203125
-30.21240234375
-26.55029296875
-23.8037109375
-20.1416015625
-18.310546875
-13.73291015625
-21.97265625
-30.21240234375
-28.38134765625
-24.71923828125
-26.55029296875
-23.8037109375
-23.8037109375
-26.55029296875
-23.8037109375
-20.1416015625
-27.4658203125
-28.38134765625
-21.97265625
-19.22607421875
-22.88818359375
-16.4794921875
-15.56396484375
-11.90185546875
-11.90185546875
-13.73291015625
-14.6484375
-13.73291015625
-13.73291015625
-14.6484375
-18.310546875
-8.23974609375
-10.07080078125
-14.6484375
-9.1552734375
-8.23974609375
-10.986328125
-11.90185546875
-10.986328125
-6.40869140625
-10.07080078125
-8.23974609375
-4.57763671875
-1.8310546875
0
0.91552734375
-4.57763671875
-2.74658203125
-1.8310546875
-4.57763671875
-10.07080078125
-6.40869140625
-0.91552734375
-2.74658203125
-2.74658203125
1.8310546875
-1.8310546875
-9.1552734375
-10.07080078125
-5.4931640625
-1.8310546875
0
-3.662109375
0.91552734375
-9.1552734375
-10.07080078125
-10.986328125
-11.90185546875
-20.1416015625
-18.310546875
-7.32421875
-5.4931640625
-9.1552734375
-11.90185546875
-8.23974609375
-13.73291015625
-18.310546875
-16.4794921875
-20.1416015625
-20.1416015625
-20.1416015625
-25.634765625
-24.71923828125
-25.634765625
-22.88818359375
-19.22607421875
-19.22607421875
-22.88818359375
-24.71923828125
-24.71923828125
-26.55029296875
-28.38134765625
-21.97265625
-24.71923828125
-23.8037109375
-19.22607421875
-25.634765625
-32.958984375
-27.4658203125
-28.38134765625
-31.1279296875
-33.87451171875
-32.958984375
-22.88818359375
-18.310546875
-28.38134765625
-31.1279296875
-27.4658203125
-33.87451171875
-31.1279296875
-21.97265625
-24.71923828125
-32.04345703125
-35.70556640625
-34.7900390625
-35.70556640625
-34.7900390625
-33.87451171875
-33.87451171875
-35.70556640625
-34.7900390625
-32.04345703125
-27.4658203125
-29.296875
-32.958984375
-32.04345703125
-32.04345703125
-33.87451171875
-35.70556640625
-38.4521484375
-42.1142578125
-40.283203125
-36.62109375
-36.62109375
-36.62109375
-32.958984375
-34.7900390625
-40.283203125
-43.9453125
-43.02978515625
-41.19873046875
-40.283203125
-36.62109375
-34.7900390625
-30.21240234375
-29.296875
-29.296875
-40.283203125
-40.283203125
-39.36767578125
-35.70556640625
-32.04345703125
-35.70556640625
-30.21240234375
-22.88818359375
-18.310546875
-16.4794921875
-16.4794921875
-10.986328125
3.662109375
19.22607421875
34.7900390625
38.4521484375
40.283203125
36.62109375
32.958984375
31.1279296875
23.8037109375
21.97265625
10.986328125
13.73291015625
30.21240234375
33.87451171875
30.21240234375
29.296875
35.70556640625
34.7900390625
24.71923828125
23.8037109375
14.6484375
10.07080078125
12.8173828125
2.74658203125
-11.90185546875
-14.6484375
-14.6484375
-21.97265625
-27.4658203125
-39.36767578125
-45.7763671875
-32.958984375
-25.634765625
-25.634765625
-31.1279296875
-27.4658203125
-35.70556640625
-45.7763671875
-56.7626953125
-65.00244140625
-66.83349609375
-67.7490234375
-63.17138671875
-61.34033203125
-63.17138671875
-58.59375
-54.01611328125
-52.18505859375
-57.67822265625
-58.59375
-59.50927734375
-53.1005859375
-47.607421875
-51.26953125
-50.35400390625
-47.607421875
-49.4384765625
-48.52294921875
-53.1005859375
-54.01611328125
-58.59375
-54.931640625
-46.69189453125
-37.53662109375
-41.19873046875
-43.9453125
-48.52294921875
-48.52294921875
-49.4384765625
-54.01611328125
-54.01611328125
-65.00244140625
-65.00244140625
-66.83349609375
-61.34033203125
-57.67822265625
-43.9453125
-22.88818359375
5.4931640625
66.83349609375
159.3017578125
267.333984375
376.28173828125
517.27294921875
637.20703125
718.68896484375
778.1982421875
795.59326171875
757.14111328125
660.09521484375
472.412109375
260.92529296875
43.9453125
-140.9912109375
-257.26318359375
-271.91162109375
-259.09423828125
-249.93896484375
-226.13525390625
-198.66943359375
-179.443359375
-159.3017578125
-132.75146484375
-98.876953125
-72.32666015625
-40.283203125
-15.56396484375
-0.91552734375
10.07080078125
14.6484375
22.88818359375
26.55029296875
25.634765625
24.71923828125
14.6484375
21.05712890625
26.55029296875
22.88818359375
17.39501953125
13.73291015625
21.97265625
21.05712890625
22.88818359375
28.38134765625
27.4658203125
36.62109375
32.958984375
27.4658203125
32.958984375
27.4658203125
22.88818359375
32.04345703125
38.4521484375
41.19873046875
35.70556640625
42.1142578125
54.01611328125
47.607421875
43.02978515625
42.1142578125
41.19873046875
52.18505859375
57.67822265625
62.255859375
62.255859375
65.91796875
65.00244140625
65.00244140625
66.83349609375
67.7490234375
68.66455078125
68.66455078125
74.15771484375
86.97509765625
86.97509765625
91.552734375
95.21484375
92.46826171875
96.13037109375
96.13037109375
108.0322265625
111.6943359375
107.11669921875
118.10302734375
122.6806640625
120.849609375
123.59619140625
137.3291015625
138.24462890625
142.822265625
150.146484375
151.9775390625
153.80859375
165.71044921875
169.37255859375
172.119140625
174.86572265625
184.02099609375
188.5986328125
189.51416015625
188.5986328125
199.5849609375
212.40234375
222.47314453125
225.2197265625
233.45947265625
240.78369140625
241.69921875
240.78369140625
248.10791015625
256.34765625
260.92529296875
259.09423828125
266.41845703125
270.99609375
276.4892578125
279.23583984375
269.1650390625
273.74267578125
280.1513671875
281.06689453125
279.23583984375
284.72900390625
288.39111328125
286.56005859375
291.1376953125
286.56005859375
281.06689453125
270.99609375
274.658203125
269.1650390625
267.333984375
264.58740234375
252.685546875
243.5302734375
231.62841796875
220.64208984375
207.82470703125
195.00732421875
184.9365234375
169.37255859375
157.470703125
148.3154296875
132.75146484375
124.51171875
110.77880859375
92.46826171875
83.31298828125
79.65087890625
75.0732421875
56.7626953125
54.931640625
45.7763671875
41.19873046875
39.36767578125
28.38134765625
18.310546875
10.986328125
-0.91552734375
4.57763671875
6.40869140625
2.74658203125
-4.57763671875
-2.74658203125
-0.91552734375
-8.23974609375
-9.1552734375
-17.39501953125
-19.22607421875
-21.05712890625
-33.87451171875
-32.958984375
-28.38134765625
-27.4658203125
-27.4658203125
-31.1279296875
-28.38134765625
-31.1279296875
-36.62109375
-31.1279296875
-32.04345703125
-34.7900390625
-29.296875
-21.97265625
-20.1416015625
-21.05712890625
-28.38134765625
-25.634765625
-24.71923828125
-21.97265625
-18.310546875
-17.39501953125
-13.73291015625
-7.32421875
-5.4931640625
-8.23974609375
-7.32421875
-10.986328125
-10.986328125
-17.39501953125
-22.88818359375
-16.4794921875
-4.57763671875
-4.57763671875
-10.07080078125
-10.986328125
-10.07080078125
-7.32421875
-9.1552734375
-10.986328125
-7.32421875
1.8310546875
-4.57763671875
-4.57763671875
-3.662109375
6.40869140625
1.8310546875
1.8310546875
-1.8310546875
-10.07080078125
-6.40869140625
-7.32421875
-5.4931640625
-7.32421875
-2.74658203125
1.8310546875
-0.91552734375
-2.74658203125
1.8310546875
-4.57763671875
-8.23974609375
-4.57763671875
-7.32421875
-3.662109375
-6.40869140625
-7.32421875
-7.32421875
-11.90185546875
-18.310546875
-16.4794921875
-10.07080078125
-10.986328125
-13.73291015625
-11.90185546875
-6.40869140625
-15.56396484375
-19.22607421875
-16.4794921875
-10.07080078125
-12.8173828125
-19.22607421875
-25.634765625
-24.71923828125
-23.8037109375
-21.05712890625
-22.88818359375
-26.55029296875
-21.05712890625
-21.97265625
-19.22607421875
-21.05712890625
-22.88818359375
-25.634765625
-27.4658203125
-22.88818359375
-21.97265625
-24.71923828125
-26.55029296875
-21.05712890625
-31.1279296875
-32.958984375
-33.87451171875
-38.4521484375
-38.4521484375
-32.958984375
-29.296875
-26.55029296875
-25.634765625
-33.87451171875
-34.7900390625
-38.4521484375
-35.70556640625
-36.62109375
-29.296875
-31.1279296875
-29.296875
-23.8037109375
-35.70556640625
-43.9453125
-42.1142578125
-34.7900390625
-33.87451171875
-32.04345703125
-32.04345703125
-33.87451171875
-29.296875
-30.21240234375
-33.87451171875
-39.36767578125
-37.53662109375
-38.4521484375
-43.02978515625
-46.69189453125
-41.19873046875
-30.21240234375
-27.4658203125
-25.634765625
-34.7900390625
-34.7900390625
-43.02978515625
-43.9453125
-37.53662109375
-36.62109375
-38.4521484375
-36.62109375
-41.19873046875
-41.19873046875
-45.7763671875
-43.9453125
-43.02978515625
-34.7900390625
-33.87451171875
-32.04345703125
-27.4658203125
-24.71923828125
-8.23974609375
13.73291015625
21.05712890625
26.55029296875
20.1416015625
16.4794921875
26.55029296875
20.1416015625
9.1552734375
14.6484375
7.32421875
0
9.1552734375
21.05712890625
18.310546875
17.39501953125
27.4658203125
31.1279296875
31.1279296875
21.97265625
17.39501953125
12.8173828125
6.40869140625
-3.662109375
-13.73291015625
-23.8037109375
-29.296875
-38.4521484375
-30.21240234375
-28.38134765625
-39.36767578125
-44.86083984375
-35.70556640625
-31.1279296875
-32.958984375
-31.1279296875
-34.7900390625
-38.4521484375
-47.607421875
-51.26953125
-57.67822265625
-57.67822265625
-63.17138671875
-67.7490234375
-68.66455078125
-63.17138671875
-67.7490234375
-65.91796875
-67.7490234375
-62.255859375
-62.255859375
-60.4248046875
-55.84716796875
-58.59375
-60.4248046875
-59.50927734375
-69.580078125
-65.91796875
-65.00244140625
-58.59375
-55.84716796875
-56.7626953125
-58.59375
-73.2421875
-64.0869140625
-64.0869140625
-60.4248046875
-50.35400390625
-41.19873046875
-50.35400390625
-58.59375
-66.83349609375
-73.2421875
-75.98876953125
-71.4111328125
-63.17138671875
-50.35400390625
-37.53662109375
-10.07080078125
28.38134765625
91.552734375
176.69677734375
275.57373046875
387.26806640625
502.62451171875
588.68408203125
639.95361328125
668.3349609375
671.08154296875
614.31884765625
464.17236328125
248.10791015625
74.15771484375
-80.56640625
-203.2470703125
-263.671875
-249.93896484375
-249.93896484375
-232.5439453125
-201.416015625
-180.35888671875
-177.6123046875
-168.45703125
-147.39990234375
-119.93408203125
-98.876953125
-69.580078125
-49.4384765625
-32.04345703125
-15.56396484375
-8.23974609375
4.57763671875
6.40869140625
8.23974609375
0
-5.4931640625
-0.91552734375
1.8310546875
7.32421875
9.1552734375
10.07080078125
8.23974609375
7.32421875
6.40869140625
7.32421875
10.07080078125
8.23974609375
15.56396484375
21.97265625
21.97265625
22.88818359375
22.88818359375
26.55029296875
19.22607421875
19.22607421875
20.1416015625
25.634765625
26.55029296875
32.958984375
41.19873046875
49.4384765625
47.607421875
40.283203125
44.86083984375
45.7763671875
43.02978515625
40.283203125
53.1005859375
63.17138671875
61.34033203125
65.91796875
70.49560546875
62.255859375
70.49560546875
73.2421875
74.15771484375
73.2421875
78.7353515625
84.228515625
86.97509765625
87.890625
94.29931640625
90.63720703125
87.890625
97.0458984375
97.96142578125
105.28564453125
108.94775390625
112.60986328125
118.10302734375
125.42724609375
130.92041015625
133.6669921875
148.3154296875
149.23095703125
143.73779296875
141.90673828125
145.56884765625
160.21728515625
164.794921875
170.2880859375
177.6123046875
182.18994140625
190.4296875
195.00732421875
205.99365234375
216.064453125
212.40234375
218.81103515625
238.95263671875
243.5302734375
238.037109375
233.45947265625
239.8681640625
242.61474609375
250.8544921875
252.685546875
253.60107421875
252.685546875
246.27685546875
247.1923828125
256.34765625
255.43212890625
252.685546875
249.93896484375
255.43212890625
253.60107421875
251.77001953125
253.60107421875
255.43212890625
254.5166015625
250.8544921875
237.12158203125
233.45947265625
221.5576171875
207.82470703125
191.34521484375
184.02099609375
174.86572265625
166.6259765625
152.89306640625
145.56884765625
134.58251953125
125.42724609375
116.27197265625
101.62353515625
82.3974609375
76.904296875
65.91796875
59.50927734375
53.1005859375
41.19873046875
35.70556640625
32.04345703125
22.88818359375
9.1552734375
9.1552734375
9.1552734375
9.1552734375
-1.8310546875
-3.662109375
-9.1552734375
-20.1416015625
-24.71923828125
-26.55029296875
-25.634765625
-27.4658203125
-29.296875
-31.1279296875
-28.38134765625
-27.4658203125
-29.296875
-35.70556640625
-34.7900390625
-34.7900390625
-39.36767578125
-45.7763671875
-50.35400390625
-42.1142578125
-43.02978515625
-36.62109375
-32.958984375
-36.62109375
-38.4521484375
-43.02978515625
-41.19873046875
-38.4521484375
-40.283203125
-40.283203125
-36.62109375
-31.1279296875
-34.7900390625
-39.36767578125
-33.87451171875
-35.70556640625
-42.1142578125
-44.86083984375
-33.87451171875
-31.1279296875
-28.38134765625
-24.71923828125
-21.97265625
-23.8037109375
-23.8037109375
-25.634765625
-20.1416015625
-23.8037109375
-20.1416015625
-21.97265625
-18.310546875
-14.6484375
-9.1552734375
-16.4794921875
-21.97265625
-25.634765625
-18.310546875
-14.6484375
-14.6484375
-10.07080078125
-14.6484375
-13.73291015625
-12.8173828125
-10.986328125
-9.1552734375
-14.6484375
-17.39501953125
-21.97265625
-18.310546875
-10.986328125
-14.6484375
-13.73291015625
-13.73291015625
-15.56396484375
-17.39501953125
-27.4658203125
-26.55029296875
-21.97265625
-19.22607421875
-21.05712890625
-21.05712890625
-21.97265625
-21.05712890625
-24.71923828125
-33.87451171875
-30.21240234375
-27.4658203125
-25.634765625
-27.4658203125
-22.88818359375
-24.71923828125
-24.71923828125
-24.71923828125
-23.8037109375
-32.958984375
-38.4521484375
-34.7900390625
-32.04345703125
-41.19873046875
-40.283203125
-32.04345703125
-28.38134765625
-33.87451171875
-39.36767578125
-35.70556640625
-35.70556640625
-36.62109375
-41.19873046875
-41.19873046875
-40.283203125
-32.958984375
-32.04345703125
-35.70556640625
-40.283203125
-43.02978515625
-40.283203125
-43.02978515625
-42.1142578125
-39.36767578125
-38.4521484375
-39.36767578125
-32.04345703125
-37.53662109375
-47.607421875
-46.69189453125
-46.69189453125
-53.1005859375
-51.26953125
-48.52294921875
-43.02978515625
-38.4521484375
-43.02978515625
-49.4384765625
-49.4384765625
-43.9453125
-46.69189453125
-45.7763671875
-49.4384765625
-55.84716796875
-47.607421875
-39.36767578125
-37.53662109375
-41.19873046875
-46.69189453125
-53.1005859375
-50.35400390625
-54.01611328125
-50.35400390625
-44.86083984375
-46.69189453125
-48.52294921875
-43.9453125
-40.283203125
-46.69189453125
-47.607421875
-47.607421875
-44.86083984375
-40.283203125
-33.87451171875
-28.38134765625
-17.39501953125
8.23974609375
18.310546875
21.97265625
20.1416015625
15.56396484375
15.56396484375
12.8173828125
13.73291015625
16.4794921875
9.1552734375
0
6.40869140625
20.1416015625
21.05712890625
20.1416015625
14.6484375
17.39501953125
11.90185546875
7.32421875
8.23974609375
15.56396484375
9.1552734375
-1.8310546875
-15.56396484375
-24.71923828125
-33.87451171875
-36.62109375
-38.4521484375
-35.70556640625
-42.1142578125
-48.52294921875
-45.7763671875
-44.86083984375
-34.7900390625
-37.53662109375
-36.62109375
-43.02978515625
-53.1005859375
-61.34033203125
-65.00244140625
-71.4111328125
-76.904296875
-82.3974609375
-83.31298828125
-84.228515625
-78.7353515625
-71.4111328125
-69.580078125
-65.00244140625
-59.50927734375
-56.7626953125
-58.59375
-61.34033203125
-67.7490234375
-70.49560546875
-65.00244140625
-59.50927734375
-52.18505859375
-56.7626953125
-54.931640625
-52.18505859375
-59.50927734375
-65.91796875
-66.83349609375
-62.255859375
-61.34033203125
-55.84716796875
-59.50927734375
-65.91796875
-66.83349609375
-69.580078125
-78.7353515625
-81.48193359375
-76.904296875
-77.81982421875
-72.32666015625
-45.7763671875
-13.73291015625
26.55029296875
108.0322265625
206.9091796875
300.29296875
412.90283203125
541.9921875
642.7001953125
703.125
737.9150390625
732.421875
675.6591796875
524.59716796875
300.29296875
104.3701171875
-79.65087890625
-216.97998046875
-284.72900390625
-278.3203125
-270.08056640625
-247.1923828125
-216.97998046875
-190.4296875
-175.78125
-157.470703125
-132.75146484375
-104.3701171875
-76.904296875
-54.931640625
-32.04345703125
-11.90185546875
4.57763671875
12.8173828125
12.8173828125
20.1416015625
17.39501953125
4.57763671875
3.662109375
5.4931640625
8.23974609375
18.310546875
16.4794921875
15.56396484375
18.310546875
16.4794921875
18.310546875
21.97265625
18.310546875
20.1416015625
19.22607421875
20.1416015625
32.04345703125
38.4521484375
40.283203125
36.62109375
28.38134765625
26.55029296875
28.38134765625
33.87451171875
35.70556640625
40.283203125
44.86083984375
45.7763671875
51.26953125
50.35400390625
45.7763671875
43.02978515625
44.86083984375
54.931640625
60.4248046875
55.84716796875
59.50927734375
65.00244140625
71.4111328125
65.00244140625
68.66455078125
73.2421875
76.904296875
81.48193359375
86.0595703125
89.7216796875
86.97509765625
97.0458984375
114.44091796875
112.60986328125
100.7080078125
104.3701171875
106.201171875
109.86328125
118.10302734375
127.25830078125
130.92041015625
127.25830078125
136.41357421875
144.6533203125
144.6533203125
144.6533203125
154.72412109375
156.55517578125
162.9638671875
172.119140625
184.02099609375
190.4296875
194.091796875
195.9228515625
205.078125
206.9091796875
215.14892578125
214.2333984375
216.97998046875
230.712890625
241.69921875
244.44580078125
256.34765625
255.43212890625
258.1787109375
260.92529296875
253.60107421875
259.09423828125
261.8408203125
263.671875
267.333984375
272.8271484375
273.74267578125
280.1513671875
281.06689453125
270.99609375
276.4892578125
278.3203125
267.333984375
266.41845703125
262.75634765625
260.009765625
261.8408203125
254.5166015625
245.361328125
230.712890625
215.14892578125
210.5712890625
206.9091796875
193.17626953125
182.18994140625
170.2880859375
161.1328125
143.73779296875
130.0048828125
122.6806640625
110.77880859375
94.29931640625
86.97509765625
81.48193359375
75.0732421875
66.83349609375
54.931640625
42.1142578125
38.4521484375
22.88818359375
15.56396484375
14.6484375
11.90185546875
1.8310546875
-3.662109375
-8.23974609375
-4.57763671875
-11.90185546875
-13.73291015625
-11.90185546875
-16.4794921875
-20.1416015625
-24.71923828125
-28.38134765625
-28.38134765625
-25.634765625
-24.71923828125
-23.8037109375
-29.296875
-32.04345703125
-32.958984375
-38.4521484375
-34.7900390625
-36.62109375
-32.958984375
-33.87451171875
-32.04345703125
-27.4658203125
-26.55029296875
-34.7900390625
-33.87451171875
-32.04345703125
-28.38134765625
-23.8037109375
-26.55029296875
-26.55029296875
-22.88818359375
-20.1416015625
-21.97265625
-28.38134765625
-28.38134765625
-27.4658203125
-23.8037109375
-21.05712890625
-18.310546875
-10.07080078125
-8.23974609375
-10.986328125
-17.39501953125
-20.1416015625
-22.88818359375
-21.97265625
-17.39501953125
-8.23974609375
-7.32421875
-2.74658203125
-4.57763671875
-0.91552734375
-2.74658203125
-15.56396484375
-16.4794921875
-12.8173828125
-9.1552734375
-6.40869140625
-2.74658203125
-9.1552734375
-0.91552734375
-1.8310546875
-8.23974609375
-5.4931640625
-3.662109375
-5.4931640625
-4.57763671875
-3.662109375
-2.74658203125
-3.662109375
-3.662109375
-5.4931640625
-8.23974609375
-15.56396484375
-12.8173828125
-5.4931640625
-5.4931640625
-7.32421875
-6.40869140625
-12.8173828125
-7.32421875
-5.4931640625
-10.07080078125
-9.1552734375
-7.32421875
-12.8173828125
-13.73291015625
-15.56396484375
-15.56396484375
-10.986328125
-9.1552734375
-18.310546875
-25.634765625
-26.55029296875
-23.8037109375
-21.05712890625
-14.6484375
-17.39501953125
-24.71923828125
-24.71923828125
-23.8037109375
-30.21240234375
-21.05712890625
-25.634765625
-31.1279296875
-28.38134765625
-26.55029296875
-23.8037109375
-21.97265625
-20.1416015625
-21.05712890625
-27.4658203125
-25.634765625
-31.1279296875
-32.958984375
-33.87451171875
-34.7900390625
-41.19873046875
-31.1279296875
-26.55029296875
-29.296875
-31.1279296875
-31.1279296875
-34.7900390625
-34.7900390625
-34.7900390625
-29.296875
-33.87451171875
-32.958984375
-31.1279296875
-31.1279296875
-28.38134765625
-30.21240234375
-37.53662109375
-39.36767578125
-43.02978515625
-36.62109375
-35.70556640625
-29.296875
-25.634765625
-21.97265625
-23.8037109375
-32.958984375
-34.7900390625
-37.53662109375
-39.36767578125
-34.7900390625
-32.04345703125
-32.04345703125
-30.21240234375
-35.70556640625
-39.36767578125
-33.87451171875
-36.62109375
-40.283203125
-40.283203125
-31.1279296875
-29.296875
-32.04345703125
-27.4658203125
-21.97265625
-16.4794921875
-15.56396484375
-8.23974609375
6.40869140625
21.05712890625
37.53662109375
43.02978515625
41.19873046875
35.70556640625
34.7900390625
32.04345703125
28.38134765625
21.05712890625
5.4931640625
9.1552734375
24.71923828125
39.36767578125
32.04345703125
34.7900390625
36.62109375
32.958984375
26.55029296875
22.88818359375
19.22607421875
16.4794921875
4.57763671875
-6.40869140625
-14.6484375
-18.310546875
-18.310546875
-17.39501953125
-24.71923828125
-38.4521484375
-40.283203125
-32.958984375
-27.4658203125
-23.8037109375
-23.8037109375
-22.88818359375
-34.7900390625
-43.02978515625
-53.1005859375
-58.59375
-60.4248046875
-65.91796875
-73.2421875
-68.66455078125
-64.0869140625
-55.84716796875
-48.52294921875
-52.18505859375
-54.931640625
-55.84716796875
-63.17138671875
-61.34033203125
-59.50927734375
-56.7626953125
-59.50927734375
-54.931640625
-54.01611328125
-55.84716796875
-56.7626953125
-54.931640625
-54.01611328125
-54.931640625
-55.84716796875
-58.59375
-55.84716796875
-55.84716796875
-55.84716796875
-43.02978515625
-51.26953125
-56.7626953125
-65.00244140625
-74.15771484375
-77.81982421875
-71.4111328125
-60.4248046875
-55.84716796875
-32.04345703125
-8.23974609375
34.7900390625
107.11669921875
206.9091796875
318.603515625
440.36865234375
579.52880859375
686.6455078125
752.5634765625
802.91748046875
810.24169921875
747.98583984375
615.234375
401.0009765625
189.51416015625
-10.07080078125
-176.69677734375
-261.8408203125
-269.1650390625
-265.5029296875
-245.361328125
-223.388671875
-202.33154296875
-176.69677734375
-139.16015625
-120.849609375
-91.552734375
-54.01611328125
-29.296875
-9.1552734375
0.91552734375
10.986328125
13.73291015625
18.310546875
21.05712890625
17.39501953125
13.73291015625
16.4794921875
14.6484375
14.6484375
19.22607421875
18.310546875
17.39501953125
13.73291015625
17.39501953125
31.1279296875
28.38134765625
33.87451171875
32.04345703125
32.958984375
34.7900390625
34.7900390625
29.296875
34.7900390625
30.21240234375
30.21240234375
32.958984375
36.62109375
40.283203125
49.4384765625
50.35400390625
46.69189453125
54.931640625
53.1005859375
55.84716796875
52.18505859375
48.52294921875
61.34033203125
66.83349609375
69.580078125
66.83349609375
67.7490234375
73.2421875
65.91796875
64.0869140625
65.00244140625
80.56640625
83.31298828125
85.14404296875
86.97509765625
99.79248046875
99.79248046875
97.96142578125
96.13037109375
97.96142578125
103.45458984375
107.11669921875
114.44091796875
119.0185546875
134.58251953125
135.498046875
134.58251953125
137.3291015625
137.3291015625
140.9912109375
144.6533203125
153.80859375
166.6259765625
173.03466796875
184.9365234375
193.17626953125
197.75390625
199.5849609375
201.416015625
205.99365234375
214.2333984375
226.13525390625
227.96630859375
231.62841796875
234.375
242.61474609375
250.8544921875
255.43212890625
263.671875
267.333984375
262.75634765625
265.5029296875
271.91162109375
274.658203125
279.23583984375
281.982421875
287.4755859375
277.40478515625
281.06689453125
277.40478515625
285.64453125
288.39111328125
287.4755859375
286.56005859375
285.64453125
285.64453125
280.1513671875
270.08056640625
259.09423828125
260.92529296875
254.5166015625
248.10791015625
240.78369140625
232.5439453125
225.2197265625
205.99365234375
188.5986328125
174.86572265625
170.2880859375
157.470703125
141.90673828125
129.08935546875
121.76513671875
103.45458984375
97.0458984375
89.7216796875
75.0732421875
65.00244140625
58.59375
43.9453125
37.53662109375
36.62109375
27.4658203125
20.1416015625
21.97265625
17.39501953125
6.40869140625
-6.40869140625
-17.39501953125
-15.56396484375
-16.4794921875
-19.22607421875
-21.97265625
-16.4794921875
-11.90185546875
-16.4794921875
-25.634765625
-23.8037109375
-29.296875
-30.21240234375
-29.296875
-33.87451171875
-31.1279296875
-32.958984375
-30.21240234375
-34.7900390625
-43.9453125
-51.26953125
-43.9453125
-35.70556640625
-25.634765625
-26.55029296875
-32.958984375
-36.62109375
-34.7900390625
-29.296875
-34.7900390625
-31.1279296875
-32.958984375
-30.21240234375
-33.87451171875
-29.296875
-24.71923828125
-19.22607421875
-21.97265625
-22.88818359375
-20.1416015625
-31.1279296875
-23.8037109375
-19.22607421875
-16.4794921875
-14.6484375
-20.1416015625
-12.8173828125
-9.1552734375
-10.986328125
-11.90185546875
-11.90185546875
-12.8173828125
-12.8173828125
-10.07080078125
-16.4794921875
-15.56396484375
-7.32421875
2.74658203125
-0.91552734375
-10.07080078125
-10.986328125
-13.73291015625
-11.90185546875
-2.74658203125
-9.1552734375
-4.57763671875
-0.91552734375
-2.74658203125
-2.74658203125
-7.32421875
-7.32421875
-5.4931640625
-6.40869140625
-11.90185546875
-13.73291015625
-7.32421875
-2.74658203125
-6.40869140625
-15.56396484375
-17.39501953125
-21.97265625
-24.71923828125
-26.55029296875
-21.97265625
-21.97265625
-13.73291015625
-14.6484375
-9.1552734375
-12.8173828125
-22.88818359375
-19.22607421875
-23.8037109375
-24.71923828125
-23.8037109375
-24.71923828125
-24.71923828125
-24.71923828125
-19.22607421875
-23.8037109375
-21.05712890625
-28.38134765625
-28.38134765625
-31.1279296875
-30.21240234375
-29.296875
-32.958984375
-31.1279296875
-33.87451171875
-31.1279296875
-32.958984375
-33.87451171875
-32.958984375
-29.296875
-29.296875
-30.21240234375
-28.38134765625
-33.87451171875
-34.7900390625
-32.04345703125
-36.62109375
-32.958984375
-32.958984375
-34.7900390625
-36.62109375
-40.283203125
-38.4521484375
-35.70556640625
-30.21240234375
-31.1279296875
-38.4521484375
-40.283203125
-37.53662109375
-32.958984375
-35.70556640625
-35.70556640625
-41.19873046875
-40.283203125
-40.283203125
-45.7763671875
-52.18505859375
-47.607421875
-43.9453125
-45.7763671875
-45.7763671875
-37.53662109375
-38.4521484375
-35.70556640625
-40.283203125
-43.9453125
-46.69189453125
-49.4384765625
-52.18505859375
-45.7763671875
-50.35400390625
-53.1005859375
-51.26953125
-51.26953125
-48.52294921875
-45.7763671875
-46.69189453125
-45.7763671875
-44.86083984375
-37.53662109375
-35.70556640625
-28.38134765625
-15.56396484375
-1.8310546875
16.4794921875
32.958984375
29.296875
27.4658203125
20.1416015625
17.39501953125
20.1416015625
21.97265625
16.4794921875
9.1552734375
9.1552734375
24.71923828125
30.21240234375
22.88818359375
20.1416015625
20.1416015625
21.05712890625
15.56396484375
8.23974609375
8.23974609375
7.32421875
1.8310546875
-4.57763671875
-18.310546875
-30.21240234375
-41.19873046875
-37.53662109375
-36.62109375
-40.283203125
-43.02978515625
-43.02978515625
-39.36767578125
-37.53662109375
-41.19873046875
-43.9453125
-53.1005859375
-56.7626953125
-66.83349609375
-74.15771484375
-74.15771484375
-67.7490234375
-74.15771484375
-83.31298828125
-82.3974609375
-76.904296875
-77.81982421875
-79.65087890625
-71.4111328125
-66.83349609375
-65.91796875
-65.00244140625
-73.2421875
-67.7490234375
-66.83349609375
-67.7490234375
-68.66455078125
-63.17138671875
-63.17138671875
-54.931640625
-56.7626953125
-55.84716796875
-50.35400390625
-52.18505859375
-60.4248046875
-59.50927734375
-50.35400390625
-54.931640625
-55.84716796875
-55.84716796875
-59.50927734375
-63.17138671875
-63.17138671875
-64.0869140625
-67.7490234375
-62.255859375
-46.69189453125
-22.88818359375
15.56396484375
78.7353515625
164.794921875
281.982421875
405.57861328125
544.73876953125
668.3349609375
745.2392578125
800.1708984375
819.39697265625
789.1845703125
682.06787109375
490.72265625
277.40478515625
68.66455078125
-131.8359375
-249.0234375
-275.57373046875
-261.8408203125
-246.27685546875
-220.64208984375
-205.99365234375
-175.78125
-149.23095703125
-126.3427734375
-93.3837890625
-60.4248046875
-38.4521484375
-17.39501953125
2.74658203125
13.73291015625
23.8037109375
21.97265625
21.05712890625
21.97265625
24.71923828125
24.71923828125
19.22607421875
21.05712890625
24.71923828125
26.55029296875
22.88818359375
23.8037109375
31.1279296875
29.296875
25.634765625
23.8037109375
16.4794921875
23.8037109375
32.04345703125
39.36767578125
41.19873046875
48.52294921875
47.607421875
42.1142578125
40.283203125
41.19873046875
44.86083984375
43.9453125
45.7763671875
44.86083984375
43.02978515625
57.67822265625
64.0869140625
64.0869140625
60.4248046875
63.17138671875
60.4248046875
65.91796875
69.580078125
70.49560546875
69.580078125
79.65087890625
79.65087890625
81.48193359375
79.65087890625
85.14404296875
89.7216796875
92.46826171875
100.7080078125
103.45458984375
101.62353515625
112.60986328125
120.849609375
119.0185546875
111.6943359375
114.44091796875
117.1875
123.59619140625
131.8359375
139.16015625
150.146484375
156.55517578125
159.3017578125
159.3017578125
163.87939453125
171.20361328125
173.03466796875
176.69677734375
185.85205078125
195.00732421875
196.83837890625
203.2470703125
209.65576171875
219.7265625
230.712890625
234.375
234.375
240.78369140625
243.5302734375
253.60107421875
255.43212890625
268.24951171875
276.4892578125
276.4892578125
274.658203125
280.1513671875
284.72900390625
281.06689453125
284.72900390625
284.72900390625
296.630859375
301.20849609375
295.71533203125
293.88427734375
295.71533203125
291.1376953125
290.22216796875
292.05322265625
292.96875
292.96875
294.7998046875
285.64453125
278.3203125
268.24951171875
261.8408203125
251.77001953125
238.037109375
225.2197265625
216.97998046875
202.33154296875
184.9365234375
177.6123046875
163.87939453125
152.89306640625
137.3291015625
126.3427734375
117.1875
107.11669921875
100.7080078125
91.552734375
75.98876953125
67.7490234375
58.59375
45.7763671875
43.9453125
26.55029296875
21.05712890625
18.310546875
14.6484375
10.986328125
10.986328125
4.57763671875
3.662109375
0.91552734375
-9.1552734375
-14.6484375
-20.1416015625
-27.4658203125
-22.88818359375
-18.310546875
-16.4794921875
-15.56396484375
-14.6484375
-14.6484375
-26.55029296875
-29.296875
-29.296875
-29.296875
-35.70556640625
-32.958984375
-26.55029296875
-29.296875
-25.634765625
-21.05712890625
-23.8037109375
-23.8037109375
-28.38134765625
-22.88818359375
-19.22607421875
-28.38134765625
-28.38134765625
-22.88818359375
-21.05712890625
-21.97265625
-24.71923828125
-21.05712890625
-16.4794921875
-15.56396484375
-15.56396484375
-17.39501953125
-12.8173828125
-10.986328125
-9.1552734375
-7.32421875
-9.1552734375
-9.1552734375
-14.6484375
-11.90185546875
-14.6484375
-17.39501953125
-8.23974609375
1.8310546875
-3.662109375
-7.32421875
-4.57763671875
-12.8173828125
-10.07080078125
-3.662109375
-4.57763671875
-2.74658203125
-4.57763671875
1.8310546875
4.57763671875
-4.57763671875
-3.662109375
-3.662109375
-3.662109375
-4.57763671875
1.8310546875
4.57763671875
3.662109375
4.57763671875
0
-0.91552734375
-3.662109375
-3.662109375
-4.57763671875
-9.1552734375
-11.90185546875
-2.74658203125
-10.07080078125
-7.32421875
-4.57763671875
-8.23974609375
-6.40869140625
-7.32421875
-12.8173828125
-15.56396484375
-14.6484375
-14.6484375
-10.07080078125
-11.90185546875
-19.22607421875
-18.310546875
-16.4794921875
-18.310546875
-14.6484375
-23.8037109375
-21.97265625
-24.71923828125
-20.1416015625
-22.88818359375
-21.05712890625
-17.39501953125
-21.05712890625
-23.8037109375
-23.8037109375
-29.296875
-30.21240234375
-26.55029296875
-27.4658203125
-28.38134765625
-25.634765625
-25.634765625
-29.296875
-30.21240234375
-23.8037109375
-27.4658203125
-32.04345703125
-34.7900390625
-28.38134765625
-27.4658203125
-27.4658203125
-25.634765625
-24.71923828125
-33.87451171875
-40.283203125
-38.4521484375
-39.36767578125
-39.36767578125
-30.21240234375
-32.958984375
-39.36767578125
-30.21240234375
-37.53662109375
-50.35400390625
-43.9453125
-34.7900390625
-39.36767578125
-40.283203125
-34.7900390625
-35.70556640625
-40.283203125
-41.19873046875
-39.36767578125
-43.9453125
-42.1142578125
-43.9453125
-35.70556640625
-39.36767578125
-35.70556640625
-39.36767578125
-36.62109375
-41.19873046875
-34.7900390625
-36.62109375
-44.86083984375
-50.35400390625
-38.4521484375
-26.55029296875
-19.22607421875
-15.56396484375
-2.74658203125
15.56396484375
28.38134765625
31.1279296875
28.38134765625
28.38134765625
28.38134765625
22.88818359375
24.71923828125
20.1416015625
16.4794921875
0
13.73291015625
29.296875
28.38134765625
30.21240234375
27.4658203125
26.55029296875
19.22607421875
12.8173828125
19.22607421875
16.4794921875
5.4931640625
-1.8310546875
-8.23974609375
-18.310546875
-37.53662109375
-34.7900390625
-23.8037109375
-32.958984375
-39.36767578125
-38.4521484375
-31.1279296875
-30.21240234375
-33.87451171875
-34.7900390625
-34.7900390625
-42.1142578125
-48.52294921875
-63.17138671875
-66.83349609375
-65.00244140625
-73.2421875
-68.66455078125
-70.49560546875
-67.7490234375
-65.91796875
-61.34033203125
-58.59375
-60.4248046875
-57.67822265625
-66.83349609375
-66.83349609375
-69.580078125
-65.91796875
-67.7490234375
-65.91796875
-63.17138671875
-57.67822265625
-62.255859375
-61.34033203125
-60.4248046875
-63.17138671875
-65.00244140625
-60.4248046875
-60.4248046875
-54.931640625
-54.931640625
-50.35400390625
-55.84716796875
-58.59375
-69.580078125
-75.98876953125
-77.81982421875
-75.98876953125
-75.0732421875
-62.255859375
-36.62109375
-8.23974609375
35.70556640625
108.94775390625
212.40234375
325.01220703125
454.1015625
586.85302734375
690.3076171875
753.47900390625
797.42431640625
787.353515625
722.35107421875
577.69775390625
357.97119140625
149.23095703125
-60.4248046875
-215.14892578125
-288.39111328125
-279.23583984375
-265.5029296875
-245.361328125
-222.47314453125
-194.091796875
-169.37255859375
-147.39990234375
-119.0185546875
-79.65087890625
-50.35400390625
-21.05712890625
-3.662109375
5.4931640625
15.56396484375
15.56396484375
21.05712890625
10.986328125
3.662109375
8.23974609375
15.56396484375
18.310546875
22.88818359375
22.88818359375
22.88818359375
19.22607421875
15.56396484375
24.71923828125
23.8037109375
15.56396484375
14.6484375
17.39501953125
22.88818359375
23.8037109375
36.62109375
36.62109375
34.7900390625
33.87451171875
33.87451171875
31.1279296875
38.4521484375
40.283203125
41.19873046875
41.19873046875
43.02978515625
54.01611328125
59.50927734375
50.35400390625
47.607421875
51.26953125
53.1005859375
55.84716796875
62.255859375
63.17138671875
70.49560546875
68.66455078125
65.00244140625
74.15771484375
84.228515625
82.3974609375
77.81982421875
89.7216796875
93.3837890625
96.13037109375
98.876953125
102.5390625
102.5390625
107.11669921875
108.0322265625
111.6943359375
118.10302734375
121.76513671875
126.3427734375
133.6669921875
143.73779296875
147.39990234375
149.23095703125
152.89306640625
162.04833984375
158.38623046875
164.794921875
176.69677734375
180.35888671875
189.51416015625
197.75390625
202.33154296875
202.33154296875
207.82470703125
213.31787109375
226.13525390625
229.79736328125
230.712890625
236.2060546875
246.27685546875
256.34765625
261.8408203125
260.009765625
266.41845703125
262.75634765625
274.658203125
280.1513671875
276.4892578125
282.89794921875
286.56005859375
291.1376953125
293.88427734375
289.306640625
292.96875
291.1376953125
288.39111328125
296.630859375
297.54638671875
290.22216796875
292.05322265625
292.05322265625
294.7998046875
284.72900390625
268.24951171875
259.09423828125
248.10791015625
243.5302734375
232.5439453125
223.388671875
215.14892578125
206.9091796875
195.00732421875
179.443359375
166.6259765625
149.23095703125
132.75146484375
119.93408203125
110.77880859375
92.46826171875
79.65087890625
73.2421875
72.32666015625
63.17138671875
50.35400390625
39.36767578125
32.04345703125
26.55029296875
19.22607421875
18.310546875
20.1416015625
18.310546875
15.56396484375
12.8173828125
2.74658203125
-2.74658203125
-5.4931640625
-0.91552734375
-6.40869140625
-9.1552734375
-4.57763671875
-4.57763671875
0
-10.986328125
-25.634765625
-31.1279296875
-32.04345703125
-29.296875
-28.38134765625
-27.4658203125
-22.88818359375
-14.6484375
-15.56396484375
-21.97265625
-21.97265625
-26.55029296875
-26.55029296875
-21.97265625
-20.1416015625
-18.310546875
-21.97265625
-23.8037109375
-20.1416015625
-17.39501953125
-17.39501953125
-19.22607421875
-13.73291015625
-12.8173828125
-13.73291015625
-11.90185546875
-7.32421875
-0.91552734375
-6.40869140625
-4.57763671875
-9.1552734375
-14.6484375
-12.8173828125
-6.40869140625
-2.74658203125
-10.07080078125
-8.23974609375
-4.57763671875
2.74658203125
2.74658203125
0
-7.32421875
-3.662109375
-0.91552734375
-10.07080078125
-10.07080078125
-4.57763671875
0.91552734375
4.57763671875
-1.8310546875
2.74658203125
1.8310546875
0
5.4931640625
6.40869140625
-0.91552734375
3.662109375
3.662109375
0
-4.57763671875
-4.57763671875
-2.74658203125
-5.4931640625
-6.40869140625
-7.32421875
-10.07080078125
-8.23974609375
-7.32421875
-0.91552734375
3.662109375
-7.32421875
-18.310546875
-16.4794921875
-10.07080078125
-16.4794921875
-10.986328125
-8.23974609375
-12.8173828125
-10.986328125
-13.73291015625
-14.6484375
-18.310546875
-16.4794921875
-16.4794921875
-23.8037109375
-16.4794921875
-14.6484375
-14.6484375
-20.1416015625
-20.1416015625
-17.39501953125
-25.634765625
-31.1279296875
-31.1279296875
-28.38134765625
-24.71923828125
-27.4658203125
-27.4658203125
-21.05712890625
-18.310546875
-15.56396484375
-21.05712890625
-28.38134765625
-37.53662109375
-32.04345703125
-29.296875
-24.71923828125
-25.634765625
-25.634765625
-30.21240234375
-27.4658203125
-28.38134765625
-27.4658203125
-26.55029296875
-25.634765625
-21.05712890625
-34.7900390625
-34.7900390625
-28.38134765625
-28.38134765625
-17.39501953125
-25.634765625
-30.21240234375
-28.38134765625
-21.97265625
-22.88818359375
-23.8037109375
-32.958984375
-30.21240234375
-29.296875
-25.634765625
-34.7900390625
-40.283203125
-37.53662109375
-32.04345703125
-31.1279296875
-27.4658203125
-30.21240234375
-31.1279296875
-38.4521484375
-40.283203125
-42.1142578125
-39.36767578125
-38.4521484375
-27.4658203125
-24.71923828125
-10.986328125
0
16.4794921875
28.38134765625
35.70556640625
33.87451171875
36.62109375
28.38134765625
21.97265625
20.1416015625
22.88818359375
19.22607421875
10.07080078125
19.22607421875
31.1279296875
26.55029296875
28.38134765625
34.7900390625
32.04345703125
27.4658203125
24.71923828125
24.71923828125
19.22607421875
10.986328125
-1.8310546875
-8.23974609375
-17.39501953125
-19.22607421875
-26.55029296875
-24.71923828125
-21.05712890625
-23.8037109375
-25.634765625
-28.38134765625
-29.296875
-16.4794921875
-24.71923828125
-26.55029296875
-37.53662109375
-42.1142578125
-50.35400390625
-57.67822265625
-61.34033203125
-56.7626953125
-63.17138671875
-75.98876953125
-73.2421875
-64.0869140625
-58.59375
-64.0869140625
-68.66455078125
-64.0869140625
-53.1005859375
-54.01611328125
-63.17138671875
-55.84716796875
-54.931640625
-56.7626953125
-59.50927734375
-56.7626953125
-54.01611328125
-51.26953125
-52.18505859375
-59.50927734375
-58.59375
-55.84716796875
-59.50927734375
-64.0869140625
-56.7626953125
-49.4384765625
-50.35400390625
-56.7626953125
-62.255859375
-67.7490234375
-67.7490234375
-63.17138671875
-57.67822265625
-45.7763671875
-28.38134765625
-0.91552734375
34.7900390625
97.0458984375
186.767578125
282.89794921875
394.59228515625
516.357421875
616.14990234375
674.74365234375
708.6181640625
722.35107421875
673.828125
549.31640625
325.01220703125
130.0048828125
-45.7763671875
-179.443359375
-270.99609375
-267.333984375
-255.43212890625
-244.44580078125
-215.14892578125
-191.34521484375
-180.35888671875
-166.6259765625
-142.822265625
-110.77880859375
-97.0458984375
-60.4248046875
-33.87451171875
-18.310546875
-3.662109375
8.23974609375
11.90185546875
11.90185546875
10.07080078125
10.986328125
8.23974609375
15.56396484375
18.310546875
16.4794921875
17.39501953125
20.1416015625
22.88818359375
19.22607421875
20.1416015625
21.97265625
24.71923828125
32.958984375
37.53662109375
37.53662109375
32.04345703125
36.62109375
37.53662109375
31.1279296875
32.04345703125
35.70556640625
36.62109375
36.62109375
39.36767578125
39.36767578125
43.9453125
53.1005859375
47.607421875
49.4384765625
49.4384765625
45.7763671875
43.9453125
49.4384765625
46.69189453125
57.67822265625
61.34033203125
64.0869140625
61.34033203125
65.91796875
66.83349609375
69.580078125
72.32666015625
79.65087890625
87.890625
86.0595703125
94.29931640625
98.876953125
98.876953125
100.7080078125
104.3701171875
108.94775390625
110.77880859375
112.60986328125
121.76513671875
125.42724609375
130.0048828125
139.16015625
142.822265625
137.3291015625
147.39990234375
149.23095703125
150.146484375
161.1328125
172.119140625
171.20361328125
175.78125
178.52783203125
185.85205078125
191.34521484375
196.83837890625
201.416015625
212.40234375
215.14892578125
218.81103515625
226.13525390625
232.5439453125
235.29052734375
235.29052734375
240.78369140625
240.78369140625
246.27685546875
253.60107421875
254.5166015625
249.93896484375
257.26318359375
262.75634765625
262.75634765625
268.24951171875
264.58740234375
264.58740234375
265.5029296875
266.41845703125
270.08056640625
267.333984375
270.08056640625
260.009765625
246.27685546875
247.1923828125
239.8681640625
236.2060546875
222.47314453125
218.81103515625
206.9091796875
193.17626953125
190.4296875
182.18994140625
168.45703125
160.21728515625
144.6533203125
130.0048828125
113.525390625
101.62353515625
99.79248046875
85.14404296875
75.0732421875
65.91796875
62.255859375
58.59375
45.7763671875
32.04345703125
19.22607421875
13.73291015625
10.986328125
8.23974609375
6.40869140625
-5.4931640625
-11.90185546875
-16.4794921875
-14.6484375
-19.22607421875
-28.38134765625
-24.71923828125
-27.4658203125
-28.38134765625
-29.296875
-32.04345703125
-32.04345703125
-33.87451171875
-40.283203125
-43.02978515625
-50.35400390625
-46.69189453125
-41.19873046875
-43.9453125
-34.7900390625
-34.7900390625
-35.70556640625
-37.53662109375
-33.87451171875
-36.62109375
-40.283203125
-42.1142578125
-45.7763671875
-41.19873046875
-44.86083984375
-41.19873046875
-41.19873046875
-35.70556640625
-37.53662109375
-32.04345703125
-35.70556640625
-36.62109375
-33.87451171875
-36.62109375
-34.7900390625
-25.634765625
-19.22607421875
-18.310546875
-24.71923828125
-32.04345703125
-32.958984375
-26.55029296875
-18.310546875
-21.97265625
-21.05712890625
-16.4794921875
-16.4794921875
-21.05712890625
-22.88818359375
-20.1416015625
-22.88818359375
-24.71923828125
-25.634765625
-25.634765625
-24.71923828125
-18.310546875
-13.73291015625
-11.90185546875
-16.4794921875
-19.22607421875
-21.97265625
-18.310546875
-25.634765625
-27.4658203125
-21.97265625
-22.88818359375
-15.56396484375
-20.1416015625
-18.310546875
-22.88818359375
-29.296875
-26.55029296875
-32.958984375
-30.21240234375
-22.88818359375
-24.71923828125
-30.21240234375
-28.38134765625
-24.71923828125
-31.1279296875
-33.87451171875
-31.1279296875
-36.62109375
-32.04345703125
-35.70556640625
-32.04345703125
-29.296875
-34.7900390625
-33.87451171875
-33.87451171875
-36.62109375
-38.4521484375
-34.7900390625
-29.296875
-33.87451171875
-30.21240234375
-31.1279296875
-33.87451171875
-42.1142578125
-49.4384765625
-44.86083984375
-44.86083984375
-39.36767578125
-41.19873046875
-35.70556640625
-36.62109375
-41.19873046875
-45.7763671875
-46.69189453125
-42.1142578125
-43.9453125
-46.69189453125
-47.607421875
-41.19873046875
-43.02978515625
-48.52294921875
-44.86083984375
-42.1142578125
-41.19873046875
-49.4384765625
-47.607421875
-51.26953125
-53.1005859375
-49.4384765625
-50.35400390625
-43.9453125
-44.86083984375
-37.53662109375
-44.86083984375
-57.67822265625
-58.59375
-54.931640625
-47.607421875
-50.35400390625
-53.1005859375
-50.35400390625
-44.86083984375
-48.52294921875
-45.7763671875
-43.02978515625
-33.87451171875
-24.71923828125
-7.32421875
6.40869140625
14.6484375
16.4794921875
14.6484375
14.6484375
13.73291015625
10.07080078125
3.662109375
1.8310546875
-0.91552734375
6.40869140625
15.56396484375
24.71923828125
23.8037109375
17.39501953125
14.6484375
13.73291015625
3.662109375
-3.662109375
-2.74658203125
-3.662109375
-3.662109375
-10.986328125
-32.04345703125
-39.36767578125
-38.4521484375
-40.283203125
-43.02978515625
-47.607421875
-53.1005859375
-45.7763671875
-41.19873046875
-33.87451171875
-32.04345703125
-34.7900390625
-43.02978515625
-51.26953125
-64.0869140625
-70.49560546875
-75.0732421875
-72.32666015625
-74.15771484375
-77.81982421875
-73.2421875
-72.32666015625
-73.2421875
-75.0732421875
-72.32666015625
-72.32666015625
-75.0732421875
-70.49560546875
-67.7490234375
-66.83349609375
-62.255859375
-66.83349609375
-64.0869140625
-63.17138671875
-79.65087890625
-81.48193359375
-69.580078125
-67.7490234375
-68.66455078125
-61.34033203125
-56.7626953125
-54.931640625
-57.67822265625
-65.91796875
-71.4111328125
-71.4111328125
-75.98876953125
-79.65087890625
-88.80615234375
-77.81982421875
-75.0732421875
-65.91796875
-54.931640625
-31.1279296875
-2.74658203125
55.84716796875
140.9912109375
231.62841796875
342.4072265625
463.2568359375
574.951171875
639.95361328125
684.814453125
692.138671875
661.0107421875
555.72509765625
369.873046875
169.37255859375
0
-144.6533203125
-244.44580078125
-264.58740234375
-260.92529296875
-256.34765625
-222.47314453125
-198.66943359375
-187.68310546875
-176.69677734375
-159.3017578125
-128.173828125
-97.96142578125
-71.4111328125
-54.931640625
-39.36767578125
-18.310546875
-9.1552734375
-5.4931640625
-2.74658203125
1.8310546875
2.74658203125
3.662109375
4.57763671875
0
-2.74658203125
0
-4.57763671875
-4.57763671875
3.662109375
0.91552734375
10.07080078125
10.986328125
8.23974609375
5.4931640625
0.91552734375
7.32421875
11.90185546875
11.90185546875
11.90185546875
20.1416015625
21.97265625
25.634765625
23.8037109375
27.4658203125
30.21240234375
25.634765625
24.71923828125
27.4658203125
32.04345703125
34.7900390625
42.1142578125
41.19873046875
43.02978515625
46.69189453125
54.01611328125
56.7626953125
50.35400390625
54.01611328125
60.4248046875
60.4248046875
63.17138671875
66.83349609375
69.580078125
73.2421875
69.580078125
76.904296875
81.48193359375
83.31298828125
84.228515625
83.31298828125
92.46826171875
97.96142578125
97.0458984375
104.3701171875
104.3701171875
107.11669921875
102.5390625
108.94775390625
121.76513671875
125.42724609375
129.08935546875
142.822265625
151.9775390625
155.6396484375
157.470703125
162.9638671875
169.37255859375
178.52783203125
184.9365234375
182.18994140625
191.34521484375
195.00732421875
202.33154296875
214.2333984375
216.064453125
216.97998046875
223.388671875
231.62841796875
241.69921875
247.1923828125
253.60107421875
250.8544921875
247.1923828125
244.44580078125
251.77001953125
249.0234375
248.10791015625
249.93896484375
251.77001953125
253.60107421875
258.1787109375
260.009765625
262.75634765625
263.671875
249.0234375
249.0234375
250.8544921875
246.27685546875
240.78369140625
232.5439453125
215.14892578125
207.82470703125
200.50048828125
191.34521484375
180.35888671875
165.71044921875
150.146484375
137.3291015625
130.92041015625
121.76513671875
109.86328125
96.13037109375
85.14404296875
76.904296875
66.83349609375
57.67822265625
45.7763671875
33.87451171875
30.21240234375
26.55029296875
18.310546875
10.986328125
3.662109375
-5.4931640625
-4.57763671875
-4.57763671875
-17.39501953125
-25.634765625
-27.4658203125
-24.71923828125
-31.1279296875
-28.38134765625
-29.296875
-39.36767578125
-32.04345703125
-41.19873046875
-47.607421875
-44.86083984375
-46.69189453125
-49.4384765625
-37.53662109375
-36.62109375
-35.70556640625
-37.53662109375
-43.02978515625
-54.01611328125
-48.52294921875
-50.35400390625
-49.4384765625
-43.9453125
-45.7763671875
-38.4521484375
-37.53662109375
-43.9453125
-43.02978515625
-42.1142578125
-42.1142578125
-39.36767578125
-42.1142578125
-45.7763671875
-41.19873046875
-34.7900390625
-27.4658203125
-31.1279296875
-37.53662109375
-42.1142578125
-39.36767578125
-32.958984375
-35.70556640625
-30.21240234375
-28.38134765625
-24.71923828125
-23.8037109375
-25.634765625
-25.634765625
-25.634765625
-28.38134765625
-25.634765625
-21.05712890625
-25.634765625
-18.310546875
-15.56396484375
-21.05712890625
-29.296875
-23.8037109375
-25.634765625
-29.296875
-31.1279296875
-18.310546875
-20.1416015625
-14.6484375
-14.6484375
-16.4794921875
-21.97265625
-29.296875
-25.634765625
-22.88818359375
-17.39501953125
-21.05712890625
-19.22607421875
-13.73291015625
-11.90185546875
-17.39501953125
-24.71923828125
-19.22607421875
-25.634765625
-27.4658203125
-25.634765625
-26.55029296875
-25.634765625
-21.97265625
-17.39501953125
-21.97265625
-25.634765625
-29.296875
-31.1279296875
-29.296875
-35.70556640625
-36.62109375
-26.55029296875
-27.4658203125
-32.04345703125
-30.21240234375
-35.70556640625
-38.4521484375
-39.36767578125
-35.70556640625
-41.19873046875
-43.9453125
-43.02978515625
-34.7900390625
-36.62109375
-43.02978515625
-48.52294921875
-44.86083984375
-42.1142578125
-44.86083984375
-40.283203125
-41.19873046875
-40.283203125
-46.69189453125
-40.283203125
-36.62109375
-38.4521484375
-48.52294921875
-45.7763671875
-46.69189453125
-43.9453125
-47.607421875
-43.9453125
-39.36767578125
-41.19873046875
-40.283203125
-43.02978515625
-49.4384765625
-50.35400390625
-52.18505859375
-45.7763671875
-48.52294921875
-50.35400390625
-52.18505859375
-53.1005859375
-54.01611328125
-53.1005859375
-43.02978515625
-52.18505859375
-57.67822265625
-54.01611328125
-50.35400390625
-47.607421875
-57.67822265625
-61.34033203125
-54.931640625
-38.4521484375
-32.958984375
-29.296875
-21.97265625
4.57763671875
18.310546875
27.4658203125
21.97265625
14.6484375
17.39501953125
16.4794921875
15.56396484375
7.32421875
0
-1.8310546875
3.662109375
20.1416015625
23.8037109375
23.8037109375
21.05712890625
11.90185546875
3.662109375
-3.662109375
-7.32421875
-4.57763671875
-7.32421875
-7.32421875
-13.73291015625
-28.38134765625
-37.53662109375
-38.4521484375
-32.958984375
-35.70556640625
-49.4384765625
-52.18505859375
-43.02978515625
-36.62109375
-40.283203125
-39.36767578125
-44.86083984375
-59.50927734375
-63.17138671875
-73.2421875
-81.48193359375
-91.552734375
-94.29931640625
-87.890625
-83.31298828125
-82.3974609375
-75.98876953125
-73.2421875
-76.904296875
-78.7353515625
-76.904296875
-75.0732421875
-81.48193359375
-78.7353515625
-72.32666015625
-72.32666015625
-72.32666015625
-70.49560546875
-75.0732421875
-75.0732421875
-70.49560546875
-74.15771484375
-73.2421875
-73.2421875
-74.15771484375
-73.2421875
-71.4111328125
-67.7490234375
-68.66455078125
-75.0732421875
-80.56640625
-77.81982421875
-82.3974609375
-87.890625
-78.7353515625
-76.904296875
-62.255859375
-37.53662109375
-11.90185546875
31.1279296875
111.6943359375
214.2333984375
328.67431640625
456.84814453125
585.9375
679.3212890625
738.83056640625
773.62060546875
763.5498046875
685.72998046875
516.357421875
289.306640625
80.56640625
-105.28564453125
-238.95263671875
-295.71533203125
-289.306640625
-282.89794921875
-262.75634765625
-240.78369140625
-209.65576171875
-183.10546875
-152.89306640625
-123.59619140625
-90.63720703125
-57.67822265625
-36.62109375
-7.32421875
-11.90185546875
-10.07080078125
0.91552734375
-7.32421875
-8.23974609375
-10.07080078125
-0.91552734375
8.23974609375
10.07080078125
5.4931640625
0.91552734375
-6.40869140625
0
0
0.91552734375
-1.8310546875
4.57763671875
5.4931640625
5.4931640625
9.1552734375
7.32421875
10.986328125
15.56396484375
15.56396484375
20.1416015625
21.97265625
21.97265625
23.8037109375
32.958984375
30.21240234375
30.21240234375
31.1279296875
26.55029296875
31.1279296875
35.70556640625
41.19873046875
41.19873046875
41.19873046875
47.607421875
51.26953125
50.35400390625
43.02978515625
46.69189453125
55.84716796875
60.4248046875
65.91796875
69.580078125
65.00244140625
74.15771484375
75.0732421875
80.56640625
76.904296875
78.7353515625
86.97509765625
93.3837890625
97.96142578125
100.7080078125
103.45458984375
119.93408203125
118.10302734375
115.3564453125
121.76513671875
124.51171875
130.0048828125
137.3291015625
145.56884765625
145.56884765625
153.80859375
158.38623046875
152.89306640625
162.04833984375
166.6259765625
175.78125
189.51416015625
199.5849609375
207.82470703125
214.2333984375
218.81103515625
228.8818359375
233.45947265625
237.12158203125
240.78369140625
244.44580078125
242.61474609375
249.93896484375
261.8408203125
265.5029296875
267.333984375
267.333984375
264.58740234375
262.75634765625
267.333984375
269.1650390625
276.4892578125
277.40478515625
276.4892578125
278.3203125
276.4892578125
271.91162109375
270.99609375
270.08056640625
260.009765625
260.92529296875
260.92529296875
253.60107421875
245.361328125
231.62841796875
227.05078125
217.8955078125
203.2470703125
186.767578125
173.03466796875
162.9638671875
149.23095703125
130.92041015625
123.59619140625
118.10302734375
105.28564453125
96.13037109375
91.552734375
77.81982421875
65.91796875
55.84716796875
38.4521484375
28.38134765625
30.21240234375
28.38134765625
17.39501953125
12.8173828125
3.662109375
-4.57763671875
-10.07080078125
-8.23974609375
-13.73291015625
-22.88818359375
-15.56396484375
-16.4794921875
-26.55029296875
-27.4658203125
-23.8037109375
-30.21240234375
-34.7900390625
-37.53662109375
-39.36767578125
-39.36767578125
-28.38134765625
-21.97265625
-33.87451171875
-35.70556640625
-40.283203125
-40.283203125
-41.19873046875
-46.69189453125
-42.1142578125
-34.7900390625
-36.62109375
-36.62109375
-29.296875
-28.38134765625
-29.296875
-30.21240234375
-29.296875
-34.7900390625
-32.958984375
-28.38134765625
-27.4658203125
-22.88818359375
-16.4794921875
-25.634765625
-28.38134765625
-21.05712890625
-20.1416015625
-20.1416015625
-21.05712890625
-13.73291015625
-16.4794921875
-15.56396484375
-13.73291015625
-3.662109375
-8.23974609375
-11.90185546875
-17.39501953125
-17.39501953125
-6.40869140625
-14.6484375
-19.22607421875
-12.8173828125
-7.32421875
-7.32421875
-14.6484375
-14.6484375
-16.4794921875
-9.1552734375
-7.32421875
-0.91552734375
0.91552734375
-3.662109375
-0.91552734375
-2.74658203125
-10.986328125
-11.90185546875
-13.73291015625
-17.39501953125
-10.986328125
-6.40869140625
-6.40869140625
-6.40869140625
-7.32421875
-11.90185546875
-10.986328125
-8.23974609375
-10.986328125
-14.6484375
-12.8173828125
-14.6484375
-13.73291015625
-7.32421875
-11.90185546875
-15.56396484375
-17.39501953125
-20.1416015625
-22.88818359375
-24.71923828125
-26.55029296875
-22.88818359375
-22.88818359375
-21.05712890625
-22.88818359375
-24.71923828125
-23.8037109375
-23.8037109375
-25.634765625
-32.958984375
-35.70556640625
-29.296875
-23.8037109375
-32.04345703125
-24.71923828125
-26.55029296875
-29.296875
-32.04345703125
-32.958984375
-37.53662109375
-37.53662109375
-30.21240234375
-29.296875
-30.21240234375
-27.4658203125
-32.958984375
-42.1142578125
-38.4521484375
-37.53662109375
-34.7900390625
-37.53662109375
-34.7900390625
-35.70556640625
-28.38134765625
-28.38134765625
-22.88818359375
-29.296875
-42.1142578125
-39.36767578125
-38.4521484375
-42.1142578125
-42.1142578125
-40.283203125
-31.1279296875
-28.38134765625
-32.958984375
-34.7900390625
-33.87451171875
-37.53662109375
-42.1142578125
-32.04345703125
-25.634765625
-25.634765625
-26.55029296875
-30.21240234375
-31.1279296875
-25.634765625
-22.88818359375
-15.56396484375
-7.32421875
3.662109375
21.97265625
32.958984375
44.86083984375
47.607421875
37.53662109375
30.21240234375
35.70556640625
27.4658203125
13.73291015625
10.07080078125
11.90185546875
28.38134765625
38.4521484375
36.62109375
37.53662109375
26.55029296875
27.4658203125
27.4658203125
15.56396484375
12.8173828125
10.986328125
13.73291015625
13.73291015625
-2.74658203125
-21.97265625
-25.634765625
-24.71923828125
-34.7900390625
-39.36767578125
-43.9453125
-33.87451171875
-25.634765625
-16.4794921875
-20.1416015625
-24.71923828125
-33.87451171875
-45.7763671875
-54.01611328125
-65.91796875
-65.00244140625
-60.4248046875
-60.4248046875
-61.34033203125
-61.34033203125
-58.59375
-58.59375
-56.7626953125
-56.7626953125
-56.7626953125
-59.50927734375
-56.7626953125
-56.7626953125
-65.91796875
-60.4248046875
-59.50927734375
-63.17138671875
-67.7490234375
-65.00244140625
-63.17138671875
-61.34033203125
-58.59375
-54.931640625
-48.52294921875
-45.7763671875
-43.9453125
-41.19873046875
-42.1142578125
-51.26953125
-57.67822265625
-59.50927734375
-60.4248046875
-62.255859375
-56.7626953125
-48.52294921875
-46.69189453125
-35.70556640625
-10.986328125
29.296875
95.21484375
193.17626953125
306.70166015625
431.21337890625
566.71142578125
686.6455078125
763.5498046875
810.24169921875
821.22802734375
775.45166015625
661.0107421875
455.9326171875
241.69921875
37.53662109375
-148.3154296875
-249.93896484375
-268.24951171875
-260.009765625
-247.1923828125
-221.5576171875
-202.33154296875
-161.1328125
-131.8359375
-103.45458984375
-66.83349609375
-36.62109375
-11.90185546875
8.23974609375
17.39501953125
21.97265625
32.04345703125
37.53662109375
33.87451171875
29.296875
37.53662109375
39.36767578125
35.70556640625
40.283203125
27.4658203125
21.97265625
29.296875
32.958984375
35.70556640625
42.1142578125
43.02978515625
43.02978515625
44.86083984375
32.958984375
37.53662109375
43.9453125
50.35400390625
50.35400390625
47.607421875
51.26953125
54.01611328125
55.84716796875
52.18505859375
51.26953125
58.59375
59.50927734375
57.67822265625
60.4248046875
70.49560546875
72.32666015625
77.81982421875
82.3974609375
80.56640625
78.7353515625
78.7353515625
84.228515625
90.63720703125
96.13037109375
94.29931640625
93.3837890625
97.96142578125
105.28564453125
107.11669921875
112.60986328125
111.6943359375
117.1875
122.6806640625
124.51171875
126.3427734375
127.25830078125
136.41357421875
138.24462890625
147.39990234375
149.23095703125
153.80859375
156.55517578125
162.04833984375
162.9638671875
171.20361328125
176.69677734375
187.68310546875
186.767578125
195.00732421875
205.99365234375
206.9091796875
211.48681640625
216.064453125
223.388671875
230.712890625
238.037109375
251.77001953125
258.1787109375
257.26318359375
255.43212890625
261.8408203125
273.74267578125
274.658203125
283.8134765625
283.8134765625
293.88427734375
303.03955078125
305.7861328125
307.6171875
307.6171875
310.36376953125
312.19482421875
311.279296875
310.36376953125
314.02587890625
315.85693359375
315.85693359375
313.1103515625
314.94140625
312.19482421875
314.02587890625
303.03955078125
299.37744140625
295.71533203125
288.39111328125
279.23583984375
277.40478515625
270.08056640625
250.8544921875
232.5439453125
220.64208984375
211.48681640625
204.16259765625
197.75390625
182.18994140625
163.87939453125
160.21728515625
146.484375
135.498046875
122.6806640625
106.201171875
94.29931640625
87.890625
81.48193359375
69.580078125
64.0869140625
59.50927734375
50.35400390625
44.86083984375
32.958984375
24.71923828125
27.4658203125
23.8037109375
19.22607421875
24.71923828125
16.4794921875
15.56396484375
15.56396484375
10.986328125
9.1552734375
10.07080078125
3.662109375
-3.662109375
-5.4931640625
-1.8310546875
1.8310546875
-7.32421875
-7.32421875
-4.57763671875
-3.662109375
-6.40869140625
-9.1552734375
-9.1552734375
-5.4931640625
-1.8310546875
7.32421875
-3.662109375
-10.07080078125
-8.23974609375
-12.8173828125
-14.6484375
-3.662109375
-4.57763671875
-13.73291015625
-7.32421875
-2.74658203125
-4.57763671875
1.8310546875
-0.91552734375
-1.8310546875
-4.57763671875
-6.40869140625
-7.32421875
-7.32421875
-4.57763671875
3.662109375
6.40869140625
10.07080078125
5.4931640625
1.8310546875
0
0.91552734375
0.91552734375
5.4931640625
9.1552734375
15.56396484375
14.6484375
14.6484375
13.73291015625
11.90185546875
11.90185546875
3.662109375
5.4931640625
9.1552734375
12.8173828125
16.4794921875
10.986328125
13.73291015625
13.73291015625
10.07080078125
0.91552734375
0
3.662109375
4.57763671875
9.1552734375
8.23974609375
3.662109375
6.40869140625
7.32421875
6.40869140625
6.40869140625
7.32421875
2.74658203125
6.40869140625
3.662109375
7.32421875
3.662109375
2.74658203125
-0.91552734375
-4.57763671875
-4.57763671875
-4.57763671875
-3.662109375
-2.74658203125
-0.91552734375
1.8310546875
1.8310546875
-3.662109375
-8.23974609375
-10.07080078125
-15.56396484375
-14.6484375
-7.32421875
-6.40869140625
-5.4931640625
-10.986328125
-17.39501953125
-12.8173828125
-11.90185546875
-13.73291015625
-13.73291015625
-16.4794921875
-17.39501953125
-16.4794921875
-12.8173828125
-11.90185546875
-10.07080078125
-10.07080078125
-8.23974609375
-9.1552734375
-15.56396484375
-21.05712890625
-15.56396484375
-21.05712890625
-22.88818359375
-17.39501953125
-19.22607421875
-22.88818359375
-26.55029296875
-25.634765625
-21.05712890625
-12.8173828125
-20.1416015625
-18.310546875
-14.6484375
-10.07080078125
-8.23974609375
-14.6484375
-19.22607421875
-18.310546875
-20.1416015625
-18.310546875
-19.22607421875
-16.4794921875
-14.6484375
-16.4794921875
-13.73291015625
-13.73291015625
-14.6484375
-26.55029296875
-23.8037109375
-25.634765625
-23.8037109375
-12.8173828125
-8.23974609375
0
1.8310546875
18.310546875
36.62109375
46.69189453125
47.607421875
50.35400390625
50.35400390625
43.02978515625
34.7900390625
45.7763671875
42.1142578125
32.958984375
36.62109375
47.607421875
45.7763671875
40.283203125
46.69189453125
53.1005859375
45.7763671875
43.02978515625
36.62109375
35.70556640625
32.04345703125
26.55029296875
21.05712890625
-2.74658203125
-11.90185546875
-4.57763671875
-6.40869140625
-15.56396484375
-23.8037109375
-23.8037109375
-18.310546875
-14.6484375
-8.23974609375
-13.73291015625
-13.73291015625
-20.1416015625
-27.4658203125
-33.87451171875
-43.02978515625
-46.69189453125
-54.01611328125
-52.18505859375
-53.1005859375
-52.18505859375
-47.607421875
-43.9453125
-37.53662109375
-37.53662109375
-42.1142578125
-39.36767578125
-43.9453125
-46.69189453125
-44.86083984375
-41.19873046875
-37.53662109375
-41.19873046875
-37.53662109375
-42.1142578125
-41.19873046875
-35.70556640625
-36.62109375
-33.87451171875
-33.87451171875
-40.283203125
-43.02978515625
-39.36767578125
-39.36767578125
-38.4521484375
-38.4521484375
-32.04345703125
-43.9453125
-55.84716796875
-58.59375
-50.35400390625
-45.7763671875
-33.87451171875
-9.1552734375
22.88818359375
79.65087890625
165.71044921875
273.74267578125
381.77490234375
511.77978515625
650.93994140625
739.74609375
798.33984375
827.63671875
802.91748046875
716.85791015625
542.90771484375
322.265625
120.849609375
-86.97509765625
-221.5576171875
-267.333984375
-251.77001953125
-239.8681640625
-214.2333984375
-201.416015625
-171.20361328125
-150.146484375
-130.92041015625
-96.13037109375
-61.34033203125
-30.21240234375
-3.662109375
18.310546875
32.958984375
35.70556640625
42.1142578125
46.69189453125
37.53662109375
32.04345703125
36.62109375
32.958984375
32.04345703125
35.70556640625
31.1279296875
33.87451171875
38.4521484375
44.86083984375
37.53662109375
41.19873046875
39.36767578125
33.87451171875
43.02978515625
49.4384765625
53.1005859375
52.18505859375
54.01611328125
52.18505859375
57.67822265625
57.67822265625
54.01611328125
56.7626953125
61.34033203125
60.4248046875
62.255859375
62.255859375
66.83349609375
69.580078125
70.49560546875
68.66455078125
73.2421875
74.15771484375
69.580078125
74.15771484375
83.31298828125
86.97509765625
95.21484375
91.552734375
94.29931640625
95.21484375
97.0458984375
97.96142578125
105.28564453125
105.28564453125
109.86328125
123.59619140625
127.25830078125
131.8359375
126.3427734375
125.42724609375
137.3291015625
137.3291015625
147.39990234375
151.06201171875
154.72412109375
163.87939453125
164.794921875
165.71044921875
171.20361328125
176.69677734375
181.2744140625
186.767578125
192.2607421875
201.416015625
210.5712890625
223.388671875
224.30419921875
228.8818359375
234.375
230.712890625
236.2060546875
249.0234375
259.09423828125
268.24951171875
274.658203125
273.74267578125
277.40478515625
286.56005859375
279.23583984375
283.8134765625
290.22216796875
293.88427734375
303.03955078125
305.7861328125
310.36376953125
314.02587890625
308.53271484375
303.955078125
305.7861328125
307.6171875
300.29296875
305.7861328125
313.1103515625
315.85693359375
310.36376953125
301.20849609375
301.20849609375
292.05322265625
285.64453125
277.40478515625
267.333984375
246.27685546875
236.2060546875
228.8818359375
218.81103515625
207.82470703125
200.50048828125
187.68310546875
168.45703125
148.3154296875
136.41357421875
130.92041015625
121.76513671875
112.60986328125
108.0322265625
90.63720703125
82.3974609375
75.98876953125
61.34033203125
41.19873046875
35.70556640625
37.53662109375
31.1279296875
32.04345703125
30.21240234375
22.88818359375
17.39501953125
17.39501953125
13.73291015625
3.662109375
3.662109375
-0.91552734375
-2.74658203125
-1.8310546875
-0.91552734375
-2.74658203125
-2.74658203125
0.91552734375
-1.8310546875
-5.4931640625
-6.40869140625
-8.23974609375
-6.40869140625
-5.4931640625
-6.40869140625
-5.4931640625
-4.57763671875
-11.90185546875
-16.4794921875
-11.90185546875
-8.23974609375
-15.56396484375
-13.73291015625
-5.4931640625
4.57763671875
0
0.91552734375
0
0
1.8310546875
0.91552734375
-5.4931640625
-6.40869140625
1.8310546875
8.23974609375
10.07080078125
9.1552734375
10.07080078125
7.32421875
4.57763671875
1.8310546875
8.23974609375
10.07080078125
8.23974609375
11.90185546875
14.6484375
17.39501953125
13.73291015625
10.07080078125
10.986328125
8.23974609375
17.39501953125
11.90185546875
11.90185546875
17.39501953125
19.22607421875
21.97265625
22.88818359375
21.05712890625
16.4794921875
10.986328125
3.662109375
7.32421875
12.8173828125
17.39501953125
21.05712890625
21.05712890625
21.97265625
18.310546875
19.22607421875
17.39501953125
10.986328125
7.32421875
5.4931640625
9.1552734375
9.1552734375
15.56396484375
18.310546875
19.22607421875
10.07080078125
3.662109375
7.32421875
5.4931640625
-7.32421875
-7.32421875
7.32421875
6.40869140625
1.8310546875
1.8310546875
-3.662109375
-3.662109375
-1.8310546875
-4.57763671875
-10.07080078125
-2.74658203125
-4.57763671875
-3.662109375
0
-4.57763671875
-6.40869140625
-6.40869140625
-3.662109375
0.91552734375
1.8310546875
-3.662109375
-4.57763671875
-5.4931640625
-1.8310546875
-6.40869140625
-6.40869140625
-6.40869140625
-2.74658203125
-0.91552734375
1.8310546875
0
0.91552734375
-2.74658203125
-2.74658203125
-2.74658203125
-5.4931640625
-10.07080078125
-14.6484375
-19.22607421875
-14.6484375
-4.57763671875
-6.40869140625
-8.23974609375
-16.4794921875
-13.73291015625
-10.986328125
-9.1552734375
-16.4794921875
-14.6484375
-1.8310546875
1.8310546875
7.32421875
8.23974609375
-3.662109375
-7.32421875
-6.40869140625
-0.91552734375
-7.32421875
-2.74658203125
-3.662109375
-6.40869140625
0.91552734375
6.40869140625
10.07080078125
14.6484375
23.8037109375
32.04345703125
44.86083984375
54.931640625
67.7490234375
68.66455078125
65.91796875
65.00244140625
55.84716796875
53.1005859375
51.26953125
42.1142578125
43.02978515625
49.4384765625
60.4248046875
64.0869140625
63.17138671875
66.83349609375
62.255859375
55.84716796875
49.4384765625
47.607421875
42.1142578125
39.36767578125
31.1279296875
26.55029296875
19.22607421875
18.310546875
6.40869140625
0.91552734375
0.91552734375
-6.40869140625
-5.4931640625
7.32421875
1.8310546875
-2.74658203125
2.74658203125
5.4931640625
-4.57763671875
-19.22607421875
-29.296875
-37.53662109375
-43.9453125
-37.53662109375
-32.04345703125
-32.958984375
-31.1279296875
-28.38134765625
-25.634765625
-23.8037109375
-33.87451171875
-32.04345703125
-24.71923828125
-34.7900390625
-28.38134765625
-23.8037109375
-20.1416015625
-24.71923828125
-19.22607421875
-26.55029296875
-32.04345703125
-25.634765625
-31.1279296875
-28.38134765625
-30.21240234375
-21.05712890625
-23.8037109375
-21.05712890625
-12.8173828125
-21.97265625
-24.71923828125
-32.04345703125
-41.19873046875
-47.607421875
-42.1142578125
-27.4658203125
-22.88818359375
-13.73291015625
6.40869140625
35.70556640625
75.98876953125
141.90673828125
243.5302734375
355.224609375
482.48291015625
606.0791015625
696.71630859375
750.732421875
780.029296875
764.46533203125
699.462890625
524.59716796875
311.279296875
119.93408203125
-55.84716796875
-178.52783203125
-231.62841796875
-218.81103515625
-213.31787109375
-196.83837890625
-172.119140625
-153.80859375
-137.3291015625
-121.76513671875
-86.97509765625
-57.67822265625
-33.87451171875
-10.07080078125
6.40869140625
25.634765625
35.70556640625
45.7763671875
39.36767578125
37.53662109375
34.7900390625
44.86083984375
43.02978515625
47.607421875
48.52294921875
48.52294921875
47.607421875
43.9453125
45.7763671875
48.52294921875
57.67822265625
56.7626953125
55.84716796875
51.26953125
56.7626953125
50.35400390625
43.9453125
51.26953125
61.34033203125
60.4248046875
60.4248046875
63.17138671875
65.00244140625
65.00244140625
65.00244140625
57.67822265625
62.255859375
71.4111328125
75.0732421875
77.81982421875
79.65087890625
81.48193359375
78.7353515625
81.48193359375
82.3974609375
78.7353515625
77.81982421875
80.56640625
90.63720703125
93.3837890625
90.63720703125
99.79248046875
101.62353515625
106.201171875
108.0322265625
108.94775390625
114.44091796875
122.6806640625
119.93408203125
126.3427734375
128.173828125
140.07568359375
137.3291015625
132.75146484375
144.6533203125
153.80859375
149.23095703125
147.39990234375
154.72412109375
164.794921875
172.119140625
176.69677734375
180.35888671875
186.767578125
195.00732421875
195.9228515625
194.091796875
203.2470703125
209.65576171875
213.31787109375
222.47314453125
234.375
243.5302734375
247.1923828125
248.10791015625
244.44580078125
254.5166015625
264.58740234375
275.57373046875
277.40478515625
277.40478515625
281.06689453125
287.4755859375
289.306640625
289.306640625
286.56005859375
285.64453125
278.3203125
286.56005859375
282.89794921875
289.306640625
290.22216796875
295.71533203125
294.7998046875
284.72900390625
281.982421875
275.57373046875
262.75634765625
258.1787109375
260.009765625
246.27685546875
236.2060546875
231.62841796875
224.30419921875
211.48681640625
193.17626953125
181.2744140625
162.9638671875
147.39990234375
140.07568359375
128.173828125
119.0185546875
107.11669921875
97.0458984375
91.552734375
79.65087890625
53.1005859375
47.607421875
44.86083984375
37.53662109375
28.38134765625
17.39501953125
12.8173828125
10.07080078125
4.57763671875
-1.8310546875
-10.986328125
-20.1416015625
-24.71923828125
-20.1416015625
-20.1416015625
-19.22607421875
-17.39501953125
-27.4658203125
-23.8037109375
-32.958984375
-42.1142578125
-44.86083984375
-43.9453125
-42.1142578125
-34.7900390625
-42.1142578125
-41.19873046875
-46.69189453125
-52.18505859375
-49.4384765625
-51.26953125
-54.931640625
-47.607421875
-49.4384765625
-46.69189453125
-46.69189453125
-47.607421875
-42.1142578125
-40.283203125
-44.86083984375
-46.69189453125
-44.86083984375
-43.02978515625
-50.35400390625
-44.86083984375
-38.4521484375
-39.36767578125
-37.53662109375
-39.36767578125
-45.7763671875
-43.9453125
-36.62109375
-38.4521484375
-33.87451171875
-31.1279296875
-33.87451171875
-38.4521484375
-40.283203125
-38.4521484375
-36.62109375
-34.7900390625
-29.296875
-26.55029296875
-37.53662109375
-35.70556640625
-32.04345703125
-30.21240234375
-26.55029296875
-24.71923828125
-21.05712890625
-24.71923828125
-32.958984375
-32.958984375
-35.70556640625
-32.958984375
-32.958984375
-34.7900390625
-26.55029296875
-26.55029296875
-34.7900390625
-39.36767578125
-35.70556640625
-31.1279296875
-32.958984375
-33.87451171875
-34.7900390625
-33.87451171875
-38.4521484375
-46.69189453125
-45.7763671875
-48.52294921875
-43.02978515625
-43.9453125
-46.69189453125
-47.607421875
-50.35400390625
-49.4384765625
-44.86083984375
-47.607421875
-52.18505859375
-54.01611328125
-49.4384765625
-54.931640625
-62.255859375
-61.34033203125
-58.59375
-56.7626953125
-54.931640625
-51.26953125
-58.59375
-62.255859375
-65.00244140625
-67.7490234375
-65.00244140625
-67.7490234375
-62.255859375
-63.17138671875
-65.00244140625
-71.4111328125
-76.904296875
-79.65087890625
-77.81982421875
-75.0732421875
-72.32666015625
-65.91796875
-66.83349609375
-66.83349609375
-67.7490234375
-70.49560546875
-73.2421875
-77.81982421875
-78.7353515625
-81.48193359375
-77.81982421875
-82.3974609375
-83.31298828125
-85.14404296875
-85.14404296875
-76.904296875
-78.7353515625
-84.228515625
-92.46826171875
-86.0595703125
-85.14404296875
-89.7216796875
-84.228515625
-89.7216796875
-86.0595703125
-84.228515625
-89.7216796875
-92.46826171875
-96.13037109375
-92.46826171875
-96.13037109375
-90.63720703125
-87.890625
-91.552734375
-84.228515625
-68.66455078125
-61.34033203125
-54.01611328125
-50.35400390625
-35.70556640625
-23.8037109375
-25.634765625
-32.958984375
-35.70556640625
-36.62109375
-40.283203125
-43.02978515625
-43.02978515625
-45.7763671875
-36.62109375
-27.4658203125
-25.634765625
-28.38134765625
-23.8037109375
-27.4658203125
-36.62109375
-39.36767578125
-50.35400390625
-59.50927734375
-52.18505859375
-53.1005859375
-60.4248046875
-73.2421875
-75.98876953125
-76.904296875
-75.98876953125
-91.552734375
-98.876953125
-98.876953125
-95.21484375
-87.890625
-88.80615234375
-85.14404296875
-90.63720703125
-93.3837890625
-103.45458984375
-116.27197265625
-126.3427734375
-123.59619140625
-123.59619140625
-123.59619140625
-130.92041015625
-126.3427734375
-122.6806640625
-114.44091796875
-114.44091796875
-120.849609375
-126.3427734375
-124.51171875
-115.3564453125
-117.1875
-126.3427734375
-120.849609375
-112.60986328125
-112.60986328125
-119.93408203125
-130.0048828125
-126.3427734375
-116.27197265625
-107.11669921875
-109.86328125
-109.86328125
-116.27197265625
-117.1875
-112.60986328125
-105.28564453125
-110.77880859375
-119.93408203125
-119.93408203125
-123.59619140625
-130.0048828125
-125.42724609375
-115.3564453125
-104.3701171875
-80.56640625
-55.84716796875
-10.07080078125
59.50927734375
151.06201171875
259.09423828125
390.93017578125
501.708984375
571.2890625
623.47412109375
643.61572265625
617.98095703125
522.76611328125
339.66064453125
140.07568359375
-19.22607421875
-166.6259765625
-269.1650390625
-302.1240234375
-289.306640625
-288.39111328125
-264.58740234375
-240.78369140625
-233.45947265625
-234.375
-212.40234375
-186.767578125
-155.6396484375
-127.25830078125
-105.28564453125
-82.3974609375
-66.83349609375
-61.34033203125
-58.59375
-54.01611328125
-50.35400390625
-54.01611328125
-54.931640625
-51.26953125
-48.52294921875
-40.283203125
-47.607421875
-49.4384765625
-49.4384765625
-49.4384765625
-43.02978515625
-41.19873046875
-43.02978515625
-39.36767578125
-34.7900390625
-37.53662109375
-37.53662109375
-32.958984375
-32.04345703125
-33.87451171875
-35.70556640625
-36.62109375
-26.55029296875
-21.05712890625
-14.6484375
-15.56396484375
-13.73291015625
-10.986328125
-15.56396484375
-13.73291015625
-10.07080078125
-6.40869140625
-0.91552734375
1.8310546875
0
0.91552734375
3.662109375
-0.91552734375
5.4931640625
11.90185546875
10.986328125
15.56396484375
21.05712890625
28.38134765625
32.958984375
35.70556640625
36.62109375
32.958984375
38.4521484375
37.53662109375
43.9453125
50.35400390625
54.01611328125
64.0869140625
68.66455078125
75.0732421875
80.56640625
79.65087890625
81.48193359375
85.14404296875
89.7216796875
88.80615234375
99.79248046875
106.201171875
113.525390625
116.27197265625
126.3427734375
127.25830078125
133.6669921875
136.41357421875
144.6533203125
152.89306640625
153.80859375
162.9638671875
180.35888671875
184.02099609375
184.9365234375
185.85205078125
187.68310546875
189.51416015625
202.33154296875
207.82470703125
209.65576171875
210.5712890625
217.8955078125
225.2197265625
224.30419921875
223.388671875
218.81103515625
219.7265625
219.7265625
220.64208984375
226.13525390625
228.8818359375
226.13525390625
231.62841796875
227.05078125
219.7265625
205.078125
198.66943359375
198.66943359375
191.34521484375
182.18994140625
173.03466796875
155.6396484375
149.23095703125
140.07568359375
126.3427734375
109.86328125
97.0458984375
80.56640625
74.15771484375
69.580078125
54.01611328125
50.35400390625
38.4521484375
29.296875
21.05712890625
6.40869140625
0
-6.40869140625
-19.22607421875
-16.4794921875
-20.1416015625
-25.634765625
-27.4658203125
-44.86083984375
-46.69189453125
-44.86083984375
-46.69189453125
-48.52294921875
-53.1005859375
-55.84716796875
-59.50927734375
-63.17138671875
-63.17138671875
-65.91796875
-66.83349609375
-72.32666015625
-72.32666015625
-69.580078125
-67.7490234375
-67.7490234375
-62.255859375
-64.0869140625
-61.34033203125
-69.580078125
-73.2421875
-75.0732421875
-74.15771484375
-65.91796875
-66.83349609375
-67.7490234375
-66.83349609375
-65.91796875
-67.7490234375
-62.255859375
-60.4248046875
-61.34033203125
-63.17138671875
-64.0869140625
-60.4248046875
-59.50927734375
-56.7626953125
-61.34033203125
-55.84716796875
-51.26953125
-51.26953125
-52.18505859375
-57.67822265625
-53.1005859375
-52.18505859375
-42.1142578125
-40.283203125
-40.283203125
-39.36767578125
-40.283203125
-43.02978515625
-40.283203125
-36.62109375
-35.70556640625
-33.87451171875
-36.62109375
-27.4658203125
-30.21240234375
-32.958984375
-32.04345703125
-36.62109375
-41.19873046875
-40.283203125
-39.36767578125
-31.1279296875
-27.4658203125
-24.71923828125
-27.4658203125
-28.38134765625
-28.38134765625
-32.04345703125
-32.958984375
-36.62109375
-32.958984375
-27.4658203125
-22.88818359375
-25.634765625
-31.1279296875
-25.634765625
-21.97265625
-32.04345703125
-34.7900390625
-31.1279296875
-32.958984375
-32.958984375
-29.296875
-25.634765625
-27.4658203125
-29.296875
-30.21240234375
-36.62109375
-39.36767578125
-42.1142578125
-48.52294921875
-43.02978515625
-43.02978515625
-38.4521484375
-32.958984375
-44.86083984375
-47.607421875
-45.7763671875
-47.607421875
-39.36767578125
-34.7900390625
-36.62109375
-39.36767578125
-35.70556640625
-38.4521484375
-35.70556640625
-36.62109375
-43.02978515625
-39.36767578125
-43.02978515625
-43.02978515625
-43.9453125
-39.36767578125
-36.62109375
-35.70556640625
-34.7900390625
-35.70556640625
-35.70556640625
-49.4384765625
-48.52294921875
-41.19873046875
-47.607421875
-42.1142578125
-36.62109375
-39.36767578125
-37.53662109375
-37.53662109375
-36.62109375
-30.21240234375
-41.19873046875
-41.19873046875
-38.4521484375
-35.70556640625
-22.88818359375
-21.05712890625
-23.8037109375
-31.1279296875
-32.04345703125
-34.7900390625
-31.1279296875
-32.958984375
-35.70556640625
-26.55029296875
-20.1416015625
-21.05712890625
-18.310546875
-21.05712890625
-12.8173828125
-3.662109375
10.07080078125
23.8037109375
38.4521484375
46.69189453125
49.4384765625
48.52294921875
42.1142578125
37.53662109375
30.21240234375
25.634765625
23.8037109375
30.21240234375
47.607421875
53.1005859375
54.01611328125
46.69189453125
37.53662109375
38.4521484375
39.36767578125
37.53662109375
32.04345703125
23.8037109375
21.05712890625
13.73291015625
1.8310546875
-8.23974609375
-17.39501953125
-11.90185546875
-10.07080078125
-11.90185546875
-22.88818359375
-16.4794921875
-14.6484375
-9.1552734375
-7.32421875
-10.986328125
-12.8173828125
-24.71923828125
-41.19873046875
-47.607421875
-52.18505859375
-54.01611328125
-50.35400390625
-46.69189453125
-45.7763671875
-42.1142578125
-38.4521484375
-41.19873046875
-43.02978515625
-44.86083984375
-44.86083984375
-41.19873046875
-42.1142578125
-38.4521484375
-35.70556640625
-41.19873046875
-40.283203125
-40.283203125
-35.70556640625
-42.1142578125
-43.02978515625
-37.53662109375
-33.87451171875
-33.87451171875
-32.958984375
-31.1279296875
-26.55029296875
-32.04345703125
-32.04345703125
-44.86083984375
-53.1005859375
-48.52294921875
-49.4384765625
-38.4521484375
-31.1279296875
-21.97265625
-0.91552734375
26.55029296875
58.59375
126.3427734375
217.8955078125
333.251953125
458.67919921875
594.17724609375
701.2939453125
764.46533203125
801.08642578125
799.25537109375
738.83056640625
574.951171875
356.14013671875
164.794921875
-17.39501953125
-167.54150390625
-251.77001953125
-247.1923828125
-233.45947265625
-220.64208984375
-198.66943359375
-177.6123046875
-150.146484375
-131.8359375
-100.7080078125
-68.66455078125
-36.62109375
-9.1552734375
9.1552734375
10.07080078125
15.56396484375
28.38134765625
37.53662109375
34.7900390625
29.296875
28.38134765625
35.70556640625
32.04345703125
31.1279296875
31.1279296875
28.38134765625
30.21240234375
30.21240234375
34.7900390625
41.19873046875
44.86083984375
43.02978515625
41.19873046875
51.26953125
48.52294921875
44.86083984375
43.02978515625
48.52294921875
48.52294921875
54.931640625
58.59375
54.01611328125
57.67822265625
65.00244140625
62.255859375
63.17138671875
66.83349609375
63.17138671875
62.255859375
63.17138671875
63.17138671875
71.4111328125
77.81982421875
76.904296875
76.904296875
76.904296875
80.56640625
89.7216796875
95.21484375
100.7080078125
102.5390625
103.45458984375
108.0322265625
113.525390625
110.77880859375
107.11669921875
112.60986328125
119.93408203125
127.25830078125
132.75146484375
136.41357421875
132.75146484375
138.24462890625
147.39990234375
155.6396484375
162.9638671875
164.794921875
168.45703125
176.69677734375
191.34521484375
190.4296875
193.17626953125
201.416015625
199.5849609375
208.740234375
216.064453125
220.64208984375
229.79736328125
233.45947265625
238.037109375
245.361328125
256.34765625
257.26318359375
262.75634765625
270.99609375
283.8134765625
281.982421875
287.4755859375
292.96875
303.955078125
303.03955078125
311.279296875
312.19482421875
314.02587890625
314.02587890625
313.1103515625
314.94140625
315.85693359375
329.58984375
323.18115234375
315.85693359375
318.603515625
319.51904296875
318.603515625
321.35009765625
311.279296875
305.7861328125
303.955078125
298.4619140625
281.06689453125
263.671875
260.92529296875
251.77001953125
246.27685546875
229.79736328125
216.97998046875
203.2470703125
184.9365234375
170.2880859375
156.55517578125
152.89306640625
147.39990234375
138.24462890625
125.42724609375
120.849609375
104.3701171875
86.0595703125
82.3974609375
74.15771484375
64.0869140625
56.7626953125
53.1005859375
48.52294921875
41.19873046875
32.04345703125
31.1279296875
30.21240234375
25.634765625
24.71923828125
27.4658203125
19.22607421875
18.310546875
14.6484375
6.40869140625
1.8310546875
3.662109375
-0.91552734375
0
6.40869140625
2.74658203125
6.40869140625
4.57763671875
-1.8310546875
-3.662109375
-3.662109375
0
-8.23974609375
-3.662109375
-6.40869140625
-3.662109375
2.74658203125
3.662109375
3.662109375
5.4931640625
-1.8310546875
-6.40869140625
-8.23974609375
-8.23974609375
-3.662109375
-1.8310546875
-3.662109375
-2.74658203125
4.57763671875
11.90185546875
11.90185546875
8.23974609375
4.57763671875
10.07080078125
9.1552734375
10.07080078125
15.56396484375
18.310546875
18.310546875
9.1552734375
11.90185546875
12.8173828125
10.07080078125
10.07080078125
16.4794921875
24.71923828125
25.634765625
25.634765625
21.97265625
23.8037109375
21.05712890625
18.310546875
16.4794921875
18.310546875
15.56396484375
13.73291015625
15.56396484375
18.310546875
19.22607421875
28.38134765625
30.21240234375
20.1416015625
15.56396484375
18.310546875
19.22607421875
16.4794921875
17.39501953125
18.310546875
15.56396484375
20.1416015625
15.56396484375
8.23974609375
10.07080078125
5.4931640625
9.1552734375
4.57763671875
8.23974609375
8.23974609375
10.07080078125
13.73291015625
4.57763671875
9.1552734375
4.57763671875
4.57763671875
2.74658203125
4.57763671875
7.32421875
5.4931640625
1.8310546875
7.32421875
17.39501953125
15.56396484375
6.40869140625
0.91552734375
2.74658203125
3.662109375
5.4931640625
4.57763671875
8.23974609375
6.40869140625
-2.74658203125
2.74658203125
1.8310546875
-3.662109375
0
-4.57763671875
0
-0.91552734375
0.91552734375
4.57763671875
4.57763671875
7.32421875
1.8310546875
0.91552734375
2.74658203125
-4.57763671875
1.8310546875
9.1552734375
10.986328125
10.07080078125
2.74658203125
-2.74658203125
-7.32421875
-0.91552734375
-9.1552734375
-5.4931640625
1.8310546875
2.74658203125
1.8310546875
4.57763671875
2.74658203125
2.74658203125
1.8310546875
-1.8310546875
-1.8310546875
-4.57763671875
-2.74658203125
0.91552734375
0.91552734375
2.74658203125
-2.74658203125
-5.4931640625
-1.8310546875
-0.91552734375
0.91552734375
2.74658203125
14.6484375
17.39501953125
24.71923828125
33.87451171875
53.1005859375
65.00244140625
74.15771484375
70.49560546875
68.66455078125
68.66455078125
69.580078125
66.83349609375
50.35400390625
43.9453125
44.86083984375
53.1005859375
62.255859375
67.7490234375
72.32666015625
67.7490234375
68.66455078125
65.00244140625
58.59375
55.84716796875
52.18505859375
43.02978515625
33.87451171875
22.88818359375
19.22607421875
11.90185546875
5.4931640625
6.40869140625
8.23974609375
6.40869140625
6.40869140625
8.23974609375
9.1552734375
0
0.91552734375
-0.91552734375
-11.90185546875
-21.97265625
-24.71923828125
-31.1279296875
-37.53662109375
-40.283203125
-37.53662109375
-41.19873046875
-39.36767578125
-36.62109375
-36.62109375
-29.296875
-24.71923828125
-17.39501953125
-19.22607421875
-21.05712890625
-25.634765625
-25.634765625
-26.55029296875
-26.55029296875
-27.4658203125
-24.71923828125
-23.8037109375
-23.8037109375
-28.38134765625
-24.71923828125
-23.8037109375
-28.38134765625
-24.71923828125
-20.1416015625
-22.88818359375
-18.310546875
-16.4794921875
-20.1416015625
-34.7900390625
-45.7763671875
-38.4521484375
-34.7900390625
-31.1279296875
-16.4794921875
4.57763671875
43.9453125
92.46826171875
174.86572265625
278.3203125
392.76123046875
528.25927734375
666.50390625
753.47900390625
809.326171875
846.86279296875
823.974609375
742.49267578125
562.1337890625
342.4072265625
140.07568359375
-65.00244140625
-200.50048828125
-253.60107421875
-235.29052734375
-221.5576171875
-199.5849609375
-173.9501953125
-143.73779296875
-119.93408203125
-101.62353515625
-79.65087890625
-47.607421875
-17.39501953125
15.56396484375
35.70556640625
35.70556640625
41.19873046875
45.7763671875
45.7763671875
46.69189453125
43.9453125
44.86083984375
46.69189453125
46.69189453125
50.35400390625
53.1005859375
52.18505859375
52.18505859375
53.1005859375
51.26953125
46.69189453125
48.52294921875
58.59375
58.59375
61.34033203125
60.4248046875
61.34033203125
59.50927734375
61.34033203125
63.17138671875
66.83349609375
70.49560546875
72.32666015625
67.7490234375
70.49560546875
78.7353515625
77.81982421875
67.7490234375
75.0732421875
77.81982421875
81.48193359375
74.15771484375
85.14404296875
93.3837890625
97.96142578125
104.3701171875
101.62353515625
105.28564453125
100.7080078125
98.876953125
97.0458984375
108.94775390625
115.3564453125
125.42724609375
128.173828125
131.8359375
137.3291015625
140.07568359375
136.41357421875
140.07568359375
142.822265625
140.07568359375
149.23095703125
155.6396484375
158.38623046875
163.87939453125
173.03466796875
177.6123046875
184.9365234375
185.85205078125
182.18994140625
184.02099609375
192.2607421875
206.9091796875
213.31787109375
222.47314453125
229.79736328125
233.45947265625
240.78369140625
247.1923828125
252.685546875
254.5166015625
268.24951171875
272.8271484375
284.72900390625
288.39111328125
292.05322265625
296.630859375
302.1240234375
313.1103515625
310.36376953125
308.53271484375
312.19482421875
318.603515625
320.4345703125
327.7587890625
325.01220703125
323.18115234375
327.7587890625
320.4345703125
320.4345703125
322.265625
326.84326171875
330.50537109375
329.58984375
325.01220703125
316.7724609375
314.02587890625
301.20849609375
292.05322265625
280.1513671875
274.658203125
265.5029296875
252.685546875
238.037109375
232.5439453125
224.30419921875
207.82470703125
184.02099609375
171.20361328125
160.21728515625
146.484375
140.07568359375
130.92041015625
124.51171875
116.27197265625
104.3701171875
85.14404296875
78.7353515625
66.83349609375
55.84716796875
49.4384765625
50.35400390625
43.9453125
41.19873046875
41.19873046875
34.7900390625
32.04345703125
28.38134765625
19.22607421875
10.986328125
11.90185546875
10.986328125
10.07080078125
12.8173828125
10.986328125
8.23974609375
8.23974609375
3.662109375
-1.8310546875
-3.662109375
-6.40869140625
-7.32421875
-5.4931640625
-6.40869140625
-13.73291015625
-8.23974609375
-1.8310546875
-6.40869140625
-11.90185546875
-13.73291015625
-8.23974609375
-6.40869140625
-10.986328125
-5.4931640625
-6.40869140625
0.91552734375
0.91552734375
0.91552734375
-0.91552734375
-8.23974609375
-0.91552734375
1.8310546875
1.8310546875
2.74658203125
5.4931640625
8.23974609375
9.1552734375
2.74658203125
3.662109375
2.74658203125
0
6.40869140625
9.1552734375
5.4931640625
6.40869140625
9.1552734375
6.40869140625
1.8310546875
4.57763671875
13.73291015625
13.73291015625
10.07080078125
14.6484375
16.4794921875
13.73291015625
10.07080078125
12.8173828125
12.8173828125
4.57763671875
5.4931640625
5.4931640625
10.07080078125
10.07080078125
9.1552734375
9.1552734375
6.40869140625
8.23974609375
6.40869140625
10.986328125
5.4931640625
4.57763671875
-0.91552734375
5.4931640625
4.57763671875
5.4931640625
12.8173828125
11.90185546875
0
-5.4931640625
-3.662109375
-1.8310546875
0
5.4931640625
3.662109375
-1.8310546875
-8.23974609375
-10.07080078125
-0.91552734375
-1.8310546875
-19.22607421875
-17.39501953125
-12.8173828125
-8.23974609375
-7.32421875
-9.1552734375
-10.986328125
-15.56396484375
-10.07080078125
-15.56396484375
-21.97265625
-20.1416015625
-19.22607421875
-14.6484375
-16.4794921875
-10.07080078125
-10.07080078125
-6.40869140625
-10.986328125
-18.310546875
-17.39501953125
-19.22607421875
-24.71923828125
-28.38134765625
-23.8037109375
-21.97265625
-18.310546875
-21.05712890625
-25.634765625
-16.4794921875
-21.97265625
-20.1416015625
-21.05712890625
-19.22607421875
-20.1416015625
-21.97265625
-25.634765625
-25.634765625
-33.87451171875
-35.70556640625
-36.62109375
-27.4658203125
-23.8037109375
-28.38134765625
-31.1279296875
-27.4658203125
-32.958984375
-30.21240234375
-32.04345703125
-42.1142578125
-46.69189453125
-37.53662109375
-25.634765625
-28.38134765625
-32.958984375
-36.62109375
-44.86083984375
-42.1142578125
-36.62109375
-40.283203125
-44.86083984375
-41.19873046875
-30.21240234375
-32.04345703125
-22.88818359375
-15.56396484375
0.91552734375
12.8173828125
17.39501953125
29.296875
20.1416015625
23.8037109375
23.8037109375
16.4794921875
16.4794921875
15.56396484375
7.32421875
10.07080078125
13.73291015625
23.8037109375
31.1279296875
24.71923828125
20.1416015625
22.88818359375
18.310546875
20.1416015625
25.634765625
14.6484375
-2.74658203125
-3.662109375
-21.97265625
-35.70556640625
-37.53662109375
-37.53662109375
-40.283203125
-41.19873046875
-55.84716796875
-50.35400390625
-39.36767578125
-39.36767578125
-39.36767578125
-37.53662109375
-39.36767578125
-47.607421875
-63.17138671875
-75.0732421875
-78.7353515625
-80.56640625
-83.31298828125
-75.98876953125
-79.65087890625
-76.904296875
-74.15771484375
-70.49560546875
-65.91796875
-67.7490234375
-70.49560546875
-67.7490234375
-71.4111328125
-70.49560546875
-70.49560546875
-78.7353515625
-64.0869140625
-64.0869140625
-67.7490234375
-61.34033203125
-59.50927734375
-63.17138671875
-63.17138671875
-68.66455078125
-67.7490234375
-67.7490234375
-63.17138671875
-64.0869140625
-67.7490234375
-64.0869140625
-71.4111328125
-83.31298828125
-87.890625
-77.81982421875
-78.7353515625
-74.15771484375
-53.1005859375
-30.21240234375
4.57763671875
53.1005859375
135.498046875
230.712890625
339.66064453125
476.98974609375
601.50146484375
672.91259765625
725.09765625
746.15478515625
715.9423828125
630.79833984375
436.70654296875
229.79736328125
49.4384765625
-120.849609375
-242.61474609375
-281.982421875
-265.5029296875
-254.5166015625
-229.79736328125
-212.40234375
-195.00732421875
-177.6123046875
-165.71044921875
-137.3291015625
-115.3564453125
-86.97509765625
-62.255859375
-37.53662109375
-23.8037109375
-17.39501953125
-4.57763671875
-1.8310546875
-12.8173828125
-8.23974609375
-11.90185546875
-5.4931640625
-1.8310546875
-6.40869140625
-8.23974609375
0
-0.91552734375
1.8310546875
-3.662109375
2.74658203125
4.57763671875
-0.91552734375
3.662109375
4.57763671875
6.40869140625
9.1552734375
8.23974609375
10.07080078125
10.07080078125
3.662109375
0.91552734375
8.23974609375
11.90185546875
9.1552734375
11.90185546875
17.39501953125
22.88818359375
28.38134765625
24.71923828125
26.55029296875
31.1279296875
24.71923828125
35.70556640625
45.7763671875
45.7763671875
54.01611328125
53.1005859375
43.02978515625
43.02978515625
45.7763671875
47.607421875
54.931640625
61.34033203125
66.83349609375
67.7490234375
68.66455078125
75.98876953125
75.98876953125
82.3974609375
84.228515625
82.3974609375
86.97509765625
97.0458984375
102.5390625
101.62353515625
118.10302734375
126.3427734375
122.6806640625
119.93408203125
125.42724609375
124.51171875
130.92041015625
141.90673828125
149.23095703125
157.470703125
166.6259765625
173.9501953125
170.2880859375
176.69677734375
190.4296875
192.2607421875
200.50048828125
210.5712890625
216.064453125
222.47314453125
227.96630859375
233.45947265625
243.5302734375
236.2060546875
237.12158203125
237.12158203125
241.69921875
249.93896484375
255.43212890625
257.26318359375
259.09423828125
260.009765625
261.8408203125
261.8408203125
262.75634765625
258.1787109375
247.1923828125
251.77001953125
255.43212890625
257.26318359375
251.77001953125
248.10791015625
233.45947265625
225.2197265625
220.64208984375
215.14892578125
206.9091796875
191.34521484375
181.2744140625
174.86572265625
160.21728515625
153.80859375
134.58251953125
121.76513671875
99.79248046875
93.3837890625
85.14404296875
70.49560546875
67.7490234375
62.255859375
50.35400390625
41.19873046875
32.04345703125
22.88818359375
14.6484375
4.57763671875
-11.90185546875
-21.05712890625
-20.1416015625
-10.986328125
-23.8037109375
-18.310546875
-25.634765625
-38.4521484375
-32.04345703125
-30.21240234375
-41.19873046875
-40.283203125
-52.18505859375
-53.1005859375
-49.4384765625
-46.69189453125
-43.02978515625
-49.4384765625
-54.01611328125
-54.931640625
-66.83349609375
-58.59375
-59.50927734375
-59.50927734375
-62.255859375
-56.7626953125
-63.17138671875
-65.91796875
-55.84716796875
-46.69189453125
-61.34033203125
-69.580078125
-59.50927734375
-55.84716796875
-53.1005859375
-55.84716796875
-51.26953125
-45.7763671875
-45.7763671875
-49.4384765625
-47.607421875
-50.35400390625
-50.35400390625
-47.607421875
-43.02978515625
-43.9453125
-37.53662109375
-46.69189453125
-52.18505859375
-52.18505859375
-51.26953125
-42.1142578125
-38.4521484375
-36.62109375
-34.7900390625
-27.4658203125
-34.7900390625
-39.36767578125
-38.4521484375
-36.62109375
-31.1279296875
-30.21240234375
-29.296875
-36.62109375
-34.7900390625
-32.958984375
-31.1279296875
-37.53662109375
-43.02978515625
-33.87451171875
-34.7900390625
-37.53662109375
-37.53662109375
-41.19873046875
-38.4521484375
-42.1142578125
-45.7763671875
-45.7763671875
-43.9453125
-40.283203125
-37.53662109375
-36.62109375
-41.19873046875
-32.04345703125
-35.70556640625
-40.283203125
-47.607421875
-48.52294921875
-54.01611328125
-47.607421875
-46.69189453125
-40.283203125
-40.283203125
-45.7763671875
-49.4384765625
-41.19873046875
-37.53662109375
-52.18505859375
-60.4248046875
-59.50927734375
-54.931640625
-54.931640625
-59.50927734375
-55.84716796875
-53.1005859375
-55.84716796875
-62.255859375
-65.91796875
-64.0869140625
-68.66455078125
-65.91796875
-56.7626953125
-59.50927734375
-62.255859375
-62.255859375
-62.255859375
-57.67822265625
-54.931640625
-70.49560546875
-77.81982421875
-72.32666015625
-72.32666015625
-67.7490234375
-65.91796875
-67.7490234375
-70.49560546875
-65.91796875
-62.255859375
-72.32666015625
-67.7490234375
-65.00244140625
-72.32666015625
-73.2421875
-73.2421875
-75.98876953125
-65.91796875
-66.83349609375
-73.2421875
-76.904296875
-76.904296875
-75.98876953125
-75.98876953125
-75.98876953125
-78.7353515625
-75.98876953125
-70.49560546875
-69.580078125
-68.66455078125
-62.255859375
-46.69189453125
-30.21240234375
-14.6484375
-10.07080078125
-21.97265625
-20.1416015625
-19.22607421875
-29.296875
-31.1279296875
-31.1279296875
-33.87451171875
-27.4658203125
-16.4794921875
-10.07080078125
-5.4931640625
-2.74658203125
3.662109375
0.91552734375
-9.1552734375
-20.1416015625
-24.71923828125
-25.634765625
-31.1279296875
-29.296875
-37.53662109375
-54.931640625
-57.67822265625
-65.91796875
-65.00244140625
-76.904296875
-75.0732421875
-74.15771484375
-64.0869140625
-54.01611328125
-55.84716796875
-59.50927734375
-61.34033203125
-68.66455078125
-83.31298828125
-99.79248046875
-107.11669921875
-107.11669921875
-101.62353515625
-107.11669921875
-103.45458984375
-98.876953125
-94.29931640625
-97.0458984375
-98.876953125
-99.79248046875
-104.3701171875
-100.7080078125
-98.876953125
-97.96142578125
-97.0458984375
-93.3837890625
-96.13037109375
-102.5390625
-108.94775390625
-108.94775390625
-107.11669921875
-103.45458984375
-98.876953125
-93.3837890625
-94.29931640625
-95.21484375
-94.29931640625
-85.14404296875
-86.97509765625
-89.7216796875
-99.79248046875
-105.28564453125
-111.6943359375
-111.6943359375
-108.94775390625
-99.79248046875
-86.97509765625
-66.83349609375
-39.36767578125
5.4931640625
71.4111328125
163.87939453125
262.75634765625
374.45068359375
493.46923828125
564.88037109375
612.48779296875
646.3623046875
630.79833984375
540.1611328125
369.873046875
179.443359375
34.7900390625
-119.0185546875
-228.8818359375
-276.4892578125
-260.92529296875
-264.58740234375
