ECG
-43.02978515625
-36.62109375
-33.87451171875
-37.53662109375
-35.70556640625
-35.70556640625
-36.62109375
-34.7900390625
-40.283203125
-42.1142578125
-35.70556640625
-35.70556640625
-40.283203125
-47.607421875
-39.36767578125
-32.958984375
-29.296875
-32.04345703125
-33.87451171875
-32.958984375
-33.87451171875
-32.958984375
-25.634765625
-8.23974609375
-1.8310546875
1.8310546875
0
-4.57763671875
0.91552734375
-7.32421875
-5.4931640625
-3.662109375
4.57763671875
6.40869140625
1.8310546875
-1.8310546875
5.4931640625
15.56396484375
11.90185546875
14.6484375
15.56396484375
18.310546875
17.39501953125
13.73291015625
7.32421875
6.40869140625
7.32421875
16.4794921875
31.1279296875
22.88818359375
18.310546875
8.23974609375
10.07080078125
12.8173828125
6.40869140625
4.57763671875
-4.57763671875
-11.90185546875
-21.05712890625
-34.7900390625
-40.283203125
-39.36767578125
-42.1142578125
-43.9453125
-41.19873046875
-44.86083984375
-52.18505859375
-48.52294921875
-53.1005859375
-54.931640625
-56.7626953125
-54.931640625
-50.35400390625
-49.4384765625
-56.7626953125
-47.607421875
-46.69189453125
-53.1005859375
-56.7626953125
-62.255859375
-63.17138671875
-65.91796875
-58.59375
-57.67822265625
-55.84716796875
-65.00244140625
-67.7490234375
-59.50927734375
-61.34033203125
-60.4248046875
-53.1005859375
-56.7626953125
-58.59375
-51.26953125
-59.50927734375
-59.50927734375
-61.34033203125
-63.17138671875
-60.4248046875
-63.17138671875
-51.26953125
-56.7626953125
-60.4248046875
-58.59375
-53.1005859375
-54.931640625
-58.59375
-56.7626953125
-55.84716796875
-50.35400390625
-59.50927734375
-58.59375
-57.67822265625
-57.67822265625
-59.50927734375
-60.4248046875
-59.50927734375
-62.255859375
-54.01611328125
-43.9453125
-19.22607421875
0
39.36767578125
103.45458984375
187.68310546875
303.03955078125
443.115234375
629.8828125
808.41064453125
932.92236328125
978.69873046875
874.32861328125
682.06787109375
477.9052734375
320.4345703125
184.9365234375
21.05712890625
-115.3564453125
-162.04833984375
-173.03466796875
-157.470703125
-170.2880859375
-169.37255859375
-140.9912109375
-109.86328125
-72.32666015625
-54.931640625
-44.86083984375
-38.4521484375
-21.97265625
-11.90185546875
-13.73291015625
-13.73291015625
-15.56396484375
-18.310546875
-21.05712890625
-18.310546875
-11.90185546875
-17.39501953125
-10.07080078125
-13.73291015625
-13.73291015625
-9.1552734375
-12.8173828125
-12.8173828125
-12.8173828125
-11.90185546875
-10.07080078125
-6.40869140625
-9.1552734375
-5.4931640625
-4.57763671875
-1.8310546875
0.91552734375
5.4931640625
-0.91552734375
1.8310546875
6.40869140625
-0.91552734375
-1.8310546875
5.4931640625
10.986328125
11.90185546875
10.986328125
8.23974609375
7.32421875
10.986328125
15.56396484375
10.986328125
13.73291015625
16.4794921875
13.73291015625
18.310546875
23.8037109375
26.55029296875
23.8037109375
24.71923828125
30.21240234375
29.296875
26.55029296875
25.634765625
32.04345703125
30.21240234375
27.4658203125
32.04345703125
31.1279296875
44.86083984375
51.26953125
50.35400390625
52.18505859375
50.35400390625
51.26953125
54.01611328125
57.67822265625
62.255859375
56.7626953125
64.0869140625
65.91796875
70.49560546875
71.4111328125
75.0732421875
86.0595703125
91.552734375
95.21484375
96.13037109375
97.96142578125
110.77880859375
115.3564453125
122.6806640625
124.51171875
123.59619140625
125.42724609375
132.75146484375
131.8359375
144.6533203125
155.6396484375
164.794921875
167.54150390625
172.119140625
173.9501953125
177.6123046875
186.767578125
195.00732421875
199.5849609375
206.9091796875
212.40234375
216.064453125
225.2197265625
230.712890625
234.375
237.12158203125
241.69921875
241.69921875
239.8681640625
243.5302734375
251.77001953125
250.8544921875
245.361328125
245.361328125
246.27685546875
237.12158203125
234.375
223.388671875
208.740234375
200.50048828125
195.00732421875
190.4296875
180.35888671875
164.794921875
154.72412109375
140.07568359375
124.51171875
115.3564453125
102.5390625
92.46826171875
93.3837890625
80.56640625
60.4248046875
61.34033203125
55.84716796875
40.283203125
30.21240234375
21.97265625
21.05712890625
18.310546875
17.39501953125
10.986328125
12.8173828125
-5.4931640625
-10.986328125
-0.91552734375
-6.40869140625
-15.56396484375
-12.8173828125
-9.1552734375
-16.4794921875
-23.8037109375
-23.8037109375
-27.4658203125
-24.71923828125
-24.71923828125
-24.71923828125
-28.38134765625
-31.1279296875
-32.04345703125
-32.958984375
-33.87451171875
-33.87451171875
-31.1279296875
-29.296875
-39.36767578125
-38.4521484375
-35.70556640625
-27.4658203125
-35.70556640625
-29.296875
-29.296875
-32.04345703125
-36.62109375
-33.87451171875
-33.87451171875
-41.19873046875
-39.36767578125
-37.53662109375
-37.53662109375
-41.19873046875
-43.9453125
-40.283203125
-37.53662109375
-36.62109375
-37.53662109375
-33.87451171875
-31.1279296875
-37.53662109375
-36.62109375
-29.296875
-29.296875
-26.55029296875
-32.04345703125
-30.21240234375
-22.88818359375
-30.21240234375
-32.958984375
-19.22607421875
-19.22607421875
-31.1279296875
-28.38134765625
-32.04345703125
-36.62109375
-31.1279296875
-26.55029296875
-26.55029296875
-29.296875
-17.39501953125
-23.8037109375
-19.22607421875
-17.39501953125
-10.986328125
-11.90185546875
-14.6484375
-13.73291015625
-15.56396484375
-14.6484375
-17.39501953125
-15.56396484375
-9.1552734375
-10.07080078125
-8.23974609375
-10.07080078125
-14.6484375
-20.1416015625
-19.22607421875
-21.97265625
-20.1416015625
-11.90185546875
-10.07080078125
-16.4794921875
-12.8173828125
-12.8173828125
-5.4931640625
-6.40869140625
-13.73291015625
-19.22607421875
-19.22607421875
-17.39501953125
-10.986328125
-14.6484375
-20.1416015625
-13.73291015625
-17.39501953125
-19.22607421875
-20.1416015625
-23.8037109375
-25.634765625
-29.296875
-21.05712890625
-20.1416015625
-25.634765625
-23.8037109375
-30.21240234375
-30.21240234375
-24.71923828125
-25.634765625
-26.55029296875
-27.4658203125
-24.71923828125
-23.8037109375
-27.4658203125
-27.4658203125
-24.71923828125
-29.296875
-32.04345703125
-31.1279296875
-29.296875
-25.634765625
-27.4658203125
-30.21240234375
-29.296875
-27.4658203125
-36.62109375
-38.4521484375
-32.958984375
-35.70556640625
-32.04345703125
-31.1279296875
-28.38134765625
-25.634765625
-23.8037109375
-26.55029296875
-23.8037109375
-20.1416015625
-16.4794921875
-2.74658203125
-2.74658203125
0.91552734375
5.4931640625
2.74658203125
0.91552734375
-2.74658203125
-3.662109375
8.23974609375
13.73291015625
15.56396484375
14.6484375
21.05712890625
13.73291015625
16.4794921875
27.4658203125
38.4521484375
39.36767578125
30.21240234375
33.87451171875
32.958984375
30.21240234375
22.88818359375
11.90185546875
22.88818359375
38.4521484375
34.7900390625
40.283203125
42.1142578125
36.62109375
25.634765625
24.71923828125
22.88818359375
6.40869140625
1.8310546875
-3.662109375
-16.4794921875
-20.1416015625
-24.71923828125
-26.55029296875
-32.958984375
-28.38134765625
-24.71923828125
-36.62109375
-32.04345703125
-35.70556640625
-41.19873046875
-45.7763671875
-43.9453125
-48.52294921875
-51.26953125
-47.607421875
-47.607421875
-48.52294921875
-47.607421875
-50.35400390625
-47.607421875
-52.18505859375
-47.607421875
-43.02978515625
-46.69189453125
-44.86083984375
-43.9453125
-50.35400390625
-44.86083984375
-43.02978515625
-44.86083984375
-52.18505859375
-50.35400390625
-46.69189453125
-49.4384765625
-54.931640625
-48.52294921875
-51.26953125
-47.607421875
-46.69189453125
-43.9453125
-46.69189453125
-44.86083984375
-40.283203125
-46.69189453125
-43.9453125
-44.86083984375
-54.01611328125
-58.59375
-50.35400390625
-53.1005859375
-52.18505859375
-50.35400390625
-42.1142578125
-43.9453125
-49.4384765625
-52.18505859375
-52.18505859375
-55.84716796875
-59.50927734375
-49.4384765625
-45.7763671875
-29.296875
-16.4794921875
25.634765625
89.7216796875
172.119140625
284.72900390625
417.48046875
596.923828125
760.80322265625
856.01806640625
847.7783203125
711.36474609375
536.4990234375
352.47802734375
228.8818359375
109.86328125
-38.4521484375
-143.73779296875
-173.9501953125
-157.470703125
-146.484375
-154.72412109375
-160.21728515625
-141.90673828125
-114.44091796875
-80.56640625
-64.0869140625
-51.26953125
-36.62109375
-23.8037109375
-13.73291015625
-4.57763671875
-2.74658203125
-6.40869140625
-15.56396484375
-17.39501953125
-21.97265625
-17.39501953125
-7.32421875
-8.23974609375
-9.1552734375
-11.90185546875
-10.07080078125
-7.32421875
1.8310546875
-0.91552734375
-3.662109375
4.57763671875
-0.91552734375
-7.32421875
-3.662109375
-3.662109375
-4.57763671875
-5.4931640625
-7.32421875
6.40869140625
-0.91552734375
1.8310546875
10.986328125
7.32421875
2.74658203125
6.40869140625
5.4931640625
16.4794921875
12.8173828125
19.22607421875
19.22607421875
16.4794921875
14.6484375
18.310546875
19.22607421875
12.8173828125
18.310546875
24.71923828125
24.71923828125
23.8037109375
29.296875
32.958984375
36.62109375
37.53662109375
34.7900390625
34.7900390625
41.19873046875
46.69189453125
41.19873046875
44.86083984375
46.69189453125
46.69189453125
52.18505859375
51.26953125
57.67822265625
60.4248046875
61.34033203125
60.4248046875
63.17138671875
69.580078125
73.2421875
79.65087890625
83.31298828125
86.0595703125
85.14404296875
91.552734375
92.46826171875
91.552734375
95.21484375
105.28564453125
102.5390625
111.6943359375
127.25830078125
123.59619140625
120.849609375
135.498046875
138.24462890625
139.16015625
140.07568359375
151.06201171875
156.55517578125
162.9638671875
168.45703125
183.10546875
192.2607421875
194.091796875
196.83837890625
202.33154296875
200.50048828125
209.65576171875
214.2333984375
212.40234375
212.40234375
214.2333984375
227.05078125
239.8681640625
241.69921875
241.69921875
235.29052734375
228.8818359375
230.712890625
227.96630859375
229.79736328125
227.96630859375
223.388671875
216.97998046875
206.9091796875
202.33154296875
188.5986328125
175.78125
165.71044921875
154.72412109375
148.3154296875
134.58251953125
118.10302734375
110.77880859375
101.62353515625
86.97509765625
79.65087890625
65.00244140625
61.34033203125
54.01611328125
50.35400390625
38.4521484375
32.04345703125
24.71923828125
13.73291015625
16.4794921875
17.39501953125
10.986328125
-0.91552734375
-7.32421875
-8.23974609375
-16.4794921875
-10.07080078125
-10.07080078125
-18.310546875
-19.22607421875
-28.38134765625
-28.38134765625
-24.71923828125
-27.4658203125
-29.296875
-25.634765625
-29.296875
-35.70556640625
-33.87451171875
-34.7900390625
-38.4521484375
-39.36767578125
-39.36767578125
-36.62109375
-41.19873046875
-35.70556640625
-34.7900390625
-38.4521484375
-40.283203125
-43.02978515625
-43.02978515625
-49.4384765625
-45.7763671875
-38.4521484375
-25.634765625
-31.1279296875
-35.70556640625
-43.02978515625
-43.02978515625
-38.4521484375
-27.4658203125
-42.1142578125
-47.607421875
-43.9453125
-55.84716796875
-35.70556640625
-30.21240234375
-43.02978515625
-32.958984375
-35.70556640625
-37.53662109375
-40.283203125
-35.70556640625
-35.70556640625
-37.53662109375
-35.70556640625
-41.19873046875
-39.36767578125
-41.19873046875
-36.62109375
-32.958984375
-39.36767578125
-38.4521484375
-25.634765625
-27.4658203125
-32.04345703125
-28.38134765625
-28.38134765625
-26.55029296875
-26.55029296875
-32.04345703125
-29.296875
-29.296875
-28.38134765625
-27.4658203125
-23.8037109375
-21.97265625
-21.97265625
-23.8037109375
-23.8037109375
-23.8037109375
-26.55029296875
-21.97265625
-23.8037109375
-26.55029296875
-29.296875
-25.634765625
-23.8037109375
-21.05712890625
-31.1279296875
-30.21240234375
-32.04345703125
-29.296875
-29.296875
-28.38134765625
-30.21240234375
-30.21240234375
-26.55029296875
-30.21240234375
-29.296875
-32.04345703125
-33.87451171875
-35.70556640625
-35.70556640625
-36.62109375
-37.53662109375
-33.87451171875
-33.87451171875
-42.1142578125
-38.4521484375
-37.53662109375
-44.86083984375
-50.35400390625
-45.7763671875
-34.7900390625
-32.04345703125
-32.04345703125
-42.1142578125
-41.19873046875
-43.9453125
-38.4521484375
-39.36767578125
-43.9453125
-40.283203125
-41.19873046875
-43.9453125
-45.7763671875
-39.36767578125
-43.02978515625
-48.52294921875
-45.7763671875
-47.607421875
-48.52294921875
-44.86083984375
-43.9453125
-42.1142578125
-43.02978515625
-45.7763671875
-44.86083984375
-43.02978515625
-44.86083984375
-43.9453125
-42.1142578125
-40.283203125
-39.36767578125
-33.87451171875
-31.1279296875
-21.97265625
-19.22607421875
-15.56396484375
-18.310546875
-14.6484375
-7.32421875
-13.73291015625
-17.39501953125
-16.4794921875
-14.6484375
-4.57763671875
-7.32421875
-7.32421875
-8.23974609375
-6.40869140625
0
3.662109375
15.56396484375
12.8173828125
7.32421875
0.91552734375
-7.32421875
-11.90185546875
-11.90185546875
-2.74658203125
14.6484375
14.6484375
12.8173828125
18.310546875
8.23974609375
0.91552734375
2.74658203125
7.32421875
-1.8310546875
-17.39501953125
-22.88818359375
-36.62109375
-39.36767578125
-46.69189453125
-50.35400390625
-48.52294921875
-54.931640625
-51.26953125
-54.01611328125
-65.00244140625
-65.91796875
-65.00244140625
-64.0869140625
-66.83349609375
-66.83349609375
-65.00244140625
-69.580078125
-73.2421875
-74.15771484375
-71.4111328125
-75.0732421875
-73.2421875
-62.255859375
-75.0732421875
-73.2421875
-75.0732421875
-77.81982421875
-72.32666015625
-74.15771484375
-75.0732421875
-75.98876953125
-75.98876953125
-73.2421875
-75.98876953125
-80.56640625
-78.7353515625
-79.65087890625
-74.15771484375
-76.904296875
-79.65087890625
-78.7353515625
-79.65087890625
-81.48193359375
-79.65087890625
-81.48193359375
-86.0595703125
-86.97509765625
-77.81982421875
-75.98876953125
-80.56640625
-80.56640625
-76.904296875
-83.31298828125
-83.31298828125
-77.81982421875
-76.904296875
-74.15771484375
-70.49560546875
-72.32666015625
-53.1005859375
-39.36767578125
-12.8173828125
17.39501953125
67.7490234375
140.9912109375
237.12158203125
359.80224609375
519.10400390625
712.2802734375
856.01806640625
941.162109375
895.3857421875
730.5908203125
513.61083984375
344.23828125
205.078125
69.580078125
-100.7080078125
-180.35888671875
-202.33154296875
-194.091796875
-195.00732421875
-205.99365234375
-183.10546875
-146.484375
-108.94775390625
-79.65087890625
-63.17138671875
-55.84716796875
-46.69189453125
-35.70556640625
-28.38134765625
-31.1279296875
-32.958984375
-36.62109375
-35.70556640625
-37.53662109375
-40.283203125
-40.283203125
-42.1142578125
-42.1142578125
-40.283203125
-36.62109375
-39.36767578125
-41.19873046875
-41.19873046875
-41.19873046875
-36.62109375
-37.53662109375
-33.87451171875
-28.38134765625
-32.958984375
-31.1279296875
-28.38134765625
-31.1279296875
-31.1279296875
-26.55029296875
-29.296875
-31.1279296875
-26.55029296875
-26.55029296875
-23.8037109375
-20.1416015625
-15.56396484375
-14.6484375
-16.4794921875
-11.90185546875
-15.56396484375
-9.1552734375
-16.4794921875
-12.8173828125
-8.23974609375
-16.4794921875
0
0.91552734375
-0.91552734375
-1.8310546875
-0.91552734375
2.74658203125
-5.4931640625
2.74658203125
7.32421875
9.1552734375
10.07080078125
10.07080078125
10.986328125
12.8173828125
14.6484375
16.4794921875
14.6484375
25.634765625
27.4658203125
29.296875
31.1279296875
29.296875
30.21240234375
36.62109375
43.02978515625
41.19873046875
48.52294921875
50.35400390625
52.18505859375
62.255859375
65.00244140625
67.7490234375
68.66455078125
70.49560546875
75.98876953125
79.65087890625
86.0595703125
86.97509765625
86.97509765625
100.7080078125
117.1875
117.1875
127.25830078125
129.08935546875
130.92041015625
137.3291015625
139.16015625
145.56884765625
147.39990234375
151.9775390625
164.794921875
163.87939453125
172.119140625
172.119140625
175.78125
182.18994140625
188.5986328125
195.9228515625
199.5849609375
207.82470703125
204.16259765625
196.83837890625
199.5849609375
205.078125
210.5712890625
209.65576171875
200.50048828125
199.5849609375
199.5849609375
195.00732421875
184.02099609375
173.9501953125
168.45703125
162.04833984375
145.56884765625
127.25830078125
119.0185546875
111.6943359375
99.79248046875
87.890625
78.7353515625
67.7490234375
56.7626953125
48.52294921875
36.62109375
24.71923828125
13.73291015625
5.4931640625
-0.91552734375
-3.662109375
-8.23974609375
-21.97265625
-23.8037109375
-31.1279296875
-36.62109375
-38.4521484375
-44.86083984375
-39.36767578125
-45.7763671875
-52.18505859375
-52.18505859375
-54.931640625
-55.84716796875
-54.01611328125
-57.67822265625
-60.4248046875
-60.4248046875
-61.34033203125
-61.34033203125
-60.4248046875
-61.34033203125
-59.50927734375
-61.34033203125
-60.4248046875
-64.0869140625
-67.7490234375
-68.66455078125
-67.7490234375
-69.580078125
-65.91796875
-66.83349609375
-65.00244140625
-71.4111328125
-66.83349609375
-67.7490234375
-70.49560546875
-76.904296875
-76.904296875
-73.2421875
-73.2421875
-76.904296875
-73.2421875
-70.49560546875
-65.00244140625
-63.17138671875
-67.7490234375
-70.49560546875
-66.83349609375
-66.83349609375
-68.66455078125
-65.00244140625
-62.255859375
-69.580078125
-68.66455078125
-66.83349609375
-65.00244140625
-57.67822265625
-53.1005859375
-63.17138671875
-61.34033203125
-54.01611328125
-47.607421875
-57.67822265625
-63.17138671875
-56.7626953125
-56.7626953125
-61.34033203125
-55.84716796875
-58.59375
-57.67822265625
-58.59375
-50.35400390625
-50.35400390625
-47.607421875
-49.4384765625
-49.4384765625
-43.9453125
-47.607421875
-43.9453125
-44.86083984375
-43.02978515625
-46.69189453125
-43.9453125
-44.86083984375
-47.607421875
-50.35400390625
-43.9453125
-41.19873046875
-48.52294921875
-49.4384765625
-47.607421875
-47.607421875
-47.607421875
-47.607421875
-43.9453125
-48.52294921875
-52.18505859375
-49.4384765625
-41.19873046875
-52.18505859375
-54.01611328125
-53.1005859375
-46.69189453125
-47.607421875
-52.18505859375
-54.931640625
-50.35400390625
-54.01611328125
-53.1005859375
-50.35400390625
-56.7626953125
-53.1005859375
-55.84716796875
-51.26953125
-54.931640625
-55.84716796875
-54.931640625
-52.18505859375
-54.931640625
-64.0869140625
-60.4248046875
-64.0869140625
-65.00244140625
-65.00244140625
-63.17138671875
-63.17138671875
-63.17138671875
-61.34033203125
-65.00244140625
-69.580078125
-63.17138671875
-66.83349609375
-62.255859375
-63.17138671875
-65.00244140625
-61.34033203125
-65.00244140625
-61.34033203125
-60.4248046875
-55.84716796875
-57.67822265625
-54.931640625
-64.0869140625
-65.00244140625
-60.4248046875
-58.59375
-61.34033203125
-60.4248046875
-63.17138671875
-61.34033203125
-62.255859375
-66.83349609375
-60.4248046875
-58.59375
-65.91796875
-57.67822265625
-59.50927734375
-61.34033203125
-61.34033203125
-59.50927734375
-62.255859375
-59.50927734375
-54.931640625
-56.7626953125
-54.931640625
-57.67822265625
-58.59375
-59.50927734375
-57.67822265625
-60.4248046875
-57.67822265625
-62.255859375
-61.34033203125
-62.255859375
-59.50927734375
-60.4248046875
-58.59375
-56.7626953125
-54.01611328125
-53.1005859375
-46.69189453125
-36.62109375
-27.4658203125
-21.05712890625
-18.310546875
-18.310546875
-21.97265625
-19.22607421875
-23.8037109375
-29.296875
-30.21240234375
-21.05712890625
-11.90185546875
-15.56396484375
-19.22607421875
-21.05712890625
-19.22607421875
-10.986328125
-7.32421875
-3.662109375
-10.07080078125
-8.23974609375
-9.1552734375
-12.8173828125
-17.39501953125
-10.986328125
-3.662109375
-3.662109375
-7.32421875
2.74658203125
-2.74658203125
-2.74658203125
-4.57763671875
0
-3.662109375
-8.23974609375
-21.05712890625
-27.4658203125
-43.9453125
-53.1005859375
-50.35400390625
-56.7626953125
-54.931640625
-58.59375
-61.34033203125
-65.00244140625
-65.00244140625
-66.83349609375
-70.49560546875
-75.98876953125
-68.66455078125
-73.2421875
-75.98876953125
-80.56640625
-75.0732421875
-74.15771484375
-78.7353515625
-76.904296875
-75.98876953125
-82.3974609375
-81.48193359375
-82.3974609375
-82.3974609375
-84.228515625
-83.31298828125
-81.48193359375
-86.97509765625
-87.890625
-79.65087890625
-81.48193359375
-82.3974609375
-86.97509765625
-82.3974609375
-76.904296875
-78.7353515625
-78.7353515625
-75.98876953125
-75.98876953125
-78.7353515625
-81.48193359375
-76.904296875
-79.65087890625
-82.3974609375
-73.2421875
-75.98876953125
-74.15771484375
-74.15771484375
-73.2421875
-71.4111328125
-72.32666015625
-72.32666015625
-64.0869140625
-58.59375
-53.1005859375
-49.4384765625
-29.296875
-14.6484375
18.310546875
54.931640625
108.0322265625
192.2607421875
323.18115234375
468.75
660.09521484375
861.51123046875
1018.06640625
1102.294921875
1040.0390625
855.1025390625
625.30517578125
429.38232421875
284.72900390625
151.9775390625
-17.39501953125
-104.3701171875
-145.56884765625
-165.71044921875
-160.21728515625
-144.6533203125
-117.1875
-84.228515625
-54.01611328125
-37.53662109375
-22.88818359375
-9.1552734375
-6.40869140625
-13.73291015625
-20.1416015625
-19.22607421875
-22.88818359375
-25.634765625
-32.958984375
-24.71923828125
-25.634765625
-32.04345703125
-31.1279296875
-30.21240234375
-29.296875
-21.97265625
-22.88818359375
-22.88818359375
-21.97265625
-19.22607421875
-13.73291015625
-13.73291015625
-15.56396484375
-21.97265625
-19.22607421875
-18.310546875
-7.32421875
-8.23974609375
-12.8173828125
-10.986328125
-13.73291015625
-10.07080078125
-6.40869140625
-3.662109375
-1.8310546875
-9.1552734375
-1.8310546875
1.8310546875
2.74658203125
0.91552734375
-3.662109375
0
6.40869140625
10.07080078125
5.4931640625
8.23974609375
7.32421875
12.8173828125
14.6484375
21.05712890625
21.97265625
18.310546875
17.39501953125
26.55029296875
21.97265625
21.05712890625
28.38134765625
27.4658203125
30.21240234375
36.62109375
37.53662109375
34.7900390625
35.70556640625
32.958984375
41.19873046875
49.4384765625
46.69189453125
52.18505859375
57.67822265625
56.7626953125
55.84716796875
64.0869140625
70.49560546875
65.91796875
71.4111328125
78.7353515625
79.65087890625
87.890625
87.890625
91.552734375
95.21484375
101.62353515625
101.62353515625
107.11669921875
114.44091796875
120.849609375
122.6806640625
131.8359375
134.58251953125
138.24462890625
145.56884765625
145.56884765625
157.470703125
162.04833984375
166.6259765625
174.86572265625
174.86572265625
176.69677734375
184.9365234375
190.4296875
197.75390625
204.16259765625
204.16259765625
205.078125
205.99365234375
208.740234375
222.47314453125
223.388671875
218.81103515625
219.7265625
217.8955078125
220.64208984375
211.48681640625
211.48681640625
215.14892578125
212.40234375
205.078125
197.75390625
192.2607421875
173.03466796875
164.794921875
156.55517578125
148.3154296875
142.822265625
128.173828125
111.6943359375
106.201171875
100.7080078125
92.46826171875
81.48193359375
69.580078125
63.17138671875
54.01611328125
47.607421875
39.36767578125
31.1279296875
24.71923828125
16.4794921875
15.56396484375
10.07080078125
0.91552734375
-0.91552734375
-2.74658203125
-6.40869140625
-8.23974609375
-6.40869140625
-7.32421875
-19.22607421875
-21.97265625
-17.39501953125
-17.39501953125
-20.1416015625
-21.97265625
-26.55029296875
-27.4658203125
-32.958984375
-28.38134765625
-21.05712890625
-24.71923828125
-21.05712890625
-30.21240234375
-33.87451171875
-25.634765625
-33.87451171875
-39.36767578125
-35.70556640625
-34.7900390625
-33.87451171875
-28.38134765625
-22.88818359375
-28.38134765625
-25.634765625
-21.05712890625
-27.4658203125
-26.55029296875
-27.4658203125
-28.38134765625
-34.7900390625
-23.8037109375
-27.4658203125
-32.958984375
-29.296875
-29.296875
-31.1279296875
-32.04345703125
-29.296875
-27.4658203125
-26.55029296875
-20.1416015625
-20.1416015625
-20.1416015625
-25.634765625
-24.71923828125
-21.05712890625
-21.05712890625
-21.05712890625
-13.73291015625
-12.8173828125
-16.4794921875
-11.90185546875
-13.73291015625
-20.1416015625
-18.310546875
-10.986328125
-14.6484375
-18.310546875
-18.310546875
-19.22607421875
-16.4794921875
-12.8173828125
-8.23974609375
-10.07080078125
-13.73291015625
-15.56396484375
-14.6484375
-11.90185546875
-10.07080078125
-12.8173828125
-12.8173828125
-4.57763671875
-6.40869140625
-9.1552734375
-11.90185546875
-7.32421875
-7.32421875
-7.32421875
-0.91552734375
-0.91552734375
-4.57763671875
-7.32421875
-3.662109375
-9.1552734375
-16.4794921875
-9.1552734375
-13.73291015625
-10.986328125
-5.4931640625
0
-4.57763671875
-8.23974609375
-16.4794921875
-13.73291015625
-19.22607421875
-14.6484375
-16.4794921875
-18.310546875
-15.56396484375
-17.39501953125
-18.310546875
-13.73291015625
-11.90185546875
-17.39501953125
-13.73291015625
-15.56396484375
-11.90185546875
-15.56396484375
-10.07080078125
-11.90185546875
-14.6484375
-17.39501953125
-20.1416015625
-17.39501953125
-14.6484375
-11.90185546875
-10.07080078125
-13.73291015625
-14.6484375
-18.310546875
-10.986328125
-10.07080078125
-11.90185546875
-11.90185546875
-10.986328125
-15.56396484375
-18.310546875
-18.310546875
-16.4794921875
-12.8173828125
-15.56396484375
-15.56396484375
-16.4794921875
-21.05712890625
-20.1416015625
-16.4794921875
-17.39501953125
-16.4794921875
-14.6484375
-14.6484375
-19.22607421875
-19.22607421875
-22.88818359375
-17.39501953125
-15.56396484375
-19.22607421875
-17.39501953125
-23.8037109375
-9.1552734375
-18.310546875
-27.4658203125
-16.4794921875
-14.6484375
-19.22607421875
-27.4658203125
-26.55029296875
-22.88818359375
-23.8037109375
-16.4794921875
-15.56396484375
-13.73291015625
-13.73291015625
-20.1416015625
-16.4794921875
-13.73291015625
-15.56396484375
4.57763671875
8.23974609375
10.07080078125
13.73291015625
15.56396484375
16.4794921875
14.6484375
14.6484375
11.90185546875
13.73291015625
14.6484375
21.05712890625
22.88818359375
18.310546875
20.1416015625
25.634765625
32.958984375
37.53662109375
39.36767578125
38.4521484375
38.4521484375
39.36767578125
36.62109375
33.87451171875
32.958984375
34.7900390625
32.04345703125
38.4521484375
42.1142578125
32.958984375
38.4521484375
39.36767578125
38.4521484375
32.04345703125
23.8037109375
14.6484375
4.57763671875
-7.32421875
-21.05712890625
-24.71923828125
-22.88818359375
-19.22607421875
-25.634765625
-30.21240234375
-30.21240234375
-35.70556640625
-39.36767578125
-37.53662109375
-39.36767578125
-39.36767578125
-41.19873046875
-39.36767578125
-34.7900390625
-37.53662109375
-37.53662109375
-38.4521484375
-43.02978515625
-42.1142578125
-37.53662109375
-40.283203125
-34.7900390625
-38.4521484375
-44.86083984375
-43.02978515625
-36.62109375
-39.36767578125
-41.19873046875
-36.62109375
-36.62109375
-36.62109375
-43.02978515625
-45.7763671875
-48.52294921875
-43.02978515625
-42.1142578125
-42.1142578125
-45.7763671875
-42.1142578125
-38.4521484375
-35.70556640625
-40.283203125
-39.36767578125
-43.9453125
-50.35400390625
-43.9453125
-43.9453125
-39.36767578125
-33.87451171875
-37.53662109375
-40.283203125
-43.9453125
-41.19873046875
-45.7763671875
-39.36767578125
-30.21240234375
-12.8173828125
12.8173828125
30.21240234375
92.46826171875
173.03466796875
272.8271484375
411.07177734375
589.599609375
778.1982421875
906.3720703125
982.36083984375
897.216796875
722.35107421875
520.01953125
359.80224609375
232.5439453125
84.228515625
-78.7353515625
-131.8359375
-154.72412109375
-139.16015625
-146.484375
-153.80859375
-139.16015625
-106.201171875
-71.4111328125
-53.1005859375
-42.1142578125
-28.38134765625
-12.8173828125
-4.57763671875
4.57763671875
7.32421875
4.57763671875
9.1552734375
5.4931640625
1.8310546875
0.91552734375
0
0.91552734375
-4.57763671875
-3.662109375
4.57763671875
8.23974609375
5.4931640625
4.57763671875
1.8310546875
9.1552734375
8.23974609375
10.986328125
5.4931640625
5.4931640625
7.32421875
2.74658203125
10.986328125
10.986328125
11.90185546875
10.07080078125
18.310546875
10.986328125
13.73291015625
22.88818359375
24.71923828125
27.4658203125
20.1416015625
22.88818359375
19.22607421875
21.97265625
24.71923828125
30.21240234375
32.04345703125
35.70556640625
37.53662109375
41.19873046875
39.36767578125
41.19873046875
44.86083984375
44.86083984375
43.9453125
50.35400390625
56.7626953125
54.931640625
50.35400390625
51.26953125
52.18505859375
53.1005859375
50.35400390625
54.931640625
58.59375
65.91796875
63.17138671875
68.66455078125
69.580078125
75.0732421875
72.32666015625
79.65087890625
74.15771484375
89.7216796875
95.21484375
95.21484375
95.21484375
103.45458984375
105.28564453125
109.86328125
108.0322265625
117.1875
118.10302734375
121.76513671875
133.6669921875
135.498046875
134.58251953125
140.07568359375
155.6396484375
154.72412109375
162.9638671875
168.45703125
174.86572265625
184.02099609375
186.767578125
190.4296875
196.83837890625
204.16259765625
208.740234375
214.2333984375
217.8955078125
222.47314453125
226.13525390625
234.375
238.95263671875
243.5302734375
241.69921875
249.93896484375
256.34765625
250.8544921875
260.92529296875
262.75634765625
263.671875
260.009765625
258.1787109375
257.26318359375
254.5166015625
245.361328125
238.037109375
231.62841796875
224.30419921875
211.48681640625
202.33154296875
199.5849609375
188.5986328125
176.69677734375
170.2880859375
160.21728515625
143.73779296875
133.6669921875
129.08935546875
116.27197265625
98.876953125
99.79248046875
82.3974609375
71.4111328125
62.255859375
59.50927734375
53.1005859375
43.9453125
39.36767578125
26.55029296875
23.8037109375
30.21240234375
19.22607421875
17.39501953125
12.8173828125
9.1552734375
4.57763671875
6.40869140625
1.8310546875
7.32421875
5.4931640625
-9.1552734375
-8.23974609375
-3.662109375
-8.23974609375
-17.39501953125
-17.39501953125
-5.4931640625
-10.07080078125
-13.73291015625
-9.1552734375
-11.90185546875
-13.73291015625
-15.56396484375
-15.56396484375
-23.8037109375
-24.71923828125
-20.1416015625
-24.71923828125
-14.6484375
-21.05712890625
-22.88818359375
-19.22607421875
-14.6484375
-12.8173828125
-16.4794921875
-21.97265625
-19.22607421875
-19.22607421875
-17.39501953125
-12.8173828125
-16.4794921875
-16.4794921875
-19.22607421875
-15.56396484375
-14.6484375
-13.73291015625
-14.6484375
-16.4794921875
-15.56396484375
-15.56396484375
-13.73291015625
-10.07080078125
-5.4931640625
-6.40869140625
-12.8173828125
-17.39501953125
-19.22607421875
-20.1416015625
-10.986328125
-9.1552734375
-4.57763671875
-8.23974609375
-16.4794921875
-3.662109375
-1.8310546875
-1.8310546875
0
-1.8310546875
2.74658203125
5.4931640625
1.8310546875
0
-1.8310546875
-0.91552734375
2.74658203125
0
-4.57763671875
-5.4931640625
-8.23974609375
2.74658203125
0
-7.32421875
-2.74658203125
-4.57763671875
-5.4931640625
2.74658203125
1.8310546875
-7.32421875
-6.40869140625
-4.57763671875
5.4931640625
8.23974609375
3.662109375
-4.57763671875
-5.4931640625
0.91552734375
-3.662109375
-7.32421875
-8.23974609375
-3.662109375
-5.4931640625
-7.32421875
-16.4794921875
-5.4931640625
-1.8310546875
-5.4931640625
-10.07080078125
-13.73291015625
-17.39501953125
-11.90185546875
-7.32421875
-7.32421875
-10.07080078125
-10.07080078125
-7.32421875
-17.39501953125
-17.39501953125
-21.05712890625
-18.310546875
-14.6484375
-13.73291015625
-11.90185546875
-8.23974609375
-10.07080078125
-16.4794921875
-15.56396484375
-14.6484375
-16.4794921875
-12.8173828125
-11.90185546875
-9.1552734375
-10.07080078125
-15.56396484375
-15.56396484375
-13.73291015625
-16.4794921875
-12.8173828125
-17.39501953125
-16.4794921875
-7.32421875
-6.40869140625
-10.986328125
-6.40869140625
-10.986328125
-10.986328125
0
13.73291015625
9.1552734375
8.23974609375
10.986328125
9.1552734375
7.32421875
4.57763671875
2.74658203125
11.90185546875
17.39501953125
13.73291015625
7.32421875
7.32421875
10.986328125
22.88818359375
38.4521484375
44.86083984375
40.283203125
34.7900390625
44.86083984375
40.283203125
30.21240234375
27.4658203125
33.87451171875
38.4521484375
43.9453125
48.52294921875
41.19873046875
36.62109375
36.62109375
36.62109375
30.21240234375
17.39501953125
6.40869140625
-3.662109375
-2.74658203125
-10.07080078125
-23.8037109375
-34.7900390625
-25.634765625
-21.05712890625
-23.8037109375
-28.38134765625
-36.62109375
-40.283203125
-39.36767578125
-36.62109375
-31.1279296875
-40.283203125
-43.9453125
-41.19873046875
-38.4521484375
-37.53662109375
-41.19873046875
-37.53662109375
-36.62109375
-41.19873046875
-43.9453125
-47.607421875
-45.7763671875
-48.52294921875
-54.931640625
-52.18505859375
-39.36767578125
-42.1142578125
-41.19873046875
-44.86083984375
-44.86083984375
-48.52294921875
-46.69189453125
-44.86083984375
-43.02978515625
-46.69189453125
-50.35400390625
-46.69189453125
-43.02978515625
-37.53662109375
-39.36767578125
-45.7763671875
-44.86083984375
-40.283203125
-45.7763671875
-40.283203125
-37.53662109375
-32.958984375
-37.53662109375
-42.1142578125
-50.35400390625
-56.7626953125
-61.34033203125
-60.4248046875
-51.26953125
-49.4384765625
-39.36767578125
-14.6484375
10.986328125
61.34033203125
134.58251953125
231.62841796875
358.88671875
515.44189453125
684.814453125
804.74853515625
860.595703125
761.71875
602.4169921875
413.818359375
270.08056640625
144.6533203125
10.07080078125
-120.849609375
-165.71044921875
-162.04833984375
-139.16015625
-129.08935546875
-142.822265625
-140.07568359375
-112.60986328125
-88.80615234375
-77.81982421875
-55.84716796875
-50.35400390625
-32.04345703125
-14.6484375
-14.6484375
-13.73291015625
0.91552734375
-0.91552734375
-7.32421875
-9.1552734375
-2.74658203125
-1.8310546875
-8.23974609375
-7.32421875
-3.662109375
-5.4931640625
-12.8173828125
-5.4931640625
2.74658203125
1.8310546875
-1.8310546875
-5.4931640625
-3.662109375
-7.32421875
-3.662109375
0.91552734375
-6.40869140625
-6.40869140625
-1.8310546875
-1.8310546875
0.91552734375
5.4931640625
-2.74658203125
10.07080078125
9.1552734375
5.4931640625
10.986328125
13.73291015625
12.8173828125
10.07080078125
19.22607421875
21.97265625
21.05712890625
18.310546875
15.56396484375
20.1416015625
22.88818359375
25.634765625
24.71923828125
28.38134765625
28.38134765625
23.8037109375
29.296875
40.283203125
34.7900390625
40.283203125
42.1142578125
45.7763671875
47.607421875
50.35400390625
44.86083984375
48.52294921875
50.35400390625
51.26953125
53.1005859375
55.84716796875
65.91796875
68.66455078125
67.7490234375
66.83349609375
69.580078125
72.32666015625
76.904296875
81.48193359375
81.48193359375
79.65087890625
89.7216796875
93.3837890625
99.79248046875
93.3837890625
106.201171875
112.60986328125
118.10302734375
126.3427734375
126.3427734375
128.173828125
143.73779296875
151.9775390625
152.89306640625
157.470703125
160.21728515625
165.71044921875
167.54150390625
173.9501953125
183.10546875
184.02099609375
189.51416015625
200.50048828125
207.82470703125
208.740234375
211.48681640625
215.14892578125
213.31787109375
216.064453125
224.30419921875
230.712890625
233.45947265625
236.2060546875
237.12158203125
230.712890625
238.95263671875
234.375
231.62841796875
219.7265625
210.5712890625
213.31787109375
198.66943359375
187.68310546875
179.443359375
171.20361328125
162.9638671875
147.39990234375
142.822265625
133.6669921875
122.6806640625
107.11669921875
95.21484375
89.7216796875
78.7353515625
75.0732421875
60.4248046875
58.59375
43.9453125
40.283203125
28.38134765625
24.71923828125
21.97265625
15.56396484375
11.90185546875
0
-5.4931640625
-1.8310546875
-5.4931640625
-10.07080078125
-14.6484375
-11.90185546875
-17.39501953125
-19.22607421875
-17.39501953125
-16.4794921875
-18.310546875
-24.71923828125
-26.55029296875
-27.4658203125
-30.21240234375
-23.8037109375
-29.296875
-31.1279296875
-33.87451171875
-38.4521484375
-33.87451171875
-34.7900390625
-32.958984375
-33.87451171875
-36.62109375
-37.53662109375
-34.7900390625
-36.62109375
-42.1142578125
-33.87451171875
-39.36767578125
-45.7763671875
-40.283203125
-47.607421875
-42.1142578125
-39.36767578125
-29.296875
-25.634765625
-30.21240234375
-34.7900390625
-36.62109375
-41.19873046875
-35.70556640625
-32.958984375
-39.36767578125
-39.36767578125
-37.53662109375
-37.53662109375
-34.7900390625
-38.4521484375
-36.62109375
-32.04345703125
-34.7900390625
-32.04345703125
-35.70556640625
-31.1279296875
-26.55029296875
-30.21240234375
-26.55029296875
-26.55029296875
-26.55029296875
-32.958984375
-33.87451171875
-29.296875
-31.1279296875
-27.4658203125
-25.634765625
-25.634765625
-26.55029296875
-25.634765625
-22.88818359375
-23.8037109375
-25.634765625
-31.1279296875
-28.38134765625
-25.634765625
-14.6484375
-13.73291015625
-19.22607421875
-18.310546875
-19.22607421875
-22.88818359375
-23.8037109375
-13.73291015625
-15.56396484375
-13.73291015625
-19.22607421875
-20.1416015625
-24.71923828125
-27.4658203125
-20.1416015625
-22.88818359375
-30.21240234375
-21.05712890625
-15.56396484375
-17.39501953125
-21.05712890625
-28.38134765625
-29.296875
-22.88818359375
-26.55029296875
-28.38134765625
-29.296875
-28.38134765625
-26.55029296875
-25.634765625
-24.71923828125
-22.88818359375
-23.8037109375
-27.4658203125
-32.04345703125
-38.4521484375
-32.04345703125
-23.8037109375
-28.38134765625
-32.04345703125
-27.4658203125
-28.38134765625
-27.4658203125
-24.71923828125
-27.4658203125
-25.634765625
-31.1279296875
-26.55029296875
-29.296875
-27.4658203125
-21.05712890625
-23.8037109375
-27.4658203125
-23.8037109375
-22.88818359375
-23.8037109375
-25.634765625
-26.55029296875
-14.6484375
-2.74658203125
5.4931640625
6.40869140625
1.8310546875
-0.91552734375
-7.32421875
-3.662109375
-4.57763671875
-1.8310546875
8.23974609375
16.4794921875
12.8173828125
10.986328125
1.8310546875
3.662109375
10.07080078125
21.97265625
33.87451171875
28.38134765625
32.958984375
17.39501953125
24.71923828125
12.8173828125
14.6484375
20.1416015625
19.22607421875
23.8037109375
20.1416015625
27.4658203125
17.39501953125
10.07080078125
17.39501953125
8.23974609375
3.662109375
-9.1552734375
-12.8173828125
-22.88818359375
-28.38134765625
-35.70556640625
-36.62109375
-32.958984375
-36.62109375
-41.19873046875
-43.9453125
-50.35400390625
-57.67822265625
-60.4248046875
-53.1005859375
-50.35400390625
-48.52294921875
-43.9453125
-43.02978515625
-51.26953125
-51.26953125
-54.01611328125
-54.931640625
-54.931640625
-55.84716796875
-54.931640625
-54.931640625
-53.1005859375
-51.26953125
-52.18505859375
-54.01611328125
-52.18505859375
-54.01611328125
-58.59375
-52.18505859375
-47.607421875
-48.52294921875
-48.52294921875
-46.69189453125
-54.01611328125
-59.50927734375
-55.84716796875
-53.1005859375
-55.84716796875
-56.7626953125
-48.52294921875
-52.18505859375
-51.26953125
-54.01611328125
-54.931640625
-50.35400390625
-43.9453125
-37.53662109375
-44.86083984375
-48.52294921875
-51.26953125
-56.7626953125
-47.607421875
-32.958984375
-30.21240234375
-6.40869140625
1.8310546875
44.86083984375
106.201171875
192.2607421875
310.36376953125
444.9462890625
622.55859375
777.28271484375
880.7373046875
875.244140625
733.33740234375
552.978515625
365.29541015625
239.8681640625
110.77880859375
-41.19873046875
-145.56884765625
-173.03466796875
-164.794921875
-145.56884765625
-153.80859375
-159.3017578125
-143.73779296875
-113.525390625
-74.15771484375
-57.67822265625
-45.7763671875
-34.7900390625
-24.71923828125
-12.8173828125
-9.1552734375
-11.90185546875
-7.32421875
-5.4931640625
-7.32421875
-14.6484375
-15.56396484375
-10.07080078125
-10.07080078125
-15.56396484375
-11.90185546875
-12.8173828125
-12.8173828125
-10.986328125
-14.6484375
-8.23974609375
-3.662109375
-7.32421875
-12.8173828125
-12.8173828125
-1.8310546875
1.8310546875
-4.57763671875
-5.4931640625
-2.74658203125
-2.74658203125
-5.4931640625
-2.74658203125
-0.91552734375
-4.57763671875
-3.662109375
-3.662109375
-1.8310546875
-3.662109375
-1.8310546875
6.40869140625
10.986328125
7.32421875
5.4931640625
10.986328125
5.4931640625
9.1552734375
13.73291015625
16.4794921875
17.39501953125
22.88818359375
26.55029296875
25.634765625
17.39501953125
24.71923828125
27.4658203125
32.04345703125
30.21240234375
34.7900390625
35.70556640625
29.296875
41.19873046875
32.958984375
42.1142578125
52.18505859375
52.18505859375
48.52294921875
48.52294921875
51.26953125
62.255859375
65.91796875
64.0869140625
70.49560546875
76.904296875
77.81982421875
82.3974609375
86.97509765625
86.0595703125
90.63720703125
97.96142578125
105.28564453125
107.11669921875
109.86328125
114.44091796875
116.27197265625
119.93408203125
127.25830078125
132.75146484375
136.41357421875
142.822265625
149.23095703125
151.06201171875
158.38623046875
169.37255859375
175.78125
181.2744140625
182.18994140625
186.767578125
187.68310546875
197.75390625
206.9091796875
209.65576171875
205.99365234375
214.2333984375
216.064453125
216.97998046875
211.48681640625
216.97998046875
217.8955078125
216.97998046875
222.47314453125
220.64208984375
217.8955078125
209.65576171875
205.99365234375
202.33154296875
199.5849609375
192.2607421875
180.35888671875
172.119140625
157.470703125
151.06201171875
142.822265625
128.173828125
119.93408203125
105.28564453125
104.3701171875
92.46826171875
77.81982421875
67.7490234375
54.01611328125
45.7763671875
36.62109375
26.55029296875
27.4658203125
22.88818359375
7.32421875
10.986328125
5.4931640625
-4.57763671875
-7.32421875
-7.32421875
-10.986328125
-15.56396484375
-22.88818359375
-25.634765625
-30.21240234375
-35.70556640625
-33.87451171875
-32.04345703125
-34.7900390625
-39.36767578125
-43.9453125
-40.283203125
-42.1142578125
-43.9453125
-40.283203125
-38.4521484375
-36.62109375
-39.36767578125
-41.19873046875
-41.19873046875
-38.4521484375
-41.19873046875
-43.9453125
-39.36767578125
-41.19873046875
-49.4384765625
-45.7763671875
-44.86083984375
-45.7763671875
-49.4384765625
-45.7763671875
-38.4521484375
-37.53662109375
-42.1142578125
-43.9453125
-49.4384765625
-50.35400390625
-53.1005859375
-56.7626953125
-50.35400390625
-46.69189453125
-46.69189453125
-46.69189453125
-41.19873046875
-42.1142578125
-45.7763671875
-40.283203125
-37.53662109375
-36.62109375
-35.70556640625
-37.53662109375
-38.4521484375
-42.1142578125
-43.02978515625
-44.86083984375
-42.1142578125
-42.1142578125
-42.1142578125
-38.4521484375
-38.4521484375
-32.958984375
-33.87451171875
-36.62109375
-35.70556640625
-32.958984375
-34.7900390625
-27.4658203125
-32.04345703125
-35.70556640625
-30.21240234375
-32.04345703125
-32.958984375
-32.04345703125
-33.87451171875
-27.4658203125
-32.958984375
-29.296875
-29.296875
-36.62109375
-34.7900390625
-32.958984375
-36.62109375
-34.7900390625
-34.7900390625
-37.53662109375
-26.55029296875
-29.296875
-39.36767578125
-31.1279296875
-40.283203125
-43.02978515625
-37.53662109375
-40.283203125
-43.02978515625
-43.02978515625
-50.35400390625
-47.607421875
-44.86083984375
-54.01611328125
-48.52294921875
-46.69189453125
-49.4384765625
-48.52294921875
-54.931640625
-57.67822265625
-56.7626953125
-54.931640625
-53.1005859375
-54.931640625
-56.7626953125
-54.01611328125
-58.59375
-54.931640625
-56.7626953125
-61.34033203125
-63.17138671875
-62.255859375
-52.18505859375
-51.26953125
-56.7626953125
-53.1005859375
-56.7626953125
-60.4248046875
-64.0869140625
-66.83349609375
-62.255859375
-60.4248046875
-63.17138671875
-67.7490234375
-65.00244140625
-63.17138671875
-63.17138671875
-59.50927734375
-60.4248046875
-62.255859375
-60.4248046875
-63.17138671875
-58.59375
-49.4384765625
-54.931640625
-54.01611328125
-50.35400390625
-51.26953125
-45.7763671875
-38.4521484375
-29.296875
-32.958984375
-33.87451171875
-31.1279296875
-35.70556640625
-32.04345703125
-37.53662109375
-35.70556640625
-32.04345703125
-30.21240234375
-27.4658203125
-24.71923828125
-29.296875
-26.55029296875
-12.8173828125
-9.1552734375
-5.4931640625
-12.8173828125
-11.90185546875
-10.07080078125
-18.310546875
-23.8037109375
-18.310546875
-13.73291015625
-10.986328125
-10.07080078125
-12.8173828125
-9.1552734375
-9.1552734375
-9.1552734375
-16.4794921875
-19.22607421875
-25.634765625
-31.1279296875
-40.283203125
-55.84716796875
-64.0869140625
-66.83349609375
-68.66455078125
-72.32666015625
-66.83349609375
-70.49560546875
-79.65087890625
-80.56640625
-86.0595703125
-82.3974609375
-81.48193359375
-86.97509765625
-86.0595703125
-84.228515625
-90.63720703125
-92.46826171875
-89.7216796875
-86.0595703125
-93.3837890625
-92.46826171875
-91.552734375
-97.0458984375
-97.96142578125
-101.62353515625
-101.62353515625
-98.876953125
-101.62353515625
-102.5390625
-101.62353515625
-96.13037109375
-97.0458984375
-97.96142578125
-98.876953125
-99.79248046875
-108.94775390625
-103.45458984375
-102.5390625
-101.62353515625
-92.46826171875
-93.3837890625
-86.0595703125
-96.13037109375
-96.13037109375
-96.13037109375
-92.46826171875
-94.29931640625
-96.13037109375
-96.13037109375
-105.28564453125
-97.0458984375
-103.45458984375
-97.0458984375
-86.0595703125
-91.552734375
-85.14404296875
-74.15771484375
-66.83349609375
-43.02978515625
-17.39501953125
13.73291015625
69.580078125
163.87939453125
281.06689453125
422.9736328125
607.91015625
793.76220703125
932.92236328125
986.9384765625
889.892578125
704.04052734375
494.384765625
326.84326171875
189.51416015625
44.86083984375
-99.79248046875
-146.484375
-165.71044921875
-170.2880859375
-189.51416015625
-191.34521484375
-175.78125
-151.06201171875
-114.44091796875
-97.96142578125
-77.81982421875
-63.17138671875
-62.255859375
-56.7626953125
-48.52294921875
-53.1005859375
-55.84716796875
-60.4248046875
-59.50927734375
-61.34033203125
-60.4248046875
-62.255859375
-65.00244140625
-64.0869140625
-63.17138671875
-57.67822265625
-65.00244140625
-59.50927734375
-62.255859375
-65.00244140625
-64.0869140625
-61.34033203125
-59.50927734375
-59.50927734375
-57.67822265625
-58.59375
-51.26953125
-47.607421875
-45.7763671875
-51.26953125
-47.607421875
-54.01611328125
-48.52294921875
-39.36767578125
-37.53662109375
-38.4521484375
-37.53662109375
-42.1142578125
-44.86083984375
-45.7763671875
-43.02978515625
-34.7900390625
-35.70556640625
-31.1279296875
-35.70556640625
-40.283203125
-26.55029296875
-29.296875
-30.21240234375
-31.1279296875
-30.21240234375
-21.05712890625
-15.56396484375
-16.4794921875
-15.56396484375
-15.56396484375
-16.4794921875
-19.22607421875
-19.22607421875
-14.6484375
-10.07080078125
-4.57763671875
-2.74658203125
-5.4931640625
-2.74658203125
-1.8310546875
3.662109375
7.32421875
12.8173828125
11.90185546875
14.6484375
14.6484375
24.71923828125
32.04345703125
29.296875
32.958984375
29.296875
36.62109375
42.1142578125
41.19873046875
51.26953125
59.50927734375
62.255859375
69.580078125
74.15771484375
75.0732421875
79.65087890625
86.97509765625
81.48193359375
82.3974609375
92.46826171875
97.96142578125
105.28564453125
111.6943359375
117.1875
123.59619140625
130.92041015625
136.41357421875
137.3291015625
139.16015625
145.56884765625
151.06201171875
155.6396484375
159.3017578125
158.38623046875
159.3017578125
165.71044921875
169.37255859375
168.45703125
169.37255859375
171.20361328125
169.37255859375
166.6259765625
154.72412109375
147.39990234375
145.56884765625
139.16015625
137.3291015625
127.25830078125
112.60986328125
101.62353515625
93.3837890625
81.48193359375
73.2421875
63.17138671875
53.1005859375
43.9453125
36.62109375
25.634765625
13.73291015625
2.74658203125
-5.4931640625
-15.56396484375
-26.55029296875
-30.21240234375
-34.7900390625
-43.02978515625
-46.69189453125
-44.86083984375
-49.4384765625
-58.59375
-63.17138671875
-68.66455078125
-71.4111328125
-70.49560546875
-75.98876953125
-75.98876953125
-77.81982421875
-76.904296875
-70.49560546875
-75.0732421875
-77.81982421875
-83.31298828125
-88.80615234375
-82.3974609375
-83.31298828125
-83.31298828125
-83.31298828125
-88.80615234375
-86.97509765625
-86.97509765625
-86.97509765625
-87.890625
-88.80615234375
-85.14404296875
-88.80615234375
-88.80615234375
-82.3974609375
-85.14404296875
-88.80615234375
-96.13037109375
-87.890625
-86.97509765625
-87.890625
-97.0458984375
-95.21484375
-95.21484375
-89.7216796875
-89.7216796875
-93.3837890625
-94.29931640625
-92.46826171875
-92.46826171875
-90.63720703125
-90.63720703125
-84.228515625
-86.0595703125
-85.14404296875
-84.228515625
-84.228515625
-84.228515625
-86.0595703125
-86.97509765625
-86.0595703125
-83.31298828125
-83.31298828125
-86.0595703125
-77.81982421875
-70.49560546875
-75.0732421875
-73.2421875
-76.904296875
-75.98876953125
-77.81982421875
-74.15771484375
-76.904296875
-75.98876953125
-75.0732421875
-74.15771484375
-72.32666015625
-72.32666015625
-68.66455078125
-71.4111328125
-71.4111328125
-73.2421875
-71.4111328125
-72.32666015625
-68.66455078125
-71.4111328125
-75.0732421875
-73.2421875
-75.98876953125
-74.15771484375
-73.2421875
-67.7490234375
-72.32666015625
-71.4111328125
-69.580078125
-70.49560546875
-73.2421875
-72.32666015625
-73.2421875
-69.580078125
-69.580078125
-71.4111328125
-69.580078125
-64.0869140625
-67.7490234375
-75.0732421875
-75.0732421875
-73.2421875
-71.4111328125
-75.0732421875
-75.98876953125
-78.7353515625
-74.15771484375
-72.32666015625
-67.7490234375
-68.66455078125
-76.904296875
-67.7490234375
-77.81982421875
-75.98876953125
-81.48193359375
-84.228515625
-86.0595703125
-84.228515625
-80.56640625
-78.7353515625
-83.31298828125
-83.31298828125
-86.0595703125
-84.228515625
-89.7216796875
-88.80615234375
-84.228515625
-88.80615234375
-87.890625
-86.0595703125
-84.228515625
-80.56640625
-85.14404296875
-88.80615234375
-85.14404296875
-85.14404296875
-82.3974609375
-82.3974609375
-85.14404296875
-84.228515625
-82.3974609375
-85.14404296875
-83.31298828125
-78.7353515625
-85.14404296875
-83.31298828125
-81.48193359375
-82.3974609375
-84.228515625
-87.890625
-86.97509765625
-87.890625
-86.0595703125
-87.890625
-85.14404296875
-83.31298828125
-84.228515625
-86.0595703125
-86.0595703125
-86.97509765625
-84.228515625
-84.228515625
-86.97509765625
-84.228515625
-86.97509765625
-90.63720703125
-83.31298828125
-84.228515625
-91.552734375
-96.13037109375
-89.7216796875
-90.63720703125
-87.890625
-86.0595703125
-81.48193359375
-66.83349609375
-77.81982421875
-74.15771484375
-65.91796875
-57.67822265625
-47.607421875
-40.283203125
-53.1005859375
-57.67822265625
-57.67822265625
-56.7626953125
-52.18505859375
-49.4384765625
-46.69189453125
-43.9453125
-39.36767578125
-51.26953125
-52.18505859375
-39.36767578125
-42.1142578125
-35.70556640625
-30.21240234375
-36.62109375
-37.53662109375
-37.53662109375
-41.19873046875
-49.4384765625
-41.19873046875
-29.296875
-32.04345703125
-32.04345703125
-29.296875
-30.21240234375
-32.04345703125
-33.87451171875
-32.04345703125
-24.71923828125
-36.62109375
-43.9453125
-57.67822265625
-75.98876953125
-81.48193359375
-86.97509765625
-89.7216796875
-85.14404296875
-86.97509765625
-92.46826171875
-99.79248046875
-99.79248046875
-99.79248046875
-101.62353515625
-100.7080078125
-106.201171875
-103.45458984375
-106.201171875
-112.60986328125
-107.11669921875
-110.77880859375
-107.11669921875
-107.11669921875
-114.44091796875
-108.94775390625
-115.3564453125
-113.525390625
-111.6943359375
-119.0185546875
-120.849609375
-115.3564453125
-118.10302734375
-119.93408203125
-111.6943359375
-109.86328125
-113.525390625
-117.1875
-114.44091796875
-120.849609375
-117.1875
-117.1875
-118.10302734375
-104.3701171875
-109.86328125
-120.849609375
-113.525390625
-108.94775390625
-103.45458984375
-109.86328125
-115.3564453125
-110.77880859375
-106.201171875
-111.6943359375
-105.28564453125
-102.5390625
-102.5390625
-103.45458984375
-95.21484375
-88.80615234375
-79.65087890625
-60.4248046875
-50.35400390625
-21.05712890625
10.986328125
64.0869140625
151.06201171875
260.92529296875
407.40966796875
600.5859375
801.08642578125
966.796875
1077.57568359375
1045.5322265625
874.32861328125
627.13623046875
429.38232421875
279.23583984375
146.484375
-27.4658203125
-130.92041015625
-179.443359375
-206.9091796875
-199.5849609375
-185.85205078125
-158.38623046875
-121.76513671875
-100.7080078125
-75.98876953125
-64.0869140625
-53.1005859375
-43.02978515625
-50.35400390625
-54.01611328125
-60.4248046875
-63.17138671875
-64.0869140625
-70.49560546875
-68.66455078125
-70.49560546875
-67.7490234375
-68.66455078125
-71.4111328125
-69.580078125
-67.7490234375
-60.4248046875
-59.50927734375
-64.0869140625
-61.34033203125
-63.17138671875
-60.4248046875
-60.4248046875
-61.34033203125
-64.0869140625
-57.67822265625
-58.59375
-54.01611328125
-54.01611328125
-50.35400390625
-56.7626953125
-56.7626953125
-58.59375
-53.1005859375
-47.607421875
-49.4384765625
-54.931640625
-50.35400390625
-50.35400390625
-51.26953125
-48.52294921875
-38.4521484375
-37.53662109375
-41.19873046875
-38.4521484375
-36.62109375
-31.1279296875
-33.87451171875
-30.21240234375
-25.634765625
-26.55029296875
-31.1279296875
-32.04345703125
-29.296875
-22.88818359375
-21.97265625
-17.39501953125
-13.73291015625
-8.23974609375
-7.32421875
-13.73291015625
-11.90185546875
-11.90185546875
-5.4931640625
-3.662109375
0.91552734375
1.8310546875
4.57763671875
7.32421875
10.986328125
10.07080078125
13.73291015625
17.39501953125
19.22607421875
18.310546875
24.71923828125
33.87451171875
40.283203125
36.62109375
37.53662109375
43.9453125
53.1005859375
53.1005859375
57.67822265625
66.83349609375
70.49560546875
73.2421875
75.98876953125
76.904296875
86.0595703125
90.63720703125
93.3837890625
101.62353515625
108.94775390625
110.77880859375
118.10302734375
123.59619140625
129.08935546875
134.58251953125
139.16015625
145.56884765625
149.23095703125
152.89306640625
151.06201171875
161.1328125
165.71044921875
171.20361328125
173.03466796875
176.69677734375
174.86572265625
171.20361328125
171.20361328125
160.21728515625
164.794921875
163.87939453125
156.55517578125
156.55517578125
148.3154296875
139.16015625
130.92041015625
126.3427734375
117.1875
106.201171875
92.46826171875
76.904296875
69.580078125
63.17138671875
51.26953125
43.02978515625
34.7900390625
19.22607421875
9.1552734375
7.32421875
-0.91552734375
-13.73291015625
-27.4658203125
-34.7900390625
-29.296875
-31.1279296875
-36.62109375
-45.7763671875
-51.26953125
-56.7626953125
-54.931640625
-56.7626953125
-57.67822265625
-63.17138671875
-69.580078125
-65.91796875
-65.91796875
-68.66455078125
-74.15771484375
-69.580078125
-68.66455078125
-72.32666015625
-85.14404296875
-82.3974609375
-75.0732421875
-75.0732421875
-80.56640625
-76.904296875
-77.81982421875
-80.56640625
-77.81982421875
-80.56640625
-77.81982421875
-77.81982421875
-80.56640625
-73.2421875
-78.7353515625
-82.3974609375
-88.80615234375
-87.890625
-81.48193359375
-86.97509765625
-87.890625
-86.97509765625
-83.31298828125
-86.0595703125
-85.14404296875
-83.31298828125
-86.0595703125
-80.56640625
-77.81982421875
-77.81982421875
-77.81982421875
-75.0732421875
-71.4111328125
-69.580078125
-72.32666015625
-71.4111328125
-75.98876953125
-79.65087890625
-74.15771484375
-74.15771484375
-74.15771484375
-68.66455078125
-68.66455078125
-75.0732421875
-73.2421875
-75.0732421875
-71.4111328125
-71.4111328125
-69.580078125
-75.98876953125
-70.49560546875
-70.49560546875
-68.66455078125
-74.15771484375
-70.49560546875
-61.34033203125
-66.83349609375
-72.32666015625
-75.0732421875
-69.580078125
-69.580078125
-70.49560546875
-71.4111328125
-75.0732421875
-70.49560546875
-60.4248046875
-64.0869140625
-70.49560546875
-68.66455078125
-60.4248046875
-69.580078125
-70.49560546875
-68.66455078125
-67.7490234375
-63.17138671875
-69.580078125
-65.91796875
-66.83349609375
-68.66455078125
-68.66455078125
-64.0869140625
-65.91796875
-62.255859375
-60.4248046875
-61.34033203125
-65.91796875
-71.4111328125
-71.4111328125
-71.4111328125
-69.580078125
-65.00244140625
-62.255859375
-70.49560546875
-66.83349609375
-69.580078125
-70.49560546875
-70.49560546875
-73.2421875
-77.81982421875
-75.0732421875
-74.15771484375
-73.2421875
-76.904296875
-79.65087890625
-80.56640625
-75.98876953125
-70.49560546875
-72.32666015625
-69.580078125
-73.2421875
-70.49560546875
-68.66455078125
-70.49560546875
-72.32666015625
-68.66455078125
-73.2421875
-75.98876953125
-77.81982421875
-76.904296875
-77.81982421875
-77.81982421875
-72.32666015625
-66.83349609375
-70.49560546875
-74.15771484375
-81.48193359375
-76.904296875
-71.4111328125
-68.66455078125
-68.66455078125
-55.84716796875
-61.34033203125
-67.7490234375
-74.15771484375
-71.4111328125
-80.56640625
-77.81982421875
-79.65087890625
-81.48193359375
-77.81982421875
-82.3974609375
-76.904296875
-75.0732421875
-72.32666015625
-69.580078125
-75.0732421875
-70.49560546875
-69.580078125
-75.0732421875
-76.904296875
-74.15771484375
-68.66455078125
-66.83349609375
-69.580078125
-65.91796875
-72.32666015625
-73.2421875
-71.4111328125
-65.91796875
-62.255859375
-55.84716796875
-43.9453125
-43.02978515625
-46.69189453125
-48.52294921875
-51.26953125
-54.931640625
-51.26953125
-46.69189453125
-39.36767578125
-35.70556640625
-33.87451171875
-36.62109375
-37.53662109375
-28.38134765625
-25.634765625
-16.4794921875
-13.73291015625
-21.05712890625
-24.71923828125
-16.4794921875
-14.6484375
-31.1279296875
-32.04345703125
-23.8037109375
-23.8037109375
-19.22607421875
-8.23974609375
-13.73291015625
-21.05712890625
-20.1416015625
-23.8037109375
-26.55029296875
-31.1279296875
-46.69189453125
-54.931640625
-67.7490234375
-76.904296875
-80.56640625
-78.7353515625
-77.81982421875
-78.7353515625
-83.31298828125
-80.56640625
-86.0595703125
-81.48193359375
-84.228515625
-89.7216796875
-93.3837890625
-90.63720703125
-90.63720703125
-90.63720703125
-95.21484375
-91.552734375
-92.46826171875
-93.3837890625
-88.80615234375
-83.31298828125
-90.63720703125
-92.46826171875
-86.97509765625
-89.7216796875
-91.552734375
-86.97509765625
-86.97509765625
-87.890625
-91.552734375
-86.0595703125
-90.63720703125
-94.29931640625
-90.63720703125
-97.96142578125
-97.96142578125
-91.552734375
-86.97509765625
-85.14404296875
-84.228515625
-96.13037109375
-93.3837890625
-94.29931640625
-91.552734375
-89.7216796875
-95.21484375
-98.876953125
-96.13037109375
-86.0595703125
-75.98876953125
-86.0595703125
-90.63720703125
-87.890625
-95.21484375
-97.0458984375
-101.62353515625
-87.890625
-81.48193359375
-67.7490234375
-46.69189453125
-9.1552734375
62.255859375
155.6396484375
271.91162109375
415.6494140625
604.248046875
775.45166015625
888.97705078125
896.30126953125
760.80322265625
581.35986328125
390.93017578125
254.5166015625
125.42724609375
-37.53662109375
-150.146484375
-186.767578125
-190.4296875
-184.02099609375
-195.00732421875
-197.75390625
-175.78125
-136.41357421875
-110.77880859375
-94.29931640625
-81.48193359375
-56.7626953125
-52.18505859375
-45.7763671875
-37.53662109375
-37.53662109375
-42.1142578125
-38.4521484375
-41.19873046875
-47.607421875
-51.26953125
-40.283203125
-43.9453125
-40.283203125
-34.7900390625
-42.1142578125
-48.52294921875
-43.02978515625
-41.19873046875
-32.04345703125
-32.958984375
-37.53662109375
-29.296875
-44.86083984375
-46.69189453125
-37.53662109375
-32.04345703125
-38.4521484375
-40.283203125
-41.19873046875
-24.71923828125
-21.05712890625
-22.88818359375
-24.71923828125
-25.634765625
-22.88818359375
-20.1416015625
-21.05712890625
-26.55029296875
-19.22607421875
-22.88818359375
-23.8037109375
-11.90185546875
-10.07080078125
-7.32421875
-7.32421875
-15.56396484375
-10.07080078125
-2.74658203125
1.8310546875
2.74658203125
3.662109375
3.662109375
6.40869140625
9.1552734375
9.1552734375
10.986328125
19.22607421875
13.73291015625
17.39501953125
18.310546875
27.4658203125
29.296875
27.4658203125
35.70556640625
34.7900390625
34.7900390625
39.36767578125
42.1142578125
51.26953125
55.84716796875
43.9453125
40.283203125
54.931640625
58.59375
71.4111328125
68.66455078125
72.32666015625
75.98876953125
77.81982421875
83.31298828125
88.80615234375
92.46826171875
91.552734375
93.3837890625
109.86328125
113.525390625
121.76513671875
125.42724609375
134.58251953125
133.6669921875
142.822265625
146.484375
158.38623046875
156.55517578125
166.6259765625
176.69677734375
173.9501953125
179.443359375
188.5986328125
191.34521484375
196.83837890625
196.83837890625
204.16259765625
214.2333984375
214.2333984375
211.48681640625
216.97998046875
221.5576171875
221.5576171875
222.47314453125
219.7265625
215.14892578125
212.40234375
207.82470703125
203.2470703125
201.416015625
189.51416015625
179.443359375
162.9638671875
151.9775390625
142.822265625
134.58251953125
127.25830078125
102.5390625
97.96142578125
86.97509765625
74.15771484375
57.67822265625
53.1005859375
46.69189453125
35.70556640625
24.71923828125
14.6484375
12.8173828125
5.4931640625
4.57763671875
-5.4931640625
-7.32421875
-14.6484375
-19.22607421875
-18.310546875
-27.4658203125
-32.958984375
-35.70556640625
-39.36767578125
-43.9453125
-42.1142578125
-43.9453125
-50.35400390625
-47.607421875
-49.4384765625
-50.35400390625
-43.9453125
-44.86083984375
-49.4384765625
-53.1005859375
-49.4384765625
-52.18505859375
-54.931640625
-54.931640625
-54.931640625
-59.50927734375
-57.67822265625
-54.931640625
-52.18505859375
-55.84716796875
-56.7626953125
-54.01611328125
-58.59375
-54.01611328125
-50.35400390625
-57.67822265625
-61.34033203125
-60.4248046875
-65.00244140625
-64.0869140625
-65.00244140625
-59.50927734375
-54.01611328125
-50.35400390625
-54.01611328125
-53.1005859375
-59.50927734375
-59.50927734375
-56.7626953125
-56.7626953125
-60.4248046875
-62.255859375
-55.84716796875
-57.67822265625
-49.4384765625
-54.01611328125
-54.01611328125
-53.1005859375
-54.01611328125
-53.1005859375
-53.1005859375
-52.18505859375
-48.52294921875
-51.26953125
-51.26953125
-48.52294921875
-45.7763671875
-40.283203125
-45.7763671875
-45.7763671875
-39.36767578125
-43.02978515625
-37.53662109375
-31.1279296875
-32.04345703125
-36.62109375
-43.9453125
-45.7763671875
-43.9453125
-37.53662109375
-38.4521484375
-38.4521484375
-37.53662109375
-35.70556640625
-37.53662109375
-33.87451171875
-37.53662109375
-42.1142578125
-39.36767578125
-43.02978515625
-50.35400390625
-39.36767578125
-42.1142578125
-36.62109375
-41.19873046875
-46.69189453125
-48.52294921875
-47.607421875
-44.86083984375
-48.52294921875
-48.52294921875
-45.7763671875
-46.69189453125
-53.1005859375
-45.7763671875
-46.69189453125
-50.35400390625
-45.7763671875
-46.69189453125
-53.1005859375
-49.4384765625
-44.86083984375
-49.4384765625
-55.84716796875
-44.86083984375
-50.35400390625
-51.26953125
-49.4384765625
-48.52294921875
-54.01611328125
-54.931640625
-48.52294921875
-49.4384765625
-50.35400390625
-51.26953125
-56.7626953125
-54.931640625
-53.1005859375
-57.67822265625
-62.255859375
-59.50927734375
-62.255859375
-60.4248046875
-56.7626953125
-61.34033203125
-64.0869140625
-59.50927734375
-57.67822265625
-64.0869140625
-65.00244140625
-63.17138671875
-65.91796875
-73.2421875
-62.255859375
-63.17138671875
-65.91796875
-65.00244140625
-65.00244140625
-57.67822265625
-62.255859375
-65.00244140625
-62.255859375
-55.84716796875
-52.18505859375
-54.01611328125
-43.02978515625
-35.70556640625
-36.62109375
-43.9453125
-37.53662109375
-41.19873046875
-38.4521484375
-43.02978515625
-35.70556640625
-31.1279296875
-24.71923828125
-15.56396484375
-20.1416015625
-32.04345703125
-29.296875
-25.634765625
-13.73291015625
-3.662109375
2.74658203125
-7.32421875
-9.1552734375
-11.90185546875
-13.73291015625
-10.07080078125
-8.23974609375
-6.40869140625
0
-1.8310546875
1.8310546875
6.40869140625
0.91552734375
-6.40869140625
-6.40869140625
-15.56396484375
-28.38134765625
-38.4521484375
-46.69189453125
-53.1005859375
-60.4248046875
-62.255859375
-72.32666015625
-75.0732421875
-72.32666015625
-82.3974609375
-88.80615234375
-81.48193359375
-73.2421875
-72.32666015625
-76.904296875
-76.904296875
-80.56640625
-78.7353515625
-72.32666015625
-79.65087890625
-87.890625
-77.81982421875
-82.3974609375
-83.31298828125
-75.98876953125
-84.228515625
-82.3974609375
-79.65087890625
-86.97509765625
-88.80615234375
-90.63720703125
-91.552734375
-90.63720703125
-79.65087890625
-82.3974609375
-87.890625
-87.890625
-87.890625
-85.14404296875
-87.890625
-87.890625
-91.552734375
-88.80615234375
-85.14404296875
-80.56640625
-86.0595703125
-87.890625
-89.7216796875
-87.890625
-97.0458984375
-87.890625
-79.65087890625
-83.31298828125
-85.14404296875
-84.228515625
-87.890625
-86.0595703125
-87.890625
-92.46826171875
-86.97509765625
-78.7353515625
-65.91796875
-54.01611328125
-31.1279296875
-14.6484375
43.02978515625
113.525390625
216.97998046875
346.98486328125
514.5263671875
692.138671875
817.56591796875
888.97705078125
791.015625
622.55859375
422.05810546875
270.99609375
151.9775390625
10.986328125
-142.822265625
-187.68310546875
-202.33154296875
-190.4296875
-184.9365234375
-198.66943359375
-181.2744140625
-153.80859375
-129.08935546875
-102.5390625
-90.63720703125
-78.7353515625
-65.00244140625
-53.1005859375
-42.1142578125
-47.607421875
-55.84716796875
-46.69189453125
-51.26953125
-54.01611328125
-53.1005859375
-50.35400390625
-53.1005859375
-55.84716796875
-54.931640625
-48.52294921875
-53.1005859375
-54.931640625
-47.607421875
-46.69189453125
-47.607421875
-49.4384765625
-43.02978515625
-40.283203125
-43.9453125
-43.9453125
-46.69189453125
-40.283203125
-42.1142578125
-44.86083984375
-37.53662109375
-34.7900390625
-35.70556640625
-28.38134765625
-32.04345703125
-32.04345703125
-29.296875
-32.958984375
-31.1279296875
-28.38134765625
-32.958984375
-27.4658203125
-22.88818359375
-22.88818359375
-27.4658203125
-17.39501953125
-16.4794921875
-20.1416015625
-17.39501953125
-15.56396484375
-12.8173828125
-13.73291015625
-13.73291015625
-10.07080078125
-8.23974609375
-16.4794921875
-11.90185546875
1.8310546875
2.74658203125
9.1552734375
1.8310546875
2.74658203125
2.74658203125
8.23974609375
11.90185546875
14.6484375
14.6484375
14.6484375
19.22607421875
23.8037109375
25.634765625
29.296875
28.38134765625
32.958984375
43.02978515625
43.9453125
46.69189453125
48.52294921875
50.35400390625
57.67822265625
60.4248046875
64.0869140625
67.7490234375
73.2421875
78.7353515625
85.14404296875
95.21484375
99.79248046875
107.11669921875
106.201171875
106.201171875
114.44091796875
122.6806640625
127.25830078125
130.92041015625
137.3291015625
141.90673828125
144.6533203125
151.06201171875
154.72412109375
162.9638671875
154.72412109375
157.470703125
173.9501953125
179.443359375
175.78125
177.6123046875
178.52783203125
176.69677734375
173.9501953125
183.10546875
179.443359375
169.37255859375
166.6259765625
169.37255859375
163.87939453125
154.72412109375
151.9775390625
136.41357421875
126.3427734375
116.27197265625
106.201171875
97.0458984375
86.0595703125
80.56640625
70.49560546875
53.1005859375
49.4384765625
34.7900390625
25.634765625
16.4794921875
6.40869140625
-0.91552734375
-10.986328125
-9.1552734375
-13.73291015625
-23.8037109375
-32.958984375
-38.4521484375
-43.02978515625
-48.52294921875
-50.35400390625
-50.35400390625
-58.59375
-62.255859375
-65.91796875
-61.34033203125
-69.580078125
-76.904296875
-70.49560546875
-74.15771484375
-79.65087890625
-77.81982421875
-75.0732421875
-75.0732421875
-88.80615234375
-89.7216796875
-78.7353515625
-77.81982421875
-77.81982421875
-86.0595703125
-85.14404296875
-81.48193359375
-86.0595703125
-94.29931640625
-90.63720703125
-89.7216796875
-84.228515625
-84.228515625
-89.7216796875
-90.63720703125
-86.97509765625
-87.890625
-88.80615234375
-82.3974609375
-86.0595703125
-87.890625
-91.552734375
-92.46826171875
-90.63720703125
-92.46826171875
-85.14404296875
-86.0595703125
-85.14404296875
-79.65087890625
-87.890625
-88.80615234375
-79.65087890625
-79.65087890625
-81.48193359375
-81.48193359375
-83.31298828125
-79.65087890625
-78.7353515625
-84.228515625
-78.7353515625
-68.66455078125
-70.49560546875
-72.32666015625
-64.0869140625
-64.0869140625
-68.66455078125
-70.49560546875
-71.4111328125
-65.91796875
-67.7490234375
-61.34033203125
-63.17138671875
-60.4248046875
-65.00244140625
-61.34033203125
-64.0869140625
-68.66455078125
-60.4248046875
-59.50927734375
-55.84716796875
-56.7626953125
-60.4248046875
-64.0869140625
-56.7626953125
-55.84716796875
-64.0869140625
-65.00244140625
-57.67822265625
-61.34033203125
-62.255859375
-65.00244140625
-66.83349609375
-65.00244140625
-65.91796875
-64.0869140625
-64.0869140625
-64.0869140625
-66.83349609375
-65.00244140625
-69.580078125
-66.83349609375
-71.4111328125
-69.580078125
-65.00244140625
-70.49560546875
-75.0732421875
-65.00244140625
-68.66455078125
-75.98876953125
-76.904296875
-71.4111328125
-75.98876953125
-69.580078125
-71.4111328125
-78.7353515625
-77.81982421875
-70.49560546875
-73.2421875
-77.81982421875
-78.7353515625
-74.15771484375
-73.2421875
-79.65087890625
-78.7353515625
-73.2421875
-69.580078125
-74.15771484375
-79.65087890625
-71.4111328125
-71.4111328125
-80.56640625
-86.0595703125
-77.81982421875
-72.32666015625
-74.15771484375
-74.15771484375
-74.15771484375
-78.7353515625
-79.65087890625
-80.56640625
-72.32666015625
-70.49560546875
-73.2421875
-75.98876953125
-79.65087890625
-78.7353515625
-75.98876953125
-76.904296875
-77.81982421875
-75.0732421875
-77.81982421875
-74.15771484375
-73.2421875
-73.2421875
-70.49560546875
-79.65087890625
-83.31298828125
-78.7353515625
-78.7353515625
-78.7353515625
-75.98876953125
-80.56640625
-80.56640625
-82.3974609375
-84.228515625
-85.14404296875
-83.31298828125
-84.228515625
-75.98876953125
-88.80615234375
-86.97509765625
-77.81982421875
-79.65087890625
-79.65087890625
-86.97509765625
-83.31298828125
-80.56640625
-81.48193359375
-81.48193359375
-82.3974609375
-78.7353515625
-84.228515625
-82.3974609375
-83.31298828125
-84.228515625
-82.3974609375
-79.65087890625
-79.65087890625
-77.81982421875
-73.2421875
-71.4111328125
-70.49560546875
-67.7490234375
-61.34033203125
-49.4384765625
-42.1142578125
-40.283203125
-43.9453125
-45.7763671875
-42.1142578125
-43.9453125
-45.7763671875
-42.1142578125
-39.36767578125
-39.36767578125
-43.9453125
-41.19873046875
-33.87451171875
-33.87451171875
-26.55029296875
-16.4794921875
-24.71923828125
-27.4658203125
-23.8037109375
-37.53662109375
-32.04345703125
-28.38134765625
-25.634765625
-20.1416015625
-22.88818359375
-31.1279296875
-26.55029296875
-24.71923828125
-28.38134765625
-28.38134765625
-20.1416015625
-33.87451171875
-47.607421875
-58.59375
-67.7490234375
-85.14404296875
-94.29931640625
-93.3837890625
-82.3974609375
-86.97509765625
-96.13037109375
-89.7216796875
-90.63720703125
-102.5390625
-100.7080078125
-100.7080078125
-104.3701171875
-101.62353515625
-102.5390625
-109.86328125
-111.6943359375
-101.62353515625
-104.3701171875
-102.5390625
-97.96142578125
-98.876953125
-108.94775390625
-111.6943359375
-108.94775390625
-110.77880859375
-108.94775390625
-109.86328125
-114.44091796875
-109.86328125
-107.11669921875
-103.45458984375
-105.28564453125
-115.3564453125
-114.44091796875
-116.27197265625
-110.77880859375
-114.44091796875
-113.525390625
-113.525390625
-108.94775390625
-105.28564453125
-112.60986328125
-114.44091796875
-111.6943359375
-116.27197265625
-117.1875
-107.11669921875
-112.60986328125
-108.0322265625
-107.11669921875
-107.11669921875
-107.11669921875
-107.11669921875
-98.876953125
-94.29931640625
-86.0595703125
-64.0869140625
-47.607421875
-10.986328125
19.22607421875
74.15771484375
172.119140625
277.40478515625
425.72021484375
619.81201171875
831.298828125
979.6142578125
1065.673828125
991.51611328125
795.59326171875
563.96484375
370.78857421875
236.2060546875
98.876953125
-62.255859375
-149.23095703125
-185.85205078125
-187.68310546875
-187.68310546875
-177.6123046875
-149.23095703125
-124.51171875
-90.63720703125
-73.2421875
-61.34033203125
-48.52294921875
-53.1005859375
-50.35400390625
-60.4248046875
-60.4248046875
-67.7490234375
-76.904296875
-67.7490234375
-67.7490234375
-72.32666015625
-75.0732421875
-67.7490234375
-71.4111328125
-69.580078125
-66.83349609375
-67.7490234375
-69.580078125
-65.00244140625
-72.32666015625
-66.83349609375
-65.91796875
-62.255859375
-68.66455078125
-64.0869140625
-60.4248046875
-62.255859375
-61.34033203125
-60.4248046875
-56.7626953125
-54.01611328125
-56.7626953125
-56.7626953125
-54.931640625
-51.26953125
-52.18505859375
-46.69189453125
-43.02978515625
-43.9453125
-46.69189453125
-45.7763671875
-46.69189453125
-43.02978515625
-36.62109375
-34.7900390625
-38.4521484375
-40.283203125
-43.9453125
-33.87451171875
-33.87451171875
-29.296875
-24.71923828125
-25.634765625
-21.05712890625
-25.634765625
-21.05712890625
-10.07080078125
-13.73291015625
-19.22607421875
-20.1416015625
-13.73291015625
-12.8173828125
-15.56396484375
-10.07080078125
-10.07080078125
-10.986328125
-2.74658203125
-1.8310546875
1.8310546875
4.57763671875
0
3.662109375
3.662109375
11.90185546875
16.4794921875
22.88818359375
23.8037109375
28.38134765625
33.87451171875
37.53662109375
37.53662109375
51.26953125
56.7626953125
56.7626953125
56.7626953125
65.00244140625
66.83349609375
69.580078125
78.7353515625
86.0595703125
100.7080078125
97.0458984375
108.94775390625
114.44091796875
112.60986328125
116.27197265625
126.3427734375
139.16015625
130.0048828125
140.9912109375
147.39990234375
146.484375
147.39990234375
156.55517578125
160.21728515625
172.119140625
166.6259765625
167.54150390625
168.45703125
170.2880859375
172.119140625
180.35888671875
183.10546875
170.2880859375
165.71044921875
163.87939453125
158.38623046875
151.9775390625
142.822265625
136.41357421875
128.173828125
121.76513671875
113.525390625
104.3701171875
90.63720703125
80.56640625
71.4111328125
51.26953125
47.607421875
39.36767578125
30.21240234375
17.39501953125
14.6484375
0
-4.57763671875
-13.73291015625
-24.71923828125
-29.296875
-33.87451171875
-41.19873046875
-42.1142578125
-43.02978515625
-40.283203125
-51.26953125
-54.931640625
-52.18505859375
-60.4248046875
-52.18505859375
-58.59375
-63.17138671875
-58.59375
-62.255859375
-62.255859375
-69.580078125
-69.580078125
-68.66455078125
-65.91796875
-73.2421875
-66.83349609375
-65.91796875
-69.580078125
-73.2421875
-71.4111328125
-75.0732421875
-72.32666015625
-74.15771484375
-73.2421875
-75.0732421875
-77.81982421875
-75.98876953125
-78.7353515625
-77.81982421875
-74.15771484375
-77.81982421875
-76.904296875
-69.580078125
-75.0732421875
-81.48193359375
-73.2421875
-69.580078125
-79.65087890625
-75.0732421875
-70.49560546875
-74.15771484375
-77.81982421875
-68.66455078125
-71.4111328125
-76.904296875
-73.2421875
-74.15771484375
-73.2421875
-68.66455078125
-67.7490234375
-62.255859375
-58.59375
-61.34033203125
-68.66455078125
-63.17138671875
-64.0869140625
-63.17138671875
-65.00244140625
-61.34033203125
-62.255859375
-60.4248046875
-66.83349609375
-59.50927734375
-54.931640625
-65.00244140625
-61.34033203125
-60.4248046875
-59.50927734375
-58.59375
-54.931640625
-57.67822265625
-59.50927734375
-52.18505859375
-55.84716796875
-55.84716796875
-61.34033203125
-62.255859375
-55.84716796875
-54.01611328125
-56.7626953125
-51.26953125
-56.7626953125
-57.67822265625
-55.84716796875
-59.50927734375
-54.01611328125
-47.607421875
-50.35400390625
-49.4384765625
-48.52294921875
-54.931640625
-54.931640625
-52.18505859375
-53.1005859375
-53.1005859375
-56.7626953125
-57.67822265625
-58.59375
-54.931640625
-56.7626953125
-53.1005859375
-52.18505859375
-55.84716796875
-57.67822265625
-56.7626953125
-56.7626953125
-59.50927734375
-60.4248046875
-60.4248046875
-63.17138671875
-66.83349609375
-67.7490234375
-69.580078125
-67.7490234375
-69.580078125
-65.00244140625
-57.67822265625
-56.7626953125
-62.255859375
-65.00244140625
-59.50927734375
-55.84716796875
-61.34033203125
-70.49560546875
-69.580078125
-62.255859375
-64.0869140625
-60.4248046875
-63.17138671875
-58.59375
-63.17138671875
-61.34033203125
-65.91796875
-67.7490234375
-58.59375
-59.50927734375
-59.50927734375
-66.83349609375
-71.4111328125
-65.91796875
-60.4248046875
-61.34033203125
-66.83349609375
-54.931640625
-54.01611328125
-59.50927734375
-64.0869140625
-63.17138671875
-52.18505859375
-56.7626953125
-66.83349609375
-61.34033203125
-61.34033203125
-54.931640625
-54.931640625
-56.7626953125
-61.34033203125
-65.00244140625
-61.34033203125
-58.59375
-59.50927734375
-54.931640625
-55.84716796875
-65.00244140625
-60.4248046875
-53.1005859375
-47.607421875
-43.02978515625
-37.53662109375
-33.87451171875
-32.04345703125
-24.71923828125
-25.634765625
-33.87451171875
-33.87451171875
-32.04345703125
-38.4521484375
-41.19873046875
-27.4658203125
-19.22607421875
-21.05712890625
-24.71923828125
-21.97265625
-10.986328125
1.8310546875
-0.91552734375
-3.662109375
-0.91552734375
-0.91552734375
-8.23974609375
-14.6484375
-11.90185546875
-2.74658203125
1.8310546875
5.4931640625
5.4931640625
2.74658203125
2.74658203125
-2.74658203125
-6.40869140625
-8.23974609375
-16.4794921875
-30.21240234375
-35.70556640625
-49.4384765625
-54.931640625
-64.0869140625
-69.580078125
-65.00244140625
-64.0869140625
-61.34033203125
-67.7490234375
-63.17138671875
-60.4248046875
-63.17138671875
-62.255859375
-75.98876953125
-75.98876953125
-79.65087890625
-80.56640625
-65.91796875
-71.4111328125
-75.98876953125
-82.3974609375
-87.890625
-73.2421875
-86.0595703125
-89.7216796875
-86.0595703125
-75.98876953125
-73.2421875
-74.15771484375
-77.81982421875
-76.904296875
-75.0732421875
-75.98876953125
-70.49560546875
-75.0732421875
-75.0732421875
-80.56640625
-75.0732421875
-80.56640625
-78.7353515625
-77.81982421875
-76.904296875
-68.66455078125
-75.98876953125
-78.7353515625
-74.15771484375
-73.2421875
-68.66455078125
-71.4111328125
-71.4111328125
-77.81982421875
-83.31298828125
-78.7353515625
-70.49560546875
-70.49560546875
-79.65087890625
-78.7353515625
-76.904296875
-55.84716796875
-44.86083984375
-25.634765625
-7.32421875
50.35400390625
127.25830078125
216.064453125
343.32275390625
508.11767578125
697.6318359375
830.38330078125
911.865234375
845.03173828125
680.23681640625
485.2294921875
324.0966796875
192.2607421875
54.01611328125
-101.62353515625
-173.03466796875
-181.2744140625
-172.119140625
-168.45703125
-179.443359375
-170.2880859375
-144.6533203125
-115.3564453125
-96.13037109375
-84.228515625
-62.255859375
-49.4384765625
-43.02978515625
-32.04345703125
-32.958984375
-32.04345703125
-35.70556640625
-32.958984375
-26.55029296875
-23.8037109375
-32.958984375
-24.71923828125
-22.88818359375
-27.4658203125
-25.634765625
-24.71923828125
-26.55029296875
-36.62109375
-34.7900390625
-30.21240234375
-35.70556640625
-32.958984375
-32.04345703125
-33.87451171875
-28.38134765625
-25.634765625
-19.22607421875
-21.97265625
-16.4794921875
-22.88818359375
-23.8037109375
-23.8037109375
-22.88818359375
-21.05712890625
-16.4794921875
-13.73291015625
-16.4794921875
-13.73291015625
-13.73291015625
-10.986328125
-5.4931640625
-7.32421875
-8.23974609375
-0.91552734375
-0.91552734375
0
0.91552734375
0.91552734375
-1.8310546875
2.74658203125
3.662109375
10.07080078125
15.56396484375
19.22607421875
15.56396484375
7.32421875
13.73291015625
12.8173828125
15.56396484375
22.88818359375
24.71923828125
26.55029296875
23.8037109375
26.55029296875
32.958984375
32.04345703125
33.87451171875
43.02978515625
48.52294921875
52.18505859375
54.931640625
58.59375
58.59375
63.17138671875
65.00244140625
70.49560546875
65.91796875
69.580078125
81.48193359375
80.56640625
89.7216796875
94.29931640625
95.21484375
105.28564453125
107.11669921875
116.27197265625
122.6806640625
119.93408203125
126.3427734375
135.498046875
142.822265625
148.3154296875
155.6396484375
162.9638671875
170.2880859375
175.78125
176.69677734375
182.18994140625
179.443359375
201.416015625
196.83837890625
201.416015625
202.33154296875
210.5712890625
207.82470703125
208.740234375
212.40234375
216.064453125
220.64208984375
219.7265625
220.64208984375
215.14892578125
214.2333984375
212.40234375
199.5849609375
191.34521484375
191.34521484375
180.35888671875
164.794921875
157.470703125
148.3154296875
131.8359375
128.173828125
116.27197265625
109.86328125
99.79248046875
86.0595703125
71.4111328125
63.17138671875
57.67822265625
54.01611328125
43.02978515625
29.296875
17.39501953125
14.6484375
9.1552734375
2.74658203125
-1.8310546875
-6.40869140625
-14.6484375
-22.88818359375
-21.97265625
-22.88818359375
-18.310546875
-23.8037109375
-33.87451171875
-43.02978515625
-45.7763671875
-43.02978515625
-42.1142578125
-40.283203125
-46.69189453125
-42.1142578125
-43.02978515625
-50.35400390625
-35.70556640625
-36.62109375
-40.283203125
-45.7763671875
-41.19873046875
-43.9453125
-46.69189453125
-55.84716796875
-54.931640625
-55.84716796875
-53.1005859375
-53.1005859375
-58.59375
-53.1005859375
-54.931640625
-50.35400390625
-51.26953125
-50.35400390625
-50.35400390625
-55.84716796875
-55.84716796875
-55.84716796875
-58.59375
-55.84716796875
-53.1005859375
-53.1005859375
-50.35400390625
-50.35400390625
-53.1005859375
-49.4384765625
-53.1005859375
-46.69189453125
-47.607421875
-54.01611328125
-54.01611328125
-52.18505859375
-44.86083984375
-45.7763671875
-45.7763671875
-44.86083984375
-41.19873046875
-42.1142578125
-44.86083984375
-44.86083984375
-35.70556640625
-37.53662109375
-41.19873046875
-35.70556640625
-32.04345703125
-34.7900390625
-23.8037109375
-28.38134765625
-38.4521484375
-43.02978515625
-41.19873046875
-28.38134765625
-35.70556640625
-32.04345703125
-30.21240234375
-32.958984375
-32.04345703125
-35.70556640625
-33.87451171875
-35.70556640625
-34.7900390625
-31.1279296875
-22.88818359375
-24.71923828125
-29.296875
-33.87451171875
-35.70556640625
-31.1279296875
-34.7900390625
-35.70556640625
-34.7900390625
-32.958984375
-35.70556640625
-32.04345703125
-35.70556640625
-44.86083984375
-40.283203125
-42.1142578125
-43.9453125
-38.4521484375
-43.02978515625
-45.7763671875
-32.04345703125
-23.8037109375
-37.53662109375
-36.62109375
-36.62109375
-31.1279296875
-41.19873046875
-44.86083984375
-37.53662109375
-46.69189453125
-41.19873046875
-34.7900390625
-35.70556640625
-37.53662109375
-33.87451171875
-32.04345703125
-33.87451171875
-28.38134765625
-26.55029296875
-24.71923828125
-39.36767578125
-37.53662109375
-41.19873046875
-43.9453125
-45.7763671875
-40.283203125
-42.1142578125
-42.1142578125
-45.7763671875
-43.02978515625
-39.36767578125
-43.02978515625
-45.7763671875
-48.52294921875
-44.86083984375
-36.62109375
-42.1142578125
-50.35400390625
-41.19873046875
-37.53662109375
-39.36767578125
-44.86083984375
-30.21240234375
-20.1416015625
-14.6484375
-8.23974609375
-16.4794921875
-19.22607421875
-21.97265625
-22.88818359375
-19.22607421875
-12.8173828125
-13.73291015625
-9.1552734375
-6.40869140625
-12.8173828125
-3.662109375
0.91552734375
4.57763671875
16.4794921875
18.310546875
23.8037109375
21.97265625
13.73291015625
0.91552734375
1.8310546875
6.40869140625
14.6484375
21.97265625
21.05712890625
22.88818359375
24.71923828125
14.6484375
17.39501953125
15.56396484375
6.40869140625
-1.8310546875
-12.8173828125
-21.05712890625
-30.21240234375
-35.70556640625
-32.958984375
-37.53662109375
-41.19873046875
-45.7763671875
-48.52294921875
-56.7626953125
-60.4248046875
-57.67822265625
-55.84716796875
-61.34033203125
-65.00244140625
-68.66455078125
-62.255859375
-60.4248046875
-63.17138671875
-64.0869140625
-58.59375
-62.255859375
-63.17138671875
-65.00244140625
-57.67822265625
-59.50927734375
-63.17138671875
-58.59375
-65.91796875
-69.580078125
-67.7490234375
-57.67822265625
-59.50927734375
-63.17138671875
-66.83349609375
-72.32666015625
-66.83349609375
-54.931640625
-64.0869140625
-65.91796875
-68.66455078125
-64.0869140625
-65.91796875
-63.17138671875
-60.4248046875
-60.4248046875
-55.84716796875
-64.0869140625
-65.00244140625
-62.255859375
-65.00244140625
-65.91796875
-64.0869140625
-71.4111328125
-63.17138671875
-65.00244140625
-72.32666015625
-72.32666015625
-63.17138671875
-54.01611328125
-40.283203125
-38.4521484375
-11.90185546875
45.7763671875
121.76513671875
219.7265625
346.0693359375
509.033203125
678.40576171875
798.33984375
860.595703125
763.5498046875
600.5859375
401.91650390625
255.43212890625
142.822265625
21.97265625
-115.3564453125
-172.119140625
-173.9501953125
-156.55517578125
-153.80859375
-164.794921875
-159.3017578125
-136.41357421875
-99.79248046875
-76.904296875
-69.580078125
-57.67822265625
-47.607421875
-36.62109375
-24.71923828125
-16.4794921875
-13.73291015625
-17.39501953125
-28.38134765625
-19.22607421875
-20.1416015625
-15.56396484375
-21.05712890625
-26.55029296875
-31.1279296875
-26.55029296875
-21.05712890625
-17.39501953125
-10.986328125
-15.56396484375
-17.39501953125
-21.97265625
-19.22607421875
-17.39501953125
-25.634765625
-21.05712890625
-16.4794921875
-16.4794921875
-13.73291015625
-6.40869140625
-9.1552734375
-5.4931640625
-3.662109375
-5.4931640625
-6.40869140625
-5.4931640625
2.74658203125
1.8310546875
3.662109375
6.40869140625
-0.91552734375
2.74658203125
1.8310546875
4.57763671875
13.73291015625
15.56396484375
17.39501953125
23.8037109375
21.97265625
18.310546875
20.1416015625
22.88818359375
20.1416015625
22.88818359375
28.38134765625
32.958984375
35.70556640625
31.1279296875
33.87451171875
31.1279296875
39.36767578125
34.7900390625
36.62109375
43.9453125
42.1142578125
48.52294921875
53.1005859375
55.84716796875
58.59375
58.59375
67.7490234375
65.00244140625
58.59375
67.7490234375
75.0732421875
73.2421875
80.56640625
91.552734375
99.79248046875
91.552734375
97.0458984375
97.96142578125
103.45458984375
110.77880859375
115.3564453125
119.93408203125
124.51171875
127.25830078125
134.58251953125
139.16015625
141.90673828125
148.3154296875
153.80859375
160.21728515625
170.2880859375
170.2880859375
178.52783203125
186.767578125
192.2607421875
195.9228515625
198.66943359375
199.5849609375
198.66943359375
208.740234375
213.31787109375
218.81103515625
220.64208984375
224.30419921875
216.97998046875
218.81103515625
220.64208984375
215.14892578125
211.48681640625
209.65576171875
209.65576171875
208.740234375
193.17626953125
186.767578125
179.443359375
170.2880859375
155.6396484375
154.72412109375
140.07568359375
130.0048828125
122.6806640625
110.77880859375
100.7080078125
92.46826171875
80.56640625
73.2421875
60.4248046875
45.7763671875
42.1142578125
32.958984375
23.8037109375
20.1416015625
14.6484375
7.32421875
1.8310546875
-2.74658203125
-8.23974609375
-11.90185546875
-11.90185546875
-4.57763671875
-16.4794921875
-21.05712890625
-22.88818359375
-23.8037109375
-22.88818359375
-30.21240234375
-30.21240234375
-32.04345703125
-34.7900390625
-30.21240234375
-34.7900390625
-42.1142578125
-41.19873046875
-42.1142578125
-43.9453125
-43.02978515625
-45.7763671875
-47.607421875
-54.931640625
-54.01611328125
-47.607421875
-45.7763671875
-47.607421875
-56.7626953125
-53.1005859375
-46.69189453125
-48.52294921875
-52.18505859375
-47.607421875
-52.18505859375
-54.01611328125
-54.01611328125
-47.607421875
-47.607421875
-46.69189453125
-44.86083984375
-40.283203125
-43.02978515625
-48.52294921875
-45.7763671875
-44.86083984375
-46.69189453125
-43.9453125
-43.9453125
-50.35400390625
-45.7763671875
-51.26953125
-48.52294921875
-42.1142578125
-43.02978515625
-42.1142578125
-43.02978515625
-37.53662109375
-37.53662109375
-43.9453125
-39.36767578125
-40.283203125
-38.4521484375
-38.4521484375
-38.4521484375
-39.36767578125
-30.21240234375
-25.634765625
-26.55029296875
-33.87451171875
-34.7900390625
-29.296875
-24.71923828125
-27.4658203125
-31.1279296875
-34.7900390625
-30.21240234375
-26.55029296875
-31.1279296875
-31.1279296875
-31.1279296875
-23.8037109375
-28.38134765625
-35.70556640625
-32.958984375
-34.7900390625
-30.21240234375
-29.296875
-33.87451171875
-32.04345703125
-38.4521484375
-33.87451171875
-42.1142578125
-43.9453125
-40.283203125
-36.62109375
-37.53662109375
-35.70556640625
-38.4521484375
-37.53662109375
-32.04345703125
-35.70556640625
-38.4521484375
-36.62109375
-35.70556640625
-39.36767578125
-37.53662109375
-37.53662109375
-46.69189453125
-45.7763671875
-46.69189453125
-43.9453125
-48.52294921875
-48.52294921875
-44.86083984375
-46.69189453125
-46.69189453125
-43.9453125
-38.4521484375
-40.283203125
-43.02978515625
-40.283203125
-39.36767578125
-39.36767578125
-39.36767578125
-40.283203125
-43.9453125
-44.86083984375
-38.4521484375
-44.86083984375
-45.7763671875
-43.9453125
-42.1142578125
-44.86083984375
-49.4384765625
-52.18505859375
-46.69189453125
-49.4384765625
-47.607421875
-48.52294921875
-52.18505859375
-50.35400390625
-55.84716796875
-52.18505859375
-54.931640625
-48.52294921875
-51.26953125
-52.18505859375
-49.4384765625
-46.69189453125
-43.9453125
-43.9453125
-51.26953125
-55.84716796875
-56.7626953125
-54.931640625
-50.35400390625
-51.26953125
-47.607421875
-43.02978515625
-45.7763671875
-39.36767578125
-32.958984375
-25.634765625
-21.05712890625
-20.1416015625
-16.4794921875
-23.8037109375
-21.05712890625
-17.39501953125
-21.05712890625
-18.310546875
-19.22607421875
-13.73291015625
-13.73291015625
-20.1416015625
-14.6484375
-5.4931640625
1.8310546875
3.662109375
3.662109375
-0.91552734375
-5.4931640625
-6.40869140625
-5.4931640625
-1.8310546875
0
7.32421875
-0.91552734375
-1.8310546875
-0.91552734375
-7.32421875
-1.8310546875
-4.57763671875
-0.91552734375
-4.57763671875
-15.56396484375
-21.97265625
-28.38134765625
-42.1142578125
-52.18505859375
-58.59375
-62.255859375
-59.50927734375
-63.17138671875
-66.83349609375
-70.49560546875
-69.580078125
-72.32666015625
-73.2421875
-74.15771484375
-74.15771484375
-75.98876953125
-84.228515625
-81.48193359375
-81.48193359375
-86.97509765625
-78.7353515625
-72.32666015625
-72.32666015625
-74.15771484375
-79.65087890625
-82.3974609375
-85.14404296875
-84.228515625
-82.3974609375
-83.31298828125
-83.31298828125
-76.904296875
-84.228515625
-86.0595703125
-86.97509765625
-84.228515625
-86.97509765625
-93.3837890625
-88.80615234375
-82.3974609375
-89.7216796875
-85.14404296875
-82.3974609375
-85.14404296875
-88.80615234375
-82.3974609375
-74.15771484375
-78.7353515625
-92.46826171875
-85.14404296875
-85.14404296875
-86.0595703125
-83.31298828125
-86.0595703125
-86.97509765625
-78.7353515625
-75.0732421875
-75.98876953125
-57.67822265625
-37.53662109375
-10.986328125
15.56396484375
78.7353515625
175.78125
282.89794921875
427.55126953125
611.572265625
807.4951171875
953.06396484375
1033.63037109375
949.40185546875
769.95849609375
543.8232421875
361.63330078125
221.5576171875
77.81982421875
-84.228515625
-143.73779296875
-168.45703125
-170.2880859375
-184.9365234375
-185.85205078125
-159.3017578125
-127.25830078125
-94.29931640625
-69.580078125
-62.255859375
-54.01611328125
-46.69189453125
-41.19873046875
-41.19873046875
-47.607421875
-54.01611328125
-52.18505859375
-45.7763671875
-50.35400390625
-54.01611328125
-56.7626953125
-55.84716796875
-49.4384765625
-55.84716796875
-62.255859375
-51.26953125
-45.7763671875
-54.01611328125
-50.35400390625
-53.1005859375
-54.931640625
-55.84716796875
-45.7763671875
-42.1142578125
-47.607421875
-43.9453125
-43.9453125
-43.9453125
-43.9453125
-46.69189453125
-47.607421875
-41.19873046875
-35.70556640625
-39.36767578125
-37.53662109375
-39.36767578125
-35.70556640625
-36.62109375
-37.53662109375
-31.1279296875
-34.7900390625
-28.38134765625
-26.55029296875
-26.55029296875
-22.88818359375
-20.1416015625
-14.6484375
-21.97265625
-22.88818359375
-13.73291015625
-14.6484375
-15.56396484375
-16.4794921875
-12.8173828125
-11.90185546875
-10.986328125
-10.07080078125
-5.4931640625
-8.23974609375
-6.40869140625
-1.8310546875
0
3.662109375
7.32421875
13.73291015625
10.07080078125
19.22607421875
24.71923828125
18.310546875
19.22607421875
27.4658203125
28.38134765625
27.4658203125
35.70556640625
37.53662109375
40.283203125
44.86083984375
46.69189453125
48.52294921875
56.7626953125
59.50927734375
59.50927734375
66.83349609375
75.0732421875
81.48193359375
80.56640625
88.80615234375
94.29931640625
99.79248046875
108.0322265625
114.44091796875
121.76513671875
117.1875
120.849609375
129.08935546875
132.75146484375
139.16015625
146.484375
144.6533203125
146.484375
147.39990234375
159.3017578125
162.9638671875
165.71044921875
169.37255859375
169.37255859375
171.20361328125
172.119140625
171.20361328125
169.37255859375
169.37255859375
173.03466796875
169.37255859375
167.54150390625
160.21728515625
152.89306640625
148.3154296875
139.16015625
125.42724609375
124.51171875
116.27197265625
102.5390625
92.46826171875
83.31298828125
78.7353515625
66.83349609375
59.50927734375
44.86083984375
33.87451171875
22.88818359375
11.90185546875
6.40869140625
-2.74658203125
-1.8310546875
-7.32421875
-20.1416015625
-29.296875
-35.70556640625
-35.70556640625
-39.36767578125
-50.35400390625
-50.35400390625
-50.35400390625
-54.931640625
-61.34033203125
-63.17138671875
-61.34033203125
-66.83349609375
-68.66455078125
-69.580078125
-68.66455078125
-69.580078125
-68.66455078125
-75.98876953125
-79.65087890625
-78.7353515625
-71.4111328125
-69.580078125
-75.98876953125
-72.32666015625
-75.98876953125
-82.3974609375
-83.31298828125
-81.48193359375
-77.81982421875
-77.81982421875
-76.904296875
-77.81982421875
-76.904296875
-75.0732421875
-82.3974609375
-75.98876953125
-76.904296875
-81.48193359375
-77.81982421875
-81.48193359375
-81.48193359375
-82.3974609375
-84.228515625
-86.0595703125
-84.228515625
-78.7353515625
-72.32666015625
-73.2421875
-71.4111328125
-72.32666015625
-68.66455078125
-71.4111328125
-75.0732421875
-72.32666015625
-70.49560546875
-71.4111328125
-74.15771484375
-67.7490234375
-66.83349609375
-68.66455078125
-68.66455078125
-70.49560546875
-66.83349609375
-67.7490234375
-68.66455078125
-60.4248046875
-66.83349609375
-65.00244140625
-64.0869140625
-65.00244140625
-65.00244140625
-67.7490234375
-65.00244140625
-64.0869140625
-62.255859375
-57.67822265625
-58.59375
-59.50927734375
-58.59375
-62.255859375
-65.00244140625
-66.83349609375
-62.255859375
-61.34033203125
-61.34033203125
-58.59375
-64.0869140625
-54.01611328125
-56.7626953125
-56.7626953125
-61.34033203125
-61.34033203125
-57.67822265625
-60.4248046875
-64.0869140625
-59.50927734375
-64.0869140625
-62.255859375
-60.4248046875
-62.255859375
-65.00244140625
-64.0869140625
-66.83349609375
-65.91796875
-66.83349609375
-62.255859375
-68.66455078125
-70.49560546875
-72.32666015625
-71.4111328125
-65.91796875
-65.00244140625
-70.49560546875
-72.32666015625
-75.0732421875
-70.49560546875
-65.91796875
-68.66455078125
-66.83349609375
-67.7490234375
-66.83349609375
-73.2421875
-72.32666015625
-76.904296875
-67.7490234375
-75.0732421875
-77.81982421875
-70.49560546875
-77.81982421875
-75.0732421875
-82.3974609375
-84.228515625
-84.228515625
-84.228515625
-82.3974609375
-77.81982421875
-74.15771484375
-71.4111328125
-72.32666015625
-74.15771484375
-75.0732421875
-75.0732421875
-76.904296875
-79.65087890625
-81.48193359375
-79.65087890625
-78.7353515625
-77.81982421875
-80.56640625
-79.65087890625
-79.65087890625
-82.3974609375
-84.228515625
-76.904296875
-78.7353515625
-76.904296875
-74.15771484375
-77.81982421875
-75.98876953125
-74.15771484375
-71.4111328125
-79.65087890625
-78.7353515625
-75.98876953125
-70.49560546875
-78.7353515625
-65.91796875
-56.7626953125
-48.52294921875
-44.86083984375
-39.36767578125
-45.7763671875
-36.62109375
-35.70556640625
-46.69189453125
-46.69189453125
-44.86083984375
-40.283203125
-35.70556640625
-41.19873046875
-46.69189453125
-45.7763671875
-40.283203125
-37.53662109375
-28.38134765625
-25.634765625
-28.38134765625
-18.310546875
-20.1416015625
-30.21240234375
-32.958984375
-32.04345703125
-31.1279296875
-29.296875
-22.88818359375
-21.97265625
-22.88818359375
-25.634765625
-23.8037109375
-24.71923828125
-32.958984375
-33.87451171875
-43.9453125
-60.4248046875
-72.32666015625
-83.31298828125
-85.14404296875
-85.14404296875
-84.228515625
-87.890625
-89.7216796875
-90.63720703125
-97.96142578125
-107.11669921875
-107.11669921875
-103.45458984375
-103.45458984375
-108.94775390625
-106.201171875
-100.7080078125
-107.11669921875
-105.28564453125
-114.44091796875
-109.86328125
-112.60986328125
-116.27197265625
-104.3701171875
-116.27197265625
-119.0185546875
-113.525390625
-110.77880859375
-108.94775390625
-109.86328125
-113.525390625
-115.3564453125
-111.6943359375
-112.60986328125
-110.77880859375
-110.77880859375
-110.77880859375
-111.6943359375
-120.849609375
-117.1875
-115.3564453125
-119.0185546875
-117.1875
-117.1875
-114.44091796875
-109.86328125
-113.525390625
-107.11669921875
-108.94775390625
-110.77880859375
-107.11669921875
-108.94775390625
-113.525390625
-109.86328125
-98.876953125
-95.21484375
-97.0458984375
-84.228515625
-65.00244140625
-53.1005859375
-15.56396484375
22.88818359375
92.46826171875
202.33154296875
322.265625
486.14501953125
690.3076171875
877.0751953125
1018.98193359375
1071.1669921875
953.06396484375
734.2529296875
497.13134765625
325.927734375
195.9228515625
45.7763671875
-99.79248046875
-165.71044921875
-192.2607421875
-199.5849609375
-195.00732421875
-187.68310546875
-150.146484375
-108.94775390625
-89.7216796875
-71.4111328125
-58.59375
-47.607421875
-58.59375
-57.67822265625
-62.255859375
-63.17138671875
-62.255859375
-66.83349609375
-66.83349609375
-67.7490234375
-72.32666015625
-71.4111328125
-69.580078125
-68.66455078125
-67.7490234375
-65.91796875
-66.83349609375
-73.2421875
-70.49560546875
-63.17138671875
-64.0869140625
-67.7490234375
-67.7490234375
-68.66455078125
-60.4248046875
-59.50927734375
-63.17138671875
-59.50927734375
-56.7626953125
-54.931640625
-50.35400390625
-45.7763671875
-54.01611328125
-57.67822265625
-45.7763671875
-46.69189453125
-46.69189453125
-46.69189453125
-46.69189453125
-35.70556640625
-48.52294921875
-44.86083984375
-36.62109375
-39.36767578125
-41.19873046875
-43.9453125
-39.36767578125
-43.9453125
-42.1142578125
-36.62109375
-33.87451171875
-31.1279296875
-30.21240234375
-21.05712890625
-23.8037109375
-25.634765625
-22.88818359375
-19.22607421875
-15.56396484375
-13.73291015625
-9.1552734375
-9.1552734375
-7.32421875
-7.32421875
-6.40869140625
-0.91552734375
0
-0.91552734375
4.57763671875
8.23974609375
13.73291015625
12.8173828125
12.8173828125
16.4794921875
25.634765625
33.87451171875
32.04345703125
30.21240234375
33.87451171875
51.26953125
54.931640625
54.931640625
60.4248046875
56.7626953125
64.0869140625
71.4111328125
73.2421875
83.31298828125
90.63720703125
93.3837890625
99.79248046875
100.7080078125
106.201171875
113.525390625
121.76513671875
131.8359375
132.75146484375
137.3291015625
140.9912109375
147.39990234375
150.146484375
151.06201171875
154.72412109375
156.55517578125
165.71044921875
165.71044921875
165.71044921875
170.2880859375
186.767578125
187.68310546875
178.52783203125
175.78125
173.03466796875
166.6259765625
166.6259765625
162.04833984375
149.23095703125
148.3154296875
140.07568359375
123.59619140625
126.3427734375
113.525390625
92.46826171875
85.14404296875
77.81982421875
68.66455078125
57.67822265625
49.4384765625
29.296875
26.55029296875
15.56396484375
2.74658203125
-4.57763671875
-11.90185546875
-14.6484375
-22.88818359375
-30.21240234375
-40.283203125
-41.19873046875
-46.69189453125
-48.52294921875
-58.59375
-65.00244140625
-67.7490234375
-71.4111328125
-65.91796875
-69.580078125
-76.904296875
-74.15771484375
-72.32666015625
-69.580078125
-71.4111328125
-74.15771484375
-74.15771484375
-75.98876953125
-77.81982421875
-82.3974609375
-81.48193359375
-86.0595703125
-85.14404296875
-95.21484375
-75.0732421875
-73.2421875
-82.3974609375
-84.228515625
-81.48193359375
-79.65087890625
-82.3974609375
-87.890625
-87.890625
-76.904296875
-77.81982421875
-81.48193359375
-82.3974609375
-88.80615234375
-83.31298828125
-82.3974609375
-82.3974609375
-83.31298828125
-79.65087890625
-83.31298828125
-82.3974609375
-84.228515625
-86.0595703125
-88.80615234375
-84.228515625
-75.0732421875
-76.904296875
-77.81982421875
-79.65087890625
-83.31298828125
-79.65087890625
-78.7353515625
-78.7353515625
-79.65087890625
-74.15771484375
-75.0732421875
-71.4111328125
-72.32666015625
-76.904296875
-81.48193359375
-71.4111328125
-66.83349609375
-62.255859375
-59.50927734375
-61.34033203125
-59.50927734375
-68.66455078125
-64.0869140625
-62.255859375
-64.0869140625
-60.4248046875
-64.0869140625
-62.255859375
-65.91796875
-63.17138671875
-65.00244140625
-64.0869140625
-62.255859375
-54.931640625
-57.67822265625
-60.4248046875
-56.7626953125
-60.4248046875
-62.255859375
-60.4248046875
-59.50927734375
-62.255859375
-59.50927734375
-60.4248046875
-54.931640625
-48.52294921875
-64.0869140625
-64.0869140625
-58.59375
-54.931640625
-58.59375
-60.4248046875
-61.34033203125
-62.255859375
-60.4248046875
-60.4248046875
-64.0869140625
-69.580078125
-65.91796875
-59.50927734375
-63.17138671875
-65.91796875
-63.17138671875
-56.7626953125
-55.84716796875
-56.7626953125
-66.83349609375
-63.17138671875
-60.4248046875
-62.255859375
-65.91796875
-59.50927734375
-62.255859375
-62.255859375
-61.34033203125
-61.34033203125
-58.59375
-61.34033203125
-70.49560546875
-67.7490234375
-71.4111328125
-64.0869140625
-61.34033203125
-61.34033203125
-66.83349609375
-62.255859375
-59.50927734375
-67.7490234375
-68.66455078125
-73.2421875
-72.32666015625
-74.15771484375
-68.66455078125
-68.66455078125
-67.7490234375
-68.66455078125
-70.49560546875
-61.34033203125
-65.00244140625
-68.66455078125
-67.7490234375
-55.84716796875
-57.67822265625
-64.0869140625
-63.17138671875
-57.67822265625
-65.00244140625
-62.255859375
-65.91796875
-68.66455078125
-63.17138671875
-58.59375
-61.34033203125
-60.4248046875
-57.67822265625
-55.84716796875
-54.931640625
-54.931640625
-53.1005859375
-44.86083984375
-37.53662109375
-32.04345703125
-32.04345703125
-28.38134765625
-32.04345703125
-32.04345703125
-34.7900390625
-37.53662109375
-26.55029296875
-26.55029296875
-31.1279296875
-32.04345703125
-21.97265625
-19.22607421875
-10.986328125
-2.74658203125
-2.74658203125
-12.8173828125
-17.39501953125
-12.8173828125
-10.986328125
-14.6484375
-7.32421875
-8.23974609375
-6.40869140625
-0.91552734375
0
1.8310546875
-4.57763671875
-2.74658203125
-11.90185546875
-6.40869140625
-16.4794921875
-27.4658203125
-40.283203125
-54.01611328125
-56.7626953125
-63.17138671875
-65.00244140625
-57.67822265625
-65.00244140625
-61.34033203125
-70.49560546875
-71.4111328125
-69.580078125
-66.83349609375
-72.32666015625
-72.32666015625
-80.56640625
-76.904296875
-75.0732421875
-75.98876953125
-74.15771484375
-78.7353515625
-75.0732421875
-79.65087890625
-76.904296875
-85.14404296875
-88.80615234375
-84.228515625
-85.14404296875
-86.97509765625
-79.65087890625
-75.0732421875
-77.81982421875
-82.3974609375
-85.14404296875
-80.56640625
-80.56640625
-79.65087890625
-82.3974609375
-74.15771484375
-77.81982421875
-80.56640625
-82.3974609375
-85.14404296875
-78.7353515625
-77.81982421875
-79.65087890625
-82.3974609375
-81.48193359375
-88.80615234375
-74.15771484375
-69.580078125
-72.32666015625
-73.2421875
-72.32666015625
-78.7353515625
-87.890625
-84.228515625
-80.56640625
-75.98876953125
-73.2421875
-65.91796875
-47.607421875
-24.71923828125
9.1552734375
64.0869140625
146.484375
257.26318359375
395.5078125
583.19091796875
758.97216796875
887.14599609375
942.07763671875
832.21435546875
652.77099609375
443.115234375
297.54638671875
167.54150390625
7.32421875
-131.8359375
-170.2880859375
-180.35888671875
-169.37255859375
-184.02099609375
-184.9365234375
-170.2880859375
-147.39990234375
-116.27197265625
-87.890625
-72.32666015625
-57.67822265625
-43.9453125
-38.4521484375
-31.1279296875
-31.1279296875
-36.62109375
-36.62109375
-36.62109375
-39.36767578125
-37.53662109375
-33.87451171875
-31.1279296875
-34.7900390625
-39.36767578125
-43.9453125
-32.04345703125
-40.283203125
-43.9453125
-42.1142578125
-40.283203125
-35.70556640625
-31.1279296875
-22.88818359375
-22.88818359375
-21.97265625
-23.8037109375
-23.8037109375
-19.22607421875
-26.55029296875
-20.1416015625
-13.73291015625
-15.56396484375
-17.39501953125
-21.05712890625
-19.22607421875
-20.1416015625
-16.4794921875
-14.6484375
-7.32421875
-3.662109375
5.4931640625
3.662109375
-3.662109375
-2.74658203125
5.4931640625
4.57763671875
1.8310546875
12.8173828125
14.6484375
12.8173828125
12.8173828125
4.57763671875
11.90185546875
13.73291015625
17.39501953125
13.73291015625
21.05712890625
21.05712890625
22.88818359375
31.1279296875
34.7900390625
39.36767578125
42.1142578125
35.70556640625
42.1142578125
40.283203125
49.4384765625
45.7763671875
42.1142578125
51.26953125
58.59375
66.83349609375
61.34033203125
65.91796875
64.0869140625
65.91796875
73.2421875
83.31298828125
86.97509765625
92.46826171875
106.201171875
109.86328125
108.0322265625
112.60986328125
120.849609375
119.93408203125
139.16015625
140.9912109375
143.73779296875
158.38623046875
156.55517578125
161.1328125
176.69677734375
181.2744140625
177.6123046875
182.18994140625
184.9365234375
195.00732421875
204.16259765625
206.9091796875
216.064453125
217.8955078125
219.7265625
221.5576171875
221.5576171875
226.13525390625
231.62841796875
235.29052734375
240.78369140625
231.62841796875
232.5439453125
228.8818359375
224.30419921875
215.14892578125
211.48681640625
213.31787109375
202.33154296875
188.5986328125
181.2744140625
172.119140625
159.3017578125
144.6533203125
133.6669921875
124.51171875
122.6806640625
116.27197265625
98.876953125
80.56640625
69.580078125
54.01611328125
53.1005859375
43.02978515625
33.87451171875
30.21240234375
24.71923828125
14.6484375
7.32421875
-5.4931640625
-8.23974609375
-9.1552734375
-6.40869140625
-13.73291015625
-18.310546875
-25.634765625
-21.05712890625
-27.4658203125
-30.21240234375
-32.958984375
-36.62109375
-40.283203125
-38.4521484375
-37.53662109375
-36.62109375
-32.04345703125
-37.53662109375
-35.70556640625
-35.70556640625
-45.7763671875
-43.9453125
-43.02978515625
-48.52294921875
-43.02978515625
-36.62109375
-43.9453125
-47.607421875
-49.4384765625
-50.35400390625
-54.01611328125
-50.35400390625
-53.1005859375
-51.26953125
-49.4384765625
-44.86083984375
-43.02978515625
-40.283203125
-44.86083984375
-44.86083984375
-44.86083984375
-46.69189453125
-43.02978515625
-44.86083984375
-49.4384765625
-44.86083984375
-47.607421875
-51.26953125
-49.4384765625
-43.9453125
-33.87451171875
-37.53662109375
-39.36767578125
-37.53662109375
-34.7900390625
-33.87451171875
-38.4521484375
-43.9453125
-43.9453125
-35.70556640625
-32.04345703125
-32.04345703125
-32.958984375
-34.7900390625
-33.87451171875
-34.7900390625
-28.38134765625
-27.4658203125
-30.21240234375
-29.296875
-37.53662109375
-36.62109375
-35.70556640625
-24.71923828125
-21.05712890625
-24.71923828125
-24.71923828125
-20.1416015625
-23.8037109375
-15.56396484375
-25.634765625
-33.87451171875
-26.55029296875
-23.8037109375
-11.90185546875
-15.56396484375
-20.1416015625
-20.1416015625
-32.04345703125
-28.38134765625
-18.310546875
-28.38134765625
-20.1416015625
-26.55029296875
-31.1279296875
-25.634765625
-19.22607421875
-21.05712890625
-25.634765625
-27.4658203125
-26.55029296875
-31.1279296875
-32.04345703125
-30.21240234375
-31.1279296875
-33.87451171875
-27.4658203125
-24.71923828125
-27.4658203125
-26.55029296875
-24.71923828125
-29.296875
-27.4658203125
-24.71923828125
-21.97265625
-30.21240234375
-26.55029296875
-32.04345703125
-34.7900390625
-39.36767578125
-32.958984375
-35.70556640625
-35.70556640625
-30.21240234375
-26.55029296875
-36.62109375
-37.53662109375
-33.87451171875
-36.62109375
-33.87451171875
-39.36767578125
-32.958984375
-26.55029296875
-25.634765625
-24.71923828125
-15.56396484375
-11.90185546875
-6.40869140625
4.57763671875
2.74658203125
-1.8310546875
0.91552734375
-6.40869140625
-6.40869140625
-2.74658203125
-9.1552734375
-7.32421875
12.8173828125
4.57763671875
-3.662109375
0.91552734375
12.8173828125
21.05712890625
26.55029296875
21.05712890625
16.4794921875
14.6484375
15.56396484375
10.986328125
12.8173828125
13.73291015625
17.39501953125
21.97265625
33.87451171875
31.1279296875
21.97265625
13.73291015625
10.986328125
3.662109375
-3.662109375
-11.90185546875
-21.05712890625
-31.1279296875
-31.1279296875
-33.87451171875
-38.4521484375
-41.19873046875
-43.02978515625
-44.86083984375
-46.69189453125
-45.7763671875
-54.01611328125
-50.35400390625
-49.4384765625
-54.01611328125
-55.84716796875
-55.84716796875
-55.84716796875
-57.67822265625
-60.4248046875
-58.59375
-56.7626953125
-59.50927734375
-58.59375
-57.67822265625
-57.67822265625
-62.255859375
-57.67822265625
-54.931640625
-57.67822265625
-61.34033203125
-66.83349609375
-61.34033203125
-57.67822265625
-58.59375
-57.67822265625
-55.84716796875
-59.50927734375
-52.18505859375
-59.50927734375
-65.91796875
-60.4248046875
-64.0869140625
-63.17138671875
-54.01611328125
-56.7626953125
-60.4248046875
-61.34033203125
-60.4248046875
-58.59375
-63.17138671875
-56.7626953125
-49.4384765625
-52.18505859375
-51.26953125
-51.26953125
-54.931640625
-62.255859375
-62.255859375
-72.32666015625
-66.83349609375
-58.59375
-58.59375
-35.70556640625
-24.71923828125
18.310546875
83.31298828125
173.03466796875
278.3203125
422.9736328125
609.7412109375
757.14111328125
851.4404296875
823.05908203125
682.06787109375
500.79345703125
323.18115234375
194.091796875
75.98876953125
-75.98876953125
-170.2880859375
-182.18994140625
-165.71044921875
-154.72412109375
-156.55517578125
-157.470703125
-145.56884765625
-124.51171875
-92.46826171875
-76.904296875
-64.0869140625
-47.607421875
-37.53662109375
-20.1416015625
-14.6484375
-19.22607421875
-21.97265625
-21.97265625
-21.97265625
-23.8037109375
-24.71923828125
-20.1416015625
-14.6484375
-16.4794921875
-12.8173828125
-15.56396484375
-14.6484375
-13.73291015625
-17.39501953125
-17.39501953125
-9.1552734375
-9.1552734375
-14.6484375
-9.1552734375
-11.90185546875
-10.07080078125
-10.986328125
-19.22607421875
-11.90185546875
-1.8310546875
-8.23974609375
-11.90185546875
-0.91552734375
0.91552734375
0
-10.07080078125
-9.1552734375
0.91552734375
-4.57763671875
2.74658203125
10.07080078125
10.07080078125
7.32421875
6.40869140625
3.662109375
7.32421875
16.4794921875
18.310546875
11.90185546875
10.07080078125
11.90185546875
18.310546875
24.71923828125
19.22607421875
21.05712890625
20.1416015625
25.634765625
28.38134765625
27.4658203125
29.296875
30.21240234375
26.55029296875
32.04345703125
41.19873046875
43.02978515625
46.69189453125
46.69189453125
47.607421875
51.26953125
54.931640625
59.50927734375
63.17138671875
73.2421875
73.2421875
75.98876953125
81.48193359375
82.3974609375
89.7216796875
95.21484375
97.96142578125
97.96142578125
113.525390625
111.6943359375
115.3564453125
121.76513671875
129.08935546875
130.92041015625
130.0048828125
139.16015625
149.23095703125
154.72412109375
161.1328125
167.54150390625
173.03466796875
183.10546875
186.767578125
192.2607421875
191.34521484375
193.17626953125
202.33154296875
206.9091796875
207.82470703125
216.064453125
221.5576171875
222.47314453125
221.5576171875
224.30419921875
227.05078125
220.64208984375
224.30419921875
225.2197265625
228.8818359375
225.2197265625
220.64208984375
215.14892578125
203.2470703125
191.34521484375
175.78125
162.04833984375
159.3017578125
151.06201171875
138.24462890625
129.08935546875
119.0185546875
108.94775390625
93.3837890625
86.97509765625
66.83349609375
65.91796875
50.35400390625
32.958984375
29.296875
30.21240234375
32.958984375
10.986328125
7.32421875
0
-7.32421875
-10.986328125
-15.56396484375
-25.634765625
-31.1279296875
-34.7900390625
-30.21240234375
-31.1279296875
-36.62109375
-36.62109375
-35.70556640625
-37.53662109375
-37.53662109375
-44.86083984375
-47.607421875
-54.931640625
-52.18505859375
-45.7763671875
-51.26953125
-47.607421875
-48.52294921875
-47.607421875
-50.35400390625
-51.26953125
-51.26953125
-54.931640625
-56.7626953125
-61.34033203125
-58.59375
-57.67822265625
-54.01611328125
-58.59375
-57.67822265625
-59.50927734375
-63.17138671875
-60.4248046875
-57.67822265625
-56.7626953125
-62.255859375
-60.4248046875
-61.34033203125
-61.34033203125
-60.4248046875
-54.931640625
-51.26953125
-56.7626953125
-56.7626953125
-55.84716796875
-49.4384765625
-44.86083984375
-52.18505859375
-55.84716796875
-54.01611328125
-54.931640625
-53.1005859375
-55.84716796875
-50.35400390625
-54.931640625
-54.01611328125
-42.1142578125
-45.7763671875
-52.18505859375
-53.1005859375
-54.931640625
-49.4384765625
-43.02978515625
-49.4384765625
-45.7763671875
-50.35400390625
-46.69189453125
-48.52294921875
-52.18505859375
-44.86083984375
-42.1142578125
-44.86083984375
-42.1142578125
-43.02978515625
-44.86083984375
-46.69189453125
-54.01611328125
-54.931640625
-48.52294921875
-43.9453125
-46.69189453125
-41.19873046875
-53.1005859375
-51.26953125
-43.9453125
-47.607421875
-48.52294921875
-49.4384765625
-51.26953125
-54.01611328125
-51.26953125
-53.1005859375
-62.255859375
-65.00244140625
-64.0869140625
-58.59375
-55.84716796875
-55.84716796875
-56.7626953125
-59.50927734375
-61.34033203125
-59.50927734375
-64.0869140625
-72.32666015625
-71.4111328125
-72.32666015625
-69.580078125
-69.580078125
-74.15771484375
-68.66455078125
-67.7490234375
-66.83349609375
-65.91796875
-72.32666015625
-73.2421875
-69.580078125
-66.83349609375
-67.7490234375
-72.32666015625
-74.15771484375
-73.2421875
-73.2421875
-65.91796875
-71.4111328125
-68.66455078125
-72.32666015625
-74.15771484375
-71.4111328125
-74.15771484375
-69.580078125
-68.66455078125
-72.32666015625
-73.2421875
-68.66455078125
-71.4111328125
-72.32666015625
-65.91796875
-71.4111328125
-71.4111328125
-63.17138671875
-65.00244140625
-67.7490234375
-67.7490234375
-55.84716796875
-48.52294921875
-37.53662109375
-37.53662109375
-38.4521484375
-39.36767578125
-43.9453125
-43.02978515625
-44.86083984375
-40.283203125
-37.53662109375
-34.7900390625
-33.87451171875
-33.87451171875
-32.958984375
-32.958984375
-24.71923828125
-16.4794921875
-20.1416015625
-23.8037109375
-23.8037109375
-22.88818359375
-32.04345703125
-32.958984375
-21.05712890625
-20.1416015625
-6.40869140625
-2.74658203125
-10.986328125
-12.8173828125
-10.07080078125
-16.4794921875
-15.56396484375
-21.05712890625
-31.1279296875
-41.19873046875
-50.35400390625
-59.50927734375
-64.0869140625
-71.4111328125
-71.4111328125
-79.65087890625
-79.65087890625
-79.65087890625
-90.63720703125
-87.890625
-90.63720703125
-93.3837890625
-95.21484375
-95.21484375
-90.63720703125
-92.46826171875
-93.3837890625
-93.3837890625
-91.552734375
-94.29931640625
-100.7080078125
-94.29931640625
-95.21484375
-97.96142578125
-96.13037109375
-98.876953125
-98.876953125
-105.28564453125
-102.5390625
-101.62353515625
-98.876953125
-96.13037109375
-104.3701171875
-100.7080078125
-99.79248046875
-103.45458984375
-100.7080078125
-98.876953125
-98.876953125
-97.96142578125
-103.45458984375
-110.77880859375
-111.6943359375
-101.62353515625
-99.79248046875
-101.62353515625
-98.876953125
-96.13037109375
-96.13037109375
-97.96142578125
-99.79248046875
-97.0458984375
-100.7080078125
-97.96142578125
-97.0458984375
-97.96142578125
-93.3837890625
-87.890625
-81.48193359375
-67.7490234375
-55.84716796875
-35.70556640625
-11.90185546875
27.4658203125
95.21484375
187.68310546875
302.1240234375
450.439453125
640.869140625
809.326171875
921.0205078125
930.17578125
788.26904296875
574.03564453125
382.6904296875
236.2060546875
101.62353515625
-65.91796875
-173.9501953125
-213.31787109375
-224.30419921875
-216.97998046875
-223.388671875
-208.740234375
-180.35888671875
-141.90673828125
-110.77880859375
-90.63720703125
-74.15771484375
-63.17138671875
-60.4248046875
-54.01611328125
-55.84716796875
-58.59375
-58.59375
-62.255859375
-65.00244140625
-61.34033203125
-61.34033203125
-60.4248046875
-65.91796875
-65.91796875
-63.17138671875
-61.34033203125
-56.7626953125
-59.50927734375
-62.255859375
-62.255859375
-60.4248046875
-57.67822265625
-50.35400390625
-53.1005859375
-56.7626953125
-54.931640625
-51.26953125
-47.607421875
-47.607421875
-47.607421875
-46.69189453125
-49.4384765625
-47.607421875
-49.4384765625
-45.7763671875
-43.9453125
-41.19873046875
-35.70556640625
-39.36767578125
-38.4521484375
-42.1142578125
-35.70556640625
-32.04345703125
-27.4658203125
-21.97265625
-23.8037109375
-24.71923828125
-20.1416015625
-20.1416015625
-27.4658203125
-22.88818359375
-21.97265625
-21.97265625
-18.310546875
-10.986328125
-18.310546875
-15.56396484375
-12.8173828125
-10.07080078125
-5.4931640625
-7.32421875
-2.74658203125
-3.662109375
-1.8310546875
-0.91552734375
5.4931640625
4.57763671875
13.73291015625
16.4794921875
15.56396484375
23.8037109375
27.4658203125
23.8037109375
31.1279296875
35.70556640625
41.19873046875
48.52294921875
49.4384765625
54.01611328125
53.1005859375
53.1005859375
64.0869140625
63.17138671875
69.580078125
74.15771484375
81.48193359375
90.63720703125
93.3837890625
93.3837890625
101.62353515625
110.77880859375
118.10302734375
119.93408203125
127.25830078125
132.75146484375
142.822265625
152.89306640625
154.72412109375
152.89306640625
158.38623046875
170.2880859375
172.119140625
170.2880859375
178.52783203125
178.52783203125
177.6123046875
192.2607421875
184.9365234375
189.51416015625
187.68310546875
183.10546875
182.18994140625
178.52783203125
180.35888671875
179.443359375
167.54150390625
159.3017578125
149.23095703125
140.07568359375
136.41357421875
118.10302734375
110.77880859375
97.0458984375
81.48193359375
70.49560546875
62.255859375
47.607421875
39.36767578125
28.38134765625
21.05712890625
10.986328125
0
-5.4931640625
-10.07080078125
-21.05712890625
-30.21240234375
-33.87451171875
-40.283203125
-43.02978515625
-50.35400390625
-51.26953125
-51.26953125
-60.4248046875
-65.91796875
-68.66455078125
-65.91796875
-67.7490234375
-73.2421875
-70.49560546875
-75.98876953125
-80.56640625
-81.48193359375
-85.14404296875
-85.14404296875
-90.63720703125
-87.890625
-84.228515625
-85.14404296875
-91.552734375
-86.97509765625
-79.65087890625
-82.3974609375
-88.80615234375
-86.97509765625
-81.48193359375
-87.890625
-92.46826171875
-101.62353515625
-97.96142578125
-93.3837890625
-95.21484375
-97.96142578125
-96.13037109375
-89.7216796875
-91.552734375
-93.3837890625
-90.63720703125
-91.552734375
-95.21484375
-96.13037109375
-90.63720703125
-90.63720703125
-96.13037109375
-89.7216796875
-87.890625
-88.80615234375
-88.80615234375
-87.890625
-91.552734375
-92.46826171875
-88.80615234375
-91.552734375
-86.97509765625
-85.14404296875
-86.97509765625
-86.97509765625
-87.890625
-83.31298828125
-80.56640625
-81.48193359375
-82.3974609375
-78.7353515625
-79.65087890625
-74.15771484375
-75.0732421875
-75.98876953125
-75.98876953125
-79.65087890625
-71.4111328125
-68.66455078125
-73.2421875
-74.15771484375
-75.98876953125
-77.81982421875
-71.4111328125
-70.49560546875
-66.83349609375
-66.83349609375
-67.7490234375
-69.580078125
-75.0732421875
-68.66455078125
-67.7490234375
-72.32666015625
-73.2421875
-72.32666015625
-68.66455078125
-66.83349609375
-67.7490234375
-70.49560546875
-73.2421875
-73.2421875
-70.49560546875
-69.580078125
-74.15771484375
-73.2421875
-68.66455078125
-71.4111328125
-77.81982421875
-78.7353515625
-77.81982421875
-77.81982421875
-79.65087890625
-80.56640625
-80.56640625
-83.31298828125
-80.56640625
-78.7353515625
-84.228515625
-80.56640625
-77.81982421875
-82.3974609375
-79.65087890625
-80.56640625
-84.228515625
-81.48193359375
-84.228515625
-88.80615234375
-90.63720703125
-88.80615234375
-88.80615234375
-90.63720703125
-88.80615234375
-89.7216796875
-86.0595703125
-89.7216796875
-88.80615234375
-89.7216796875
-89.7216796875
-83.31298828125
-80.56640625
-85.14404296875
-90.63720703125
-92.46826171875
-92.46826171875
-93.3837890625
-95.21484375
-92.46826171875
-95.21484375
-94.29931640625
-97.96142578125
-85.14404296875
-89.7216796875
-91.552734375
-89.7216796875
-93.3837890625
-92.46826171875
-91.552734375
-92.46826171875
-93.3837890625
-91.552734375
-92.46826171875
-97.96142578125
-97.0458984375
-95.21484375
-96.13037109375
-96.13037109375
-89.7216796875
-88.80615234375
-94.29931640625
-98.876953125
-90.63720703125
-93.3837890625
-92.46826171875
-96.13037109375
-97.0458984375
-94.29931640625
-91.552734375
-89.7216796875
-84.228515625
-88.80615234375
-91.552734375
-94.29931640625
-90.63720703125
-86.97509765625
-79.65087890625
-74.15771484375
-65.91796875
-64.0869140625
-54.931640625
-51.26953125
-57.67822265625
-66.83349609375
-64.0869140625
-64.0869140625
-64.0869140625
-66.83349609375
-56.7626953125
-56.7626953125
-61.34033203125
-69.580078125
-57.67822265625
-56.7626953125
-49.4384765625
-44.86083984375
-40.283203125
-38.4521484375
-40.283203125
-43.02978515625
-49.4384765625
-48.52294921875
-50.35400390625
-47.607421875
-36.62109375
-38.4521484375
-43.9453125
-46.69189453125
-47.607421875
-43.9453125
-38.4521484375
-43.02978515625
-51.26953125
-56.7626953125
-73.2421875
-85.14404296875
-87.890625
-94.29931640625
-95.21484375
-94.29931640625
-96.13037109375
-98.876953125
-96.13037109375
-108.94775390625
-109.86328125
-112.60986328125
-116.27197265625
-113.525390625
-112.60986328125
-115.3564453125
-116.27197265625
-120.849609375
-119.0185546875
-117.1875
-119.93408203125
-126.3427734375
-121.76513671875
-117.1875
-119.0185546875
-120.849609375
-125.42724609375
-119.93408203125
-115.3564453125
-119.0185546875
-122.6806640625
-120.849609375
-120.849609375
-125.42724609375
-116.27197265625
-115.3564453125
-121.76513671875
-124.51171875
-127.25830078125
-127.25830078125
-124.51171875
-121.76513671875
-119.93408203125
-121.76513671875
-123.59619140625
-117.1875
-117.1875
-119.0185546875
