ECG
-43.02978515625
-43.9453125
-51.26953125
-54.931640625
-54.01611328125
-43.02978515625
-33.87451171875
-26.55029296875
-36.62109375
-45.7763671875
-47.607421875
-50.35400390625
-54.931640625
-48.52294921875
-44.86083984375
-44.86083984375
-46.69189453125
-46.69189453125
-55.84716796875
-46.69189453125
-49.4384765625
-38.4521484375
-44.86083984375
-51.26953125
-59.50927734375
-58.59375
-46.69189453125
-50.35400390625
-48.52294921875
-47.607421875
-48.52294921875
-54.01611328125
-53.1005859375
-42.1142578125
-51.26953125
-55.84716796875
-48.52294921875
-53.1005859375
-36.62109375
-32.958984375
-46.69189453125
-49.4384765625
-43.9453125
-39.36767578125
-41.19873046875
-45.7763671875
-43.9453125
-43.9453125
-40.283203125
-38.4521484375
-41.19873046875
-41.19873046875
-50.35400390625
-46.69189453125
-39.36767578125
-41.19873046875
-36.62109375
-39.36767578125
-52.18505859375
-51.26953125
-45.7763671875
-43.9453125
-41.19873046875
-46.69189453125
-42.1142578125
-40.283203125
-46.69189453125
-52.18505859375
-45.7763671875
-43.02978515625
-55.84716796875
-54.01611328125
-55.84716796875
-52.18505859375
-50.35400390625
-52.18505859375
-59.50927734375
-55.84716796875
-48.52294921875
-54.931640625
-50.35400390625
-50.35400390625
-57.67822265625
-62.255859375
-61.34033203125
-65.00244140625
-66.83349609375
-60.4248046875
-66.83349609375
-63.17138671875
-68.66455078125
-64.0869140625
-63.17138671875
-61.34033203125
-51.26953125
-50.35400390625
-41.19873046875
-32.04345703125
-28.38134765625
-24.71923828125
-15.56396484375
-11.90185546875
2.74658203125
-7.32421875
-21.97265625
-21.97265625
-17.39501953125
-12.8173828125
10.986328125
28.38134765625
43.02978515625
30.21240234375
32.958984375
39.36767578125
41.19873046875
33.87451171875
33.87451171875
36.62109375
42.1142578125
49.4384765625
39.36767578125
37.53662109375
22.88818359375
16.4794921875
9.1552734375
-5.4931640625
-20.1416015625
-20.1416015625
-29.296875
-42.1142578125
-57.67822265625
-54.01611328125
-59.50927734375
-65.00244140625
-67.7490234375
-67.7490234375
-74.15771484375
-84.228515625
-85.14404296875
-86.0595703125
-81.48193359375
-79.65087890625
-82.3974609375
-78.7353515625
-75.0732421875
-67.7490234375
-90.63720703125
-99.79248046875
-87.890625
-95.21484375
-91.552734375
-94.29931640625
-86.97509765625
-94.29931640625
-102.5390625
-110.77880859375
-108.94775390625
-97.0458984375
-93.3837890625
-88.80615234375
-89.7216796875
-86.97509765625
-86.0595703125
-90.63720703125
-96.13037109375
-112.60986328125
-141.90673828125
-140.07568359375
-121.76513671875
-80.56640625
-19.22607421875
40.283203125
157.470703125
311.279296875
462.34130859375
656.43310546875
839.53857421875
974.12109375
1117.85888671875
1229.55322265625
1272.5830078125
1170.95947265625
905.45654296875
617.98095703125
367.12646484375
189.51416015625
111.6943359375
58.59375
30.21240234375
7.32421875
-17.39501953125
-64.0869140625
-92.46826171875
-88.80615234375
-69.580078125
-43.9453125
-36.62109375
-32.958984375
-48.52294921875
-61.34033203125
-61.34033203125
-67.7490234375
-61.34033203125
-51.26953125
-50.35400390625
-59.50927734375
-67.7490234375
-75.0732421875
-69.580078125
-63.17138671875
-63.17138671875
-62.255859375
-63.17138671875
-63.17138671875
-62.255859375
-75.0732421875
-62.255859375
-55.84716796875
-52.18505859375
-49.4384765625
-54.931640625
-46.69189453125
-41.19873046875
-56.7626953125
-43.02978515625
-43.9453125
-32.958984375
-38.4521484375
-35.70556640625
-42.1142578125
-42.1142578125
-31.1279296875
-32.04345703125
-27.4658203125
-30.21240234375
-29.296875
-21.97265625
-18.310546875
-10.07080078125
-3.662109375
-4.57763671875
-4.57763671875
4.57763671875
14.6484375
6.40869140625
10.986328125
23.8037109375
26.55029296875
27.4658203125
32.958984375
32.04345703125
41.19873046875
50.35400390625
47.607421875
60.4248046875
59.50927734375
71.4111328125
84.228515625
84.228515625
88.80615234375
97.0458984375
108.0322265625
112.60986328125
108.0322265625
116.27197265625
131.8359375
150.146484375
164.794921875
161.1328125
174.86572265625
175.78125
191.34521484375
190.4296875
195.9228515625
189.51416015625
189.51416015625
217.8955078125
233.45947265625
227.96630859375
235.29052734375
248.10791015625
253.60107421875
250.8544921875
249.93896484375
253.60107421875
260.009765625
256.34765625
248.10791015625
264.58740234375
274.658203125
262.75634765625
250.8544921875
244.44580078125
230.712890625
220.64208984375
217.8955078125
205.99365234375
189.51416015625
185.85205078125
164.794921875
162.04833984375
150.146484375
126.3427734375
119.93408203125
101.62353515625
83.31298828125
86.0595703125
71.4111328125
60.4248046875
43.02978515625
17.39501953125
21.05712890625
16.4794921875
11.90185546875
9.1552734375
-0.91552734375
0
-1.8310546875
-8.23974609375
-22.88818359375
-31.1279296875
-37.53662109375
-55.84716796875
-46.69189453125
-38.4521484375
-41.19873046875
-52.18505859375
-45.7763671875
-38.4521484375
-28.38134765625
-36.62109375
-42.1142578125
-45.7763671875
-44.86083984375
-41.19873046875
-35.70556640625
-39.36767578125
-43.9453125
-51.26953125
-56.7626953125
-44.86083984375
-57.67822265625
-57.67822265625
-43.9453125
-37.53662109375
-36.62109375
-40.283203125
-34.7900390625
-37.53662109375
-38.4521484375
-39.36767578125
-39.36767578125
-53.1005859375
-41.19873046875
-46.69189453125
-40.283203125
-43.9453125
-43.02978515625
-38.4521484375
-40.283203125
-43.9453125
-39.36767578125
-30.21240234375
-37.53662109375
-29.296875
-43.9453125
-28.38134765625
-28.38134765625
-38.4521484375
-46.69189453125
-44.86083984375
-37.53662109375
-34.7900390625
-35.70556640625
-32.958984375
-41.19873046875
-35.70556640625
-42.1142578125
-51.26953125
-50.35400390625
-40.283203125
-38.4521484375
-36.62109375
-38.4521484375
-35.70556640625
-32.958984375
-32.04345703125
-36.62109375
-37.53662109375
-38.4521484375
-42.1142578125
-40.283203125
-38.4521484375
-37.53662109375
-43.02978515625
-47.607421875
-46.69189453125
-41.19873046875
-43.9453125
-48.52294921875
-40.283203125
-46.69189453125
-44.86083984375
-39.36767578125
-49.4384765625
-44.86083984375
-51.26953125
-54.01611328125
-43.02978515625
-44.86083984375
-54.01611328125
-48.52294921875
-48.52294921875
-59.50927734375
-52.18505859375
-58.59375
-54.01611328125
-64.0869140625
-60.4248046875
-50.35400390625
-52.18505859375
-51.26953125
-53.1005859375
-49.4384765625
-44.86083984375
-55.84716796875
-54.931640625
-59.50927734375
-56.7626953125
-33.87451171875
-43.02978515625
-40.283203125
-25.634765625
-14.6484375
-15.56396484375
-17.39501953125
-22.88818359375
-12.8173828125
-0.91552734375
-4.57763671875
2.74658203125
0.91552734375
-9.1552734375
5.4931640625
19.22607421875
35.70556640625
54.01611328125
60.4248046875
50.35400390625
60.4248046875
64.0869140625
50.35400390625
54.01611328125
40.283203125
50.35400390625
47.607421875
54.931640625
42.1142578125
33.87451171875
24.71923828125
15.56396484375
13.73291015625
-8.23974609375
-18.310546875
-15.56396484375
-35.70556640625
-47.607421875
-39.36767578125
-51.26953125
-57.67822265625
-65.00244140625
-60.4248046875
-66.83349609375
-84.228515625
-97.0458984375
-66.83349609375
-75.98876953125
-97.0458984375
-105.28564453125
-75.0732421875
-54.01611328125
-60.4248046875
-54.931640625
-50.35400390625
-55.84716796875
-61.34033203125
-63.17138671875
-65.91796875
-65.00244140625
-65.91796875
-73.2421875
-71.4111328125
-69.580078125
-69.580078125
-69.580078125
-68.66455078125
-89.7216796875
-88.80615234375
-91.552734375
-92.46826171875
-90.63720703125
-111.6943359375
-110.77880859375
-112.60986328125
-90.63720703125
-62.255859375
-5.4931640625
62.255859375
189.51416015625
322.265625
468.75
663.75732421875
845.947265625
999.755859375
1143.49365234375
1261.5966796875
1305.5419921875
1195.6787109375
922.8515625
637.20703125
374.45068359375
187.68310546875
109.86328125
72.32666015625
34.7900390625
11.90185546875
-23.8037109375
-65.00244140625
-82.3974609375
-72.32666015625
-42.1142578125
-26.55029296875
-24.71923828125
-31.1279296875
-32.04345703125
-46.69189453125
-48.52294921875
-45.7763671875
-49.4384765625
-44.86083984375
-52.18505859375
-51.26953125
-45.7763671875
-49.4384765625
-61.34033203125
-61.34033203125
-57.67822265625
-52.18505859375
-46.69189453125
-55.84716796875
-56.7626953125
-53.1005859375
-52.18505859375
-48.52294921875
-54.01611328125
-62.255859375
-52.18505859375
-45.7763671875
-49.4384765625
-40.283203125
-23.8037109375
-29.296875
-37.53662109375
-29.296875
-19.22607421875
-22.88818359375
-22.88818359375
-10.986328125
-10.986328125
-21.97265625
-15.56396484375
-21.05712890625
-15.56396484375
0.91552734375
5.4931640625
9.1552734375
6.40869140625
6.40869140625
9.1552734375
12.8173828125
21.97265625
43.02978515625
44.86083984375
33.87451171875
40.283203125
41.19873046875
35.70556640625
40.283203125
47.607421875
55.84716796875
55.84716796875
75.0732421875
85.14404296875
92.46826171875
92.46826171875
102.5390625
120.849609375
121.76513671875
124.51171875
140.9912109375
156.55517578125
166.6259765625
172.119140625
184.02099609375
195.9228515625
203.2470703125
206.9091796875
216.064453125
227.05078125
226.13525390625
233.45947265625
248.10791015625
253.60107421875
266.41845703125
267.333984375
265.5029296875
275.57373046875
277.40478515625
281.982421875
289.306640625
288.39111328125
276.4892578125
279.23583984375
281.982421875
278.3203125
283.8134765625
292.05322265625
288.39111328125
282.89794921875
277.40478515625
262.75634765625
270.99609375
269.1650390625
259.09423828125
252.685546875
220.64208984375
217.8955078125
198.66943359375
183.10546875
172.119140625
149.23095703125
137.3291015625
130.92041015625
117.1875
97.96142578125
90.63720703125
80.56640625
64.0869140625
52.18505859375
43.02978515625
38.4521484375
36.62109375
31.1279296875
20.1416015625
15.56396484375
-0.91552734375
-8.23974609375
-10.07080078125
-26.55029296875
-23.8037109375
-17.39501953125
-28.38134765625
-21.05712890625
-17.39501953125
-16.4794921875
-11.90185546875
-29.296875
-40.283203125
-35.70556640625
-23.8037109375
-21.05712890625
-34.7900390625
-36.62109375
-37.53662109375
-36.62109375
-34.7900390625
-21.97265625
-21.97265625
-21.05712890625
-21.97265625
-16.4794921875
-21.97265625
-26.55029296875
-19.22607421875
-17.39501953125
-29.296875
-32.04345703125
-32.04345703125
-27.4658203125
-26.55029296875
-26.55029296875
-31.1279296875
-32.958984375
-17.39501953125
-20.1416015625
-28.38134765625
-26.55029296875
-17.39501953125
-26.55029296875
-33.87451171875
-40.283203125
-21.97265625
-7.32421875
-14.6484375
-14.6484375
-19.22607421875
-32.04345703125
-28.38134765625
-27.4658203125
-22.88818359375
-24.71923828125
-35.70556640625
-21.05712890625
-20.1416015625
-18.310546875
-32.04345703125
-30.21240234375
-32.958984375
-42.1142578125
-35.70556640625
-34.7900390625
-17.39501953125
-8.23974609375
-22.88818359375
-21.97265625
-22.88818359375
-27.4658203125
-30.21240234375
-29.296875
-30.21240234375
-30.21240234375
-28.38134765625
-32.958984375
-37.53662109375
-44.86083984375
-36.62109375
-33.87451171875
-36.62109375
-40.283203125
-28.38134765625
-45.7763671875
-47.607421875
-33.87451171875
-33.87451171875
-37.53662109375
-43.02978515625
-44.86083984375
-43.9453125
-48.52294921875
-47.607421875
-62.255859375
-55.84716796875
-40.283203125
-40.283203125
-44.86083984375
-46.69189453125
-39.36767578125
-44.86083984375
-49.4384765625
-45.7763671875
-44.86083984375
-58.59375
-63.17138671875
-47.607421875
-54.931640625
-41.19873046875
-40.283203125
-48.52294921875
-54.01611328125
-49.4384765625
-52.18505859375
-56.7626953125
-51.26953125
-56.7626953125
-54.931640625
-53.1005859375
-49.4384765625
-49.4384765625
-64.0869140625
-73.2421875
-63.17138671875
-51.26953125
-50.35400390625
-55.84716796875
-64.0869140625
-54.01611328125
-51.26953125
-46.69189453125
-33.87451171875
-20.1416015625
-16.4794921875
-1.8310546875
-1.8310546875
-3.662109375
2.74658203125
6.40869140625
-0.91552734375
1.8310546875
3.662109375
-3.662109375
3.662109375
10.986328125
34.7900390625
34.7900390625
36.62109375
37.53662109375
43.9453125
49.4384765625
55.84716796875
49.4384765625
40.283203125
46.69189453125
51.26953125
54.01611328125
44.86083984375
42.1142578125
32.04345703125
27.4658203125
25.634765625
0
-10.07080078125
-18.310546875
-29.296875
-37.53662109375
-44.86083984375
-45.7763671875
-48.52294921875
-48.52294921875
-59.50927734375
-63.17138671875
-60.4248046875
-63.17138671875
-71.4111328125
-64.0869140625
-65.00244140625
-78.7353515625
-77.81982421875
-73.2421875
-73.2421875
-65.91796875
-73.2421875
-70.49560546875
-75.98876953125
-65.00244140625
-65.91796875
-69.580078125
-70.49560546875
-88.80615234375
-86.97509765625
-80.56640625
-79.65087890625
-75.98876953125
-71.4111328125
-71.4111328125
-75.98876953125
-76.904296875
-83.31298828125
-81.48193359375
-98.876953125
-115.3564453125
-122.6806640625
-108.94775390625
-64.0869140625
-10.986328125
40.283203125
155.6396484375
294.7998046875
434.87548828125
617.0654296875
801.08642578125
973.20556640625
1125.18310546875
1250.6103515625
1317.44384765625
1276.2451171875
1024.47509765625
727.84423828125
456.84814453125
225.2197265625
119.0185546875
66.83349609375
25.634765625
-10.07080078125
-34.7900390625
-73.2421875
-75.0732421875
-59.50927734375
-34.7900390625
-32.04345703125
-29.296875
-22.88818359375
-33.87451171875
-48.52294921875
-46.69189453125
-43.02978515625
-49.4384765625
-53.1005859375
-45.7763671875
-46.69189453125
-60.4248046875
-50.35400390625
-47.607421875
-70.49560546875
-65.91796875
-63.17138671875
-59.50927734375
-47.607421875
-50.35400390625
-49.4384765625
-44.86083984375
-41.19873046875
-40.283203125
-37.53662109375
-33.87451171875
-33.87451171875
-30.21240234375
-33.87451171875
-42.1142578125
-47.607421875
-37.53662109375
-24.71923828125
-22.88818359375
-21.97265625
-24.71923828125
-15.56396484375
-11.90185546875
-19.22607421875
-13.73291015625
-6.40869140625
-15.56396484375
-19.22607421875
-11.90185546875
-18.310546875
-6.40869140625
0.91552734375
9.1552734375
7.32421875
3.662109375
16.4794921875
24.71923828125
29.296875
35.70556640625
46.69189453125
56.7626953125
67.7490234375
65.91796875
70.49560546875
81.48193359375
86.97509765625
90.63720703125
92.46826171875
102.5390625
102.5390625
115.3564453125
130.92041015625
132.75146484375
134.58251953125
145.56884765625
148.3154296875
160.21728515625
164.794921875
176.69677734375
189.51416015625
207.82470703125
207.82470703125
208.740234375
222.47314453125
243.5302734375
252.685546875
265.5029296875
262.75634765625
256.34765625
266.41845703125
263.671875
267.333984375
281.982421875
281.982421875
295.71533203125
290.22216796875
295.71533203125
293.88427734375
290.22216796875
301.20849609375
309.4482421875
311.279296875
312.19482421875
292.05322265625
283.8134765625
289.306640625
287.4755859375
266.41845703125
260.009765625
235.29052734375
229.79736328125
210.5712890625
200.50048828125
196.83837890625
175.78125
151.06201171875
139.16015625
117.1875
110.77880859375
107.11669921875
92.46826171875
79.65087890625
65.00244140625
47.607421875
45.7763671875
42.1142578125
30.21240234375
23.8037109375
10.986328125
1.8310546875
3.662109375
4.57763671875
0.91552734375
-11.90185546875
-23.8037109375
-24.71923828125
-22.88818359375
-28.38134765625
-35.70556640625
-30.21240234375
-35.70556640625
-32.04345703125
-29.296875
-28.38134765625
-20.1416015625
-26.55029296875
-34.7900390625
-26.55029296875
-38.4521484375
-43.9453125
-38.4521484375
-41.19873046875
-26.55029296875
-27.4658203125
-34.7900390625
-32.04345703125
-37.53662109375
-41.19873046875
-33.87451171875
-30.21240234375
-24.71923828125
-32.958984375
-36.62109375
-25.634765625
-34.7900390625
-44.86083984375
-38.4521484375
-43.02978515625
-38.4521484375
-39.36767578125
-38.4521484375
-44.86083984375
-47.607421875
-50.35400390625
-35.70556640625
-33.87451171875
-34.7900390625
-27.4658203125
-32.04345703125
-43.02978515625
-39.36767578125
-34.7900390625
-31.1279296875
-22.88818359375
-32.04345703125
-28.38134765625
-29.296875
-26.55029296875
-36.62109375
-34.7900390625
-42.1142578125
-42.1142578125
-45.7763671875
-43.9453125
-43.02978515625
-36.62109375
-32.04345703125
-32.04345703125
-34.7900390625
-41.19873046875
-35.70556640625
-35.70556640625
-33.87451171875
-38.4521484375
-43.9453125
-37.53662109375
-40.283203125
-47.607421875
-48.52294921875
-43.02978515625
-37.53662109375
-36.62109375
-45.7763671875
-45.7763671875
-47.607421875
-52.18505859375
-64.0869140625
-55.84716796875
-48.52294921875
-44.86083984375
-54.01611328125
-54.01611328125
-55.84716796875
-47.607421875
-53.1005859375
-54.931640625
-48.52294921875
-49.4384765625
-52.18505859375
-45.7763671875
-51.26953125
-49.4384765625
-43.02978515625
-48.52294921875
-50.35400390625
-47.607421875
-51.26953125
-49.4384765625
-56.7626953125
-64.0869140625
-51.26953125
-64.0869140625
-63.17138671875
-52.18505859375
-55.84716796875
-61.34033203125
-64.0869140625
-71.4111328125
-69.580078125
-58.59375
-52.18505859375
-57.67822265625
-74.15771484375
-65.91796875
-60.4248046875
-66.83349609375
-75.0732421875
-61.34033203125
-63.17138671875
-71.4111328125
-59.50927734375
-58.59375
-68.66455078125
-69.580078125
-58.59375
-62.255859375
-74.15771484375
-73.2421875
-55.84716796875
-42.1142578125
-33.87451171875
-36.62109375
-26.55029296875
-21.97265625
-15.56396484375
-5.4931640625
-19.22607421875
-29.296875
-10.07080078125
-3.662109375
-9.1552734375
-15.56396484375
-21.05712890625
-21.97265625
0
23.8037109375
41.19873046875
43.02978515625
32.04345703125
45.7763671875
43.02978515625
30.21240234375
30.21240234375
31.1279296875
33.87451171875
39.36767578125
41.19873046875
30.21240234375
26.55029296875
25.634765625
11.90185546875
4.57763671875
-3.662109375
-17.39501953125
-27.4658203125
-23.8037109375
-40.283203125
-50.35400390625
-41.19873046875
-62.255859375
-65.91796875
-69.580078125
-78.7353515625
-84.228515625
-90.63720703125
-86.97509765625
-90.63720703125
-86.0595703125
-88.80615234375
-99.79248046875
-81.48193359375
-71.4111328125
-71.4111328125
-81.48193359375
-83.31298828125
-84.228515625
-95.21484375
-97.96142578125
-102.5390625
-96.13037109375
-84.228515625
-94.29931640625
-95.21484375
-91.552734375
-92.46826171875
-92.46826171875
-79.65087890625
-86.0595703125
-83.31298828125
-91.552734375
-107.11669921875
-111.6943359375
-133.6669921875
-145.56884765625
-130.92041015625
-95.21484375
-47.607421875
12.8173828125
109.86328125
247.1923828125
392.76123046875
562.1337890625
736.083984375
894.47021484375
1056.5185546875
1190.185546875
1274.4140625
1266.17431640625
1040.95458984375
743.408203125
468.75
230.712890625
116.27197265625
43.9453125
7.32421875
7.32421875
-22.88818359375
-63.17138671875
-100.7080078125
-117.1875
-89.7216796875
-67.7490234375
-58.59375
-51.26953125
-56.7626953125
-61.34033203125
-64.0869140625
-66.83349609375
-75.0732421875
-69.580078125
-70.49560546875
-79.65087890625
-77.81982421875
-70.49560546875
-67.7490234375
-75.98876953125
-88.80615234375
-101.62353515625
-90.63720703125
-82.3974609375
-85.14404296875
-79.65087890625
-72.32666015625
-65.91796875
-59.50927734375
-66.83349609375
-77.81982421875
-77.81982421875
-82.3974609375
-81.48193359375
-77.81982421875
-65.91796875
-64.0869140625
-74.15771484375
-74.15771484375
-62.255859375
-55.84716796875
-54.931640625
-52.18505859375
-51.26953125
-43.9453125
-48.52294921875
-44.86083984375
-32.958984375
-31.1279296875
-34.7900390625
-40.283203125
-45.7763671875
-31.1279296875
-15.56396484375
-4.57763671875
3.662109375
-4.57763671875
-1.8310546875
10.986328125
-4.57763671875
-6.40869140625
3.662109375
8.23974609375
31.1279296875
35.70556640625
38.4521484375
40.283203125
36.62109375
46.69189453125
51.26953125
61.34033203125
77.81982421875
89.7216796875
98.876953125
104.3701171875
119.0185546875
120.849609375
119.0185546875
140.07568359375
137.3291015625
140.07568359375
149.23095703125
160.21728515625
161.1328125
177.6123046875
213.31787109375
205.99365234375
195.00732421875
204.16259765625
222.47314453125
229.79736328125
239.8681640625
231.62841796875
239.8681640625
243.5302734375
244.44580078125
254.5166015625
263.671875
249.93896484375
251.77001953125
253.60107421875
249.93896484375
249.0234375
238.95263671875
243.5302734375
240.78369140625
229.79736328125
220.64208984375
197.75390625
188.5986328125
174.86572265625
176.69677734375
168.45703125
143.73779296875
125.42724609375
108.0322265625
94.29931640625
75.98876953125
60.4248046875
66.83349609375
53.1005859375
35.70556640625
29.296875
16.4794921875
12.8173828125
1.8310546875
-8.23974609375
-19.22607421875
-25.634765625
-32.958984375
-42.1142578125
-42.1142578125
-44.86083984375
-41.19873046875
-50.35400390625
-76.904296875
-64.0869140625
-76.904296875
-65.91796875
-65.00244140625
-62.255859375
-48.52294921875
-65.00244140625
-80.56640625
-75.0732421875
-80.56640625
-71.4111328125
-71.4111328125
-72.32666015625
-65.91796875
-67.7490234375
-83.31298828125
-89.7216796875
-78.7353515625
-77.81982421875
-74.15771484375
-84.228515625
-78.7353515625
-63.17138671875
-63.17138671875
-65.00244140625
-55.84716796875
-59.50927734375
-65.00244140625
-59.50927734375
-64.0869140625
-66.83349609375
-64.0869140625
-59.50927734375
-63.17138671875
-67.7490234375
-60.4248046875
-68.66455078125
-62.255859375
-59.50927734375
-56.7626953125
-55.84716796875
-48.52294921875
-60.4248046875
-62.255859375
-73.2421875
-69.580078125
-62.255859375
-54.931640625
-62.255859375
-56.7626953125
-64.0869140625
-67.7490234375
-72.32666015625
-70.49560546875
-68.66455078125
-77.81982421875
-76.904296875
-69.580078125
-62.255859375
-67.7490234375
-65.91796875
-70.49560546875
-70.49560546875
-69.580078125
-72.32666015625
-66.83349609375
-72.32666015625
-74.15771484375
-78.7353515625
-74.15771484375
-78.7353515625
-74.15771484375
-70.49560546875
-65.91796875
-69.580078125
-73.2421875
-70.49560546875
-60.4248046875
-56.7626953125
-75.0732421875
-73.2421875
-67.7490234375
-78.7353515625
-74.15771484375
-75.0732421875
-74.15771484375
-74.15771484375
-93.3837890625
-89.7216796875
-72.32666015625
-74.15771484375
-78.7353515625
-80.56640625
-76.904296875
-68.66455078125
-69.580078125
-63.17138671875
-76.904296875
-77.81982421875
-78.7353515625
-89.7216796875
-84.228515625
-88.80615234375
-74.15771484375
-61.34033203125
-50.35400390625
-55.84716796875
-47.607421875
-34.7900390625
-42.1142578125
-45.7763671875
-34.7900390625
-22.88818359375
-23.8037109375
-21.97265625
-25.634765625
-23.8037109375
-25.634765625
-0.91552734375
5.4931640625
15.56396484375
20.1416015625
21.05712890625
24.71923828125
33.87451171875
28.38134765625
21.97265625
10.986328125
2.74658203125
9.1552734375
21.05712890625
21.05712890625
21.97265625
19.22607421875
5.4931640625
-10.986328125
-20.1416015625
-32.04345703125
-27.4658203125
-43.9453125
-59.50927734375
-55.84716796875
-56.7626953125
-55.84716796875
-69.580078125
-82.3974609375
-83.31298828125
-82.3974609375
-91.552734375
-88.80615234375
-97.0458984375
-110.77880859375
-101.62353515625
-103.45458984375
-99.79248046875
-93.3837890625
-87.890625
-89.7216796875
-96.13037109375
-91.552734375
-90.63720703125
-103.45458984375
-108.94775390625
-107.11669921875
-96.13037109375
-101.62353515625
-106.201171875
-115.3564453125
-113.525390625
-97.96142578125
-100.7080078125
-96.13037109375
-103.45458984375
-94.29931640625
-97.0458984375
-108.94775390625
-120.849609375
-151.9775390625
-147.39990234375
-118.10302734375
-78.7353515625
-20.1416015625
71.4111328125
203.2470703125
345.15380859375
520.01953125
699.462890625
864.2578125
1009.82666015625
1152.64892578125
1245.1171875
1254.2724609375
1086.73095703125
805.6640625
531.92138671875
271.91162109375
150.146484375
83.31298828125
40.283203125
26.55029296875
-10.986328125
-54.931640625
-90.63720703125
-116.27197265625
-102.5390625
-75.0732421875
-59.50927734375
-64.0869140625
-65.91796875
-62.255859375
-54.931640625
-59.50927734375
-58.59375
-60.4248046875
-52.18505859375
-64.0869140625
-76.904296875
-80.56640625
-75.0732421875
-72.32666015625
-67.7490234375
-76.904296875
-74.15771484375
-69.580078125
-76.904296875
-78.7353515625
-70.49560546875
-75.0732421875
-68.66455078125
-55.84716796875
-57.67822265625
-59.50927734375
-52.18505859375
-54.931640625
-55.84716796875
-51.26953125
-46.69189453125
-47.607421875
-49.4384765625
-50.35400390625
-49.4384765625
-42.1142578125
-43.9453125
-54.01611328125
-45.7763671875
-42.1142578125
-29.296875
-29.296875
-32.04345703125
-23.8037109375
-18.310546875
-15.56396484375
-15.56396484375
-10.986328125
2.74658203125
14.6484375
7.32421875
18.310546875
22.88818359375
13.73291015625
10.07080078125
12.8173828125
21.05712890625
44.86083984375
43.9453125
47.607421875
54.01611328125
65.00244140625
65.00244140625
71.4111328125
85.14404296875
96.13037109375
97.96142578125
106.201171875
117.1875
125.42724609375
140.07568359375
143.73779296875
153.80859375
160.21728515625
169.37255859375
178.52783203125
195.9228515625
193.17626953125
193.17626953125
203.2470703125
215.14892578125
219.7265625
223.388671875
236.2060546875
243.5302734375
239.8681640625
242.61474609375
237.12158203125
245.361328125
253.60107421875
270.08056640625
257.26318359375
247.1923828125
260.92529296875
260.009765625
249.0234375
250.8544921875
252.685546875
242.61474609375
234.375
243.5302734375
230.712890625
217.8955078125
214.2333984375
205.078125
182.18994140625
160.21728515625
145.56884765625
136.41357421875
127.25830078125
107.11669921875
90.63720703125
85.14404296875
79.65087890625
67.7490234375
49.4384765625
38.4521484375
27.4658203125
18.310546875
11.90185546875
10.986328125
12.8173828125
-5.4931640625
-16.4794921875
-30.21240234375
-35.70556640625
-33.87451171875
-24.71923828125
-26.55029296875
-34.7900390625
-24.71923828125
-15.56396484375
-19.22607421875
-34.7900390625
-38.4521484375
-40.283203125
-48.52294921875
-44.86083984375
-40.283203125
-38.4521484375
-32.04345703125
-38.4521484375
-45.7763671875
-40.283203125
-31.1279296875
-44.86083984375
-37.53662109375
-38.4521484375
-32.958984375
-27.4658203125
-38.4521484375
-39.36767578125
-35.70556640625
-50.35400390625
-47.607421875
-44.86083984375
-42.1142578125
-40.283203125
-36.62109375
-38.4521484375
-38.4521484375
-31.1279296875
-31.1279296875
-35.70556640625
-36.62109375
-29.296875
-32.04345703125
-40.283203125
-36.62109375
-29.296875
-23.8037109375
-35.70556640625
-39.36767578125
-32.958984375
-43.02978515625
-47.607421875
-42.1142578125
-39.36767578125
-43.02978515625
-41.19873046875
-40.283203125
-30.21240234375
-29.296875
-32.04345703125
-31.1279296875
-30.21240234375
-34.7900390625
-35.70556640625
-33.87451171875
-32.958984375
-25.634765625
-38.4521484375
-41.19873046875
-34.7900390625
-34.7900390625
-41.19873046875
-41.19873046875
-46.69189453125
-55.84716796875
-65.91796875
-59.50927734375
-49.4384765625
-50.35400390625
-42.1142578125
-43.9453125
-49.4384765625
-39.36767578125
-38.4521484375
-34.7900390625
-34.7900390625
-39.36767578125
-46.69189453125
-46.69189453125
-43.9453125
-47.607421875
-56.7626953125
-53.1005859375
-51.26953125
-45.7763671875
-53.1005859375
-51.26953125
-42.1142578125
-48.52294921875
-50.35400390625
-51.26953125
-58.59375
-54.01611328125
-55.84716796875
-58.59375
-50.35400390625
-48.52294921875
-52.18505859375
-53.1005859375
-46.69189453125
-52.18505859375
-50.35400390625
-52.18505859375
-54.931640625
-51.26953125
-60.4248046875
-46.69189453125
-52.18505859375
-59.50927734375
-51.26953125
-37.53662109375
-30.21240234375
-14.6484375
-10.986328125
-5.4931640625
-6.40869140625
-1.8310546875
5.4931640625
-1.8310546875
5.4931640625
6.40869140625
7.32421875
16.4794921875
36.62109375
49.4384765625
54.01611328125
46.69189453125
58.59375
66.83349609375
70.49560546875
64.0869140625
60.4248046875
61.34033203125
64.0869140625
69.580078125
65.91796875
54.931640625
48.52294921875
38.4521484375
25.634765625
21.05712890625
-2.74658203125
-16.4794921875
-8.23974609375
-14.6484375
-39.36767578125
-48.52294921875
-43.02978515625
-52.18505859375
-44.86083984375
-61.34033203125
-60.4248046875
-54.931640625
-48.52294921875
-54.931640625
-49.4384765625
-51.26953125
-56.7626953125
-62.255859375
-68.66455078125
-56.7626953125
-56.7626953125
-55.84716796875
-52.18505859375
-57.67822265625
-54.01611328125
-67.7490234375
-65.00244140625
-64.0869140625
-59.50927734375
-73.2421875
-72.32666015625
-65.91796875
-72.32666015625
-81.48193359375
-80.56640625
-75.98876953125
-65.91796875
-70.49560546875
-70.49560546875
-96.13037109375
-119.0185546875
-120.849609375
-97.96142578125
-52.18505859375
-7.32421875
68.66455078125
204.16259765625
322.265625
487.060546875
672.91259765625
850.52490234375
1011.65771484375
1150.81787109375
1255.18798828125
1308.28857421875
1208.49609375
922.8515625
639.95361328125
373.53515625
195.9228515625
113.525390625
54.01611328125
32.958984375
4.57763671875
-22.88818359375
-56.7626953125
-67.7490234375
-40.283203125
-25.634765625
-8.23974609375
-10.986328125
-20.1416015625
-23.8037109375
-30.21240234375
-32.958984375
-32.958984375
-32.958984375
-27.4658203125
-34.7900390625
-43.9453125
-53.1005859375
-40.283203125
-42.1142578125
-37.53662109375
-32.04345703125
-46.69189453125
-41.19873046875
-37.53662109375
-37.53662109375
-33.87451171875
-29.296875
-24.71923828125
-28.38134765625
-27.4658203125
-19.22607421875
-18.310546875
-18.310546875
-17.39501953125
-18.310546875
-17.39501953125
-11.90185546875
-10.07080078125
-9.1552734375
-10.07080078125
-3.662109375
-2.74658203125
-0.91552734375
0.91552734375
-12.8173828125
-10.07080078125
2.74658203125
10.986328125
13.73291015625
18.310546875
-0.91552734375
-4.57763671875
19.22607421875
10.07080078125
28.38134765625
43.9453125
44.86083984375
43.9453125
54.01611328125
62.255859375
57.67822265625
63.17138671875
72.32666015625
61.34033203125
71.4111328125
86.0595703125
97.96142578125
101.62353515625
113.525390625
117.1875
132.75146484375
151.06201171875
148.3154296875
162.9638671875
166.6259765625
172.119140625
183.10546875
188.5986328125
196.83837890625
202.33154296875
208.740234375
201.416015625
224.30419921875
234.375
240.78369140625
246.27685546875
257.26318359375
258.1787109375
265.5029296875
267.333984375
277.40478515625
287.4755859375
287.4755859375
292.96875
294.7998046875
303.03955078125
301.20849609375
294.7998046875
309.4482421875
312.19482421875
313.1103515625
311.279296875
304.87060546875
303.03955078125
298.4619140625
289.306640625
281.982421875
267.333984375
252.685546875
237.12158203125
218.81103515625
221.5576171875
206.9091796875
195.00732421875
181.2744140625
165.71044921875
160.21728515625
134.58251953125
136.41357421875
117.1875
100.7080078125
80.56640625
74.15771484375
67.7490234375
60.4248046875
43.02978515625
27.4658203125
34.7900390625
33.87451171875
10.986328125
3.662109375
12.8173828125
-1.8310546875
1.8310546875
0
-14.6484375
-10.07080078125
-1.8310546875
-7.32421875
-0.91552734375
-10.07080078125
-14.6484375
-12.8173828125
-16.4794921875
-8.23974609375
-10.07080078125
-17.39501953125
-10.07080078125
-11.90185546875
-22.88818359375
-19.22607421875
-26.55029296875
-25.634765625
-22.88818359375
-14.6484375
-11.90185546875
-19.22607421875
-14.6484375
-12.8173828125
-7.32421875
-7.32421875
-10.07080078125
-14.6484375
-11.90185546875
-10.07080078125
-13.73291015625
-13.73291015625
-28.38134765625
-28.38134765625
-20.1416015625
-15.56396484375
-18.310546875
-20.1416015625
-7.32421875
-8.23974609375
-12.8173828125
-10.986328125
-2.74658203125
1.8310546875
1.8310546875
0
-2.74658203125
-11.90185546875
-3.662109375
-12.8173828125
-19.22607421875
-35.70556640625
-22.88818359375
-15.56396484375
-16.4794921875
-13.73291015625
-10.07080078125
-12.8173828125
-20.1416015625
-21.97265625
-29.296875
-25.634765625
-21.97265625
-23.8037109375
-22.88818359375
-28.38134765625
-33.87451171875
-35.70556640625
-35.70556640625
-32.958984375
-28.38134765625
-34.7900390625
-38.4521484375
-44.86083984375
-43.9453125
-33.87451171875
-38.4521484375
-26.55029296875
-13.73291015625
-32.958984375
-26.55029296875
-23.8037109375
-27.4658203125
-24.71923828125
-28.38134765625
-27.4658203125
-28.38134765625
-30.21240234375
-31.1279296875
-32.04345703125
-38.4521484375
-31.1279296875
-35.70556640625
-39.36767578125
-35.70556640625
-41.19873046875
-38.4521484375
-40.283203125
-35.70556640625
-39.36767578125
-44.86083984375
-38.4521484375
-46.69189453125
-53.1005859375
-52.18505859375
-47.607421875
-50.35400390625
-53.1005859375
-56.7626953125
-54.01611328125
-53.1005859375
-54.01611328125
-52.18505859375
-38.4521484375
-32.958984375
-24.71923828125
-29.296875
-16.4794921875
0
5.4931640625
3.662109375
8.23974609375
0.91552734375
18.310546875
9.1552734375
14.6484375
12.8173828125
7.32421875
27.4658203125
44.86083984375
54.01611328125
50.35400390625
52.18505859375
60.4248046875
54.01611328125
56.7626953125
66.83349609375
65.91796875
65.00244140625
73.2421875
76.904296875
66.83349609375
62.255859375
60.4248046875
43.02978515625
18.310546875
21.97265625
11.90185546875
-4.57763671875
-7.32421875
-13.73291015625
-32.04345703125
-36.62109375
-40.283203125
-54.931640625
-65.00244140625
-49.4384765625
-55.84716796875
-56.7626953125
-60.4248046875
-67.7490234375
-63.17138671875
-69.580078125
-57.67822265625
-63.17138671875
-72.32666015625
-79.65087890625
-76.904296875
-72.32666015625
-75.0732421875
-72.32666015625
-69.580078125
-61.34033203125
-75.0732421875
-73.2421875
-76.904296875
-71.4111328125
-75.98876953125
-69.580078125
-79.65087890625
-78.7353515625
-86.0595703125
-84.228515625
-69.580078125
-80.56640625
-97.0458984375
-100.7080078125
-119.0185546875
-121.76513671875
-102.5390625
-64.0869140625
-11.90185546875
61.34033203125
199.5849609375
318.603515625
471.49658203125
655.517578125
833.1298828125
986.9384765625
1133.4228515625
1239.6240234375
1295.47119140625
1183.77685546875
888.97705078125
605.16357421875
351.5625
180.35888671875
97.96142578125
39.36767578125
21.05712890625
-19.22607421875
-49.4384765625
-72.32666015625
-79.65087890625
-55.84716796875
-33.87451171875
-35.70556640625
-30.21240234375
-41.19873046875
-43.02978515625
-49.4384765625
-54.01611328125
-44.86083984375
-45.7763671875
-52.18505859375
-59.50927734375
-53.1005859375
-55.84716796875
-55.84716796875
-51.26953125
-62.255859375
-63.17138671875
-66.83349609375
-64.0869140625
-48.52294921875
-69.580078125
-55.84716796875
-52.18505859375
-46.69189453125
-46.69189453125
-55.84716796875
-58.59375
-54.01611328125
-44.86083984375
-43.02978515625
-42.1142578125
-39.36767578125
-39.36767578125
-38.4521484375
-36.62109375
-32.04345703125
-37.53662109375
-41.19873046875
-41.19873046875
-35.70556640625
-24.71923828125
-20.1416015625
-30.21240234375
-30.21240234375
-21.97265625
-11.90185546875
-3.662109375
-1.8310546875
-1.8310546875
2.74658203125
10.07080078125
10.07080078125
19.22607421875
21.05712890625
27.4658203125
37.53662109375
43.02978515625
37.53662109375
34.7900390625
53.1005859375
52.18505859375
48.52294921875
57.67822265625
65.00244140625
62.255859375
71.4111328125
84.228515625
90.63720703125
102.5390625
127.25830078125
124.51171875
130.0048828125
140.9912109375
156.55517578125
167.54150390625
176.69677734375
182.18994140625
187.68310546875
188.5986328125
201.416015625
212.40234375
211.48681640625
224.30419921875
228.8818359375
235.29052734375
227.96630859375
234.375
248.10791015625
251.77001953125
259.09423828125
259.09423828125
253.60107421875
254.5166015625
261.8408203125
263.671875
265.5029296875
263.671875
273.74267578125
261.8408203125
249.0234375
260.009765625
248.10791015625
233.45947265625
222.47314453125
225.2197265625
209.65576171875
204.16259765625
194.091796875
175.78125
151.06201171875
147.39990234375
136.41357421875
120.849609375
96.13037109375
86.0595703125
77.81982421875
60.4248046875
52.18505859375
46.69189453125
36.62109375
22.88818359375
10.986328125
0
-0.91552734375
-4.57763671875
-4.57763671875
-16.4794921875
-26.55029296875
-28.38134765625
-35.70556640625
-42.1142578125
-52.18505859375
-51.26953125
-46.69189453125
-43.9453125
-41.19873046875
-52.18505859375
-50.35400390625
-46.69189453125
-59.50927734375
-40.283203125
-43.02978515625
-50.35400390625
-56.7626953125
-65.00244140625
-52.18505859375
-76.904296875
-69.580078125
-54.01611328125
-52.18505859375
-42.1142578125
-38.4521484375
-31.1279296875
-35.70556640625
-45.7763671875
-39.36767578125
-48.52294921875
-44.86083984375
-33.87451171875
-42.1142578125
-50.35400390625
-47.607421875
-43.9453125
-42.1142578125
-45.7763671875
-33.87451171875
-46.69189453125
-43.9453125
-38.4521484375
-43.02978515625
-43.9453125
-39.36767578125
-41.19873046875
-61.34033203125
-53.1005859375
-53.1005859375
-64.0869140625
-55.84716796875
-54.01611328125
-61.34033203125
-56.7626953125
-43.9453125
-52.18505859375
-55.84716796875
-55.84716796875
-58.59375
-61.34033203125
-56.7626953125
-64.0869140625
-63.17138671875
-60.4248046875
-60.4248046875
-62.255859375
-60.4248046875
-61.34033203125
-56.7626953125
-61.34033203125
-60.4248046875
-60.4248046875
-68.66455078125
-55.84716796875
-56.7626953125
-65.00244140625
-69.580078125
-75.98876953125
-65.00244140625
-64.0869140625
-71.4111328125
-75.98876953125
-78.7353515625
-82.3974609375
-77.81982421875
-80.56640625
-83.31298828125
-75.98876953125
-86.0595703125
-84.228515625
-71.4111328125
-70.49560546875
-74.15771484375
-76.904296875
-72.32666015625
-71.4111328125
-76.904296875
-68.66455078125
-72.32666015625
-79.65087890625
-83.31298828125
-86.0595703125
-80.56640625
-77.81982421875
-75.98876953125
-84.228515625
-94.29931640625
-85.14404296875
-97.96142578125
-98.876953125
-92.46826171875
-92.46826171875
-84.228515625
-87.890625
-86.97509765625
-93.3837890625
-90.63720703125
-73.2421875
-58.59375
-57.67822265625
-52.18505859375
-45.7763671875
-45.7763671875
-34.7900390625
-45.7763671875
-39.36767578125
-44.86083984375
-34.7900390625
-43.02978515625
-56.7626953125
-45.7763671875
-18.310546875
0
10.986328125
11.90185546875
6.40869140625
8.23974609375
17.39501953125
-0.91552734375
10.986328125
16.4794921875
32.04345703125
24.71923828125
15.56396484375
7.32421875
0
-4.57763671875
-6.40869140625
-15.56396484375
-29.296875
-49.4384765625
-54.01611328125
-67.7490234375
-72.32666015625
-87.890625
-86.0595703125
-97.0458984375
-100.7080078125
-97.0458984375
-96.13037109375
-87.890625
-95.21484375
-103.45458984375
-95.21484375
-98.876953125
-98.876953125
-100.7080078125
-100.7080078125
-102.5390625
-107.11669921875
-108.0322265625
-119.93408203125
-115.3564453125
-115.3564453125
-117.1875
-116.27197265625
-122.6806640625
-109.86328125
-118.10302734375
-106.201171875
-118.10302734375
-120.849609375
-117.1875
-118.10302734375
-131.8359375
-124.51171875
-130.92041015625
-151.9775390625
-149.23095703125
-173.03466796875
-160.21728515625
-129.08935546875
-86.0595703125
-43.02978515625
39.36767578125
172.119140625
306.70166015625
476.07421875
663.75732421875
833.1298828125
990.6005859375
1122.4365234375
1213.9892578125
1238.70849609375
1080.322265625
816.650390625
534.66796875
260.009765625
114.44091796875
49.4384765625
1.8310546875
-18.310546875
-26.55029296875
-54.931640625
-98.876953125
-135.498046875
-124.51171875
-94.29931640625
-86.97509765625
-83.31298828125
-73.2421875
-77.81982421875
-87.890625
-87.890625
-75.98876953125
-78.7353515625
-86.0595703125
-89.7216796875
-107.11669921875
-104.3701171875
-101.62353515625
-99.79248046875
-103.45458984375
-106.201171875
-97.96142578125
-100.7080078125
-105.28564453125
-117.1875
-110.77880859375
-108.94775390625
-97.0458984375
-88.80615234375
-86.97509765625
-90.63720703125
-91.552734375
-80.56640625
-90.63720703125
-94.29931640625
-76.904296875
-86.0595703125
-78.7353515625
-79.65087890625
-75.0732421875
-78.7353515625
-74.15771484375
-64.0869140625
-69.580078125
-72.32666015625
-53.1005859375
-59.50927734375
-64.0869140625
-53.1005859375
-56.7626953125
-55.84716796875
-43.9453125
-43.9453125
-49.4384765625
-37.53662109375
-23.8037109375
-20.1416015625
-21.05712890625
-14.6484375
-4.57763671875
-1.8310546875
-1.8310546875
8.23974609375
9.1552734375
30.21240234375
33.87451171875
28.38134765625
30.21240234375
33.87451171875
40.283203125
43.9453125
51.26953125
77.81982421875
70.49560546875
75.0732421875
78.7353515625
76.904296875
98.876953125
118.10302734375
121.76513671875
128.173828125
139.16015625
147.39990234375
144.6533203125
162.9638671875
172.119140625
167.54150390625
172.119140625
172.119140625
184.02099609375
194.091796875
204.16259765625
189.51416015625
175.78125
184.9365234375
189.51416015625
197.75390625
195.9228515625
207.82470703125
209.65576171875
201.416015625
205.99365234375
200.50048828125
205.99365234375
191.34521484375
173.9501953125
170.2880859375
160.21728515625
154.72412109375
143.73779296875
137.3291015625
116.27197265625
100.7080078125
91.552734375
79.65087890625
74.15771484375
70.49560546875
65.00244140625
53.1005859375
38.4521484375
29.296875
-5.4931640625
-9.1552734375
-8.23974609375
-18.310546875
-20.1416015625
-40.283203125
-50.35400390625
-54.01611328125
-68.66455078125
-58.59375
-68.66455078125
-74.15771484375
-64.0869140625
-72.32666015625
-84.228515625
-91.552734375
-93.3837890625
-89.7216796875
-86.0595703125
-88.80615234375
-88.80615234375
-86.97509765625
-92.46826171875
-88.80615234375
-87.890625
-75.98876953125
-68.66455078125
-73.2421875
-92.46826171875
-77.81982421875
-85.14404296875
-104.3701171875
-100.7080078125
-87.890625
-86.0595703125
-78.7353515625
-87.890625
-82.3974609375
-77.81982421875
-89.7216796875
-86.0595703125
-77.81982421875
-73.2421875
-77.81982421875
-83.31298828125
-86.0595703125
-80.56640625
-84.228515625
-85.14404296875
-89.7216796875
-87.890625
-77.81982421875
-80.56640625
-86.97509765625
-75.98876953125
-75.98876953125
-89.7216796875
-84.228515625
-72.32666015625
-70.49560546875
-72.32666015625
-76.904296875
-78.7353515625
-73.2421875
-92.46826171875
-99.79248046875
-86.0595703125
-83.31298828125
-79.65087890625
-87.890625
-86.0595703125
-95.21484375
-92.46826171875
-94.29931640625
-101.62353515625
-107.11669921875
-103.45458984375
-99.79248046875
-95.21484375
-97.96142578125
-85.14404296875
-96.13037109375
-93.3837890625
-96.13037109375
-101.62353515625
-107.11669921875
-101.62353515625
-97.96142578125
-97.0458984375
-95.21484375
-87.890625
-93.3837890625
-111.6943359375
-109.86328125
-110.77880859375
-121.76513671875
-108.0322265625
-95.21484375
-86.97509765625
-87.890625
-83.31298828125
-63.17138671875
-60.4248046875
-73.2421875
-78.7353515625
-84.228515625
-84.228515625
-77.81982421875
-62.255859375
-60.4248046875
-62.255859375
-49.4384765625
-64.0869140625
-55.84716796875
-43.02978515625
-32.958984375
-27.4658203125
-40.283203125
-41.19873046875
-22.88818359375
-24.71923828125
-24.71923828125
-20.1416015625
-10.986328125
-5.4931640625
-5.4931640625
-15.56396484375
-22.88818359375
-27.4658203125
-35.70556640625
-32.958984375
-49.4384765625
-61.34033203125
-64.0869140625
-86.97509765625
-103.45458984375
-103.45458984375
-104.3701171875
-114.44091796875
-119.0185546875
-122.6806640625
-120.849609375
-119.93408203125
-128.173828125
-131.8359375
-132.75146484375
-125.42724609375
-122.6806640625
-116.27197265625
-114.44091796875
-122.6806640625
-127.25830078125
-119.93408203125
-125.42724609375
-130.0048828125
-126.3427734375
-124.51171875
-121.76513671875
-131.8359375
-130.92041015625
-119.93408203125
-113.525390625
-129.08935546875
-127.25830078125
-125.42724609375
-119.0185546875
-114.44091796875
-127.25830078125
-126.3427734375
-133.6669921875
-161.1328125
-173.03466796875
-176.69677734375
-144.6533203125
-106.201171875
-43.02978515625
40.283203125
178.52783203125
317.68798828125
490.72265625
672.91259765625
829.4677734375
972.2900390625
1098.6328125
1198.42529296875
1201.171875
1013.48876953125
752.5634765625
487.97607421875
242.61474609375
137.3291015625
70.49560546875
17.39501953125
-0.91552734375
-18.310546875
-65.00244140625
-100.7080078125
-134.58251953125
-136.41357421875
-100.7080078125
-74.15771484375
-73.2421875
-82.3974609375
-85.14404296875
-76.904296875
-81.48193359375
-97.0458984375
-92.46826171875
-91.552734375
-96.13037109375
-93.3837890625
-104.3701171875
-107.11669921875
-112.60986328125
-112.60986328125
-104.3701171875
-98.876953125
-101.62353515625
-96.13037109375
-89.7216796875
-92.46826171875
-90.63720703125
-90.63720703125
-86.97509765625
-77.81982421875
-82.3974609375
-86.0595703125
-76.904296875
-75.0732421875
-81.48193359375
-79.65087890625
-71.4111328125
-75.98876953125
-75.0732421875
-77.81982421875
-75.0732421875
-74.15771484375
-67.7490234375
-54.931640625
-60.4248046875
-61.34033203125
-65.00244140625
-61.34033203125
-56.7626953125
-54.01611328125
-43.9453125
-37.53662109375
-42.1142578125
-34.7900390625
-27.4658203125
-29.296875
-21.97265625
-17.39501953125
-13.73291015625
-10.07080078125
-9.1552734375
8.23974609375
10.986328125
-4.57763671875
6.40869140625
16.4794921875
21.97265625
33.87451171875
34.7900390625
39.36767578125
45.7763671875
63.17138671875
73.2421875
75.98876953125
75.98876953125
91.552734375
103.45458984375
108.94775390625
116.27197265625
114.44091796875
123.59619140625
126.3427734375
134.58251953125
150.146484375
145.56884765625
146.484375
146.484375
164.794921875
169.37255859375
173.9501953125
183.10546875
184.9365234375
191.34521484375
193.17626953125
195.00732421875
200.50048828125
195.00732421875
199.5849609375
180.35888671875
177.6123046875
181.2744140625
186.767578125
176.69677734375
171.20361328125
185.85205078125
163.87939453125
162.04833984375
146.484375
142.822265625
124.51171875
111.6943359375
97.96142578125
86.97509765625
82.3974609375
65.91796875
53.1005859375
32.958984375
37.53662109375
32.958984375
14.6484375
9.1552734375
1.8310546875
-1.8310546875
-17.39501953125
-28.38134765625
-31.1279296875
-42.1142578125
-40.283203125
-43.02978515625
-51.26953125
-59.50927734375
-61.34033203125
-71.4111328125
-76.904296875
-77.81982421875
-80.56640625
-79.65087890625
-74.15771484375
-73.2421875
-77.81982421875
-90.63720703125
-93.3837890625
-89.7216796875
-78.7353515625
-75.0732421875
-72.32666015625
-81.48193359375
-93.3837890625
-88.80615234375
-82.3974609375
-60.4248046875
-75.98876953125
-85.14404296875
-86.97509765625
-73.2421875
-70.49560546875
-71.4111328125
-71.4111328125
-80.56640625
-68.66455078125
-72.32666015625
-84.228515625
-68.66455078125
-63.17138671875
-77.81982421875
-80.56640625
-77.81982421875
-75.0732421875
-75.0732421875
-78.7353515625
-76.904296875
-80.56640625
-78.7353515625
-66.83349609375
-74.15771484375
-67.7490234375
-70.49560546875
-81.48193359375
-86.97509765625
-89.7216796875
-93.3837890625
-78.7353515625
-72.32666015625
-66.83349609375
-68.66455078125
-74.15771484375
-78.7353515625
-74.15771484375
-86.0595703125
-86.0595703125
-91.552734375
-82.3974609375
-85.14404296875
-82.3974609375
-90.63720703125
-93.3837890625
-79.65087890625
-78.7353515625
-80.56640625
-87.890625
-86.97509765625
-96.13037109375
-89.7216796875
-89.7216796875
-82.3974609375
-83.31298828125
-81.48193359375
-83.31298828125
-89.7216796875
-92.46826171875
-90.63720703125
-99.79248046875
-89.7216796875
-92.46826171875
-87.890625
-94.29931640625
-97.0458984375
-99.79248046875
-101.62353515625
-96.13037109375
-93.3837890625
-89.7216796875
-78.7353515625
-73.2421875
-77.81982421875
-58.59375
-34.7900390625
-43.9453125
-51.26953125
-44.86083984375
-40.283203125
-47.607421875
-47.607421875
-37.53662109375
-32.958984375
-31.1279296875
-23.8037109375
-17.39501953125
-21.05712890625
-11.90185546875
-2.74658203125
-0.91552734375
0
5.4931640625
1.8310546875
4.57763671875
6.40869140625
4.57763671875
-2.74658203125
-4.57763671875
-12.8173828125
-19.22607421875
-28.38134765625
-45.7763671875
-53.1005859375
-54.931640625
-76.904296875
-86.97509765625
-97.0458984375
-99.79248046875
-101.62353515625
-105.28564453125
-119.0185546875
-109.86328125
-102.5390625
-102.5390625
-108.0322265625
-108.94775390625
-112.60986328125
-114.44091796875
-101.62353515625
-90.63720703125
-99.79248046875
-116.27197265625
-112.60986328125
-112.60986328125
-106.201171875
-111.6943359375
-118.10302734375
-116.27197265625
-129.08935546875
-128.173828125
-113.525390625
-117.1875
-121.76513671875
-120.849609375
-115.3564453125
-103.45458984375
-103.45458984375
-114.44091796875
-111.6943359375
-120.849609375
-123.59619140625
-142.822265625
-168.45703125
-149.23095703125
-119.0185546875
-71.4111328125
-21.05712890625
73.2421875
195.00732421875
317.68798828125
495.30029296875
681.15234375
835.87646484375
979.6142578125
1115.1123046875
1198.42529296875
1202.08740234375
1023.5595703125
729.67529296875
453.18603515625
223.388671875
119.93408203125
48.52294921875
-12.8173828125
-26.55029296875
-42.1142578125
-72.32666015625
-97.96142578125
-100.7080078125
-76.904296875
-51.26953125
-45.7763671875
-56.7626953125
-58.59375
-63.17138671875
-75.0732421875
-75.98876953125
-86.97509765625
-85.14404296875
-81.48193359375
-77.81982421875
-84.228515625
-77.81982421875
-85.14404296875
-78.7353515625
-90.63720703125
-88.80615234375
-75.0732421875
-79.65087890625
-71.4111328125
-70.49560546875
-69.580078125
-71.4111328125
-71.4111328125
-71.4111328125
-73.2421875
-65.91796875
-73.2421875
-71.4111328125
-63.17138671875
-58.59375
-58.59375
-49.4384765625
-52.18505859375
-48.52294921875
-48.52294921875
-52.18505859375
-39.36767578125
-49.4384765625
-44.86083984375
-32.958984375
-37.53662109375
-35.70556640625
-21.05712890625
-11.90185546875
-15.56396484375
-4.57763671875
-3.662109375
1.8310546875
8.23974609375
6.40869140625
8.23974609375
6.40869140625
10.07080078125
13.73291015625
10.07080078125
23.8037109375
39.36767578125
35.70556640625
44.86083984375
54.931640625
66.83349609375
75.98876953125
73.2421875
86.0595703125
87.890625
96.13037109375
110.77880859375
112.60986328125
115.3564453125
127.25830078125
130.0048828125
135.498046875
155.6396484375
164.794921875
168.45703125
165.71044921875
184.02099609375
192.2607421875
191.34521484375
205.99365234375
218.81103515625
216.97998046875
220.64208984375
235.29052734375
238.037109375
232.5439453125
239.8681640625
236.2060546875
254.5166015625
251.77001953125
233.45947265625
242.61474609375
262.75634765625
264.58740234375
265.5029296875
254.5166015625
249.93896484375
244.44580078125
238.037109375
243.5302734375
238.037109375
224.30419921875
215.14892578125
203.2470703125
195.9228515625
179.443359375
162.9638671875
144.6533203125
142.822265625
134.58251953125
119.0185546875
114.44091796875
96.13037109375
79.65087890625
60.4248046875
60.4248046875
52.18505859375
37.53662109375
26.55029296875
14.6484375
9.1552734375
3.662109375
-8.23974609375
-19.22607421875
-15.56396484375
-15.56396484375
-19.22607421875
-16.4794921875
-21.05712890625
-28.38134765625
-42.1142578125
-49.4384765625
-45.7763671875
-43.9453125
-33.87451171875
-34.7900390625
-43.02978515625
-39.36767578125
-31.1279296875
-22.88818359375
-38.4521484375
-43.02978515625
-32.04345703125
-31.1279296875
-32.958984375
-28.38134765625
-30.21240234375
-32.04345703125
-34.7900390625
-34.7900390625
-31.1279296875
-27.4658203125
-27.4658203125
-28.38134765625
-29.296875
-31.1279296875
-25.634765625
-25.634765625
-20.1416015625
-18.310546875
-30.21240234375
-31.1279296875
-32.958984375
-26.55029296875
-30.21240234375
-26.55029296875
-34.7900390625
-33.87451171875
-33.87451171875
-22.88818359375
-23.8037109375
-36.62109375
-32.04345703125
-28.38134765625
-21.97265625
-24.71923828125
-25.634765625
-32.958984375
-30.21240234375
-43.02978515625
-47.607421875
-42.1142578125
-32.958984375
-30.21240234375
-33.87451171875
-40.283203125
-49.4384765625
-41.19873046875
-36.62109375
-40.283203125
-49.4384765625
-35.70556640625
-29.296875
-43.9453125
-52.18505859375
-45.7763671875
-54.931640625
-53.1005859375
-53.1005859375
-51.26953125
-44.86083984375
-50.35400390625
-43.9453125
-51.26953125
-54.931640625
-51.26953125
-48.52294921875
-49.4384765625
-49.4384765625
-53.1005859375
-51.26953125
-59.50927734375
-61.34033203125
-53.1005859375
-44.86083984375
-52.18505859375
-59.50927734375
-63.17138671875
-62.255859375
-51.26953125
-42.1142578125
-35.70556640625
-28.38134765625
-21.05712890625
-13.73291015625
-7.32421875
-9.1552734375
6.40869140625
15.56396484375
11.90185546875
17.39501953125
5.4931640625
4.57763671875
19.22607421875
35.70556640625
38.4521484375
32.958984375
39.36767578125
45.7763671875
52.18505859375
48.52294921875
46.69189453125
54.01611328125
57.67822265625
68.66455078125
61.34033203125
39.36767578125
29.296875
30.21240234375
32.958984375
18.310546875
0
-19.22607421875
-10.986328125
-23.8037109375
-38.4521484375
-43.02978515625
-53.1005859375
-65.00244140625
-65.00244140625
-60.4248046875
-63.17138671875
-71.4111328125
-81.48193359375
-79.65087890625
-71.4111328125
-65.00244140625
-75.98876953125
-76.904296875
-74.15771484375
-65.00244140625
-67.7490234375
-75.98876953125
-72.32666015625
-74.15771484375
-77.81982421875
-83.31298828125
-83.31298828125
-92.46826171875
-97.0458984375
-84.228515625
-67.7490234375
-65.91796875
-74.15771484375
-65.00244140625
-67.7490234375
-71.4111328125
-75.98876953125
-77.81982421875
-82.3974609375
-79.65087890625
-86.0595703125
-107.11669921875
-122.6806640625
-114.44091796875
-87.890625
-41.19873046875
0.91552734375
96.13037109375
245.361328125
370.78857421875
537.41455078125
716.85791015625
886.23046875
1037.29248046875
1160.888671875
1251.52587890625
1244.20166015625
1029.052734375
741.5771484375
466.00341796875
244.44580078125
130.92041015625
63.17138671875
21.97265625
-10.07080078125
-21.97265625
-42.1142578125
-59.50927734375
-72.32666015625
-37.53662109375
-13.73291015625
-15.56396484375
-20.1416015625
-32.04345703125
-35.70556640625
-40.283203125
-36.62109375
-49.4384765625
-51.26953125
-40.283203125
-53.1005859375
-47.607421875
-54.931640625
-57.67822265625
-53.1005859375
-56.7626953125
-54.931640625
-53.1005859375
-48.52294921875
-49.4384765625
-47.607421875
-39.36767578125
-45.7763671875
-37.53662109375
-34.7900390625
-36.62109375
-43.9453125
-40.283203125
-36.62109375
-25.634765625
-22.88818359375
-27.4658203125
-23.8037109375
-21.97265625
-22.88818359375
-35.70556640625
-28.38134765625
-16.4794921875
-7.32421875
-7.32421875
-11.90185546875
-10.07080078125
-0.91552734375
-3.662109375
-7.32421875
-12.8173828125
1.8310546875
6.40869140625
15.56396484375
33.87451171875
37.53662109375
28.38134765625
36.62109375
42.1142578125
39.36767578125
45.7763671875
53.1005859375
54.01611328125
58.59375
68.66455078125
73.2421875
80.56640625
88.80615234375
97.96142578125
110.77880859375
116.27197265625
116.27197265625
132.75146484375
135.498046875
138.24462890625
144.6533203125
149.23095703125
151.06201171875
159.3017578125
175.78125
188.5986328125
184.9365234375
184.02099609375
202.33154296875
227.96630859375
238.95263671875
238.95263671875
243.5302734375
238.037109375
245.361328125
256.34765625
246.27685546875
264.58740234375
257.26318359375
246.27685546875
263.671875
270.99609375
264.58740234375
267.333984375
264.58740234375
260.009765625
247.1923828125
256.34765625
252.685546875
250.8544921875
244.44580078125
241.69921875
232.5439453125
226.13525390625
221.5576171875
207.82470703125
198.66943359375
185.85205078125
174.86572265625
162.04833984375
138.24462890625
127.25830078125
110.77880859375
98.876953125
103.45458984375
90.63720703125
75.0732421875
52.18505859375
44.86083984375
43.9453125
28.38134765625
11.90185546875
-4.57763671875
10.986328125
2.74658203125
7.32421875
5.4931640625
-6.40869140625
-11.90185546875
-13.73291015625
-11.90185546875
-8.23974609375
-15.56396484375
-17.39501953125
-15.56396484375
-18.310546875
-22.88818359375
-21.05712890625
-14.6484375
-17.39501953125
-16.4794921875
-11.90185546875
-10.986328125
-21.05712890625
-23.8037109375
-25.634765625
-23.8037109375
-32.958984375
-21.97265625
-11.90185546875
-15.56396484375
-18.310546875
-15.56396484375
-15.56396484375
-14.6484375
-18.310546875
-10.07080078125
-10.986328125
-10.07080078125
-16.4794921875
-24.71923828125
-26.55029296875
-34.7900390625
-17.39501953125
-19.22607421875
-22.88818359375
-21.97265625
-19.22607421875
-10.07080078125
-6.40869140625
-9.1552734375
-23.8037109375
-21.97265625
-21.97265625
-32.04345703125
-32.958984375
-33.87451171875
-28.38134765625
-22.88818359375
-11.90185546875
-20.1416015625
-29.296875
-20.1416015625
-21.97265625
-27.4658203125
-25.634765625
-34.7900390625
-32.958984375
-32.04345703125
-24.71923828125
-23.8037109375
-33.87451171875
-24.71923828125
-21.97265625
-29.296875
-38.4521484375
-32.04345703125
-42.1142578125
-46.69189453125
-42.1142578125
-43.9453125
-41.19873046875
-48.52294921875
-39.36767578125
-33.87451171875
-38.4521484375
-29.296875
-35.70556640625
-55.84716796875
-65.91796875
-60.4248046875
-61.34033203125
-55.84716796875
-44.86083984375
-48.52294921875
-64.0869140625
-55.84716796875
-54.931640625
-55.84716796875
-65.00244140625
-56.7626953125
-50.35400390625
-54.931640625
-50.35400390625
-44.86083984375
-44.86083984375
-40.283203125
-44.86083984375
-30.21240234375
-13.73291015625
-10.07080078125
-13.73291015625
-22.88818359375
-14.6484375
-6.40869140625
1.8310546875
2.74658203125
0
10.986328125
25.634765625
47.607421875
32.958984375
22.88818359375
21.97265625
29.296875
36.62109375
25.634765625
13.73291015625
25.634765625
31.1279296875
48.52294921875
44.86083984375
41.19873046875
20.1416015625
13.73291015625
0.91552734375
-17.39501953125
-38.4521484375
-34.7900390625
-38.4521484375
-25.634765625
-52.18505859375
-71.4111328125
-77.81982421875
-91.552734375
-100.7080078125
-97.96142578125
-101.62353515625
-91.552734375
-87.890625
-82.3974609375
-78.7353515625
-85.14404296875
-97.96142578125
-106.201171875
-102.5390625
-106.201171875
-102.5390625
-104.3701171875
-101.62353515625
-98.876953125
-93.3837890625
-97.0458984375
-111.6943359375
-102.5390625
-102.5390625
-106.201171875
-98.876953125
-98.876953125
-107.11669921875
-103.45458984375
-109.86328125
-120.849609375
-117.1875
-99.79248046875
-109.86328125
-120.849609375
-123.59619140625
-147.39990234375
-160.21728515625
-135.498046875
-95.21484375
-36.62109375
21.97265625
138.24462890625
266.41845703125
421.142578125
599.67041015625
778.1982421875
943.90869140625
1090.39306640625
1191.10107421875
1237.79296875
1144.4091796875
858.7646484375
585.02197265625
312.19482421875
154.72412109375
77.81982421875
10.986328125
-6.40869140625
-30.21240234375
-65.91796875
-89.7216796875
-99.79248046875
-99.79248046875
-82.3974609375
-53.1005859375
-47.607421875
-61.34033203125
-62.255859375
-62.255859375
-77.81982421875
-77.81982421875
-83.31298828125
-83.31298828125
-79.65087890625
-94.29931640625
-89.7216796875
-91.552734375
-82.3974609375
-91.552734375
-87.890625
-75.98876953125
-79.65087890625
-75.98876953125
-68.66455078125
-70.49560546875
-70.49560546875
-70.49560546875
-65.91796875
-73.2421875
-72.32666015625
-81.48193359375
-71.4111328125
-60.4248046875
-58.59375
-65.00244140625
-70.49560546875
-59.50927734375
-51.26953125
-54.931640625
-67.7490234375
-64.0869140625
-50.35400390625
-47.607421875
-48.52294921875
-35.70556640625
-28.38134765625
-37.53662109375
-31.1279296875
-23.8037109375
-25.634765625
-26.55029296875
-16.4794921875
-16.4794921875
-22.88818359375
-10.986328125
-8.23974609375
-2.74658203125
0.91552734375
0.91552734375
23.8037109375
23.8037109375
12.8173828125
17.39501953125
25.634765625
38.4521484375
37.53662109375
43.9453125
43.9453125
55.84716796875
68.66455078125
69.580078125
65.91796875
92.46826171875
95.21484375
105.28564453125
117.1875
129.08935546875
141.90673828125
145.56884765625
153.80859375
154.72412109375
162.04833984375
154.72412109375
161.1328125
172.119140625
183.10546875
193.17626953125
191.34521484375
184.02099609375
203.2470703125
201.416015625
213.31787109375
204.16259765625
204.16259765625
202.33154296875
207.82470703125
218.81103515625
218.81103515625
212.40234375
204.16259765625
200.50048828125
197.75390625
187.68310546875
179.443359375
180.35888671875
171.20361328125
174.86572265625
163.87939453125
145.56884765625
142.822265625
129.08935546875
119.93408203125
109.86328125
88.80615234375
86.97509765625
75.0732421875
64.0869140625
57.67822265625
47.607421875
26.55029296875
5.4931640625
0
-10.07080078125
-21.05712890625
-21.05712890625
-35.70556640625
-35.70556640625
-37.53662109375
-53.1005859375
-62.255859375
-52.18505859375
-56.7626953125
-58.59375
-52.18505859375
-58.59375
-58.59375
-63.17138671875
-63.17138671875
-75.0732421875
-63.17138671875
-55.84716796875
-75.0732421875
-75.98876953125
-69.580078125
-65.00244140625
-69.580078125
-66.83349609375
-60.4248046875
-67.7490234375
-72.32666015625
-79.65087890625
-81.48193359375
-70.49560546875
-70.49560546875
-70.49560546875
-64.0869140625
-66.83349609375
-67.7490234375
-86.0595703125
-84.228515625
-76.904296875
-66.83349609375
-55.84716796875
-46.69189453125
-57.67822265625
-64.0869140625
-62.255859375
-63.17138671875
-69.580078125
-66.83349609375
-65.00244140625
-82.3974609375
-83.31298828125
-82.3974609375
-72.32666015625
-75.98876953125
-76.904296875
-63.17138671875
-68.66455078125
-69.580078125
-65.91796875
-62.255859375
-79.65087890625
-79.65087890625
-82.3974609375
-80.56640625
-76.904296875
-81.48193359375
-75.98876953125
-89.7216796875
-88.80615234375
-86.0595703125
-82.3974609375
-75.0732421875
-76.904296875
-80.56640625
-86.0595703125
-100.7080078125
-76.904296875
-84.228515625
-92.46826171875
-101.62353515625
-108.94775390625
-112.60986328125
-105.28564453125
-92.46826171875
-84.228515625
-79.65087890625
-75.98876953125
-84.228515625
-81.48193359375
-85.14404296875
-93.3837890625
-90.63720703125
-82.3974609375
-84.228515625
-79.65087890625
-75.0732421875
-75.0732421875
-68.66455078125
-51.26953125
-62.255859375
-71.4111328125
-68.66455078125
-69.580078125
-69.580078125
-56.7626953125
-52.18505859375
-54.01611328125
-51.26953125
-40.283203125
-24.71923828125
-15.56396484375
-27.4658203125
-37.53662109375
-21.05712890625
-7.32421875
-2.74658203125
-0.91552734375
-3.662109375
6.40869140625
2.74658203125
-2.74658203125
-8.23974609375
-27.4658203125
-30.21240234375
-42.1142578125
-71.4111328125
-82.3974609375
-78.7353515625
-89.7216796875
-84.228515625
-89.7216796875
-92.46826171875
-96.13037109375
-91.552734375
-97.96142578125
-113.525390625
-112.60986328125
-108.0322265625
-117.1875
-114.44091796875
-112.60986328125
-111.6943359375
-111.6943359375
-110.77880859375
-109.86328125
-122.6806640625
-120.849609375
-127.25830078125
-127.25830078125
-119.93408203125
-115.3564453125
-119.0185546875
-122.6806640625
-119.0185546875
-128.173828125
-128.173828125
-133.6669921875
-129.08935546875
-131.8359375
-139.16015625
-129.08935546875
-128.173828125
-133.6669921875
-129.08935546875
-132.75146484375
-143.73779296875
-176.69677734375
-178.52783203125
-150.146484375
-111.6943359375
-52.18505859375
38.4521484375
176.69677734375
326.84326171875
487.060546875
656.43310546875
811.1572265625
960.38818359375
1101.37939453125
1198.42529296875
1216.73583984375
1074.8291015625
804.74853515625
525.5126953125
275.57373046875
135.498046875
75.98876953125
28.38134765625
9.1552734375
0.91552734375
-32.04345703125
-75.98876953125
-104.3701171875
-105.28564453125
-111.6943359375
-111.6943359375
-87.890625
-83.31298828125
-87.890625
-91.552734375
-86.0595703125
-84.228515625
-83.31298828125
-78.7353515625
-74.15771484375
-80.56640625
-76.904296875
-72.32666015625
-75.0732421875
-78.7353515625
-80.56640625
-86.0595703125
-86.0595703125
-98.876953125
-89.7216796875
-81.48193359375
-86.0595703125
-84.228515625
-83.31298828125
-81.48193359375
-71.4111328125
-64.0869140625
-68.66455078125
-68.66455078125
-62.255859375
-66.83349609375
-65.91796875
-50.35400390625
-61.34033203125
-66.83349609375
-62.255859375
-62.255859375
-50.35400390625
-37.53662109375
-36.62109375
-35.70556640625
-35.70556640625
-34.7900390625
-37.53662109375
-35.70556640625
-32.958984375
-28.38134765625
-33.87451171875
-35.70556640625
-21.97265625
-22.88818359375
-22.88818359375
-9.1552734375
-2.74658203125
-10.07080078125
-4.57763671875
-21.05712890625
6.40869140625
40.283203125
52.18505859375
46.69189453125
48.52294921875
54.01611328125
56.7626953125
60.4248046875
56.7626953125
75.0732421875
74.15771484375
78.7353515625
75.0732421875
81.48193359375
92.46826171875
95.21484375
107.11669921875
119.93408203125
132.75146484375
146.484375
148.3154296875
153.80859375
155.6396484375
163.87939453125
171.20361328125
170.2880859375
169.37255859375
169.37255859375
168.45703125
162.9638671875
166.6259765625
171.20361328125
178.52783203125
184.02099609375
181.2744140625
180.35888671875
186.767578125
180.35888671875
169.37255859375
175.78125
166.6259765625
162.04833984375
160.21728515625
146.484375
136.41357421875
135.498046875
121.76513671875
112.60986328125
126.3427734375
122.6806640625
91.552734375
76.904296875
65.00244140625
58.59375
58.59375
32.958984375
15.56396484375
9.1552734375
12.8173828125
11.90185546875
8.23974609375
0
-10.07080078125
-13.73291015625
-17.39501953125
-23.8037109375
-30.21240234375
-32.04345703125
-31.1279296875
-32.04345703125
-36.62109375
-56.7626953125
-62.255859375
-69.580078125
-69.580078125
-71.4111328125
-74.15771484375
-58.59375
-42.1142578125
-45.7763671875
-60.4248046875
-58.59375
-48.52294921875
-65.91796875
-58.59375
-79.65087890625
-81.48193359375
-64.0869140625
-65.00244140625
-60.4248046875
-53.1005859375
-58.59375
-54.01611328125
-53.1005859375
-48.52294921875
-57.67822265625
-51.26953125
-52.18505859375
-41.19873046875
-56.7626953125
-54.931640625
-55.84716796875
-60.4248046875
-66.83349609375
-54.01611328125
-61.34033203125
-71.4111328125
-60.4248046875
-43.02978515625
-48.52294921875
-60.4248046875
-61.34033203125
-67.7490234375
-58.59375
-64.0869140625
-71.4111328125
-71.4111328125
-71.4111328125
-55.84716796875
-43.9453125
-52.18505859375
-62.255859375
-62.255859375
-56.7626953125
-54.01611328125
-64.0869140625
-60.4248046875
-65.00244140625
-62.255859375
-63.17138671875
-65.00244140625
-65.00244140625
-65.91796875
-57.67822265625
-57.67822265625
-72.32666015625
-69.580078125
-65.00244140625
-66.83349609375
-74.15771484375
-69.580078125
-72.32666015625
-72.32666015625
-73.2421875
-79.65087890625
-75.98876953125
-71.4111328125
-59.50927734375
-62.255859375
-68.66455078125
-101.62353515625
-68.66455078125
-75.0732421875
-100.7080078125
-105.28564453125
-73.2421875
-49.4384765625
-45.7763671875
-49.4384765625
-48.52294921875
-41.19873046875
-21.97265625
-17.39501953125
-19.22607421875
-10.986328125
-8.23974609375
-14.6484375
-10.07080078125
0
1.8310546875
2.74658203125
6.40869140625
-5.4931640625
0
10.07080078125
20.1416015625
16.4794921875
27.4658203125
32.04345703125
27.4658203125
9.1552734375
0
5.4931640625
1.8310546875
-11.90185546875
-25.634765625
-36.62109375
-44.86083984375
-60.4248046875
-72.32666015625
-75.0732421875
-82.3974609375
-83.31298828125
-86.0595703125
-85.14404296875
-90.63720703125
-110.77880859375
-100.7080078125
-90.63720703125
-119.93408203125
-127.25830078125
-110.77880859375
-110.77880859375
-101.62353515625
-91.552734375
-75.98876953125
-62.255859375
-75.0732421875
-102.5390625
-112.60986328125
-116.27197265625
-95.21484375
-98.876953125
-97.0458984375
-93.3837890625
-94.29931640625
-96.13037109375
-82.3974609375
-92.46826171875
-100.7080078125
-97.0458984375
-109.86328125
-115.3564453125
-121.76513671875
-123.59619140625
-131.8359375
-158.38623046875
-157.470703125
-113.525390625
-60.4248046875
-4.57763671875
70.49560546875
204.16259765625
335.99853515625
485.2294921875
662.841796875
830.38330078125
974.12109375
1103.21044921875
1198.42529296875
1219.482421875
1080.322265625
819.39697265625
534.66796875
286.56005859375
141.90673828125
79.65087890625
23.8037109375
13.73291015625
-6.40869140625
-32.04345703125
-80.56640625
-103.45458984375
-78.7353515625
-39.36767578125
-42.1142578125
-66.83349609375
-50.35400390625
-45.7763671875
-65.91796875
-63.17138671875
-58.59375
-52.18505859375
-45.7763671875
-65.00244140625
-72.32666015625
-63.17138671875
-68.66455078125
-68.66455078125
-62.255859375
-66.83349609375
-68.66455078125
-74.15771484375
-83.31298828125
-69.580078125
-72.32666015625
-86.0595703125
-75.98876953125
-71.4111328125
-73.2421875
-65.91796875
-59.50927734375
-59.50927734375
-59.50927734375
-51.26953125
-37.53662109375
-43.02978515625
-43.02978515625
-31.1279296875
-22.88818359375
-29.296875
-49.4384765625
-38.4521484375
-34.7900390625
-38.4521484375
-25.634765625
-11.90185546875
-6.40869140625
9.1552734375
22.88818359375
20.1416015625
0
-1.8310546875
4.57763671875
4.57763671875
7.32421875
-6.40869140625
-3.662109375
21.97265625
41.19873046875
36.62109375
24.71923828125
31.1279296875
45.7763671875
53.1005859375
51.26953125
54.931640625
67.7490234375
66.83349609375
75.0732421875
86.97509765625
96.13037109375
95.21484375
108.94775390625
120.849609375
126.3427734375
137.3291015625
155.6396484375
126.3427734375
101.62353515625
135.498046875
168.45703125
177.6123046875
175.78125
194.091796875
224.30419921875
222.47314453125
224.30419921875
223.388671875
210.5712890625
216.064453125
217.8955078125
229.79736328125
231.62841796875
234.375
250.8544921875
259.09423828125
272.8271484375
276.4892578125
237.12158203125
224.30419921875
235.29052734375
204.16259765625
217.8955078125
224.30419921875
211.48681640625
198.66943359375
200.50048828125
185.85205078125
173.03466796875
159.3017578125
145.56884765625
127.25830078125
113.525390625
99.79248046875
90.63720703125
89.7216796875
90.63720703125
70.49560546875
46.69189453125
41.19873046875
39.36767578125
0.91552734375
-7.32421875
2.74658203125
-12.8173828125
6.40869140625
10.07080078125
-14.6484375
-22.88818359375
10.986328125
-21.05712890625
-43.02978515625
-40.283203125
-41.19873046875
-45.7763671875
-49.4384765625
-37.53662109375
-27.4658203125
-39.36767578125
-26.55029296875
-26.55029296875
-25.634765625
-21.97265625
-25.634765625
-32.958984375
-38.4521484375
-39.36767578125
-43.02978515625
-53.1005859375
-51.26953125
-53.1005859375
-56.7626953125
-62.255859375
-55.84716796875
-59.50927734375
-55.84716796875
-65.91796875
-57.67822265625
-51.26953125
-32.958984375
-46.69189453125
-45.7763671875
-48.52294921875
-53.1005859375
-64.0869140625
-62.255859375
-43.9453125
-32.04345703125
-30.21240234375
-28.38134765625
-59.50927734375
-47.607421875
-62.255859375
-83.31298828125
-70.49560546875
-61.34033203125
-48.52294921875
-40.283203125
-39.36767578125
-39.36767578125
-64.0869140625
-67.7490234375
-71.4111328125
-62.255859375
-69.580078125
-72.32666015625
-65.91796875
-68.66455078125
-56.7626953125
-44.86083984375
-45.7763671875
-45.7763671875
-45.7763671875
-60.4248046875
-66.83349609375
-59.50927734375
-55.84716796875
-60.4248046875
-75.98876953125
-70.49560546875
-67.7490234375
-75.98876953125
-70.49560546875
-86.97509765625
-77.81982421875
-84.228515625
-97.0458984375
-103.45458984375
-110.77880859375
-92.46826171875
-67.7490234375
-66.83349609375
-75.98876953125
-75.0732421875
-78.7353515625
-86.0595703125
-92.46826171875
-89.7216796875
-75.0732421875
-72.32666015625
-78.7353515625
-79.65087890625
-70.49560546875
-53.1005859375
-32.958984375
-9.1552734375
-22.88818359375
-17.39501953125
-11.90185546875
0
4.57763671875
-5.4931640625
-17.39501953125
-29.296875
-6.40869140625
22.88818359375
27.4658203125
20.1416015625
18.310546875
12.8173828125
12.8173828125
27.4658203125
39.36767578125
32.04345703125
40.283203125
45.7763671875
40.283203125
32.04345703125
4.57763671875
6.40869140625
1.8310546875
-14.6484375
-11.90185546875
-11.90185546875
-5.4931640625
-25.634765625
-53.1005859375
-53.1005859375
-75.0732421875
-74.15771484375
-88.80615234375
-88.80615234375
-90.63720703125
-97.96142578125
-78.7353515625
-78.7353515625
-81.48193359375
-81.48193359375
-84.228515625
-99.79248046875
-98.876953125
-92.46826171875
-111.6943359375
-120.849609375
-119.93408203125
-99.79248046875
-108.0322265625
-106.201171875
-102.5390625
-99.79248046875
-100.7080078125
-95.21484375
-92.46826171875
-88.80615234375
-104.3701171875
-102.5390625
-98.876953125
-106.201171875
-131.8359375
-137.3291015625
-120.849609375
-115.3564453125
-123.59619140625
-130.92041015625
-154.72412109375
-149.23095703125
-123.59619140625
-98.876953125
-45.7763671875
33.87451171875
163.87939453125
290.22216796875
433.04443359375
619.81201171875
793.76220703125
947.57080078125
1094.970703125
1222.22900390625
1261.5966796875
1138.916015625
863.34228515625
582.275390625
323.18115234375
155.6396484375
75.0732421875
25.634765625
-20.1416015625
-52.18505859375
-76.904296875
-86.97509765625
-103.45458984375
-84.228515625
-55.84716796875
-42.1142578125
-44.86083984375
-49.4384765625
-63.17138671875
-75.98876953125
-73.2421875
-62.255859375
-57.67822265625
-76.904296875
-62.255859375
-65.00244140625
-90.63720703125
-90.63720703125
-83.31298828125
-84.228515625
-94.29931640625
-93.3837890625
-82.3974609375
-67.7490234375
-60.4248046875
-32.04345703125
-26.55029296875
-55.84716796875
-57.67822265625
-69.580078125
-92.46826171875
-91.552734375
-86.0595703125
-75.0732421875
-60.4248046875
-57.67822265625
-43.9453125
-37.53662109375
-40.283203125
-38.4521484375
-39.36767578125
-39.36767578125
-40.283203125
-34.7900390625
-49.4384765625
-46.69189453125
-27.4658203125
-32.04345703125
-26.55029296875
-23.8037109375
-14.6484375
-6.40869140625
-3.662109375
3.662109375
6.40869140625
20.1416015625
12.8173828125
7.32421875
12.8173828125
10.986328125
14.6484375
2.74658203125
32.04345703125
47.607421875
43.9453125
51.26953125
61.34033203125
68.66455078125
71.4111328125
78.7353515625
83.31298828125
86.0595703125
86.97509765625
95.21484375
117.1875
133.6669921875
140.9912109375
143.73779296875
143.73779296875
164.794921875
186.767578125
173.03466796875
191.34521484375
216.064453125
203.2470703125
219.7265625
210.5712890625
199.5849609375
214.2333984375
220.64208984375
222.47314453125
223.388671875
230.712890625
238.95263671875
238.037109375
240.78369140625
244.44580078125
244.44580078125
238.95263671875
238.95263671875
236.2060546875
231.62841796875
222.47314453125
227.96630859375
221.5576171875
210.5712890625
204.16259765625
198.66943359375
193.17626953125
170.2880859375
154.72412109375
140.9912109375
130.0048828125
120.849609375
101.62353515625
86.0595703125
91.552734375
79.65087890625
58.59375
47.607421875
29.296875
32.958984375
32.958984375
23.8037109375
8.23974609375
-3.662109375
3.662109375
-13.73291015625
-31.1279296875
-23.8037109375
-32.04345703125
-31.1279296875
-29.296875
-34.7900390625
-34.7900390625
-44.86083984375
-34.7900390625
-20.1416015625
-32.04345703125
-51.26953125
-57.67822265625
-61.34033203125
-64.0869140625
-55.84716796875
-51.26953125
-54.01611328125
-54.01611328125
-49.4384765625
-43.02978515625
-36.62109375
-44.86083984375
-35.70556640625
-34.7900390625
-54.931640625
-51.26953125
-61.34033203125
-73.2421875
-55.84716796875
-48.52294921875
-43.02978515625
-32.958984375
-26.55029296875
-46.69189453125
-54.01611328125
-46.69189453125
-47.607421875
-43.02978515625
-45.7763671875
-40.283203125
-32.958984375
-32.04345703125
-25.634765625
-24.71923828125
-32.04345703125
-40.283203125
-44.86083984375
-41.19873046875
-35.70556640625
-43.02978515625
-43.9453125
-51.26953125
-52.18505859375
-55.84716796875
-65.91796875
-67.7490234375
-63.17138671875
-58.59375
-56.7626953125
-51.26953125
-52.18505859375
-56.7626953125
-63.17138671875
-67.7490234375
-58.59375
-49.4384765625
-52.18505859375
-54.01611328125
-52.18505859375
-54.931640625
-50.35400390625
-61.34033203125
-86.97509765625
-75.0732421875
-68.66455078125
-74.15771484375
-78.7353515625
-69.580078125
-66.83349609375
-70.49560546875
-75.98876953125
-75.0732421875
-76.904296875
-81.48193359375
-75.98876953125
-80.56640625
-77.81982421875
-91.552734375
-91.552734375
-84.228515625
-84.228515625
-88.80615234375
-92.46826171875
-98.876953125
-88.80615234375
-73.2421875
-67.7490234375
-55.84716796875
-54.931640625
-39.36767578125
-22.88818359375
-27.4658203125
-21.05712890625
-29.296875
-24.71923828125
-31.1279296875
-36.62109375
-54.931640625
-55.84716796875
-38.4521484375
-3.662109375
17.39501953125
24.71923828125
34.7900390625
39.36767578125
20.1416015625
16.4794921875
14.6484375
21.05712890625
14.6484375
17.39501953125
10.986328125
-1.8310546875
-1.8310546875
0
-0.91552734375
-28.38134765625
-48.52294921875
-56.7626953125
-51.26953125
-67.7490234375
-74.15771484375
-80.56640625
-97.96142578125
-99.79248046875
-95.21484375
-94.29931640625
-103.45458984375
-104.3701171875
-104.3701171875
-116.27197265625
-116.27197265625
-120.849609375
-122.6806640625
-138.24462890625
-148.3154296875
-137.3291015625
-134.58251953125
-123.59619140625
-120.849609375
-130.92041015625
-130.92041015625
-121.76513671875
-131.8359375
-139.16015625
-142.822265625
-142.822265625
-147.39990234375
-136.41357421875
-140.9912109375
-142.822265625
-144.6533203125
-147.39990234375
-137.3291015625
-146.484375
-146.484375
-151.06201171875
-159.3017578125
-165.71044921875
-191.34521484375
-176.69677734375
-150.146484375
-104.3701171875
-62.255859375
22.88818359375
152.89306640625
286.56005859375
442.19970703125
637.20703125
814.8193359375
972.2900390625
1093.1396484375
1204.833984375
1220.39794921875
1044.61669921875
757.14111328125
485.2294921875
231.62841796875
99.79248046875
24.71923828125
-19.22607421875
-52.18505859375
-85.14404296875
-123.59619140625
-154.72412109375
-173.03466796875
-140.07568359375
-108.94775390625
-107.11669921875
-101.62353515625
-98.876953125
-105.28564453125
-110.77880859375
-101.62353515625
-102.5390625
-105.28564453125
-105.28564453125
-117.1875
-119.93408203125
-125.42724609375
-125.42724609375
-128.173828125
-129.08935546875
-122.6806640625
-110.77880859375
-108.94775390625
-107.11669921875
-108.94775390625
-102.5390625
-114.44091796875
-113.525390625
-108.0322265625
-114.44091796875
-114.44091796875
-108.94775390625
-108.0322265625
-108.94775390625
-107.11669921875
-107.11669921875
-102.5390625
-105.28564453125
-102.5390625
-106.201171875
-87.890625
-86.97509765625
-85.14404296875
-88.80615234375
-84.228515625
-85.14404296875
-89.7216796875
-80.56640625
-80.56640625
-74.15771484375
-61.34033203125
-60.4248046875
-60.4248046875
-87.890625
-72.32666015625
-53.1005859375
-42.1142578125
-43.9453125
-35.70556640625
-18.310546875
-20.1416015625
-40.283203125
-44.86083984375
-48.52294921875
-32.958984375
-2.74658203125
22.88818359375
32.04345703125
25.634765625
32.958984375
33.87451171875
44.86083984375
59.50927734375
60.4248046875
81.48193359375
95.21484375
106.201171875
119.0185546875
110.77880859375
109.86328125
108.0322265625
108.94775390625
119.93408203125
135.498046875
137.3291015625
151.06201171875
149.23095703125
157.470703125
162.04833984375
171.20361328125
178.52783203125
176.69677734375
166.6259765625
177.6123046875
172.119140625
173.9501953125
178.52783203125
171.20361328125
161.1328125
166.6259765625
175.78125
180.35888671875
184.02099609375
163.87939453125
163.87939453125
163.87939453125
141.90673828125
136.41357421875
132.75146484375
113.525390625
96.13037109375
85.14404296875
88.80615234375
70.49560546875
49.4384765625
31.1279296875
24.71923828125
16.4794921875
-5.4931640625
-6.40869140625
-10.986328125
-30.21240234375
-47.607421875
-46.69189453125
-47.607421875
-61.34033203125
-51.26953125
-71.4111328125
-65.00244140625
-67.7490234375
-84.228515625
-90.63720703125
-97.96142578125
-91.552734375
-86.97509765625
-98.876953125
-106.201171875
-105.28564453125
-98.876953125
-92.46826171875
-92.46826171875
-95.21484375
-102.5390625
-101.62353515625
-102.5390625
-116.27197265625
-129.08935546875
-120.849609375
-122.6806640625
-127.25830078125
-102.5390625
-96.13037109375
-105.28564453125
-99.79248046875
-108.0322265625
-107.11669921875
-94.29931640625
-101.62353515625
-105.28564453125
-95.21484375
-75.0732421875
-70.49560546875
-59.50927734375
-65.00244140625
-64.0869140625
-66.83349609375
-66.83349609375
-70.49560546875
-75.98876953125
-83.31298828125
-77.81982421875
-75.0732421875
-89.7216796875
-96.13037109375
-108.0322265625
-103.45458984375
-126.3427734375
-137.3291015625
-134.58251953125
-135.498046875
-101.62353515625
-75.98876953125
-68.66455078125
-93.3837890625
-111.6943359375
-103.45458984375
-78.7353515625
-74.15771484375
-82.3974609375
-84.228515625
-86.0595703125
-90.63720703125
-93.3837890625
-99.79248046875
-113.525390625
-116.27197265625
-108.0322265625
-100.7080078125
-105.28564453125
-97.96142578125
-87.890625
-77.81982421875
-88.80615234375
-90.63720703125
-102.5390625
-100.7080078125
-113.525390625
-109.86328125
-100.7080078125
-104.3701171875
-97.96142578125
-89.7216796875
-80.56640625
-86.0595703125
-86.0595703125
-80.56640625
-71.4111328125
-66.83349609375
-76.904296875
-80.56640625
-75.98876953125
-65.91796875
-63.17138671875
-83.31298828125
-86.97509765625
-71.4111328125
-69.580078125
-43.9453125
-34.7900390625
-39.36767578125
-23.8037109375
-16.4794921875
-15.56396484375
-10.07080078125
-21.97265625
-25.634765625
2.74658203125
-6.40869140625
-21.97265625
-29.296875
-24.71923828125
-24.71923828125
-54.931640625
-58.59375
-57.67822265625
-56.7626953125
-62.255859375
-78.7353515625
-91.552734375
-95.21484375
-104.3701171875
-108.94775390625
-113.525390625
-115.3564453125
-119.0185546875
-123.59619140625
-124.51171875
-129.08935546875
-125.42724609375
-123.59619140625
-126.3427734375
-130.92041015625
-130.0048828125
-131.8359375
-140.9912109375
-140.9912109375
-142.822265625
-130.0048828125
-146.484375
-145.56884765625
-152.89306640625
-151.9775390625
-154.72412109375
-140.9912109375
-127.25830078125
-128.173828125
-125.42724609375
-122.6806640625
-128.173828125
-128.173828125
-133.6669921875
-135.498046875
-153.80859375
-151.06201171875
-160.21728515625
-176.69677734375
-159.3017578125
-123.59619140625
-65.91796875
-0.91552734375
107.11669921875
252.685546875
408.3251953125
576.7822265625
746.15478515625
904.541015625
1036.376953125
1152.64892578125
1203.0029296875
1120.60546875
874.32861328125
596.00830078125
329.58984375
157.470703125
78.7353515625
16.4794921875
-6.40869140625
-20.1416015625
-38.4521484375
-72.32666015625
-126.3427734375
-135.498046875
-111.6943359375
-75.0732421875
-62.255859375
-69.580078125
-73.2421875
-86.0595703125
-94.29931640625
-96.13037109375
-95.21484375
-97.0458984375
-93.3837890625
-99.79248046875
-95.21484375
-100.7080078125
-97.96142578125
-97.0458984375
-105.28564453125
-100.7080078125
-99.79248046875
-99.79248046875
-108.0322265625
-104.3701171875
-99.79248046875
-98.876953125
-97.0458984375
-87.890625
-85.14404296875
-82.3974609375
-82.3974609375
-86.0595703125
-83.31298828125
-74.15771484375
-71.4111328125
-71.4111328125
-85.14404296875
-79.65087890625
-71.4111328125
-72.32666015625
-66.83349609375
-75.98876953125
-75.98876953125
-61.34033203125
-57.67822265625
-60.4248046875
-50.35400390625
-44.86083984375
-38.4521484375
-34.7900390625
-38.4521484375
-29.296875
-19.22607421875
-20.1416015625
-21.97265625
0.91552734375
6.40869140625
0
8.23974609375
7.32421875
15.56396484375
23.8037109375
28.38134765625
40.283203125
44.86083984375
43.9453125
41.19873046875
54.01611328125
53.1005859375
53.1005859375
70.49560546875
82.3974609375
79.65087890625
86.97509765625
104.3701171875
113.525390625
120.849609375
123.59619140625
123.59619140625
122.6806640625
141.90673828125
151.06201171875
145.56884765625
154.72412109375
171.20361328125
180.35888671875
184.9365234375
175.78125
164.794921875
166.6259765625
178.52783203125
184.9365234375
191.34521484375
195.9228515625
199.5849609375
198.66943359375
198.66943359375
201.416015625
195.00732421875
193.17626953125
187.68310546875
177.6123046875
159.3017578125
156.55517578125
147.39990234375
143.73779296875
149.23095703125
133.6669921875
120.849609375
109.86328125
102.5390625
93.3837890625
76.904296875
64.0869140625
51.26953125
42.1142578125
34.7900390625
14.6484375
5.4931640625
7.32421875
-12.8173828125
-19.22607421875
-43.9453125
-32.958984375
-36.62109375
-27.4658203125
-21.05712890625
-29.296875
-35.70556640625
-37.53662109375
-48.52294921875
-55.84716796875
-53.1005859375
-53.1005859375
-58.59375
-71.4111328125
-70.49560546875
-64.0869140625
-67.7490234375
-67.7490234375
-69.580078125
-73.2421875
-73.2421875
-70.49560546875
-75.0732421875
-70.49560546875
-62.255859375
-68.66455078125
-84.228515625
-70.49560546875
-65.00244140625
-63.17138671875
-49.4384765625
-56.7626953125
-55.84716796875
-60.4248046875
-59.50927734375
-68.66455078125
-79.65087890625
-70.49560546875
-65.91796875
-64.0869140625
-58.59375
-58.59375
-52.18505859375
-52.18505859375
-50.35400390625
-46.69189453125
-51.26953125
-51.26953125
-54.01611328125
-59.50927734375
-54.931640625
-66.83349609375
-65.00244140625
-62.255859375
-67.7490234375
-69.580078125
-77.81982421875
-77.81982421875
-71.4111328125
-72.32666015625
-65.91796875
-61.34033203125
-55.84716796875
-49.4384765625
-55.84716796875
-54.931640625
-60.4248046875
-66.83349609375
-87.890625
-78.7353515625
-68.66455078125
-58.59375
-65.00244140625
-66.83349609375
-84.228515625
-80.56640625
-73.2421875
-86.0595703125
-82.3974609375
-81.48193359375
-82.3974609375
-82.3974609375
-84.228515625
-89.7216796875
-80.56640625
-88.80615234375
-89.7216796875
-86.97509765625
-70.49560546875
-58.59375
-63.17138671875
-48.52294921875
-38.4521484375
-27.4658203125
-33.87451171875
-32.04345703125
-25.634765625
-32.958984375
-42.1142578125
-34.7900390625
-30.21240234375
-28.38134765625
-14.6484375
4.57763671875
10.07080078125
12.8173828125
20.1416015625
14.6484375
23.8037109375
24.71923828125
16.4794921875
22.88818359375
16.4794921875
25.634765625
36.62109375
29.296875
15.56396484375
2.74658203125
-11.90185546875
-10.07080078125
-22.88818359375
-43.9453125
-39.36767578125
-46.69189453125
-60.4248046875
-63.17138671875
-77.81982421875
-83.31298828125
-88.80615234375
-79.65087890625
-107.11669921875
-104.3701171875
-105.28564453125
-99.79248046875
-100.7080078125
-114.44091796875
-110.77880859375
-89.7216796875
-104.3701171875
-108.0322265625
-119.0185546875
-113.525390625
-112.60986328125
-107.11669921875
-100.7080078125
-102.5390625
-106.201171875
-98.876953125
-97.0458984375
-97.0458984375
-99.79248046875
-101.62353515625
-99.79248046875
-99.79248046875
-96.13037109375
-102.5390625
-111.6943359375
-110.77880859375
-104.3701171875
-111.6943359375
-125.42724609375
-144.6533203125
-150.146484375
-149.23095703125
-116.27197265625
-68.66455078125
-16.4794921875
96.13037109375
238.95263671875
377.197265625
544.73876953125
724.18212890625
889.892578125
1040.0390625
1171.875
1236.87744140625
1193.84765625
950.3173828125
665.58837890625
393.6767578125
174.86572265625
86.97509765625
29.296875
-10.986328125
-33.87451171875
-54.931640625
-90.63720703125
-106.201171875
-99.79248046875
-75.98876953125
-62.255859375
-50.35400390625
-43.02978515625
-51.26953125
-55.84716796875
-63.17138671875
-66.83349609375
-72.32666015625
-83.31298828125
-75.0732421875
-70.49560546875
-83.31298828125
-84.228515625
-81.48193359375
-79.65087890625
-77.81982421875
-73.2421875
-75.98876953125
-82.3974609375
-84.228515625
-84.228515625
-75.98876953125
-74.15771484375
-68.66455078125
-67.7490234375
-68.66455078125
-64.0869140625
-65.91796875
-59.50927734375
-60.4248046875
-56.7626953125
-64.0869140625
-61.34033203125
-55.84716796875
-53.1005859375
-48.52294921875
-54.931640625
-54.01611328125
-45.7763671875
-46.69189453125
-50.35400390625
-54.01611328125
-52.18505859375
-41.19873046875
-21.97265625
-32.958984375
-22.88818359375
-4.57763671875
16.4794921875
-4.57763671875
-3.662109375
9.1552734375
-6.40869140625
1.8310546875
26.55029296875
28.38134765625
33.87451171875
32.958984375
38.4521484375
47.607421875
60.4248046875
59.50927734375
62.255859375
74.15771484375
77.81982421875
84.228515625
95.21484375
100.7080078125
109.86328125
109.86328125
119.0185546875
135.498046875
141.90673828125
159.3017578125
160.21728515625
172.119140625
168.45703125
173.9501953125
189.51416015625
185.85205078125
195.9228515625
191.34521484375
186.767578125
195.00732421875
213.31787109375
226.13525390625
227.96630859375
233.45947265625
228.8818359375
225.2197265625
210.5712890625
222.47314453125
216.064453125
224.30419921875
222.47314453125
223.388671875
238.037109375
217.8955078125
213.31787109375
219.7265625
209.65576171875
204.16259765625
203.2470703125
197.75390625
176.69677734375
153.80859375
152.89306640625
143.73779296875
124.51171875
113.525390625
87.890625
79.65087890625
73.2421875
60.4248046875
61.34033203125
52.18505859375
32.04345703125
21.97265625
14.6484375
11.90185546875
6.40869140625
-1.8310546875
-5.4931640625
-10.986328125
-20.1416015625
-31.1279296875
-41.19873046875
-43.9453125
-35.70556640625
-41.19873046875
-46.69189453125
-48.52294921875
-53.1005859375
-47.607421875
-52.18505859375
-60.4248046875
-51.26953125
-58.59375
-56.7626953125
-53.1005859375
-58.59375
-57.67822265625
-55.84716796875
-53.1005859375
-62.255859375
-51.26953125
-44.86083984375
-56.7626953125
-57.67822265625
-58.59375
-54.931640625
-52.18505859375
-42.1142578125
-48.52294921875
-35.70556640625
-43.02978515625
-43.9453125
-48.52294921875
-37.53662109375
-32.04345703125
-39.36767578125
-43.02978515625
-42.1142578125
-42.1142578125
-46.69189453125
-40.283203125
-38.4521484375
-42.1142578125
-44.86083984375
-45.7763671875
-38.4521484375
-36.62109375
-28.38134765625
-34.7900390625
-45.7763671875
-45.7763671875
-51.26953125
-50.35400390625
-43.9453125
-36.62109375
-48.52294921875
-56.7626953125
-53.1005859375
-54.01611328125
-47.607421875
-54.931640625
-64.0869140625
-66.83349609375
-56.7626953125
-52.18505859375
-65.00244140625
-71.4111328125
-75.0732421875
-65.00244140625
-57.67822265625
-55.84716796875
-43.9453125
-50.35400390625
-57.67822265625
-58.59375
-65.91796875
-63.17138671875
-59.50927734375
-62.255859375
-59.50927734375
-55.84716796875
-54.931640625
-54.01611328125
-62.255859375
-68.66455078125
-75.0732421875
-73.2421875
-67.7490234375
-60.4248046875
-56.7626953125
-43.9453125
-33.87451171875
-28.38134765625
-24.71923828125
-23.8037109375
-21.05712890625
-8.23974609375
-5.4931640625
-16.4794921875
-16.4794921875
-16.4794921875
-8.23974609375
11.90185546875
32.04345703125
36.62109375
34.7900390625
32.04345703125
41.19873046875
43.9453125
37.53662109375
32.04345703125
36.62109375
45.7763671875
45.7763671875
44.86083984375
36.62109375
24.71923828125
13.73291015625
6.40869140625
-16.4794921875
-19.22607421875
-32.958984375
-47.607421875
-40.283203125
-51.26953125
-68.66455078125
-72.32666015625
-70.49560546875
-72.32666015625
-67.7490234375
-72.32666015625
-84.228515625
-89.7216796875
-90.63720703125
-82.3974609375
-80.56640625
-86.97509765625
-86.97509765625
-82.3974609375
-83.31298828125
-99.79248046875
-98.876953125
-108.0322265625
-111.6943359375
-98.876953125
-101.62353515625
-112.60986328125
-108.0322265625
-89.7216796875
-77.81982421875
-75.98876953125
-86.97509765625
-90.63720703125
-95.21484375
-93.3837890625
-95.21484375
-97.0458984375
-90.63720703125
-104.3701171875
-119.93408203125
-130.0048828125
-154.72412109375
-161.1328125
-136.41357421875
-86.0595703125
-32.04345703125
47.607421875
193.17626953125
327.7587890625
484.31396484375
659.1796875
830.38330078125
981.4453125
1122.4365234375
1242.37060546875
1267.08984375
1108.70361328125
826.72119140625
552.978515625
284.72900390625
142.822265625
65.91796875
18.310546875
-6.40869140625
-31.1279296875
-65.00244140625
-77.81982421875
-79.65087890625
-64.0869140625
-49.4384765625
-43.9453125
-39.36767578125
-44.86083984375
-55.84716796875
-59.50927734375
-64.0869140625
-63.17138671875
-73.2421875
-70.49560546875
-65.91796875
-79.65087890625
-79.65087890625
-67.7490234375
-76.904296875
-78.7353515625
-73.2421875
-75.98876953125
-86.0595703125
-86.0595703125
-77.81982421875
-87.890625
-81.48193359375
-63.17138671875
-55.84716796875
-56.7626953125
-63.17138671875
-59.50927734375
-62.255859375
-52.18505859375
-53.1005859375
-56.7626953125
-41.19873046875
-44.86083984375
-29.296875
-33.87451171875
-35.70556640625
-30.21240234375
-33.87451171875
-40.283203125
-30.21240234375
-27.4658203125
-17.39501953125
-22.88818359375
-24.71923828125
-19.22607421875
-10.986328125
-9.1552734375
-1.8310546875
5.4931640625
15.56396484375
26.55029296875
18.310546875
16.4794921875
13.73291015625
24.71923828125
31.1279296875
40.283203125
38.4521484375
46.69189453125
51.26953125
60.4248046875
68.66455078125
70.49560546875
67.7490234375
80.56640625
81.48193359375
89.7216796875
101.62353515625
114.44091796875
126.3427734375
128.173828125
138.24462890625
140.07568359375
148.3154296875
157.470703125
163.87939453125
173.9501953125
191.34521484375
198.66943359375
200.50048828125
198.66943359375
202.33154296875
191.34521484375
187.68310546875
204.16259765625
209.65576171875
212.40234375
228.8818359375
236.2060546875
235.29052734375
233.45947265625
234.375
239.8681640625
243.5302734375
239.8681640625
232.5439453125
216.97998046875
209.65576171875
208.740234375
212.40234375
209.65576171875
196.83837890625
192.2607421875
179.443359375
171.20361328125
159.3017578125
140.07568359375
121.76513671875
107.11669921875
101.62353515625
91.552734375
75.0732421875
67.7490234375
51.26953125
26.55029296875
11.90185546875
21.05712890625
20.1416015625
4.57763671875
-3.662109375
-6.40869140625
0
-12.8173828125
-18.310546875
-12.8173828125
-18.310546875
-34.7900390625
-48.52294921875
-43.9453125
-43.02978515625
-45.7763671875
-54.931640625
-59.50927734375
-59.50927734375
-62.255859375
-65.91796875
-65.91796875
-62.255859375
-57.67822265625
-59.50927734375
-67.7490234375
-57.67822265625
-57.67822265625
-64.0869140625
-59.50927734375
-48.52294921875
-43.02978515625
-50.35400390625
-61.34033203125
-58.59375
-47.607421875
-54.931640625
-69.580078125
-53.1005859375
-38.4521484375
-40.283203125
-34.7900390625
-33.87451171875
-22.88818359375
-21.05712890625
-32.958984375
-43.02978515625
-43.9453125
-36.62109375
-54.01611328125
-52.18505859375
-54.931640625
-46.69189453125
-43.9453125
-47.607421875
-48.52294921875
-39.36767578125
-40.283203125
-43.02978515625
-53.1005859375
-55.84716796875
-58.59375
-49.4384765625
-67.7490234375
-75.0732421875
-121.76513671875
-156.55517578125
-151.06201171875
-108.94775390625
-64.0869140625
-39.36767578125
-5.4931640625
2.74658203125
-17.39501953125
-26.55029296875
-17.39501953125
-21.05712890625
-21.05712890625
-41.19873046875
-48.52294921875
-50.35400390625
-45.7763671875
-46.69189453125
-34.7900390625
-34.7900390625
-44.86083984375
-54.931640625
-53.1005859375
-57.67822265625
-49.4384765625
-64.0869140625
-80.56640625
-81.48193359375
-66.83349609375
-52.18505859375
-49.4384765625
-41.19873046875
-38.4521484375
-39.36767578125
-46.69189453125
-75.98876953125
-48.52294921875
-19.22607421875
-27.4658203125
-24.71923828125
-23.8037109375
-11.90185546875
-28.38134765625
-35.70556640625
-12.8173828125
6.40869140625
15.56396484375
31.1279296875
32.958984375
35.70556640625
35.70556640625
38.4521484375
38.4521484375
49.4384765625
55.84716796875
47.607421875
36.62109375
49.4384765625
54.931640625
35.70556640625
15.56396484375
1.8310546875
-15.56396484375
-19.22607421875
-18.310546875
-42.1142578125
-56.7626953125
-69.580078125
-72.32666015625
-72.32666015625
-61.34033203125
-59.50927734375
-63.17138671875
-61.34033203125
-61.34033203125
-70.49560546875
-74.15771484375
-93.3837890625
-101.62353515625
-102.5390625
-125.42724609375
-108.0322265625
-88.80615234375
-85.14404296875
-82.3974609375
-85.14404296875
-99.79248046875
-93.3837890625
-88.80615234375
-90.63720703125
-90.63720703125
-88.80615234375
-79.65087890625
-71.4111328125
-72.32666015625
-87.890625
-100.7080078125
-84.228515625
-81.48193359375
-91.552734375
-87.890625
-101.62353515625
-106.201171875
-130.92041015625
-147.39990234375
-129.08935546875
-99.79248046875
-56.7626953125
18.310546875
112.60986328125
249.0234375
401.91650390625
588.68408203125
792.8466796875
942.9931640625
1088.56201171875
1210.3271484375
1284.48486328125
1232.2998046875
1002.50244140625
709.53369140625
420.22705078125
216.97998046875
128.173828125
69.580078125
37.53662109375
35.70556640625
8.23974609375
-33.87451171875
-77.81982421875
-92.46826171875
-86.0595703125
-59.50927734375
-45.7763671875
-38.4521484375
-37.53662109375
-44.86083984375
-63.17138671875
-54.01611328125
-55.84716796875
-69.580078125
-69.580078125
-64.0869140625
-62.255859375
-63.17138671875
-64.0869140625
-77.81982421875
-76.904296875
-66.83349609375
-67.7490234375
-67.7490234375
-62.255859375
-59.50927734375
-73.2421875
-56.7626953125
-59.50927734375
-57.67822265625
-47.607421875
-57.67822265625
-42.1142578125
-54.01611328125
-43.9453125
-48.52294921875
-64.0869140625
-59.50927734375
-47.607421875
-54.01611328125
-47.607421875
-35.70556640625
-22.88818359375
-24.71923828125
-22.88818359375
-14.6484375
-19.22607421875
-21.05712890625
-21.05712890625
-18.310546875
-16.4794921875
-17.39501953125
-16.4794921875
-0.91552734375
2.74658203125
5.4931640625
6.40869140625
7.32421875
14.6484375
8.23974609375
10.986328125
8.23974609375
14.6484375
35.70556640625
46.69189453125
54.01611328125
62.255859375
58.59375
63.17138671875
71.4111328125
72.32666015625
72.32666015625
89.7216796875
110.77880859375
129.08935546875
121.76513671875
124.51171875
131.8359375
140.07568359375
146.484375
168.45703125
162.9638671875
156.55517578125
176.69677734375
198.66943359375
199.5849609375
201.416015625
205.99365234375
202.33154296875
200.50048828125
204.16259765625
210.5712890625
210.5712890625
208.740234375
212.40234375
215.14892578125
217.8955078125
219.7265625
214.2333984375
207.82470703125
201.416015625
195.00732421875
196.83837890625
191.34521484375
194.091796875
184.02099609375
178.52783203125
171.20361328125
161.1328125
151.06201171875
134.58251953125
118.10302734375
103.45458984375
96.13037109375
88.80615234375
85.14404296875
67.7490234375
54.931640625
47.607421875
49.4384765625
34.7900390625
20.1416015625
10.07080078125
3.662109375
-12.8173828125
-29.296875
-17.39501953125
-11.90185546875
-31.1279296875
-48.52294921875
-40.283203125
-36.62109375
-42.1142578125
-42.1142578125
-43.9453125
-54.01611328125
-58.59375
-62.255859375
-55.84716796875
-55.84716796875
-57.67822265625
-54.01611328125
-48.52294921875
-47.607421875
-40.283203125
-47.607421875
-45.7763671875
-51.26953125
-51.26953125
-45.7763671875
-35.70556640625
-55.84716796875
-76.904296875
-65.00244140625
-46.69189453125
-33.87451171875
-43.02978515625
-30.21240234375
-21.97265625
-37.53662109375
-45.7763671875
-40.283203125
-35.70556640625
-31.1279296875
-32.04345703125
-33.87451171875
-38.4521484375
-39.36767578125
-45.7763671875
-36.62109375
-29.296875
-6.40869140625
-32.04345703125
-54.01611328125
-61.34033203125
-26.55029296875
-43.02978515625
-45.7763671875
-36.62109375
-41.19873046875
-46.69189453125
-35.70556640625
-33.87451171875
-40.283203125
-48.52294921875
-40.283203125
-44.86083984375
-45.7763671875
-53.1005859375
-49.4384765625
-45.7763671875
-47.607421875
-47.607421875
-47.607421875
-50.35400390625
-46.69189453125
-42.1142578125
-47.607421875
-58.59375
-56.7626953125
-60.4248046875
-60.4248046875
-58.59375
-54.931640625
-53.1005859375
-55.84716796875
-51.26953125
-53.1005859375
-54.01611328125
-50.35400390625
-51.26953125
-46.69189453125
-38.4521484375
-32.04345703125
-28.38134765625
-28.38134765625
-27.4658203125
-22.88818359375
-22.88818359375
-21.05712890625
-13.73291015625
-16.4794921875
-10.986328125
-6.40869140625
-7.32421875
13.73291015625
32.04345703125
41.19873046875
33.87451171875
40.283203125
34.7900390625
38.4521484375
43.02978515625
39.36767578125
37.53662109375
44.86083984375
39.36767578125
43.02978515625
37.53662109375
31.1279296875
25.634765625
18.310546875
10.07080078125
-3.662109375
-12.8173828125
-22.88818359375
-21.97265625
-34.7900390625
-55.84716796875
-54.01611328125
-59.50927734375
-61.34033203125
-64.0869140625
-71.4111328125
-78.7353515625
-73.2421875
-67.7490234375
-75.0732421875
-77.81982421875
-80.56640625
-90.63720703125
-81.48193359375
-75.0732421875
-86.0595703125
-89.7216796875
-83.31298828125
-77.81982421875
-83.31298828125
-86.0595703125
-94.29931640625
-86.97509765625
-79.65087890625
-80.56640625
-86.97509765625
-79.65087890625
-85.14404296875
-90.63720703125
-85.14404296875
-86.0595703125
-86.0595703125
-77.81982421875
-75.0732421875
-85.14404296875
-98.876953125
-113.525390625
-131.8359375
-119.0185546875
-92.46826171875
-40.283203125
17.39501953125
108.0322265625
248.10791015625
383.60595703125
541.9921875
720.52001953125
884.3994140625
1026.30615234375
1165.46630859375
1243.2861328125
1251.52587890625
1047.36328125
747.98583984375
470.5810546875
243.5302734375
124.51171875
61.34033203125
24.71923828125
15.56396484375
-8.23974609375
-42.1142578125
-78.7353515625
-77.81982421875
-45.7763671875
-29.296875
-32.958984375
-31.1279296875
-32.04345703125
-41.19873046875
-44.86083984375
-51.26953125
-43.9453125
-54.931640625
-52.18505859375
-55.84716796875
-55.84716796875
-50.35400390625
-47.607421875
-54.931640625
-54.931640625
-62.255859375
-67.7490234375
-61.34033203125
-52.18505859375
-52.18505859375
-49.4384765625
-58.59375
-54.931640625
-51.26953125
-43.9453125
-43.02978515625
-48.52294921875
-48.52294921875
-43.02978515625
-43.9453125
-35.70556640625
-41.19873046875
-37.53662109375
-26.55029296875
-32.958984375
-33.87451171875
-31.1279296875
-21.97265625
-15.56396484375
-17.39501953125
-16.4794921875
-13.73291015625
-6.40869140625
-10.986328125
-11.90185546875
-0.91552734375
-3.662109375
-9.1552734375
2.74658203125
8.23974609375
-0.91552734375
0.91552734375
16.4794921875
27.4658203125
44.86083984375
47.607421875
48.52294921875
65.00244140625
70.49560546875
64.0869140625
69.580078125
73.2421875
75.98876953125
81.48193359375
86.0595703125
93.3837890625
108.0322265625
105.28564453125
117.1875
129.08935546875
143.73779296875
153.80859375
161.1328125
169.37255859375
172.119140625
179.443359375
187.68310546875
194.091796875
196.83837890625
199.5849609375
207.82470703125
212.40234375
220.64208984375
225.2197265625
224.30419921875
230.712890625
230.712890625
239.8681640625
241.69921875
235.29052734375
237.12158203125
240.78369140625
240.78369140625
235.29052734375
221.5576171875
227.05078125
228.8818359375
217.8955078125
215.14892578125
229.79736328125
219.7265625
193.17626953125
184.9365234375
176.69677734375
180.35888671875
155.6396484375
146.484375
141.90673828125
122.6806640625
102.5390625
92.46826171875
76.904296875
58.59375
48.52294921875
35.70556640625
22.88818359375
15.56396484375
5.4931640625
-1.8310546875
-9.1552734375
-21.05712890625
-25.634765625
-27.4658203125
-34.7900390625
-39.36767578125
-43.02978515625
-49.4384765625
-44.86083984375
-44.86083984375
-43.02978515625
-47.607421875
-49.4384765625
-40.283203125
-41.19873046875
-55.84716796875
-63.17138671875
-70.49560546875
-61.34033203125
-62.255859375
-65.91796875
-69.580078125
-76.904296875
-73.2421875
-62.255859375
-58.59375
-60.4248046875
-46.69189453125
-39.36767578125
-52.18505859375
-44.86083984375
-36.62109375
-32.958984375
-47.607421875
-47.607421875
-50.35400390625
-46.69189453125
-54.931640625
-54.931640625
-46.69189453125
-40.283203125
-45.7763671875
-50.35400390625
-49.4384765625
-49.4384765625
-47.607421875
-43.02978515625
-44.86083984375
-54.01611328125
-55.84716796875
-65.91796875
-59.50927734375
-60.4248046875
-64.0869140625
-64.0869140625
-49.4384765625
-44.86083984375
-54.931640625
-58.59375
-56.7626953125
-60.4248046875
-58.59375
-52.18505859375
-56.7626953125
-56.7626953125
-54.01611328125
-57.67822265625
-53.1005859375
-52.18505859375
-57.67822265625
-54.931640625
-54.931640625
-59.50927734375
-59.50927734375
-66.83349609375
-62.255859375
-69.580078125
-83.31298828125
-85.14404296875
-76.904296875
-69.580078125
-65.00244140625
-67.7490234375
-73.2421875
-58.59375
-51.26953125
-47.607421875
-52.18505859375
-62.255859375
-67.7490234375
-73.2421875
-89.7216796875
-85.14404296875
-78.7353515625
-80.56640625
-77.81982421875
-66.83349609375
-57.67822265625
-52.18505859375
-35.70556640625
-36.62109375
-39.36767578125
-37.53662109375
-33.87451171875
-32.04345703125
-21.97265625
-23.8037109375
-25.634765625
-23.8037109375
-12.8173828125
10.07080078125
42.1142578125
35.70556640625
25.634765625
32.04345703125
42.1142578125
42.1142578125
32.958984375
27.4658203125
26.55029296875
22.88818359375
32.958984375
24.71923828125
17.39501953125
0
0
-3.662109375
-18.310546875
-27.4658203125
-31.1279296875
-43.02978515625
-54.01611328125
-69.580078125
-75.98876953125
-79.65087890625
-81.48193359375
-90.63720703125
-90.63720703125
-91.552734375
-89.7216796875
-91.552734375
-97.96142578125
-104.3701171875
-110.77880859375
-124.51171875
-117.1875
-117.1875
-109.86328125
-102.5390625
-106.201171875
-117.1875
-120.849609375
-105.28564453125
-104.3701171875
-103.45458984375
-96.13037109375
-102.5390625
-109.86328125
-108.0322265625
-105.28564453125
-108.94775390625
-105.28564453125
-105.28564453125
-110.77880859375
-111.6943359375
-111.6943359375
-138.24462890625
-127.25830078125
-139.16015625
-162.9638671875
-150.146484375
-99.79248046875
-49.4384765625
-10.07080078125
84.228515625
221.5576171875
347.900390625
518.1884765625
709.53369140625
881.65283203125
1025.390625
1165.46630859375
1245.1171875
1211.24267578125
990.6005859375
700.37841796875
419.3115234375
187.68310546875
87.890625
14.6484375
-26.55029296875
-54.931640625
-76.904296875
-108.0322265625
-127.25830078125
-108.94775390625
-86.97509765625
-62.255859375
-51.26953125
-65.00244140625
-80.56640625
-88.80615234375
-85.14404296875
-78.7353515625
-68.66455078125
-64.0869140625
-70.49560546875
-75.98876953125
-75.0732421875
-73.2421875
-74.15771484375
-78.7353515625
-89.7216796875
-106.201171875
-100.7080078125
-83.31298828125
-75.0732421875
-76.904296875
-79.65087890625
-74.15771484375
-63.17138671875
-57.67822265625
-63.17138671875
-65.91796875
-69.580078125
-67.7490234375
-67.7490234375
-65.00244140625
-61.34033203125
-56.7626953125
-57.67822265625
-58.59375
-58.59375
-65.00244140625
-57.67822265625
-54.931640625
-53.1005859375
-43.9453125
-48.52294921875
-49.4384765625
-47.607421875
-41.19873046875
-32.04345703125
-28.38134765625
-30.21240234375
-32.04345703125
-24.71923828125
-14.6484375
-8.23974609375
0.91552734375
3.662109375
0
20.1416015625
15.56396484375
29.296875
43.9453125
48.52294921875
51.26953125
45.7763671875
58.59375
65.00244140625
54.01611328125
66.83349609375
80.56640625
77.81982421875
85.14404296875
86.97509765625
92.46826171875
102.5390625
116.27197265625
135.498046875
139.16015625
155.6396484375
165.71044921875
174.86572265625
187.68310546875
192.2607421875
202.33154296875
205.99365234375
198.66943359375
201.416015625
209.65576171875
209.65576171875
217.8955078125
219.7265625
221.5576171875
227.05078125
225.2197265625
231.62841796875
230.712890625
226.13525390625
232.5439453125
223.388671875
219.7265625
217.8955078125
216.064453125
210.5712890625
205.99365234375
205.078125
193.17626953125
165.71044921875
154.72412109375
140.07568359375
128.173828125
124.51171875
119.93408203125
107.11669921875
100.7080078125
90.63720703125
75.98876953125
62.255859375
49.4384765625
43.9453125
26.55029296875
13.73291015625
-4.57763671875
-15.56396484375
-15.56396484375
-27.4658203125
-43.02978515625
-45.7763671875
-38.4521484375
-38.4521484375
-49.4384765625
-55.84716796875
-53.1005859375
-54.01611328125
-61.34033203125
-67.7490234375
-63.17138671875
-57.67822265625
-68.66455078125
-68.66455078125
-72.32666015625
-74.15771484375
-75.98876953125
-80.56640625
-74.15771484375
-77.81982421875
-75.98876953125
-77.81982421875
-79.65087890625
-84.228515625
-85.14404296875
-72.32666015625
-76.904296875
-78.7353515625
-75.0732421875
-68.66455078125
-77.81982421875
-75.98876953125
-72.32666015625
-75.98876953125
-66.83349609375
-65.91796875
-62.255859375
-75.0732421875
-78.7353515625
-68.66455078125
-67.7490234375
-61.34033203125
-59.50927734375
-65.00244140625
-65.00244140625
-68.66455078125
-71.4111328125
-65.00244140625
-54.931640625
-54.931640625
-67.7490234375
-70.49560546875
-70.49560546875
-69.580078125
-71.4111328125
-81.48193359375
-73.2421875
-60.4248046875
-73.2421875
-70.49560546875
-68.66455078125
-74.15771484375
-69.580078125
-71.4111328125
-89.7216796875
-77.81982421875
-74.15771484375
-82.3974609375
-77.81982421875
-74.15771484375
-81.48193359375
-76.904296875
-79.65087890625
-86.97509765625
-90.63720703125
-96.13037109375
-94.29931640625
-86.0595703125
-86.97509765625
-92.46826171875
-99.79248046875
-88.80615234375
-89.7216796875
-97.0458984375
-104.3701171875
-105.28564453125
-90.63720703125
-100.7080078125
-104.3701171875
-88.80615234375
-89.7216796875
-95.21484375
-95.21484375
-95.21484375
-96.13037109375
-102.5390625
-104.3701171875
-97.0458984375
-99.79248046875
-95.21484375
-75.98876953125
-65.00244140625
-58.59375
-45.7763671875
-50.35400390625
-51.26953125
-50.35400390625
-46.69189453125
-47.607421875
-48.52294921875
-54.931640625
-46.69189453125
-20.1416015625
4.57763671875
13.73291015625
9.1552734375
2.74658203125
0.91552734375
0
-6.40869140625
-6.40869140625
-1.8310546875
6.40869140625
14.6484375
10.986328125
-0.91552734375
3.662109375
-8.23974609375
-11.90185546875
-21.05712890625
-43.02978515625
-43.9453125
-47.607421875
-84.228515625
-92.46826171875
-93.3837890625
-108.0322265625
-112.60986328125
-113.525390625
-104.3701171875
-107.11669921875
-107.11669921875
-97.0458984375
-107.11669921875
-105.28564453125
-110.77880859375
-110.77880859375
-106.201171875
-111.6943359375
-108.94775390625
-113.525390625
-126.3427734375
-105.28564453125
-114.44091796875
-124.51171875
-130.0048828125
-124.51171875
-126.3427734375
-122.6806640625
-119.0185546875
-121.76513671875
-120.849609375
-129.08935546875
-135.498046875
-134.58251953125
-123.59619140625
-133.6669921875
-121.76513671875
-128.173828125
-140.07568359375
-141.90673828125
-151.06201171875
-170.2880859375
-152.89306640625
-110.77880859375
-55.84716796875
0.91552734375
114.44091796875
256.34765625
418.39599609375
586.85302734375
752.5634765625
920.10498046875
1070.25146484375
1183.77685546875
1228.6376953125
1144.4091796875
863.34228515625
574.951171875
320.4345703125
134.58251953125
62.255859375
11.90185546875
-11.90185546875
-26.55029296875
-49.4384765625
-103.45458984375
-138.24462890625
-128.173828125
-104.3701171875
-79.65087890625
-76.904296875
-67.7490234375
-75.98876953125
-94.29931640625
-110.77880859375
-99.79248046875
-95.21484375
-92.46826171875
-107.11669921875
-104.3701171875
-112.60986328125
-99.79248046875
-99.79248046875
-94.29931640625
-98.876953125
-86.0595703125
-101.62353515625
-97.0458984375
-90.63720703125
-87.890625
-107.11669921875
-90.63720703125
-94.29931640625
-103.45458984375
-92.46826171875
-93.3837890625
-90.63720703125
-76.904296875
-80.56640625
-82.3974609375
-77.81982421875
-74.15771484375
-77.81982421875
-75.0732421875
-74.15771484375
-76.904296875
-73.2421875
-80.56640625
-75.0732421875
-69.580078125
-64.0869140625
-61.34033203125
-46.69189453125
-52.18505859375
-53.1005859375
-50.35400390625
-43.9453125
-41.19873046875
-21.05712890625
-31.1279296875
-30.21240234375
-10.986328125
-15.56396484375
-16.4794921875
-16.4794921875
-21.97265625
-14.6484375
-16.4794921875
1.8310546875
17.39501953125
16.4794921875
28.38134765625
34.7900390625
36.62109375
49.4384765625
48.52294921875
58.59375
67.7490234375
81.48193359375
83.31298828125
97.0458984375
101.62353515625
118.10302734375
110.77880859375
124.51171875
119.0185546875
132.75146484375
144.6533203125
125.42724609375
129.08935546875
144.6533203125
162.04833984375
187.68310546875
178.52783203125
176.69677734375
196.83837890625
194.091796875
184.9365234375
186.767578125
190.4296875
195.9228515625
191.34521484375
194.091796875
187.68310546875
179.443359375
186.767578125
187.68310546875
171.20361328125
169.37255859375
168.45703125
155.6396484375
141.90673828125
132.75146484375
130.0048828125
96.13037109375
80.56640625
74.15771484375
69.580078125
62.255859375
55.84716796875
41.19873046875
35.70556640625
4.57763671875
0.91552734375
-4.57763671875
-6.40869140625
-32.04345703125
-43.9453125
-30.21240234375
-38.4521484375
-51.26953125
-55.84716796875
-58.59375
-75.98876953125
-89.7216796875
-76.904296875
-54.931640625
-63.17138671875
-67.7490234375
-82.3974609375
-88.80615234375
-75.0732421875
-84.228515625
-106.201171875
-68.66455078125
-70.49560546875
-82.3974609375
-78.7353515625
-98.876953125
-95.21484375
-95.21484375
-99.79248046875
-100.7080078125
-100.7080078125
-95.21484375
-99.79248046875
-90.63720703125
-85.14404296875
-82.3974609375
-91.552734375
-91.552734375
-89.7216796875
-93.3837890625
-92.46826171875
-99.79248046875
-105.28564453125
-101.62353515625
-97.0458984375
-91.552734375
-97.96142578125
-98.876953125
-91.552734375
-78.7353515625
-99.79248046875
-118.10302734375
-110.77880859375
-95.21484375
-99.79248046875
-90.63720703125
-79.65087890625
-88.80615234375
-93.3837890625
-86.0595703125
-86.97509765625
-75.0732421875
-86.97509765625
-106.201171875
-86.0595703125
-92.46826171875
-105.28564453125
-118.10302734375
-113.525390625
-108.0322265625
-112.60986328125
-93.3837890625
-87.890625
-86.0595703125
-82.3974609375
-85.14404296875
-95.21484375
-90.63720703125
-99.79248046875
-96.13037109375
-113.525390625
-98.876953125
-100.7080078125
-102.5390625
-85.14404296875
-71.4111328125
-84.228515625
-73.2421875
-76.904296875
-82.3974609375
-75.0732421875
-61.34033203125
-69.580078125
-76.904296875
-80.56640625
-76.904296875
-74.15771484375
-61.34033203125
-65.91796875
-70.49560546875
-40.283203125
-22.88818359375
-13.73291015625
-20.1416015625
-29.296875
-20.1416015625
-9.1552734375
-24.71923828125
-10.07080078125
-2.74658203125
-14.6484375
3.662109375
-6.40869140625
-10.986328125
-3.662109375
-18.310546875
-34.7900390625
-43.02978515625
-56.7626953125
-64.0869140625
-67.7490234375
-71.4111328125
-99.79248046875
-86.97509765625
-108.0322265625
-115.3564453125
-108.94775390625
-110.77880859375
-101.62353515625
-107.11669921875
-115.3564453125
-139.16015625
-147.39990234375
-138.24462890625
-136.41357421875
-136.41357421875
-130.0048828125
-118.10302734375
-119.0185546875
-120.849609375
-118.10302734375
-112.60986328125
-108.94775390625
-118.10302734375
-130.0048828125
-120.849609375
-115.3564453125
-120.849609375
-107.11669921875
-117.1875
-129.08935546875
-131.8359375
-125.42724609375
-132.75146484375
-124.51171875
-130.92041015625
-139.16015625
-150.146484375
-148.3154296875
-167.54150390625
-162.9638671875
-159.3017578125
-95.21484375
-40.283203125
33.87451171875
151.9775390625
306.70166015625
448.6083984375
633.544921875
789.1845703125
929.26025390625
1067.5048828125
1195.6787109375
1205.74951171875
1090.39306640625
837.70751953125
560.302734375
296.630859375
140.07568359375
57.67822265625
12.8173828125
3.662109375
5.4931640625
-26.55029296875
-74.15771484375
-122.6806640625
-152.89306640625
-128.173828125
-86.97509765625
-74.15771484375
-75.98876953125
-76.904296875
-97.96142578125
-97.96142578125
-79.65087890625
-75.0732421875
-67.7490234375
-85.14404296875
-80.56640625
-92.46826171875
-106.201171875
-77.81982421875
-89.7216796875
-87.890625
-67.7490234375
-84.228515625
-87.890625
-82.3974609375
-85.14404296875
-81.48193359375
-88.80615234375
-67.7490234375
-78.7353515625
-83.31298828125
-80.56640625
-77.81982421875
-75.0732421875
-82.3974609375
-69.580078125
-65.91796875
-69.580078125
-70.49560546875
-60.4248046875
-59.50927734375
-62.255859375
-57.67822265625
-46.69189453125
-57.67822265625
-60.4248046875
-49.4384765625
-38.4521484375
-34.7900390625
-53.1005859375
-42.1142578125
-37.53662109375
-27.4658203125
-15.56396484375
-21.97265625
-20.1416015625
-10.986328125
-18.310546875
-12.8173828125
4.57763671875
10.07080078125
18.310546875
24.71923828125
21.97265625
33.87451171875
45.7763671875
53.1005859375
64.0869140625
60.4248046875
64.0869140625
71.4111328125
72.32666015625
82.3974609375
101.62353515625
103.45458984375
109.86328125
116.27197265625
115.3564453125
133.6669921875
130.92041015625
141.90673828125
145.56884765625
156.55517578125
160.21728515625
166.6259765625
158.38623046875
174.86572265625
197.75390625
184.9365234375
192.2607421875
185.85205078125
203.2470703125
193.17626953125
196.83837890625
194.091796875
189.51416015625
197.75390625
205.078125
213.31787109375
209.65576171875
199.5849609375
202.33154296875
199.5849609375
195.9228515625
189.51416015625
178.52783203125
159.3017578125
158.38623046875
140.9912109375
136.41357421875
121.76513671875
114.44091796875
93.3837890625
85.14404296875
63.17138671875
49.4384765625
41.19873046875
43.9453125
38.4521484375
33.87451171875
33.87451171875
28.38134765625
12.8173828125
-5.4931640625
-14.6484375
-18.310546875
-25.634765625
-28.38134765625
-32.958984375
-42.1142578125
-50.35400390625
-40.283203125
-37.53662109375
-38.4521484375
-43.02978515625
-44.86083984375
-49.4384765625
-52.18505859375
-45.7763671875
-44.86083984375
-49.4384765625
-48.52294921875
-48.52294921875
-44.86083984375
-50.35400390625
-38.4521484375
-31.1279296875
-42.1142578125
-54.931640625
-54.931640625
-50.35400390625
-40.283203125
-49.4384765625
-51.26953125
-50.35400390625
-48.52294921875
-43.9453125
-37.53662109375
-43.9453125
-64.0869140625
-66.83349609375
-47.607421875
-40.283203125
-38.4521484375
-52.18505859375
-52.18505859375
-43.02978515625
-29.296875
-30.21240234375
-25.634765625
-40.283203125
-39.36767578125
-38.4521484375
-32.04345703125
-46.69189453125
-64.0869140625
-49.4384765625
-42.1142578125
-51.26953125
-56.7626953125
-52.18505859375
-50.35400390625
-30.21240234375
-44.86083984375
-32.958984375
-34.7900390625
-39.36767578125
-34.7900390625
-36.62109375
-29.296875
-32.04345703125
-47.607421875
-53.1005859375
-54.931640625
-54.01611328125
-46.69189453125
-41.19873046875
-33.87451171875
-32.958984375
-33.87451171875
-18.310546875
-11.90185546875
-18.310546875
-14.6484375
-12.8173828125
-21.05712890625
-21.05712890625
-21.97265625
-21.05712890625
-6.40869140625
-6.40869140625
-5.4931640625
-2.74658203125
7.32421875
22.88818359375
21.97265625
13.73291015625
22.88818359375
31.1279296875
37.53662109375
26.55029296875
24.71923828125
28.38134765625
30.21240234375
26.55029296875
31.1279296875
21.05712890625
16.4794921875
25.634765625
30.21240234375
15.56396484375
-5.4931640625
-19.22607421875
-16.4794921875
-25.634765625
-40.283203125
-62.255859375
-68.66455078125
-65.00244140625
-78.7353515625
-94.29931640625
-89.7216796875
-89.7216796875
-88.80615234375
-77.81982421875
-94.29931640625
-98.876953125
-85.14404296875
-83.31298828125
-85.14404296875
-85.14404296875
-98.876953125
-92.46826171875
-94.29931640625
-97.96142578125
-86.0595703125
-92.46826171875
-101.62353515625
-100.7080078125
-89.7216796875
-82.3974609375
-88.80615234375
-89.7216796875
-84.228515625
-86.97509765625
-93.3837890625
-88.80615234375
-91.552734375
-97.96142578125
-105.28564453125
-109.86328125
-114.44091796875
-136.41357421875
-140.9912109375
-116.27197265625
-65.91796875
-12.8173828125
65.00244140625
194.091796875
308.53271484375
459.5947265625
644.53125
808.41064453125
955.810546875
1091.30859375
1203.91845703125
1243.2861328125
1125.18310546875
833.1298828125
571.2890625
319.51904296875
158.38623046875
72.32666015625
22.88818359375
0.91552734375
-23.8037109375
-57.67822265625
-105.28564453125
-114.44091796875
-94.29931640625
-58.59375
-33.87451171875
-30.21240234375
-33.87451171875
-41.19873046875
-45.7763671875
-53.1005859375
-53.1005859375
-55.84716796875
-64.0869140625
-66.83349609375
-65.00244140625
-70.49560546875
-65.91796875
-66.83349609375
-68.66455078125
-75.98876953125
-75.0732421875
-66.83349609375
-70.49560546875
-66.83349609375
-64.0869140625
-61.34033203125
-65.00244140625
-65.91796875
-60.4248046875
-60.4248046875
-60.4248046875
-65.91796875
-68.66455078125
-61.34033203125
-53.1005859375
-49.4384765625
-54.931640625
-50.35400390625
-47.607421875
-48.52294921875
-52.18505859375
-46.69189453125
-34.7900390625
-35.70556640625
-32.958984375
-32.04345703125
-26.55029296875
-23.8037109375
-24.71923828125
-21.97265625
-20.1416015625
-18.310546875
-19.22607421875
-11.90185546875
-5.4931640625
4.57763671875
10.986328125
10.07080078125
13.73291015625
23.8037109375
32.04345703125
31.1279296875
38.4521484375
45.7763671875
41.19873046875
45.7763671875
55.84716796875
56.7626953125
64.0869140625
83.31298828125
78.7353515625
90.63720703125
112.60986328125
124.51171875
113.525390625
123.59619140625
128.173828125
138.24462890625
154.72412109375
165.71044921875
166.6259765625
173.9501953125
183.10546875
181.2744140625
190.4296875
198.66943359375
199.5849609375
210.5712890625
218.81103515625
219.7265625
218.81103515625
216.97998046875
209.65576171875
208.740234375
222.47314453125
227.05078125
229.79736328125
