ECG
-209.65576171875
-222.47314453125
-248.10791015625
-254.5166015625
-275.57373046875
-292.96875
-262.75634765625
-209.65576171875
-158.38623046875
-77.81982421875
49.4384765625
186.767578125
335.0830078125
504.45556640625
659.1796875
808.41064453125
936.58447265625
1040.0390625
1053.77197265625
963.134765625
724.18212890625
455.01708984375
216.97998046875
78.7353515625
7.32421875
-41.19873046875
-76.904296875
-110.77880859375
-145.56884765625
-181.2744140625
-210.5712890625
-211.48681640625
-189.51416015625
-182.18994140625
-186.767578125
-190.4296875
-193.17626953125
-195.00732421875
-193.17626953125
-185.85205078125
-181.2744140625
-181.2744140625
-189.51416015625
-195.9228515625
-192.2607421875
-205.078125
-206.9091796875
-205.99365234375
-202.33154296875
-205.078125
-205.078125
-201.416015625
-199.5849609375
-195.00732421875
-206.9091796875
-209.65576171875
-208.740234375
-201.416015625
-198.66943359375
-185.85205078125
-178.52783203125
-181.2744140625
-186.767578125
-188.5986328125
-181.2744140625
-171.20361328125
-167.54150390625
-165.71044921875
-168.45703125
-175.78125
-184.02099609375
-177.6123046875
-177.6123046875
-175.78125
-157.470703125
-139.16015625
-141.90673828125
-141.90673828125
-147.39990234375
-136.41357421875
-140.9912109375
-140.07568359375
-138.24462890625
-140.9912109375
-140.07568359375
-117.1875
-111.6943359375
-117.1875
-113.525390625
-107.11669921875
-105.28564453125
-96.13037109375
-79.65087890625
-90.63720703125
-85.14404296875
-73.2421875
-63.17138671875
-74.15771484375
-75.98876953125
-58.59375
-48.52294921875
-63.17138671875
-48.52294921875
-31.1279296875
-30.21240234375
-20.1416015625
-0.91552734375
5.4931640625
1.8310546875
1.8310546875
9.1552734375
21.05712890625
27.4658203125
33.87451171875
44.86083984375
43.9453125
42.1142578125
55.84716796875
53.1005859375
54.931640625
55.84716796875
50.35400390625
57.67822265625
71.4111328125
78.7353515625
74.15771484375
69.580078125
70.49560546875
58.59375
68.66455078125
73.2421875
83.31298828125
74.15771484375
70.49560546875
65.91796875
51.26953125
37.53662109375
35.70556640625
32.958984375
22.88818359375
15.56396484375
8.23974609375
-9.1552734375
-27.4658203125
-17.39501953125
-29.296875
-44.86083984375
-59.50927734375
-80.56640625
-96.13037109375
-95.21484375
-107.11669921875
-110.77880859375
-117.1875
-121.76513671875
-129.08935546875
-132.75146484375
-135.498046875
-136.41357421875
-143.73779296875
-147.39990234375
-160.21728515625
-170.2880859375
-181.2744140625
-196.83837890625
-190.4296875
-185.85205078125
-182.18994140625
-187.68310546875
-180.35888671875
-187.68310546875
-187.68310546875
-194.091796875
-190.4296875
-173.03466796875
-171.20361328125
-172.119140625
-187.68310546875
-182.18994140625
-173.03466796875
-162.9638671875
-168.45703125
-176.69677734375
-177.6123046875
-174.86572265625
-189.51416015625
-184.02099609375
-177.6123046875
-190.4296875
-187.68310546875
-168.45703125
-163.87939453125
-176.69677734375
-170.2880859375
-154.72412109375
-171.20361328125
-169.37255859375
-160.21728515625
-167.54150390625
-169.37255859375
-173.9501953125
-174.86572265625
-174.86572265625
-173.03466796875
-165.71044921875
-166.6259765625
-171.20361328125
-164.794921875
-169.37255859375
-171.20361328125
-161.1328125
-160.21728515625
-167.54150390625
-166.6259765625
-173.9501953125
-176.69677734375
-175.78125
-173.03466796875
-183.10546875
-173.03466796875
-159.3017578125
-163.87939453125
-169.37255859375
-167.54150390625
-161.1328125
-171.20361328125
-175.78125
-181.2744140625
-175.78125
-176.69677734375
-175.78125
-175.78125
-178.52783203125
-178.52783203125
-184.02099609375
-179.443359375
-170.2880859375
-174.86572265625
-187.68310546875
-178.52783203125
-184.02099609375
-187.68310546875
-190.4296875
-180.35888671875
-177.6123046875
-177.6123046875
-180.35888671875
-173.03466796875
-180.35888671875
-199.5849609375
-193.17626953125
-188.5986328125
-197.75390625
-190.4296875
-189.51416015625
-181.2744140625
-189.51416015625
-195.00732421875
-199.5849609375
-190.4296875
-197.75390625
-191.34521484375
-168.45703125
-156.55517578125
-153.80859375
-144.6533203125
-152.89306640625
-147.39990234375
-133.6669921875
-140.07568359375
-146.484375
-149.23095703125
-150.146484375
-128.173828125
-111.6943359375
-99.79248046875
-97.0458984375
-75.98876953125
-87.890625
-82.3974609375
-57.67822265625
-57.67822265625
-72.32666015625
-77.81982421875
-72.32666015625
-65.00244140625
-60.4248046875
-72.32666015625
-84.228515625
-86.0595703125
-98.876953125
-105.28564453125
-121.76513671875
-134.58251953125
-138.24462890625
-153.80859375
-170.2880859375
-182.18994140625
-183.10546875
-179.443359375
-192.2607421875
-195.9228515625
-197.75390625
-198.66943359375
-208.740234375
-201.416015625
-207.82470703125
-198.66943359375
-185.85205078125
-206.9091796875
-210.5712890625
-203.2470703125
-204.16259765625
-202.33154296875
-205.078125
-214.2333984375
-223.388671875
-209.65576171875
-219.7265625
-221.5576171875
-205.99365234375
-203.2470703125
-211.48681640625
-221.5576171875
-221.5576171875
-219.7265625
-220.64208984375
-214.2333984375
-225.2197265625
-215.14892578125
-214.2333984375
-219.7265625
-233.45947265625
-254.5166015625
-249.0234375
-218.81103515625
-178.52783203125
-112.60986328125
-8.23974609375
132.75146484375
258.1787109375
436.70654296875
600.5859375
749.81689453125
873.4130859375
1000.67138671875
1093.1396484375
1096.8017578125
918.27392578125
658.26416015625
394.59228515625
154.72412109375
45.7763671875
-23.8037109375
-70.49560546875
-97.96142578125
-122.6806640625
-146.484375
-171.20361328125
-191.34521484375
-173.9501953125
-144.6533203125
-141.90673828125
-147.39990234375
-149.23095703125
-164.794921875
-174.86572265625
-177.6123046875
-163.87939453125
-170.2880859375
-168.45703125
-172.119140625
-183.10546875
-183.10546875
-173.03466796875
-168.45703125
-179.443359375
-181.2744140625
-176.69677734375
-192.2607421875
-191.34521484375
-175.78125
-173.9501953125
-171.20361328125
-178.52783203125
-170.2880859375
-170.2880859375
-159.3017578125
-162.9638671875
-170.2880859375
-177.6123046875
-182.18994140625
-158.38623046875
-159.3017578125
-151.06201171875
-154.72412109375
-153.80859375
-139.16015625
-136.41357421875
-140.9912109375
-140.9912109375
-134.58251953125
-130.0048828125
-137.3291015625
-138.24462890625
-130.92041015625
-131.8359375
-134.58251953125
-132.75146484375
-122.6806640625
-105.28564453125
-105.28564453125
-99.79248046875
-97.96142578125
-96.13037109375
-84.228515625
-82.3974609375
-90.63720703125
-86.0595703125
-75.0732421875
-69.580078125
-63.17138671875
-65.91796875
-65.91796875
-55.84716796875
-50.35400390625
-50.35400390625
-42.1142578125
-36.62109375
-33.87451171875
-23.8037109375
-10.986328125
6.40869140625
1.8310546875
4.57763671875
17.39501953125
24.71923828125
33.87451171875
37.53662109375
47.607421875
56.7626953125
54.931640625
61.34033203125
72.32666015625
76.904296875
72.32666015625
81.48193359375
80.56640625
75.98876953125
91.552734375
100.7080078125
102.5390625
104.3701171875
110.77880859375
119.0185546875
125.42724609375
121.76513671875
112.60986328125
105.28564453125
107.11669921875
112.60986328125
108.0322265625
95.21484375
97.96142578125
92.46826171875
78.7353515625
77.81982421875
70.49560546875
49.4384765625
46.69189453125
32.04345703125
38.4521484375
21.05712890625
-7.32421875
-29.296875
-37.53662109375
-23.8037109375
-35.70556640625
-60.4248046875
-62.255859375
-68.66455078125
-81.48193359375
-94.29931640625
-104.3701171875
-115.3564453125
-132.75146484375
-137.3291015625
-146.484375
-140.07568359375
-142.822265625
-152.89306640625
-155.6396484375
-155.6396484375
-128.173828125
-143.73779296875
-151.9775390625
-162.04833984375
-167.54150390625
-157.470703125
-155.6396484375
-162.9638671875
-162.04833984375
-172.119140625
-170.2880859375
-159.3017578125
-145.56884765625
-150.146484375
-162.9638671875
-159.3017578125
-161.1328125
-170.2880859375
-170.2880859375
-169.37255859375
-164.794921875
-158.38623046875
-147.39990234375
-140.9912109375
-152.89306640625
-153.80859375
-144.6533203125
-153.80859375
-151.9775390625
-146.484375
-144.6533203125
-147.39990234375
-144.6533203125
-149.23095703125
-162.9638671875
-153.80859375
-151.06201171875
-155.6396484375
-145.56884765625
-156.55517578125
-157.470703125
-149.23095703125
-143.73779296875
-146.484375
-140.9912109375
-154.72412109375
-153.80859375
-150.146484375
-143.73779296875
-133.6669921875
-151.9775390625
-153.80859375
-143.73779296875
-156.55517578125
-162.04833984375
-154.72412109375
-153.80859375
-159.3017578125
-153.80859375
-144.6533203125
-150.146484375
-151.06201171875
-155.6396484375
-159.3017578125
-163.87939453125
-159.3017578125
-152.89306640625
-162.04833984375
-168.45703125
-160.21728515625
-160.21728515625
-156.55517578125
-163.87939453125
-159.3017578125
-158.38623046875
-162.9638671875
-167.54150390625
-163.87939453125
-163.87939453125
-164.794921875
-172.119140625
-157.470703125
-155.6396484375
-164.794921875
-170.2880859375
-173.03466796875
-186.767578125
-178.52783203125
-168.45703125
-171.20361328125
-159.3017578125
-159.3017578125
-161.1328125
-170.2880859375
-170.2880859375
-172.119140625
-166.6259765625
-162.9638671875
-171.20361328125
-175.78125
-180.35888671875
-183.10546875
-180.35888671875
-186.767578125
-186.767578125
-175.78125
-173.03466796875
-177.6123046875
-172.119140625
-172.119140625
-193.17626953125
-185.85205078125
-164.794921875
-175.78125
-175.78125
-180.35888671875
-174.86572265625
-158.38623046875
-158.38623046875
-138.24462890625
-131.8359375
-133.6669921875
-119.0185546875
-115.3564453125
-108.0322265625
-105.28564453125
-108.94775390625
-114.44091796875
-113.525390625
-119.0185546875
-102.5390625
-83.31298828125
-79.65087890625
-84.228515625
-64.0869140625
-64.0869140625
-65.91796875
-45.7763671875
-52.18505859375
-68.66455078125
-63.17138671875
-58.59375
-40.283203125
-67.7490234375
-87.890625
-82.3974609375
-84.228515625
-90.63720703125
-113.525390625
-111.6943359375
-110.77880859375
-120.849609375
-141.90673828125
-141.90673828125
-157.470703125
-160.21728515625
-170.2880859375
-167.54150390625
-172.119140625
-174.86572265625
-182.18994140625
-191.34521484375
-187.68310546875
-185.85205078125
-184.9365234375
-184.02099609375
-187.68310546875
-178.52783203125
-178.52783203125
-181.2744140625
-185.85205078125
-199.5849609375
-197.75390625
-195.00732421875
-195.00732421875
-196.83837890625
-189.51416015625
-194.091796875
-195.9228515625
-195.00732421875
-194.091796875
-190.4296875
-195.9228515625
-194.091796875
-179.443359375
-176.69677734375
-183.10546875
-190.4296875
-205.078125
-222.47314453125
-240.78369140625
-238.037109375
-222.47314453125
-176.69677734375
-117.1875
-32.04345703125
112.60986328125
241.69921875
399.169921875
589.599609375
758.97216796875
904.541015625
1037.29248046875
1123.35205078125
1154.47998046875
985.107421875
706.787109375
439.453125
181.2744140625
38.4521484375
-15.56396484375
-51.26953125
-80.56640625
-97.0458984375
-136.41357421875
-174.86572265625
-181.2744140625
-162.04833984375
-130.0048828125
-123.59619140625
-137.3291015625
-140.9912109375
-135.498046875
-140.9912109375
-143.73779296875
-152.89306640625
-168.45703125
-172.119140625
-167.54150390625
-174.86572265625
-173.9501953125
-173.03466796875
-189.51416015625
-180.35888671875
-174.86572265625
-173.9501953125
-165.71044921875
-153.80859375
-171.20361328125
-183.10546875
-173.9501953125
-154.72412109375
-144.6533203125
-154.72412109375
-152.89306640625
-166.6259765625
-159.3017578125
-149.23095703125
-156.55517578125
-156.55517578125
-146.484375
-142.822265625
-141.90673828125
-151.9775390625
-143.73779296875
-135.498046875
-129.08935546875
-131.8359375
-130.92041015625
-133.6669921875
-127.25830078125
-122.6806640625
-133.6669921875
-121.76513671875
-122.6806640625
-114.44091796875
-117.1875
-113.525390625
-110.77880859375
-111.6943359375
-100.7080078125
-97.96142578125
-96.13037109375
-97.0458984375
-78.7353515625
-86.97509765625
-93.3837890625
-85.14404296875
-79.65087890625
-71.4111328125
-62.255859375
-56.7626953125
-51.26953125
-48.52294921875
-40.283203125
-41.19873046875
-32.958984375
-26.55029296875
-28.38134765625
-18.310546875
-9.1552734375
-5.4931640625
11.90185546875
23.8037109375
34.7900390625
44.86083984375
54.01611328125
43.02978515625
54.01611328125
75.98876953125
87.890625
81.48193359375
84.228515625
86.0595703125
95.21484375
97.0458984375
105.28564453125
114.44091796875
110.77880859375
104.3701171875
102.5390625
111.6943359375
109.86328125
112.60986328125
118.10302734375
119.0185546875
122.6806640625
121.76513671875
116.27197265625
99.79248046875
99.79248046875
97.96142578125
80.56640625
82.3974609375
76.904296875
75.0732421875
67.7490234375
55.84716796875
32.958984375
24.71923828125
21.97265625
-15.56396484375
-20.1416015625
-21.97265625
-32.04345703125
-45.7763671875
-61.34033203125
-84.228515625
-100.7080078125
-102.5390625
-123.59619140625
-127.25830078125
-128.173828125
-139.16015625
-145.56884765625
-135.498046875
-147.39990234375
-145.56884765625
-143.73779296875
-152.89306640625
-156.55517578125
-165.71044921875
-175.78125
-184.02099609375
-184.02099609375
-178.52783203125
-178.52783203125
-173.9501953125
-174.86572265625
-188.5986328125
-184.02099609375
-177.6123046875
-173.03466796875
-168.45703125
-169.37255859375
-181.2744140625
-184.9365234375
-180.35888671875
-171.20361328125
-175.78125
-188.5986328125
-186.767578125
-178.52783203125
-185.85205078125
-181.2744140625
-180.35888671875
-176.69677734375
-186.767578125
-175.78125
-185.85205078125
-180.35888671875
-177.6123046875
-180.35888671875
-173.03466796875
-176.69677734375
-184.02099609375
-178.52783203125
-175.78125
-166.6259765625
-174.86572265625
-170.2880859375
-161.1328125
-173.9501953125
-176.69677734375
-157.470703125
-160.21728515625
-166.6259765625
-172.119140625
-181.2744140625
-188.5986328125
-200.50048828125
-185.85205078125
-177.6123046875
-178.52783203125
-187.68310546875
-185.85205078125
-183.10546875
-188.5986328125
-190.4296875
-184.9365234375
-183.10546875
-189.51416015625
-183.10546875
-176.69677734375
-192.2607421875
-196.83837890625
-187.68310546875
-181.2744140625
-184.9365234375
-185.85205078125
-184.02099609375
-188.5986328125
-196.83837890625
-193.17626953125
-194.091796875
-191.34521484375
-187.68310546875
-191.34521484375
-199.5849609375
-209.65576171875
-195.00732421875
-198.66943359375
-199.5849609375
-195.9228515625
-195.9228515625
-196.83837890625
-195.9228515625
-191.34521484375
-208.740234375
-205.078125
-204.16259765625
-205.99365234375
-197.75390625
-202.33154296875
-205.99365234375
-205.99365234375
-194.091796875
-212.40234375
-209.65576171875
-198.66943359375
-197.75390625
-201.416015625
-216.97998046875
-210.5712890625
-213.31787109375
-213.31787109375
-215.14892578125
-216.97998046875
-216.064453125
-214.2333984375
-205.078125
-205.99365234375
-223.388671875
-212.40234375
-195.9228515625
-185.85205078125
-181.2744140625
-175.78125
-157.470703125
-155.6396484375
-160.21728515625
-159.3017578125
-162.04833984375
-162.04833984375
-170.2880859375
-168.45703125
-177.6123046875
-167.54150390625
-128.173828125
-113.525390625
-125.42724609375
-112.60986328125
-121.76513671875
-94.29931640625
-74.15771484375
-86.0595703125
-77.81982421875
-78.7353515625
-90.63720703125
-92.46826171875
-86.97509765625
-94.29931640625
-107.11669921875
-112.60986328125
-116.27197265625
-123.59619140625
-132.75146484375
-143.73779296875
-165.71044921875
-186.767578125
-184.02099609375
-187.68310546875
-192.2607421875
-186.767578125
-193.17626953125
-200.50048828125
-201.416015625
-199.5849609375
-228.8818359375
-222.47314453125
-223.388671875
-223.388671875
-218.81103515625
-212.40234375
-208.740234375
-213.31787109375
-213.31787109375
-223.388671875
-235.29052734375
-231.62841796875
-232.5439453125
-228.8818359375
-214.2333984375
-212.40234375
-229.79736328125
-237.12158203125
-233.45947265625
-234.375
-228.8818359375
-217.8955078125
-231.62841796875
-223.388671875
-217.8955078125
-231.62841796875
-239.8681640625
-249.93896484375
-264.58740234375
-274.658203125
-260.009765625
-227.05078125
-182.18994140625
-102.5390625
19.22607421875
150.146484375
275.57373046875
449.52392578125
621.64306640625
777.28271484375
921.0205078125
1038.2080078125
1094.05517578125
1053.77197265625
836.7919921875
563.04931640625
315.85693359375
115.3564453125
21.97265625
-33.87451171875
-65.91796875
-81.48193359375
-103.45458984375
-151.06201171875
-203.2470703125
-201.416015625
-201.416015625
-184.02099609375
-175.78125
-167.54150390625
-176.69677734375
-181.2744140625
-182.18994140625
-178.52783203125
-184.02099609375
-197.75390625
-204.16259765625
-186.767578125
-191.34521484375
-212.40234375
-224.30419921875
-215.14892578125
-220.64208984375
-221.5576171875
-231.62841796875
-219.7265625
-212.40234375
-204.16259765625
-185.85205078125
-188.5986328125
-192.2607421875
-215.14892578125
-207.82470703125
-200.50048828125
-193.17626953125
-183.10546875
-186.767578125
-188.5986328125
-184.02099609375
-189.51416015625
-191.34521484375
-186.767578125
-178.52783203125
-180.35888671875
-194.091796875
-190.4296875
-188.5986328125
-179.443359375
-180.35888671875
-173.03466796875
-171.20361328125
-169.37255859375
-166.6259765625
-166.6259765625
-169.37255859375
-160.21728515625
-145.56884765625
-147.39990234375
-131.8359375
-133.6669921875
-143.73779296875
-133.6669921875
-143.73779296875
-132.75146484375
-131.8359375
-129.08935546875
-120.849609375
-116.27197265625
-97.96142578125
-94.29931640625
-86.0595703125
-75.98876953125
-75.0732421875
-72.32666015625
-70.49560546875
-67.7490234375
-70.49560546875
-61.34033203125
-57.67822265625
-41.19873046875
-30.21240234375
-31.1279296875
-17.39501953125
-11.90185546875
0.91552734375
4.57763671875
10.986328125
19.22607421875
11.90185546875
17.39501953125
23.8037109375
27.4658203125
49.4384765625
53.1005859375
56.7626953125
41.19873046875
38.4521484375
54.01611328125
53.1005859375
61.34033203125
56.7626953125
58.59375
69.580078125
65.00244140625
60.4248046875
58.59375
54.931640625
65.91796875
72.32666015625
52.18505859375
45.7763671875
38.4521484375
14.6484375
16.4794921875
6.40869140625
-0.91552734375
-7.32421875
-22.88818359375
-26.55029296875
-28.38134765625
-41.19873046875
-60.4248046875
-81.48193359375
-96.13037109375
-101.62353515625
-108.94775390625
-114.44091796875
-129.08935546875
-138.24462890625
-149.23095703125
-159.3017578125
-169.37255859375
-188.5986328125
-183.10546875
-177.6123046875
-184.02099609375
-184.02099609375
-198.66943359375
-198.66943359375
-186.767578125
-189.51416015625
-205.078125
-213.31787109375
-203.2470703125
-201.416015625
-211.48681640625
-204.16259765625
-196.83837890625
-194.091796875
-199.5849609375
-205.078125
-215.14892578125
-202.33154296875
-205.99365234375
-217.8955078125
-213.31787109375
-223.388671875
-219.7265625
-209.65576171875
-201.416015625
-203.2470703125
-195.9228515625
-194.091796875
-197.75390625
-202.33154296875
-205.99365234375
-204.16259765625
-203.2470703125
-201.416015625
-205.99365234375
-206.9091796875
-205.99365234375
-200.50048828125
-201.416015625
-199.5849609375
-198.66943359375
-208.740234375
-201.416015625
-200.50048828125
-199.5849609375
-197.75390625
-195.9228515625
-200.50048828125
-201.416015625
-211.48681640625
-213.31787109375
-202.33154296875
-194.091796875
-182.18994140625
-186.767578125
-194.091796875
-194.091796875
-195.9228515625
-200.50048828125
-208.740234375
-211.48681640625
-216.064453125
-219.7265625
-205.078125
-205.99365234375
-204.16259765625
-212.40234375
-211.48681640625
-199.5849609375
-205.078125
-210.5712890625
-214.2333984375
-207.82470703125
-217.8955078125
-206.9091796875
-200.50048828125
-211.48681640625
-220.64208984375
-221.5576171875
-225.2197265625
-230.712890625
-224.30419921875
-226.13525390625
-219.7265625
-210.5712890625
-216.064453125
-214.2333984375
-209.65576171875
-206.9091796875
-211.48681640625
-235.29052734375
-230.712890625
-222.47314453125
-227.05078125
-216.064453125
-214.2333984375
-215.14892578125
-220.64208984375
-205.99365234375
-195.9228515625
-206.9091796875
-188.5986328125
-187.68310546875
-173.9501953125
-167.54150390625
-172.119140625
-171.20361328125
-166.6259765625
-162.9638671875
-167.54150390625
-163.87939453125
-155.6396484375
-138.24462890625
-140.07568359375
-141.90673828125
-130.92041015625
-108.0322265625
-96.13037109375
-103.45458984375
-117.1875
-116.27197265625
-106.201171875
-96.13037109375
-93.3837890625
-108.94775390625
-119.0185546875
-115.3564453125
-121.76513671875
-151.9775390625
-168.45703125
-179.443359375
-182.18994140625
-201.416015625
-205.99365234375
-210.5712890625
-219.7265625
-221.5576171875
-232.5439453125
-230.712890625
-234.375
-230.712890625
-234.375
-238.95263671875
-243.5302734375
-247.1923828125
-245.361328125
-242.61474609375
-260.92529296875
-243.5302734375
-237.12158203125
-241.69921875
-236.2060546875
-242.61474609375
-236.2060546875
-232.5439453125
-241.69921875
-238.95263671875
-248.10791015625
-249.93896484375
-241.69921875
-247.1923828125
-244.44580078125
-238.95263671875
-239.8681640625
-250.8544921875
-237.12158203125
-236.2060546875
-248.10791015625
-256.34765625
-275.57373046875
-276.4892578125
-258.1787109375
-238.95263671875
-182.18994140625
-112.60986328125
6.40869140625
143.73779296875
276.4892578125
449.52392578125
609.7412109375
767.2119140625
901.79443359375
1011.65771484375
1072.08251953125
1007.080078125
775.45166015625
512.6953125
253.60107421875
80.56640625
5.4931640625
-53.1005859375
-86.97509765625
-110.77880859375
-141.90673828125
-181.2744140625
-230.712890625
-238.95263671875
-216.97998046875
-184.02099609375
-165.71044921875
-183.10546875
-190.4296875
-194.091796875
-198.66943359375
-199.5849609375
-197.75390625
-212.40234375
-210.5712890625
-205.99365234375
-216.97998046875
-213.31787109375
-218.81103515625
-230.712890625
-234.375
-232.5439453125
-235.29052734375
-214.2333984375
-205.078125
-205.99365234375
-201.416015625
-203.2470703125
-213.31787109375
-229.79736328125
-218.81103515625
-215.14892578125
-222.47314453125
-215.14892578125
-212.40234375
-205.99365234375
-189.51416015625
-187.68310546875
-184.02099609375
-189.51416015625
-183.10546875
-182.18994140625
-190.4296875
-184.02099609375
-181.2744140625
-183.10546875
-178.52783203125
-187.68310546875
-175.78125
-163.87939453125
-162.9638671875
-155.6396484375
-148.3154296875
-142.822265625
-141.90673828125
-140.07568359375
-131.8359375
-131.8359375
-122.6806640625
-118.10302734375
-120.849609375
-130.0048828125
-108.0322265625
-101.62353515625
-106.201171875
-106.201171875
-96.13037109375
-100.7080078125
-97.0458984375
-91.552734375
-90.63720703125
-75.0732421875
-79.65087890625
-68.66455078125
-48.52294921875
-52.18505859375
-51.26953125
-52.18505859375
-43.02978515625
-31.1279296875
-32.958984375
-20.1416015625
-2.74658203125
3.662109375
14.6484375
15.56396484375
33.87451171875
49.4384765625
46.69189453125
43.02978515625
48.52294921875
60.4248046875
54.931640625
60.4248046875
61.34033203125
65.00244140625
67.7490234375
60.4248046875
54.931640625
55.84716796875
73.2421875
76.904296875
73.2421875
75.98876953125
86.0595703125
81.48193359375
65.00244140625
58.59375
57.67822265625
45.7763671875
38.4521484375
23.8037109375
10.07080078125
-5.4931640625
-16.4794921875
-13.73291015625
-30.21240234375
-54.931640625
-74.15771484375
-69.580078125
-70.49560546875
-78.7353515625
-97.96142578125
-117.1875
-125.42724609375
-130.0048828125
-138.24462890625
-151.9775390625
-151.06201171875
-151.9775390625
-162.9638671875
-165.71044921875
-166.6259765625
-183.10546875
-184.02099609375
-180.35888671875
-173.03466796875
-184.02099609375
-188.5986328125
-187.68310546875
-175.78125
-184.9365234375
-190.4296875
-191.34521484375
-192.2607421875
-200.50048828125
-195.00732421875
-200.50048828125
-197.75390625
-198.66943359375
-192.2607421875
-192.2607421875
-195.9228515625
-189.51416015625
-186.767578125
-193.17626953125
-199.5849609375
-195.00732421875
-189.51416015625
-191.34521484375
-194.091796875
-200.50048828125
-190.4296875
-190.4296875
-177.6123046875
-176.69677734375
-174.86572265625
-179.443359375
-190.4296875
-199.5849609375
-200.50048828125
-197.75390625
-184.02099609375
-189.51416015625
-185.85205078125
-186.767578125
-187.68310546875
-185.85205078125
-184.9365234375
-177.6123046875
-177.6123046875
-173.03466796875
-183.10546875
-181.2744140625
-178.52783203125
-192.2607421875
-184.02099609375
-179.443359375
-174.86572265625
-173.9501953125
-174.86572265625
-178.52783203125
-185.85205078125
-200.50048828125
-196.83837890625
-183.10546875
-184.02099609375
-183.10546875
-187.68310546875
-192.2607421875
-194.091796875
-196.83837890625
-195.00732421875
-203.2470703125
-199.5849609375
-202.33154296875
-187.68310546875
-200.50048828125
-186.767578125
-192.2607421875
-191.34521484375
-184.9365234375
-179.443359375
-177.6123046875
-185.85205078125
-197.75390625
-204.16259765625
-211.48681640625
-206.9091796875
-206.9091796875
-192.2607421875
-191.34521484375
-203.2470703125
-198.66943359375
-191.34521484375
-199.5849609375
-196.83837890625
-206.9091796875
-204.16259765625
-193.17626953125
-176.69677734375
-192.2607421875
-200.50048828125
-204.16259765625
-215.14892578125
-207.82470703125
-209.65576171875
-202.33154296875
-195.00732421875
-185.85205078125
-176.69677734375
-162.9638671875
-151.9775390625
-153.80859375
-151.9775390625
-135.498046875
-129.08935546875
-137.3291015625
-146.484375
-141.90673828125
-159.3017578125
-140.9912109375
-123.59619140625
-96.13037109375
-85.14404296875
-85.14404296875
-82.3974609375
-63.17138671875
-57.67822265625
-65.00244140625
-60.4248046875
-65.00244140625
-85.14404296875
-79.65087890625
-91.552734375
-98.876953125
-86.97509765625
-98.876953125
-110.77880859375
-118.10302734375
-138.24462890625
-148.3154296875
-153.80859375
-186.767578125
-181.2744140625
-190.4296875
-189.51416015625
-186.767578125
-203.2470703125
-204.16259765625
-214.2333984375
-219.7265625
-222.47314453125
-227.05078125
-215.14892578125
-219.7265625
-220.64208984375
-230.712890625
-225.2197265625
-222.47314453125
-215.14892578125
-218.81103515625
-234.375
-236.2060546875
-233.45947265625
-236.2060546875
-225.2197265625
-222.47314453125
-221.5576171875
-216.97998046875
-215.14892578125
-228.8818359375
-225.2197265625
-224.30419921875
-224.30419921875
-228.8818359375
-221.5576171875
-239.8681640625
-252.685546875
-239.8681640625
-250.8544921875
-266.41845703125
-242.61474609375
-208.740234375
-164.794921875
-99.79248046875
26.55029296875
160.21728515625
296.630859375
473.32763671875
645.44677734375
786.43798828125
927.42919921875
1044.61669921875
1091.30859375
1005.2490234375
754.39453125
493.46923828125
228.8818359375
43.02978515625
-36.62109375
-78.7353515625
-109.86328125
-136.41357421875
-168.45703125
-185.85205078125
-197.75390625
-181.2744140625
-151.9775390625
-146.484375
-150.146484375
-171.20361328125
-175.78125
-178.52783203125
-181.2744140625
-190.4296875
-195.9228515625
-197.75390625
-185.85205078125
-196.83837890625
-202.33154296875
-198.66943359375
-197.75390625
-188.5986328125
-200.50048828125
-212.40234375
-199.5849609375
-191.34521484375
-192.2607421875
-195.9228515625
-184.02099609375
-182.18994140625
-191.34521484375
-195.9228515625
-197.75390625
-199.5849609375
-185.85205078125
-177.6123046875
-180.35888671875
-181.2744140625
-180.35888671875
-173.03466796875
-173.9501953125
-180.35888671875
-167.54150390625
-155.6396484375
-153.80859375
-160.21728515625
-158.38623046875
-151.06201171875
-144.6533203125
-151.06201171875
-144.6533203125
-133.6669921875
-134.58251953125
-144.6533203125
-130.0048828125
-118.10302734375
-128.173828125
-126.3427734375
-119.0185546875
-115.3564453125
-104.3701171875
-101.62353515625
-105.28564453125
-106.201171875
-97.96142578125
-90.63720703125
-81.48193359375
-83.31298828125
-75.0732421875
-73.2421875
-59.50927734375
-57.67822265625
-43.9453125
-47.607421875
-46.69189453125
-45.7763671875
-25.634765625
-17.39501953125
-19.22607421875
-13.73291015625
0.91552734375
8.23974609375
22.88818359375
28.38134765625
23.8037109375
35.70556640625
44.86083984375
53.1005859375
74.15771484375
79.65087890625
85.14404296875
82.3974609375
83.31298828125
75.0732421875
76.904296875
90.63720703125
94.29931640625
97.96142578125
113.525390625
116.27197265625
113.525390625
107.11669921875
127.25830078125
120.849609375
111.6943359375
119.0185546875
114.44091796875
111.6943359375
104.3701171875
91.552734375
68.66455078125
65.00244140625
67.7490234375
47.607421875
45.7763671875
35.70556640625
32.958984375
21.97265625
7.32421875
-7.32421875
-15.56396484375
-26.55029296875
-36.62109375
-50.35400390625
-85.14404296875
-95.21484375
-109.86328125
-111.6943359375
-108.0322265625
-119.93408203125
-129.08935546875
-135.498046875
-153.80859375
-152.89306640625
-148.3154296875
-152.89306640625
-163.87939453125
-177.6123046875
-185.85205078125
-178.52783203125
-183.10546875
-173.03466796875
-178.52783203125
-180.35888671875
-177.6123046875
-178.52783203125
-184.9365234375
-184.9365234375
-187.68310546875
-185.85205078125
-194.091796875
-204.16259765625
-199.5849609375
-190.4296875
-180.35888671875
-182.18994140625
-183.10546875
-187.68310546875
-186.767578125
-173.9501953125
-175.78125
-191.34521484375
-184.9365234375
-188.5986328125
-180.35888671875
-188.5986328125
-180.35888671875
-184.9365234375
-180.35888671875
-182.18994140625
-181.2744140625
-191.34521484375
-186.767578125
-187.68310546875
-187.68310546875
-181.2744140625
-183.10546875
-181.2744140625
-194.091796875
-186.767578125
-183.10546875
-201.416015625
-209.65576171875
-204.16259765625
-186.767578125
-191.34521484375
-179.443359375
-176.69677734375
-180.35888671875
-179.443359375
-193.17626953125
-207.82470703125
-201.416015625
-192.2607421875
-202.33154296875
-203.2470703125
-206.9091796875
-201.416015625
-193.17626953125
-212.40234375
-211.48681640625
-207.82470703125
-207.82470703125
-191.34521484375
-197.75390625
-204.16259765625
-205.078125
-198.66943359375
-199.5849609375
-195.00732421875
-198.66943359375
-195.00732421875
-202.33154296875
-205.99365234375
-208.740234375
-220.64208984375
-229.79736328125
-227.05078125
-227.05078125
-227.96630859375
-231.62841796875
-227.96630859375
-207.82470703125
-210.5712890625
-221.5576171875
-219.7265625
-209.65576171875
-224.30419921875
-213.31787109375
-205.99365234375
-211.48681640625
-210.5712890625
-208.740234375
-215.14892578125
-222.47314453125
-223.388671875
-218.81103515625
-222.47314453125
-222.47314453125
-215.14892578125
-222.47314453125
-209.65576171875
-210.5712890625
-195.00732421875
-173.9501953125
-186.767578125
-192.2607421875
-169.37255859375
-175.78125
-179.443359375
-179.443359375
-177.6123046875
-170.2880859375
-163.87939453125
-148.3154296875
-126.3427734375
-124.51171875
-113.525390625
-105.28564453125
-97.96142578125
-88.80615234375
-92.46826171875
-93.3837890625
-105.28564453125
-116.27197265625
-108.0322265625
-134.58251953125
-134.58251953125
-121.76513671875
-126.3427734375
-141.90673828125
-157.470703125
-181.2744140625
-182.18994140625
-194.091796875
-228.8818359375
-231.62841796875
-220.64208984375
-226.13525390625
-241.69921875
-241.69921875
-251.77001953125
-245.361328125
-253.60107421875
-250.8544921875
-241.69921875
-251.77001953125
-261.8408203125
-246.27685546875
-241.69921875
-248.10791015625
-254.5166015625
-260.009765625
-251.77001953125
-264.58740234375
-260.92529296875
-260.009765625
-266.41845703125
-259.09423828125
-260.92529296875
-260.92529296875
-253.60107421875
-249.93896484375
-253.60107421875
-255.43212890625
-260.92529296875
-260.92529296875
-265.5029296875
-272.8271484375
-281.982421875
-289.306640625
-286.56005859375
-302.1240234375
-312.19482421875
-283.8134765625
-225.2197265625
-173.9501953125
-83.31298828125
46.69189453125
163.87939453125
325.01220703125
508.11767578125
659.1796875
825.8056640625
968.6279296875
1054.6875
1052.8564453125
886.23046875
627.13623046875
377.197265625
119.93408203125
-9.1552734375
-70.49560546875
-106.201171875
-124.51171875
-163.87939453125
-197.75390625
-250.8544921875
-275.57373046875
-247.1923828125
-212.40234375
-210.5712890625
-194.091796875
-198.66943359375
-221.5576171875
-229.79736328125
-226.13525390625
-216.97998046875
-238.037109375
-241.69921875
-253.60107421875
-254.5166015625
-239.8681640625
-246.27685546875
-239.8681640625
-235.29052734375
-252.685546875
-247.1923828125
-243.5302734375
-243.5302734375
-236.2060546875
-240.78369140625
-229.79736328125
-234.375
-246.27685546875
-247.1923828125
-246.27685546875
-237.12158203125
-239.8681640625
-234.375
-229.79736328125
-216.97998046875
-220.64208984375
-228.8818359375
-224.30419921875
-214.2333984375
-219.7265625
-220.64208984375
-210.5712890625
-226.13525390625
-229.79736328125
-220.64208984375
-206.9091796875
-204.16259765625
-191.34521484375
-191.34521484375
-196.83837890625
-198.66943359375
-201.416015625
-190.4296875
-175.78125
-181.2744140625
-195.9228515625
-180.35888671875
-182.18994140625
-169.37255859375
-169.37255859375
-175.78125
-153.80859375
-143.73779296875
-143.73779296875
-149.23095703125
-149.23095703125
-134.58251953125
-138.24462890625
-138.24462890625
-120.849609375
-100.7080078125
-100.7080078125
-99.79248046875
-98.876953125
-83.31298828125
-72.32666015625
-80.56640625
-75.98876953125
-60.4248046875
-54.931640625
-40.283203125
-31.1279296875
-27.4658203125
-17.39501953125
-24.71923828125
-17.39501953125
-9.1552734375
-16.4794921875
-6.40869140625
-5.4931640625
-7.32421875
-6.40869140625
0
10.986328125
12.8173828125
30.21240234375
13.73291015625
5.4931640625
1.8310546875
16.4794921875
7.32421875
21.97265625
32.958984375
19.22607421875
-1.8310546875
4.57763671875
2.74658203125
-7.32421875
-18.310546875
-43.9453125
-53.1005859375
-48.52294921875
-42.1142578125
-65.00244140625
-78.7353515625
-75.0732421875
-78.7353515625
-100.7080078125
-110.77880859375
-112.60986328125
-140.07568359375
-156.55517578125
-173.9501953125
-184.9365234375
-194.091796875
-196.83837890625
-194.091796875
-197.75390625
-203.2470703125
-215.14892578125
-223.388671875
-237.12158203125
-233.45947265625
-219.7265625
-221.5576171875
-233.45947265625
-233.45947265625
-231.62841796875
-243.5302734375
-258.1787109375
-262.75634765625
-259.09423828125
-260.009765625
-258.1787109375
-254.5166015625
-255.43212890625
-252.685546875
-248.10791015625
-249.0234375
-242.61474609375
-240.78369140625
-256.34765625
-249.0234375
-242.61474609375
-238.95263671875
-249.93896484375
-251.77001953125
-244.44580078125
-246.27685546875
-254.5166015625
-256.34765625
-247.1923828125
-236.2060546875
-229.79736328125
-228.8818359375
-234.375
-240.78369140625
-229.79736328125
-234.375
-246.27685546875
-238.95263671875
-241.69921875
-245.361328125
-260.009765625
-251.77001953125
-238.037109375
-243.5302734375
-240.78369140625
-250.8544921875
-243.5302734375
-235.29052734375
-236.2060546875
-236.2060546875
-244.44580078125
-238.037109375
-242.61474609375
-250.8544921875
-249.0234375
-249.93896484375
-246.27685546875
-244.44580078125
-248.10791015625
-239.8681640625
-243.5302734375
-234.375
-238.95263671875
-238.037109375
-253.60107421875
-257.26318359375
-258.1787109375
-258.1787109375
-261.8408203125
-254.5166015625
-253.60107421875
-248.10791015625
-246.27685546875
-253.60107421875
-244.44580078125
-244.44580078125
-246.27685546875
-249.0234375
-248.10791015625
-250.8544921875
-259.09423828125
-249.93896484375
-253.60107421875
-244.44580078125
-239.8681640625
-224.30419921875
-220.64208984375
-220.64208984375
-222.47314453125
-216.97998046875
-219.7265625
-217.8955078125
-216.064453125
-219.7265625
-211.48681640625
-197.75390625
-188.5986328125
-178.52783203125
-177.6123046875
-170.2880859375
-159.3017578125
-152.89306640625
-144.6533203125
-140.9912109375
-143.73779296875
-155.6396484375
-152.89306640625
-132.75146484375
-138.24462890625
-159.3017578125
-170.2880859375
-170.2880859375
-189.51416015625
-199.5849609375
-202.33154296875
-212.40234375
-228.8818359375
-244.44580078125
-252.685546875
-249.93896484375
-252.685546875
-261.8408203125
-255.43212890625
-264.58740234375
-274.658203125
-276.4892578125
-275.57373046875
-277.40478515625
-284.72900390625
-279.23583984375
-280.1513671875
-276.4892578125
-281.982421875
-280.1513671875
-273.74267578125
-294.7998046875
-305.7861328125
-307.6171875
-285.64453125
-282.89794921875
-281.06689453125
-285.64453125
-287.4755859375
-277.40478515625
-271.91162109375
-276.4892578125
-284.72900390625
-279.23583984375
-278.3203125
-279.23583984375
-281.06689453125
-294.7998046875
-306.70166015625
-318.603515625
-344.23828125
-331.4208984375
-291.1376953125
-247.1923828125
-191.34521484375
-96.13037109375
38.4521484375
172.119140625
334.16748046875
508.11767578125
668.3349609375
800.1708984375
918.27392578125
996.09375
1014.404296875
859.68017578125
596.00830078125
357.97119140625
125.42724609375
-15.56396484375
-71.4111328125
-114.44091796875
-138.24462890625
-152.89306640625
-200.50048828125
-246.27685546875
-272.8271484375
-272.8271484375
-250.8544921875
-238.95263671875
-219.7265625
-228.8818359375
-238.037109375
-232.5439453125
-241.69921875
-249.0234375
-249.0234375
-252.685546875
-258.1787109375
-257.26318359375
-261.8408203125
-274.658203125
-266.41845703125
-267.333984375
-260.92529296875
-268.24951171875
-270.99609375
-262.75634765625
-257.26318359375
-255.43212890625
-260.92529296875
-260.009765625
-248.10791015625
-241.69921875
-246.27685546875
-249.0234375
-251.77001953125
-250.8544921875
-249.93896484375
-249.93896484375
-255.43212890625
-241.69921875
-253.60107421875
-241.69921875
-238.037109375
-234.375
-231.62841796875
-224.30419921875
-206.9091796875
-213.31787109375
-210.5712890625
-217.8955078125
-215.14892578125
-205.078125
-211.48681640625
-204.16259765625
-197.75390625
-196.83837890625
-195.9228515625
-190.4296875
-182.18994140625
-188.5986328125
-196.83837890625
-184.02099609375
-176.69677734375
-174.86572265625
-156.55517578125
-152.89306640625
-149.23095703125
-147.39990234375
-144.6533203125
-140.9912109375
-142.822265625
-134.58251953125
-127.25830078125
-117.1875
-119.0185546875
-113.525390625
-105.28564453125
-98.876953125
-93.3837890625
-84.228515625
-76.904296875
-62.255859375
-56.7626953125
-47.607421875
-40.283203125
-43.9453125
-44.86083984375
-41.19873046875
-16.4794921875
-16.4794921875
-7.32421875
-10.07080078125
-10.07080078125
-9.1552734375
-9.1552734375
-1.8310546875
4.57763671875
-1.8310546875
6.40869140625
14.6484375
7.32421875
8.23974609375
5.4931640625
1.8310546875
12.8173828125
16.4794921875
21.05712890625
10.07080078125
-10.986328125
-31.1279296875
-33.87451171875
-31.1279296875
-34.7900390625
-38.4521484375
-54.01611328125
-68.66455078125
-81.48193359375
-87.890625
-91.552734375
-103.45458984375
-105.28564453125
-122.6806640625
-145.56884765625
-151.06201171875
-162.9638671875
-177.6123046875
-172.119140625
-192.2607421875
-204.16259765625
-204.16259765625
-203.2470703125
-216.97998046875
-216.97998046875
-212.40234375
-226.13525390625
-238.037109375
-238.037109375
-242.61474609375
-243.5302734375
-236.2060546875
-237.12158203125
-236.2060546875
-246.27685546875
-237.12158203125
-231.62841796875
-235.29052734375
-242.61474609375
-242.61474609375
-243.5302734375
-241.69921875
-235.29052734375
-235.29052734375
-231.62841796875
-243.5302734375
-228.8818359375
-235.29052734375
-243.5302734375
-242.61474609375
-235.29052734375
-238.037109375
-232.5439453125
-220.64208984375
-237.12158203125
-239.8681640625
-236.2060546875
-249.93896484375
-243.5302734375
-235.29052734375
-228.8818359375
-217.8955078125
-218.81103515625
-224.30419921875
-222.47314453125
-221.5576171875
-233.45947265625
-234.375
-238.037109375
-227.05078125
-241.69921875
-252.685546875
-233.45947265625
-233.45947265625
-225.2197265625
-217.8955078125
-221.5576171875
-226.13525390625
-228.8818359375
-240.78369140625
-240.78369140625
-229.79736328125
-227.05078125
-225.2197265625
-223.388671875
-225.2197265625
-226.13525390625
-230.712890625
-230.712890625
-227.96630859375
-224.30419921875
-231.62841796875
-238.95263671875
-238.95263671875
-249.0234375
-245.361328125
-248.10791015625
-257.26318359375
-255.43212890625
-238.037109375
-248.10791015625
-250.8544921875
-248.10791015625
-253.60107421875
-252.685546875
-245.361328125
-242.61474609375
-246.27685546875
-248.10791015625
-234.375
-238.95263671875
-239.8681640625
-227.05078125
-216.97998046875
-208.740234375
-197.75390625
-195.9228515625
-196.83837890625
-200.50048828125
-203.2470703125
-196.83837890625
-207.82470703125
-207.82470703125
-184.9365234375
-170.2880859375
-147.39990234375
-148.3154296875
-144.6533203125
-135.498046875
-129.08935546875
-122.6806640625
-119.0185546875
-123.59619140625
-117.1875
-135.498046875
-128.173828125
-115.3564453125
-120.849609375
-143.73779296875
-147.39990234375
-150.146484375
-171.20361328125
-192.2607421875
-195.9228515625
-185.85205078125
-214.2333984375
-224.30419921875
-227.96630859375
-236.2060546875
-240.78369140625
-249.93896484375
-252.685546875
-252.685546875
-265.5029296875
-276.4892578125
-270.08056640625
-278.3203125
-273.74267578125
-270.99609375
-255.43212890625
-258.1787109375
-255.43212890625
-255.43212890625
-258.1787109375
-269.1650390625
-261.8408203125
-264.58740234375
-252.685546875
-252.685546875
-249.93896484375
-252.685546875
-250.8544921875
-253.60107421875
-263.671875
-257.26318359375
-255.43212890625
-266.41845703125
-258.1787109375
-253.60107421875
-262.75634765625
-267.333984375
-274.658203125
-281.06689453125
-292.05322265625
-281.982421875
-242.61474609375
-208.740234375
-158.38623046875
-38.4521484375
95.21484375
223.388671875
399.169921875
552.978515625
714.111328125
862.4267578125
985.107421875
1042.78564453125
1007.99560546875
787.353515625
525.5126953125
277.40478515625
54.01611328125
-39.36767578125
-94.29931640625
-134.58251953125
-159.3017578125
-178.52783203125
-210.5712890625
-241.69921875
-227.96630859375
-215.14892578125
-194.091796875
-192.2607421875
-205.99365234375
-209.65576171875
-205.078125
-211.48681640625
-224.30419921875
-218.81103515625
-224.30419921875
-214.2333984375
-208.740234375
-228.8818359375
-220.64208984375
-221.5576171875
-214.2333984375
-219.7265625
-222.47314453125
-218.81103515625
-224.30419921875
-231.62841796875
-220.64208984375
-208.740234375
-214.2333984375
-229.79736328125
-223.388671875
-203.2470703125
-214.2333984375
-214.2333984375
-212.40234375
-204.16259765625
-204.16259765625
-210.5712890625
-197.75390625
-183.10546875
-180.35888671875
-178.52783203125
-175.78125
-195.00732421875
-195.9228515625
-185.85205078125
-180.35888671875
-185.85205078125
-176.69677734375
-163.87939453125
-151.9775390625
-151.06201171875
-154.72412109375
-155.6396484375
-155.6396484375
-146.484375
-145.56884765625
-140.07568359375
-132.75146484375
-139.16015625
-134.58251953125
-125.42724609375
-118.10302734375
-120.849609375
-106.201171875
-105.28564453125
-105.28564453125
-103.45458984375
-90.63720703125
-91.552734375
-89.7216796875
-96.13037109375
-77.81982421875
-64.0869140625
-41.19873046875
-37.53662109375
-42.1142578125
-37.53662109375
-26.55029296875
-20.1416015625
-5.4931640625
-0.91552734375
-6.40869140625
4.57763671875
23.8037109375
38.4521484375
34.7900390625
33.87451171875
39.36767578125
46.69189453125
52.18505859375
52.18505859375
39.36767578125
59.50927734375
72.32666015625
66.83349609375
70.49560546875
62.255859375
78.7353515625
78.7353515625
72.32666015625
63.17138671875
75.98876953125
77.81982421875
74.15771484375
72.32666015625
69.580078125
56.7626953125
44.86083984375
53.1005859375
37.53662109375
18.310546875
28.38134765625
21.05712890625
4.57763671875
-25.634765625
-45.7763671875
-43.02978515625
-50.35400390625
-54.931640625
-62.255859375
-83.31298828125
-95.21484375
-97.0458984375
-110.77880859375
-119.93408203125
-125.42724609375
-137.3291015625
-149.23095703125
-162.9638671875
-151.9775390625
-157.470703125
-168.45703125
-175.78125
-201.416015625
-191.34521484375
-187.68310546875
-184.9365234375
-191.34521484375
-187.68310546875
-192.2607421875
-193.17626953125
-204.16259765625
-205.078125
-210.5712890625
-216.97998046875
-201.416015625
-187.68310546875
-191.34521484375
-195.00732421875
-194.091796875
-193.17626953125
-187.68310546875
-201.416015625
-205.99365234375
-198.66943359375
-197.75390625
-193.17626953125
-197.75390625
-195.9228515625
-191.34521484375
-185.85205078125
-184.9365234375
-184.02099609375
-176.69677734375
-178.52783203125
-196.83837890625
-203.2470703125
-189.51416015625
-184.02099609375
-182.18994140625
-173.9501953125
-171.20361328125
-180.35888671875
-184.02099609375
-168.45703125
-185.85205078125
-191.34521484375
-188.5986328125
-184.02099609375
-192.2607421875
-183.10546875
-181.2744140625
-184.9365234375
-187.68310546875
-189.51416015625
-185.85205078125
-184.9365234375
-187.68310546875
-188.5986328125
-179.443359375
-193.17626953125
-198.66943359375
-196.83837890625
-193.17626953125
-192.2607421875
-192.2607421875
-184.9365234375
-185.85205078125
-188.5986328125
-199.5849609375
-205.078125
-216.97998046875
-216.064453125
-215.14892578125
-209.65576171875
-192.2607421875
-190.4296875
-189.51416015625
-188.5986328125
-195.00732421875
-204.16259765625
-204.16259765625
-198.66943359375
-198.66943359375
-198.66943359375
-204.16259765625
-201.416015625
-184.9365234375
-202.33154296875
-205.078125
-208.740234375
-209.65576171875
-207.82470703125
-205.99365234375
-204.16259765625
-195.00732421875
-194.091796875
-211.48681640625
-210.5712890625
-197.75390625
-190.4296875
-183.10546875
-170.2880859375
-162.04833984375
-153.80859375
-141.90673828125
-143.73779296875
-146.484375
-151.06201171875
-151.06201171875
-148.3154296875
-151.9775390625
-141.90673828125
-126.3427734375
-107.11669921875
-102.5390625
-108.94775390625
-106.201171875
-92.46826171875
-90.63720703125
-114.44091796875
-107.11669921875
-98.876953125
-86.97509765625
-86.97509765625
-85.14404296875
-86.97509765625
-105.28564453125
-119.0185546875
-126.3427734375
-141.90673828125
-170.2880859375
-174.86572265625
-172.119140625
-170.2880859375
-181.2744140625
-195.9228515625
-210.5712890625
-209.65576171875
-213.31787109375
-219.7265625
-228.8818359375
-228.8818359375
-236.2060546875
-237.12158203125
-229.79736328125
-227.96630859375
-227.96630859375
-231.62841796875
-241.69921875
-249.0234375
-249.93896484375
-245.361328125
-247.1923828125
-242.61474609375
-241.69921875
-249.93896484375
-243.5302734375
-245.361328125
-246.27685546875
-241.69921875
-235.29052734375
-239.8681640625
-249.0234375
-260.009765625
-263.671875
-260.009765625
-257.26318359375
-256.34765625
-251.77001953125
-269.1650390625
-284.72900390625
-294.7998046875
-285.64453125
-260.009765625
-213.31787109375
-125.42724609375
-4.57763671875
131.8359375
285.64453125
444.9462890625
607.91015625
786.43798828125
921.93603515625
1018.06640625
1062.92724609375
997.9248046875
738.83056640625
466.9189453125
204.16259765625
31.1279296875
-53.1005859375
-109.86328125
-139.16015625
-167.54150390625
-190.4296875
-219.7265625
-235.29052734375
-217.8955078125
-184.9365234375
-184.9365234375
-189.51416015625
-199.5849609375
-213.31787109375
-219.7265625
-229.79736328125
-228.8818359375
-231.62841796875
-226.13525390625
-223.388671875
-235.29052734375
-244.44580078125
-238.95263671875
-232.5439453125
-216.97998046875
-222.47314453125
-234.375
-228.8818359375
-221.5576171875
-218.81103515625
-220.64208984375
-225.2197265625
-232.5439453125
-230.712890625
-221.5576171875
-224.30419921875
-228.8818359375
-227.05078125
-227.05078125
-216.97998046875
-216.064453125
-217.8955078125
-223.388671875
-213.31787109375
-198.66943359375
-204.16259765625
-217.8955078125
-210.5712890625
-202.33154296875
-200.50048828125
-196.83837890625
-194.091796875
-197.75390625
-195.00732421875
-181.2744140625
-188.5986328125
-187.68310546875
-180.35888671875
-172.119140625
-170.2880859375
-170.2880859375
-161.1328125
-151.06201171875
-145.56884765625
-156.55517578125
-151.9775390625
-151.9775390625
-142.822265625
-140.07568359375
-136.41357421875
-126.3427734375
-127.25830078125
-119.0185546875
-110.77880859375
-97.96142578125
-89.7216796875
-92.46826171875
-85.14404296875
-74.15771484375
-70.49560546875
-77.81982421875
-72.32666015625
-59.50927734375
-50.35400390625
-29.296875
-30.21240234375
-14.6484375
-16.4794921875
-17.39501953125
-10.07080078125
7.32421875
21.05712890625
23.8037109375
27.4658203125
24.71923828125
20.1416015625
29.296875
38.4521484375
50.35400390625
40.283203125
43.9453125
40.283203125
40.283203125
43.02978515625
47.607421875
41.19873046875
38.4521484375
55.84716796875
42.1142578125
30.21240234375
25.634765625
23.8037109375
16.4794921875
16.4794921875
17.39501953125
16.4794921875
9.1552734375
0
-9.1552734375
-30.21240234375
-46.69189453125
-51.26953125
-74.15771484375
-82.3974609375
-98.876953125
-112.60986328125
-126.3427734375
-128.173828125
-140.9912109375
-152.89306640625
-154.72412109375
-170.2880859375
-187.68310546875
-196.83837890625
-184.02099609375
-204.16259765625
-202.33154296875
-204.16259765625
-206.9091796875
-209.65576171875
-211.48681640625
-227.96630859375
-213.31787109375
-221.5576171875
-227.05078125
-227.96630859375
-233.45947265625
-234.375
-236.2060546875
-232.5439453125
-233.45947265625
-225.2197265625
-228.8818359375
-228.8818359375
-223.388671875
-227.96630859375
-228.8818359375
-229.79736328125
-229.79736328125
-232.5439453125
-224.30419921875
-227.05078125
-237.12158203125
-228.8818359375
-224.30419921875
-219.7265625
-208.740234375
-211.48681640625
-233.45947265625
-251.77001953125
-231.62841796875
-217.8955078125
-215.14892578125
-219.7265625
-216.97998046875
-215.14892578125
-215.14892578125
-220.64208984375
-225.2197265625
-228.8818359375
-225.2197265625
-223.388671875
-226.13525390625
-227.96630859375
-234.375
-229.79736328125
-225.2197265625
-220.64208984375
-227.05078125
-227.05078125
-240.78369140625
-230.712890625
-225.2197265625
-233.45947265625
-238.95263671875
-237.12158203125
-246.27685546875
-238.95263671875
-241.69921875
-246.27685546875
-238.037109375
-231.62841796875
-227.96630859375
-219.7265625
-229.79736328125
-233.45947265625
-241.69921875
-234.375
-252.685546875
-262.75634765625
-248.10791015625
-253.60107421875
-239.8681640625
-242.61474609375
-240.78369140625
-224.30419921875
-234.375
-232.5439453125
-237.12158203125
-225.2197265625
-218.81103515625
-215.14892578125
-224.30419921875
-218.81103515625
-215.14892578125
-210.5712890625
-209.65576171875
-201.416015625
-201.416015625
-192.2607421875
-196.83837890625
-215.14892578125
-208.740234375
-190.4296875
-174.86572265625
-160.21728515625
-151.06201171875
-148.3154296875
-145.56884765625
-133.6669921875
-135.498046875
-140.9912109375
-140.07568359375
-133.6669921875
-128.173828125
-127.25830078125
-130.92041015625
-130.92041015625
-153.80859375
-169.37255859375
-181.2744140625
-210.5712890625
-216.97998046875
-220.64208984375
-226.13525390625
-228.8818359375
-229.79736328125
-236.2060546875
-256.34765625
-258.1787109375
-264.58740234375
-270.99609375
-267.333984375
-263.671875
-263.671875
-251.77001953125
-247.1923828125
-263.671875
-267.333984375
-260.92529296875
-270.99609375
-269.1650390625
-293.88427734375
-291.1376953125
-289.306640625
-289.306640625
-292.05322265625
-282.89794921875
-266.41845703125
-267.333984375
-275.57373046875
-274.658203125
-268.24951171875
-268.24951171875
-261.8408203125
-260.009765625
-270.08056640625
-281.982421875
-291.1376953125
-307.6171875
-306.70166015625
-303.955078125
-321.35009765625
-323.18115234375
-291.1376953125
-240.78369140625
-175.78125
-71.4111328125
63.17138671875
206.9091796875
347.900390625
531.005859375
694.88525390625
839.53857421875
973.20556640625
1054.6875
1028.13720703125
850.52490234375
585.02197265625
335.0830078125
111.6943359375
-0.91552734375
-65.91796875
-88.80615234375
-108.0322265625
-139.16015625
-185.85205078125
-241.69921875
-283.8134765625
-278.3203125
-251.77001953125
-227.96630859375
-225.2197265625
-235.29052734375
-233.45947265625
-224.30419921875
-226.13525390625
-232.5439453125
-229.79736328125
-238.95263671875
-239.8681640625
-246.27685546875
-252.685546875
-255.43212890625
-250.8544921875
-252.685546875
-275.57373046875
-256.34765625
-263.671875
-260.92529296875
-261.8408203125
-260.009765625
-262.75634765625
-255.43212890625
-249.0234375
-240.78369140625
-240.78369140625
-227.96630859375
-240.78369140625
-244.44580078125
-249.0234375
-256.34765625
-250.8544921875
-238.037109375
-228.8818359375
-223.388671875
-226.13525390625
-229.79736328125
-230.712890625
-221.5576171875
-227.05078125
-231.62841796875
-210.5712890625
-201.416015625
-211.48681640625
-205.99365234375
-202.33154296875
-193.17626953125
-184.9365234375
-191.34521484375
-190.4296875
-183.10546875
-186.767578125
-191.34521484375
-187.68310546875
-179.443359375
-151.9775390625
-153.80859375
-168.45703125
-165.71044921875
-160.21728515625
-158.38623046875
-155.6396484375
-144.6533203125
-140.07568359375
-124.51171875
-108.0322265625
-108.94775390625
-128.173828125
-119.93408203125
-101.62353515625
-82.3974609375
-86.97509765625
-79.65087890625
-59.50927734375
-61.34033203125
-65.91796875
-61.34033203125
-58.59375
-39.36767578125
-38.4521484375
-35.70556640625
-29.296875
-25.634765625
-24.71923828125
-4.57763671875
-20.1416015625
-13.73291015625
-21.05712890625
-16.4794921875
-6.40869140625
-10.07080078125
-7.32421875
11.90185546875
3.662109375
-2.74658203125
0
-3.662109375
0
5.4931640625
-9.1552734375
-7.32421875
-4.57763671875
-19.22607421875
-21.97265625
-33.87451171875
-41.19873046875
-53.1005859375
-61.34033203125
-86.97509765625
-94.29931640625
-97.96142578125
-119.0185546875
-115.3564453125
-113.525390625
-127.25830078125
-139.16015625
-151.06201171875
-151.9775390625
-155.6396484375
-156.55517578125
-172.119140625
-192.2607421875
-186.767578125
-186.767578125
-200.50048828125
-213.31787109375
-202.33154296875
-207.82470703125
-210.5712890625
-216.97998046875
-224.30419921875
-222.47314453125
-229.79736328125
-233.45947265625
-224.30419921875
-210.5712890625
-219.7265625
-220.64208984375
-214.2333984375
-220.64208984375
-216.97998046875
-216.97998046875
-230.712890625
-237.12158203125
-226.13525390625
-228.8818359375
-231.62841796875
-218.81103515625
-227.96630859375
-236.2060546875
-227.96630859375
-227.05078125
-205.078125
-203.2470703125
-214.2333984375
-212.40234375
-198.66943359375
-205.078125
-205.99365234375
-205.99365234375
-215.14892578125
-207.82470703125
-219.7265625
-220.64208984375
-216.064453125
-215.14892578125
-222.47314453125
-224.30419921875
-221.5576171875
-207.82470703125
-204.16259765625
-203.2470703125
-202.33154296875
-198.66943359375
-201.416015625
-209.65576171875
-207.82470703125
-207.82470703125
-209.65576171875
-209.65576171875
-205.99365234375
-200.50048828125
-202.33154296875
-203.2470703125
-211.48681640625
-220.64208984375
-217.8955078125
-225.2197265625
-226.13525390625
-222.47314453125
-218.81103515625
-212.40234375
-208.740234375
-211.48681640625
-205.078125
-217.8955078125
-220.64208984375
-213.31787109375
-222.47314453125
-230.712890625
-227.05078125
-227.05078125
-225.2197265625
-219.7265625
-222.47314453125
-210.5712890625
-203.2470703125
-196.83837890625
-195.9228515625
-196.83837890625
-200.50048828125
-205.99365234375
-204.16259765625
-204.16259765625
-202.33154296875
-193.17626953125
-180.35888671875
-173.03466796875
-179.443359375
-179.443359375
-151.06201171875
-140.9912109375
-140.07568359375
-145.56884765625
-130.0048828125
-115.3564453125
-105.28564453125
-103.45458984375
-111.6943359375
-104.3701171875
-99.79248046875
-107.11669921875
-101.62353515625
-107.11669921875
-128.173828125
-130.0048828125
-133.6669921875
-146.484375
-157.470703125
-164.794921875
-187.68310546875
-196.83837890625
-198.66943359375
-197.75390625
-205.99365234375
-227.05078125
-243.5302734375
-251.77001953125
-238.037109375
-238.037109375
-245.361328125
-236.2060546875
-228.8818359375
-241.69921875
-243.5302734375
-240.78369140625
-239.8681640625
-248.10791015625
-259.09423828125
-261.8408203125
-249.93896484375
-249.93896484375
-241.69921875
-251.77001953125
-242.61474609375
-233.45947265625
-227.96630859375
-234.375
-239.8681640625
-243.5302734375
-249.93896484375
-251.77001953125
-258.1787109375
-252.685546875
-245.361328125
-250.8544921875
-250.8544921875
-252.685546875
-275.57373046875
-293.88427734375
-282.89794921875
-251.77001953125
-210.5712890625
-153.80859375
-50.35400390625
78.7353515625
214.2333984375
383.60595703125
564.88037109375
708.6181640625
834.04541015625
959.47265625
1044.61669921875
1023.5595703125
841.36962890625
587.7685546875
338.7451171875
119.93408203125
10.07080078125
-48.52294921875
-97.0458984375
-116.27197265625
-140.9912109375
-181.2744140625
-229.79736328125
-243.5302734375
-221.5576171875
-178.52783203125
-174.86572265625
-196.83837890625
-195.00732421875
-209.65576171875
-207.82470703125
-209.65576171875
-206.9091796875
-218.81103515625
-210.5712890625
-229.79736328125
-219.7265625
-220.64208984375
-218.81103515625
-214.2333984375
-216.97998046875
-223.388671875
-224.30419921875
-230.712890625
-219.7265625
-216.064453125
-214.2333984375
-207.82470703125
-213.31787109375
-221.5576171875
-213.31787109375
-210.5712890625
-203.2470703125
-210.5712890625
-213.31787109375
-204.16259765625
-197.75390625
-215.14892578125
-200.50048828125
-196.83837890625
-198.66943359375
-211.48681640625
-202.33154296875
-169.37255859375
-174.86572265625
-184.02099609375
-179.443359375
-166.6259765625
-158.38623046875
-174.86572265625
-173.9501953125
-181.2744140625
-164.794921875
-151.06201171875
-146.484375
-144.6533203125
-144.6533203125
-147.39990234375
-133.6669921875
-133.6669921875
-121.76513671875
-112.60986328125
-107.11669921875
-104.3701171875
-118.10302734375
-117.1875
-108.0322265625
-108.0322265625
-91.552734375
-90.63720703125
-78.7353515625
-73.2421875
-79.65087890625
-73.2421875
-65.91796875
-64.0869140625
-56.7626953125
-47.607421875
-41.19873046875
-24.71923828125
-11.90185546875
-21.97265625
-21.97265625
-20.1416015625
-16.4794921875
2.74658203125
12.8173828125
12.8173828125
15.56396484375
21.97265625
27.4658203125
27.4658203125
46.69189453125
43.9453125
45.7763671875
42.1142578125
49.4384765625
54.931640625
53.1005859375
56.7626953125
70.49560546875
58.59375
46.69189453125
54.931640625
52.18505859375
45.7763671875
41.19873046875
43.9453125
35.70556640625
23.8037109375
13.73291015625
-0.91552734375
3.662109375
2.74658203125
-7.32421875
-36.62109375
-55.84716796875
-65.00244140625
-69.580078125
-86.97509765625
-100.7080078125
-99.79248046875
-120.849609375
-136.41357421875
-131.8359375
-141.90673828125
-152.89306640625
-165.71044921875
-163.87939453125
-164.794921875
-166.6259765625
-178.52783203125
-182.18994140625
-184.02099609375
-180.35888671875
-195.00732421875
-198.66943359375
-196.83837890625
-197.75390625
-193.17626953125
-201.416015625
-197.75390625
-202.33154296875
-200.50048828125
-191.34521484375
-182.18994140625
-185.85205078125
-189.51416015625
-189.51416015625
-196.83837890625
-193.17626953125
-191.34521484375
-196.83837890625
-202.33154296875
-196.83837890625
-176.69677734375
-184.02099609375
-195.9228515625
-196.83837890625
-195.00732421875
-189.51416015625
-193.17626953125
-198.66943359375
-186.767578125
-183.10546875
-184.02099609375
-180.35888671875
-190.4296875
-198.66943359375
-195.9228515625
-189.51416015625
-192.2607421875
-184.9365234375
-174.86572265625
-178.52783203125
-173.9501953125
-173.03466796875
-180.35888671875
-183.10546875
-196.83837890625
-187.68310546875
-184.9365234375
-180.35888671875
-174.86572265625
-176.69677734375
-184.02099609375
-184.02099609375
-184.9365234375
-183.10546875
-192.2607421875
-199.5849609375
-195.00732421875
-198.66943359375
-192.2607421875
-191.34521484375
-183.10546875
-188.5986328125
-194.091796875
-183.10546875
-193.17626953125
-191.34521484375
-182.18994140625
-204.16259765625
-205.99365234375
-203.2470703125
-188.5986328125
-186.767578125
-196.83837890625
-204.16259765625
-195.9228515625
-193.17626953125
-192.2607421875
-193.17626953125
-205.078125
-211.48681640625
-205.078125
-207.82470703125
-206.9091796875
-213.31787109375
-200.50048828125
-192.2607421875
-197.75390625
-194.091796875
-192.2607421875
-193.17626953125
-176.69677734375
-172.119140625
-153.80859375
-141.90673828125
-151.06201171875
-151.9775390625
-138.24462890625
-147.39990234375
-151.9775390625
-146.484375
-154.72412109375
-148.3154296875
-136.41357421875
-121.76513671875
-107.11669921875
-89.7216796875
-74.15771484375
-77.81982421875
-69.580078125
-81.48193359375
-87.890625
-87.890625
-82.3974609375
-76.904296875
-78.7353515625
-85.14404296875
-98.876953125
-100.7080078125
-105.28564453125
-121.76513671875
-130.92041015625
-133.6669921875
-159.3017578125
-178.52783203125
-173.03466796875
-179.443359375
-193.17626953125
-201.416015625
-199.5849609375
-206.9091796875
-210.5712890625
-213.31787109375
-219.7265625
-216.064453125
-222.47314453125
-226.13525390625
-237.12158203125
-214.2333984375
-222.47314453125
-224.30419921875
-224.30419921875
-221.5576171875
-219.7265625
-230.712890625
-224.30419921875
-236.2060546875
-230.712890625
-233.45947265625
-234.375
-234.375
-225.2197265625
-227.05078125
-213.31787109375
-208.740234375
-217.8955078125
-226.13525390625
-228.8818359375
-223.388671875
-230.712890625
-252.685546875
-263.671875
-276.4892578125
-260.009765625
-239.8681640625
-200.50048828125
-155.6396484375
-75.98876953125
55.84716796875
178.52783203125
336.9140625
523.681640625
686.6455078125
834.04541015625
948.486328125
1052.8564453125
1088.56201171875
961.3037109375
689.39208984375
432.12890625
187.68310546875
18.310546875
-54.931640625
-97.96142578125
-117.1875
-150.146484375
-179.443359375
-190.4296875
-199.5849609375
-195.00732421875
-173.9501953125
-161.1328125
-155.6396484375
-163.87939453125
-169.37255859375
-174.86572265625
-178.52783203125
-172.119140625
-176.69677734375
-181.2744140625
-195.9228515625
-200.50048828125
-205.99365234375
-202.33154296875
-202.33154296875
-191.34521484375
-198.66943359375
-196.83837890625
-184.02099609375
-172.119140625
-170.2880859375
-181.2744140625
-187.68310546875
-194.091796875
-176.69677734375
-173.03466796875
-173.9501953125
-175.78125
-173.03466796875
-172.119140625
-171.20361328125
-176.69677734375
-173.03466796875
-163.87939453125
-161.1328125
-159.3017578125
-164.794921875
-160.21728515625
-160.21728515625
-162.04833984375
-152.89306640625
-159.3017578125
-147.39990234375
-134.58251953125
-140.07568359375
-142.822265625
-130.0048828125
-124.51171875
-120.849609375
-120.849609375
-119.0185546875
-119.0185546875
-115.3564453125
-111.6943359375
-108.0322265625
-111.6943359375
-115.3564453125
-121.76513671875
-108.0322265625
-75.98876953125
-65.00244140625
-64.0869140625
-63.17138671875
-54.01611328125
-55.84716796875
-41.19873046875
-30.21240234375
-13.73291015625
-14.6484375
-23.8037109375
-14.6484375
-6.40869140625
0.91552734375
-2.74658203125
15.56396484375
29.296875
35.70556640625
32.958984375
33.87451171875
45.7763671875
60.4248046875
68.66455078125
60.4248046875
73.2421875
80.56640625
65.00244140625
65.00244140625
71.4111328125
69.580078125
87.890625
112.60986328125
107.11669921875
86.97509765625
99.79248046875
110.77880859375
109.86328125
124.51171875
117.1875
96.13037109375
93.3837890625
87.890625
95.21484375
86.0595703125
74.15771484375
73.2421875
68.66455078125
58.59375
50.35400390625
47.607421875
29.296875
13.73291015625
-4.57763671875
-34.7900390625
-52.18505859375
-53.1005859375
-50.35400390625
-55.84716796875
-75.98876953125
-82.3974609375
-85.14404296875
-99.79248046875
-108.0322265625
-119.0185546875
-128.173828125
-140.07568359375
-143.73779296875
-157.470703125
-162.04833984375
-167.54150390625
-160.21728515625
-162.04833984375
-167.54150390625
-166.6259765625
-166.6259765625
-171.20361328125
-180.35888671875
-182.18994140625
-178.52783203125
-182.18994140625
-184.9365234375
-191.34521484375
-183.10546875
-192.2607421875
-193.17626953125
-189.51416015625
-185.85205078125
-180.35888671875
-173.03466796875
-188.5986328125
-175.78125
-165.71044921875
-173.03466796875
-184.02099609375
-173.03466796875
-162.9638671875
-169.37255859375
-170.2880859375
-166.6259765625
-184.9365234375
-177.6123046875
-193.17626953125
-182.18994140625
-168.45703125
-176.69677734375
-169.37255859375
-165.71044921875
-170.2880859375
-168.45703125
-163.87939453125
-173.03466796875
-176.69677734375
-180.35888671875
-175.78125
-182.18994140625
-188.5986328125
-186.767578125
-179.443359375
-177.6123046875
-172.119140625
-177.6123046875
-184.02099609375
-182.18994140625
-188.5986328125
-178.52783203125
-182.18994140625
-186.767578125
-186.767578125
-173.03466796875
-184.02099609375
-184.9365234375
-171.20361328125
-178.52783203125
-182.18994140625
-191.34521484375
-210.5712890625
-195.9228515625
-194.091796875
-189.51416015625
-198.66943359375
-193.17626953125
-189.51416015625
-194.091796875
-192.2607421875
-191.34521484375
-188.5986328125
-195.00732421875
-205.99365234375
-192.2607421875
-198.66943359375
-201.416015625
-202.33154296875
-184.9365234375
-192.2607421875
-193.17626953125
-203.2470703125
-211.48681640625
-211.48681640625
-205.99365234375
-203.2470703125
-202.33154296875
-216.97998046875
-224.30419921875
-221.5576171875
-226.13525390625
-215.14892578125
-213.31787109375
-207.82470703125
-205.99365234375
-218.81103515625
-217.8955078125
-213.31787109375
-202.33154296875
-218.81103515625
-226.13525390625
-215.14892578125
-209.65576171875
-214.2333984375
-219.7265625
-195.9228515625
-176.69677734375
-174.86572265625
-151.9775390625
-162.04833984375
-159.3017578125
-153.80859375
-148.3154296875
-151.9775390625
-161.1328125
-166.6259765625
-168.45703125
-165.71044921875
-131.8359375
-112.60986328125
-107.11669921875
-104.3701171875
-103.45458984375
-97.0458984375
-102.5390625
-113.525390625
-104.3701171875
-98.876953125
-101.62353515625
-97.96142578125
-122.6806640625
-129.08935546875
-124.51171875
-126.3427734375
-158.38623046875
-151.06201171875
-159.3017578125
-160.21728515625
-168.45703125
-211.48681640625
-207.82470703125
-197.75390625
-218.81103515625
-216.97998046875
-230.712890625
-232.5439453125
-218.81103515625
-228.8818359375
-245.361328125
-233.45947265625
-212.40234375
-227.05078125
-236.2060546875
-236.2060546875
-238.95263671875
-243.5302734375
-243.5302734375
-231.62841796875
-224.30419921875
-221.5576171875
-237.12158203125
-240.78369140625
-242.61474609375
-230.712890625
-234.375
-233.45947265625
-240.78369140625
-228.8818359375
-234.375
-233.45947265625
-240.78369140625
-244.44580078125
-247.1923828125
-244.44580078125
-252.685546875
-262.75634765625
-281.982421875
-295.71533203125
-281.982421875
-248.10791015625
-201.416015625
-136.41357421875
-26.55029296875
116.27197265625
260.009765625
428.466796875
598.7548828125
763.5498046875
911.865234375
1030.8837890625
1087.646484375
1030.8837890625
807.4951171875
545.654296875
286.56005859375
86.97509765625
-3.662109375
-71.4111328125
-106.201171875
-134.58251953125
-167.54150390625
-206.9091796875
-238.95263671875
-238.95263671875
-203.2470703125
-192.2607421875
-189.51416015625
-187.68310546875
-194.091796875
-205.99365234375
-212.40234375
-211.48681640625
-207.82470703125
-211.48681640625
-210.5712890625
-208.740234375
-223.388671875
-227.96630859375
-213.31787109375
-210.5712890625
-230.712890625
-220.64208984375
-215.14892578125
-218.81103515625
-230.712890625
-246.27685546875
-238.95263671875
-219.7265625
-210.5712890625
-216.97998046875
-227.96630859375
-217.8955078125
-222.47314453125
-234.375
-218.81103515625
-196.83837890625
-202.33154296875
-213.31787109375
-200.50048828125
-197.75390625
-193.17626953125
-191.34521484375
-185.85205078125
-197.75390625
-203.2470703125
-192.2607421875
-195.9228515625
-185.85205078125
-179.443359375
-178.52783203125
-170.2880859375
-173.9501953125
-163.87939453125
-161.1328125
-169.37255859375
-165.71044921875
-149.23095703125
-153.80859375
-143.73779296875
-132.75146484375
-137.3291015625
-140.9912109375
-135.498046875
-138.24462890625
-131.8359375
-125.42724609375
-130.92041015625
-114.44091796875
-113.525390625
-111.6943359375
-108.94775390625
-110.77880859375
-96.13037109375
-79.65087890625
-72.32666015625
-56.7626953125
-60.4248046875
-55.84716796875
-51.26953125
-40.283203125
-17.39501953125
-6.40869140625
-13.73291015625
-17.39501953125
-6.40869140625
7.32421875
8.23974609375
5.4931640625
13.73291015625
22.88818359375
32.04345703125
33.87451171875
36.62109375
26.55029296875
29.296875
32.958984375
40.283203125
41.19873046875
33.87451171875
28.38134765625
30.21240234375
31.1279296875
35.70556640625
43.02978515625
43.9453125
36.62109375
35.70556640625
35.70556640625
23.8037109375
14.6484375
3.662109375
-5.4931640625
-32.958984375
-32.958984375
-39.36767578125
-53.1005859375
-53.1005859375
-65.91796875
-86.97509765625
-97.96142578125
-97.96142578125
-103.45458984375
-114.44091796875
-130.92041015625
-142.822265625
-154.72412109375
-172.119140625
-171.20361328125
-178.52783203125
-195.00732421875
-215.14892578125
-204.16259765625
-203.2470703125
-206.9091796875
-206.9091796875
-216.97998046875
-209.65576171875
-225.2197265625
-227.96630859375
-216.97998046875
-201.416015625
-227.05078125
-233.45947265625
-218.81103515625
-222.47314453125
-231.62841796875
-240.78369140625
-239.8681640625
-217.8955078125
-220.64208984375
-232.5439453125
-236.2060546875
-233.45947265625
-230.712890625
-229.79736328125
-227.05078125
-221.5576171875
-213.31787109375
-207.82470703125
-207.82470703125
-219.7265625
-227.96630859375
-239.8681640625
-244.44580078125
-234.375
-230.712890625
-241.69921875
-236.2060546875
-229.79736328125
-229.79736328125
-215.14892578125
-223.388671875
-235.29052734375
-227.96630859375
-216.97998046875
-210.5712890625
-209.65576171875
-204.16259765625
-214.2333984375
-216.97998046875
-219.7265625
-230.712890625
-226.13525390625
-216.064453125
-213.31787109375
-226.13525390625
-230.712890625
-218.81103515625
-228.8818359375
-233.45947265625
-221.5576171875
-225.2197265625
-226.13525390625
-225.2197265625
-229.79736328125
-218.81103515625
-227.96630859375
-233.45947265625
-234.375
-238.95263671875
-231.62841796875
-230.712890625
-220.64208984375
-216.97998046875
-227.05078125
-240.78369140625
-246.27685546875
-237.12158203125
-232.5439453125
-250.8544921875
-240.78369140625
-233.45947265625
-242.61474609375
-238.95263671875
-236.2060546875
-249.93896484375
-253.60107421875
-244.44580078125
-235.29052734375
-242.61474609375
-239.8681640625
-245.361328125
-224.30419921875
-232.5439453125
-245.361328125
-222.47314453125
-232.5439453125
-227.96630859375
-217.8955078125
-222.47314453125
-218.81103515625
-199.5849609375
-201.416015625
-200.50048828125
-202.33154296875
-193.17626953125
-198.66943359375
-208.740234375
-175.78125
-161.1328125
-154.72412109375
-155.6396484375
-151.06201171875
-129.08935546875
-126.3427734375
-123.59619140625
-140.9912109375
-147.39990234375
-139.16015625
-135.498046875
-140.9912109375
-143.73779296875
-144.6533203125
-157.470703125
-172.119140625
-180.35888671875
-194.091796875
-204.16259765625
-195.9228515625
-206.9091796875
-219.7265625
-226.13525390625
-219.7265625
-229.79736328125
-244.44580078125
-249.0234375
-255.43212890625
-257.26318359375
-252.685546875
-257.26318359375
-258.1787109375
-252.685546875
-250.8544921875
-254.5166015625
-250.8544921875
-270.99609375
-266.41845703125
-269.1650390625
-278.3203125
-274.658203125
-286.56005859375
-285.64453125
-273.74267578125
-276.4892578125
-266.41845703125
-263.671875
-263.671875
-270.99609375
-270.08056640625
-272.8271484375
-267.333984375
-280.1513671875
-280.1513671875
-283.8134765625
-290.22216796875
-292.96875
-296.630859375
-307.6171875
-325.927734375
-322.265625
-281.982421875
-224.30419921875
-153.80859375
-45.7763671875
76.904296875
208.740234375
379.0283203125
542.90771484375
702.20947265625
832.21435546875
968.6279296875
1031.79931640625
993.34716796875
806.57958984375
549.31640625
296.630859375
90.63720703125
-2.74658203125
-59.50927734375
-100.7080078125
-123.59619140625
-153.80859375
-189.51416015625
-241.69921875
-267.333984375
-252.685546875
-227.96630859375
-217.8955078125
-219.7265625
-221.5576171875
-227.96630859375
-240.78369140625
-242.61474609375
-234.375
-241.69921875
-245.361328125
-245.361328125
-261.8408203125
-256.34765625
-259.09423828125
-250.8544921875
-247.1923828125
-251.77001953125
-266.41845703125
-260.009765625
-252.685546875
-255.43212890625
-238.95263671875
-236.2060546875
-227.96630859375
-230.712890625
-239.8681640625
-237.12158203125
-241.69921875
-238.95263671875
-233.45947265625
-228.8818359375
-230.712890625
-239.8681640625
-227.05078125
-224.30419921875
-212.40234375
-212.40234375
-199.5849609375
-193.17626953125
-197.75390625
-204.16259765625
-212.40234375
-198.66943359375
-194.091796875
-196.83837890625
-199.5849609375
-210.5712890625
-197.75390625
-184.9365234375
-183.10546875
-183.10546875
-173.9501953125
-163.87939453125
-154.72412109375
-153.80859375
-163.87939453125
-157.470703125
-155.6396484375
-151.06201171875
-148.3154296875
-147.39990234375
-140.9912109375
-125.42724609375
-125.42724609375
-124.51171875
-121.76513671875
-107.11669921875
-105.28564453125
-103.45458984375
-95.21484375
-86.0595703125
-80.56640625
-73.2421875
-72.32666015625
-65.00244140625
-53.1005859375
-43.02978515625
-43.9453125
-39.36767578125
-24.71923828125
-13.73291015625
-1.8310546875
8.23974609375
9.1552734375
2.74658203125
9.1552734375
8.23974609375
13.73291015625
14.6484375
16.4794921875
29.296875
26.55029296875
30.21240234375
21.05712890625
20.1416015625
22.88818359375
27.4658203125
17.39501953125
21.97265625
22.88818359375
23.8037109375
19.22607421875
14.6484375
-5.4931640625
-19.22607421875
-30.21240234375
-39.36767578125
-44.86083984375
-54.931640625
-55.84716796875
-65.91796875
-74.15771484375
-86.0595703125
-92.46826171875
-114.44091796875
-128.173828125
-140.9912109375
-151.06201171875
-147.39990234375
-162.9638671875
-160.21728515625
-177.6123046875
-178.52783203125
-193.17626953125
-191.34521484375
-190.4296875
-197.75390625
-203.2470703125
-205.99365234375
-212.40234375
-216.97998046875
-221.5576171875
-221.5576171875
-240.78369140625
-242.61474609375
-232.5439453125
-238.037109375
-228.8818359375
-227.05078125
-224.30419921875
-211.48681640625
-210.5712890625
-213.31787109375
-216.97998046875
-219.7265625
-223.388671875
-230.712890625
-238.037109375
-234.375
-227.96630859375
-215.14892578125
-215.14892578125
-215.14892578125
-220.64208984375
-224.30419921875
-223.388671875
-227.96630859375
-226.13525390625
-224.30419921875
-220.64208984375
-201.416015625
-217.8955078125
-220.64208984375
-221.5576171875
-216.97998046875
-228.8818359375
-223.388671875
-230.712890625
-226.13525390625
-220.64208984375
-214.2333984375
-204.16259765625
-207.82470703125
-205.078125
-204.16259765625
-209.65576171875
-211.48681640625
-213.31787109375
-205.99365234375
-215.14892578125
-228.8818359375
-222.47314453125
-210.5712890625
-217.8955078125
-209.65576171875
-198.66943359375
-202.33154296875
-216.064453125
-208.740234375
-198.66943359375
-217.8955078125
-214.2333984375
-215.14892578125
-208.740234375
-212.40234375
-226.13525390625
-242.61474609375
-236.2060546875
-221.5576171875
-224.30419921875
-225.2197265625
-228.8818359375
-218.81103515625
-216.97998046875
-221.5576171875
-228.8818359375
-220.64208984375
-216.97998046875
-223.388671875
-224.30419921875
-216.97998046875
-217.8955078125
-228.8818359375
-232.5439453125
-234.375
-229.79736328125
-229.79736328125
-234.375
-237.12158203125
-247.1923828125
-240.78369140625
-236.2060546875
-234.375
-238.037109375
-235.29052734375
-244.44580078125
-225.2197265625
-232.5439453125
-225.2197265625
-221.5576171875
-235.29052734375
-218.81103515625
-238.95263671875
-239.8681640625
-233.45947265625
-245.361328125
-237.12158203125
-205.99365234375
-191.34521484375
-189.51416015625
-176.69677734375
-178.52783203125
-181.2744140625
-173.03466796875
-161.1328125
-175.78125
-171.20361328125
-176.69677734375
-184.9365234375
-152.89306640625
-151.06201171875
-131.8359375
-111.6943359375
-109.86328125
-89.7216796875
-96.13037109375
-110.77880859375
-103.45458984375
-97.0458984375
-101.62353515625
-114.44091796875
-115.3564453125
-116.27197265625
-122.6806640625
-125.42724609375
-139.16015625
-142.822265625
-149.23095703125
-155.6396484375
-192.2607421875
-202.33154296875
-203.2470703125
-195.9228515625
-201.416015625
-212.40234375
-227.05078125
-231.62841796875
-238.95263671875
-239.8681640625
-221.5576171875
-236.2060546875
-232.5439453125
-237.12158203125
-240.78369140625
-244.44580078125
-247.1923828125
-239.8681640625
-244.44580078125
-250.8544921875
-243.5302734375
-236.2060546875
-227.96630859375
-226.13525390625
-229.79736328125
-228.8818359375
-241.69921875
-234.375
-235.29052734375
-242.61474609375
-253.60107421875
-250.8544921875
-260.92529296875
-260.009765625
-247.1923828125
-242.61474609375
-242.61474609375
-256.34765625
-287.4755859375
-290.22216796875
-283.8134765625
-249.93896484375
-202.33154296875
-137.3291015625
-35.70556640625
93.3837890625
223.388671875
404.6630859375
573.1201171875
731.50634765625
874.32861328125
1003.41796875
1071.1669921875
1053.77197265625
843.20068359375
565.7958984375
314.94140625
98.876953125
-10.986328125
-91.552734375
-120.849609375
-140.9912109375
-172.119140625
-196.83837890625
-217.8955078125
-211.48681640625
-190.4296875
-184.9365234375
-176.69677734375
-170.2880859375
-182.18994140625
-194.091796875
-200.50048828125
-198.66943359375
-198.66943359375
-205.078125
-215.14892578125
-215.14892578125
-222.47314453125
-219.7265625
-217.8955078125
-214.2333984375
-206.9091796875
-200.50048828125
-205.078125
-224.30419921875
-218.81103515625
-215.14892578125
-209.65576171875
-205.078125
-207.82470703125
-207.82470703125
-215.14892578125
-213.31787109375
-208.740234375
-204.16259765625
-196.83837890625
-207.82470703125
-203.2470703125
-193.17626953125
-201.416015625
-210.5712890625
-201.416015625
-181.2744140625
-182.18994140625
-187.68310546875
-182.18994140625
-165.71044921875
-151.9775390625
-162.04833984375
-173.03466796875
-162.9638671875
-160.21728515625
-146.484375
-139.16015625
-133.6669921875
-135.498046875
-133.6669921875
-121.76513671875
-128.173828125
-125.42724609375
-131.8359375
-127.25830078125
-111.6943359375
-108.94775390625
-107.11669921875
-102.5390625
-105.28564453125
-99.79248046875
-74.15771484375
-95.21484375
-87.890625
-67.7490234375
-52.18505859375
-56.7626953125
-65.91796875
-54.931640625
-42.1142578125
-46.69189453125
-37.53662109375
-15.56396484375
-1.8310546875
-3.662109375
2.74658203125
9.1552734375
28.38134765625
37.53662109375
35.70556640625
33.87451171875
43.02978515625
39.36767578125
58.59375
72.32666015625
73.2421875
69.580078125
70.49560546875
81.48193359375
86.97509765625
87.890625
96.13037109375
100.7080078125
88.80615234375
93.3837890625
91.552734375
90.63720703125
94.29931640625
83.31298828125
60.4248046875
69.580078125
65.00244140625
54.01611328125
59.50927734375
56.7626953125
47.607421875
41.19873046875
13.73291015625
5.4931640625
4.57763671875
-11.90185546875
-24.71923828125
-30.21240234375
-40.283203125
-57.67822265625
-83.31298828125
-99.79248046875
-110.77880859375
-122.6806640625
-128.173828125
-127.25830078125
-140.07568359375
-158.38623046875
-181.2744140625
-171.20361328125
-175.78125
-182.18994140625
-184.02099609375
-186.767578125
-177.6123046875
-179.443359375
-186.767578125
-191.34521484375
-196.83837890625
-209.65576171875
-197.75390625
-195.9228515625
-202.33154296875
-205.99365234375
-208.740234375
-205.99365234375
-207.82470703125
-198.66943359375
-202.33154296875
-202.33154296875
-204.16259765625
-199.5849609375
-198.66943359375
-214.2333984375
-217.8955078125
-220.64208984375
-191.34521484375
-196.83837890625
-205.99365234375
-200.50048828125
-205.99365234375
-205.078125
-184.9365234375
-195.00732421875
-195.9228515625
-190.4296875
-193.17626953125
-189.51416015625
-186.767578125
-180.35888671875
-190.4296875
-184.9365234375
-186.767578125
-191.34521484375
-195.9228515625
-187.68310546875
-176.69677734375
-183.10546875
-187.68310546875
-193.17626953125
-194.091796875
-189.51416015625
-183.10546875
-195.9228515625
-186.767578125
-184.02099609375
-184.9365234375
-197.75390625
-190.4296875
-197.75390625
-199.5849609375
-191.34521484375
-193.17626953125
-206.9091796875
-205.99365234375
-201.416015625
-197.75390625
-190.4296875
-206.9091796875
-195.9228515625
-189.51416015625
-193.17626953125
-214.2333984375
-210.5712890625
-208.740234375
-207.82470703125
-204.16259765625
-200.50048828125
-208.740234375
-210.5712890625
-210.5712890625
-203.2470703125
-206.9091796875
-209.65576171875
-207.82470703125
-200.50048828125
-211.48681640625
-212.40234375
-211.48681640625
-216.97998046875
-221.5576171875
-225.2197265625
-208.740234375
-208.740234375
-212.40234375
-220.64208984375
-215.14892578125
-218.81103515625
-218.81103515625
-205.078125
-217.8955078125
-225.2197265625
-222.47314453125
-221.5576171875
-219.7265625
-222.47314453125
-229.79736328125
-231.62841796875
-221.5576171875
-219.7265625
-236.2060546875
-229.79736328125
-231.62841796875
-225.2197265625
-224.30419921875
-238.037109375
-240.78369140625
-244.44580078125
-245.361328125
-250.8544921875
-227.05078125
-210.5712890625
-199.5849609375
-191.34521484375
-187.68310546875
-175.78125
-167.54150390625
-167.54150390625
-169.37255859375
-171.20361328125
-169.37255859375
-169.37255859375
-163.87939453125
-168.45703125
-166.6259765625
-147.39990234375
-125.42724609375
-119.0185546875
-123.59619140625
-117.1875
-114.44091796875
-111.6943359375
-118.10302734375
-108.94775390625
-97.96142578125
-101.62353515625
-107.11669921875
-118.10302734375
-126.3427734375
-133.6669921875
-139.16015625
-143.73779296875
-163.87939453125
-191.34521484375
-208.740234375
-209.65576171875
-207.82470703125
-211.48681640625
-221.5576171875
-227.96630859375
-229.79736328125
-223.388671875
-222.47314453125
-229.79736328125
-227.05078125
-246.27685546875
-249.93896484375
-253.60107421875
-261.8408203125
-259.09423828125
-261.8408203125
-236.2060546875
-245.361328125
-246.27685546875
-272.8271484375
-258.1787109375
-263.671875
-263.671875
-261.8408203125
-256.34765625
-254.5166015625
-250.8544921875
-252.685546875
-270.08056640625
-262.75634765625
-265.5029296875
-251.77001953125
-250.8544921875
-257.26318359375
-259.09423828125
-258.1787109375
-267.333984375
-295.71533203125
-309.4482421875
-330.50537109375
-298.4619140625
-260.009765625
-207.82470703125
-130.92041015625
-16.4794921875
96.13037109375
231.62841796875
422.05810546875
596.923828125
758.056640625
901.79443359375
1022.64404296875
1082.1533203125
1029.052734375
819.39697265625
552.978515625
270.99609375
64.0869140625
-27.4658203125
-92.46826171875
-122.6806640625
-143.73779296875
-178.52783203125
-217.8955078125
-244.44580078125
-243.5302734375
-227.96630859375
-210.5712890625
-210.5712890625
-211.48681640625
-213.31787109375
-217.8955078125
-226.13525390625
-234.375
-239.8681640625
-254.5166015625
-244.44580078125
-246.27685546875
-245.361328125
-247.1923828125
-238.95263671875
-235.29052734375
-235.29052734375
-247.1923828125
-240.78369140625
-237.12158203125
-248.10791015625
-251.77001953125
-253.60107421875
-241.69921875
-229.79736328125
-225.2197265625
-233.45947265625
-210.5712890625
-205.99365234375
-217.8955078125
-223.388671875
-216.064453125
-217.8955078125
-216.064453125
-207.82470703125
-215.14892578125
-212.40234375
-215.14892578125
-212.40234375
-216.064453125
-197.75390625
-196.83837890625
-216.97998046875
-201.416015625
-194.091796875
-190.4296875
-190.4296875
-184.9365234375
-195.00732421875
-177.6123046875
-173.03466796875
-177.6123046875
-172.119140625
-173.9501953125
-155.6396484375
-150.146484375
-159.3017578125
-150.146484375
-156.55517578125
-162.9638671875
-150.146484375
-141.90673828125
-142.822265625
-127.25830078125
-118.10302734375
-108.0322265625
-108.0322265625
-112.60986328125
-108.94775390625
-115.3564453125
-105.28564453125
-88.80615234375
-78.7353515625
-64.0869140625
-60.4248046875
-63.17138671875
-54.931640625
-40.283203125
-33.87451171875
-21.97265625
-7.32421875
1.8310546875
13.73291015625
2.74658203125
16.4794921875
30.21240234375
28.38134765625
27.4658203125
32.04345703125
21.05712890625
25.634765625
21.97265625
28.38134765625
38.4521484375
43.9453125
43.02978515625
47.607421875
50.35400390625
45.7763671875
35.70556640625
29.296875
12.8173828125
8.23974609375
19.22607421875
15.56396484375
7.32421875
-2.74658203125
-5.4931640625
-21.97265625
-36.62109375
-32.04345703125
-54.931640625
-75.0732421875
-89.7216796875
-86.97509765625
-99.79248046875
-112.60986328125
-122.6806640625
-139.16015625
-157.470703125
-163.87939453125
-173.03466796875
-180.35888671875
-194.091796875
-184.9365234375
-212.40234375
-236.2060546875
-238.037109375
-229.79736328125
-229.79736328125
-218.81103515625
-224.30419921875
-227.96630859375
-236.2060546875
-248.10791015625
-243.5302734375
-246.27685546875
-253.60107421875
-248.10791015625
-262.75634765625
-250.8544921875
-241.69921875
-260.009765625
-258.1787109375
-249.0234375
-255.43212890625
-249.0234375
-247.1923828125
-249.93896484375
-243.5302734375
-238.95263671875
-254.5166015625
-261.8408203125
-261.8408203125
-269.1650390625
-257.26318359375
-249.0234375
-248.10791015625
-250.8544921875
-255.43212890625
-244.44580078125
-238.95263671875
-240.78369140625
-243.5302734375
-249.93896484375
-239.8681640625
-230.712890625
-238.95263671875
-245.361328125
-251.77001953125
-242.61474609375
-247.1923828125
-251.77001953125
-251.77001953125
-244.44580078125
-242.61474609375
-247.1923828125
-248.10791015625
-257.26318359375
-257.26318359375
-251.77001953125
-248.10791015625
-242.61474609375
-238.037109375
-239.8681640625
-248.10791015625
-238.95263671875
-258.1787109375
-264.58740234375
-262.75634765625
-246.27685546875
-238.037109375
-227.05078125
-234.375
-250.8544921875
-253.60107421875
-249.0234375
-255.43212890625
-256.34765625
-260.92529296875
-257.26318359375
-240.78369140625
-247.1923828125
-249.93896484375
-238.037109375
-242.61474609375
-250.8544921875
-250.8544921875
-260.92529296875
-265.5029296875
-262.75634765625
-256.34765625
-249.0234375
-263.671875
-260.92529296875
-249.0234375
-257.26318359375
-260.009765625
-267.333984375
-264.58740234375
-268.24951171875
-275.57373046875
-273.74267578125
-263.671875
-259.09423828125
-261.8408203125
-272.8271484375
-273.74267578125
-265.5029296875
-264.58740234375
-268.24951171875
-264.58740234375
-255.43212890625
-264.58740234375
-266.41845703125
-255.43212890625
-249.0234375
-245.361328125
-224.30419921875
-224.30419921875
-235.29052734375
-230.712890625
-219.7265625
-213.31787109375
-212.40234375
-214.2333984375
-209.65576171875
-200.50048828125
-195.00732421875
-184.02099609375
-187.68310546875
-171.20361328125
-163.87939453125
-157.470703125
-151.06201171875
-165.71044921875
-158.38623046875
-152.89306640625
-150.146484375
-138.24462890625
-147.39990234375
-156.55517578125
-164.794921875
-161.1328125
-169.37255859375
-204.16259765625
-222.47314453125
-229.79736328125
-246.27685546875
-259.09423828125
-252.685546875
-253.60107421875
-262.75634765625
-272.8271484375
-268.24951171875
-276.4892578125
-270.99609375
-275.57373046875
-277.40478515625
-285.64453125
-292.96875
-280.1513671875
-282.89794921875
-277.40478515625
-283.8134765625
-278.3203125
-285.64453125
-280.1513671875
-281.06689453125
-279.23583984375
-280.1513671875
-278.3203125
-287.4755859375
-294.7998046875
-291.1376953125
-316.7724609375
-299.37744140625
-301.20849609375
-284.72900390625
-277.40478515625
-280.1513671875
-281.982421875
-283.8134765625
-291.1376953125
-299.37744140625
-307.6171875
-322.265625
-332.33642578125
-323.18115234375
-276.4892578125
-230.712890625
-166.6259765625
-55.84716796875
76.904296875
220.64208984375
399.169921875
564.88037109375
726.9287109375
862.4267578125
983.2763671875
1024.47509765625
970.458984375
760.80322265625
505.37109375
249.93896484375
65.91796875
-19.22607421875
-83.31298828125
-114.44091796875
-131.8359375
-160.21728515625
-214.2333984375
-251.77001953125
-273.74267578125
-268.24951171875
-246.27685546875
-225.2197265625
-227.96630859375
-235.29052734375
-236.2060546875
-261.8408203125
-269.1650390625
-264.58740234375
-260.92529296875
-261.8408203125
-254.5166015625
-251.77001953125
-261.8408203125
-269.1650390625
-271.91162109375
-261.8408203125
-259.09423828125
-262.75634765625
-251.77001953125
-256.34765625
-263.671875
-252.685546875
-244.44580078125
-248.10791015625
-256.34765625
-260.009765625
-260.009765625
-249.0234375
-244.44580078125
-250.8544921875
-244.44580078125
-238.037109375
-235.29052734375
-238.037109375
-238.95263671875
-226.13525390625
-229.79736328125
-223.388671875
-227.05078125
-222.47314453125
-214.2333984375
-213.31787109375
-208.740234375
-212.40234375
-211.48681640625
-211.48681640625
-208.740234375
-222.47314453125
-215.14892578125
-200.50048828125
-195.9228515625
-180.35888671875
-176.69677734375
-175.78125
-184.9365234375
-181.2744140625
-176.69677734375
-178.52783203125
-179.443359375
-168.45703125
-158.38623046875
-143.73779296875
-140.07568359375
-140.07568359375
-133.6669921875
-124.51171875
-132.75146484375
-121.76513671875
-114.44091796875
-114.44091796875
-113.525390625
-97.96142578125
-86.97509765625
-84.228515625
-75.0732421875
-57.67822265625
-57.67822265625
-51.26953125
-51.26953125
-51.26953125
-32.04345703125
-23.8037109375
-22.88818359375
-19.22607421875
-19.22607421875
-8.23974609375
-10.07080078125
-6.40869140625
-8.23974609375
-7.32421875
-12.8173828125
-4.57763671875
-4.57763671875
6.40869140625
10.07080078125
18.310546875
15.56396484375
10.986328125
13.73291015625
21.05712890625
11.90185546875
13.73291015625
-16.4794921875
-32.04345703125
-29.296875
-21.05712890625
-26.55029296875
-39.36767578125
-45.7763671875
-61.34033203125
-86.0595703125
-88.80615234375
-95.21484375
-110.77880859375
-116.27197265625
-120.849609375
-136.41357421875
-148.3154296875
-155.6396484375
-177.6123046875
-183.10546875
-186.767578125
-197.75390625
-206.9091796875
-206.9091796875
-205.99365234375
-210.5712890625
-221.5576171875
-235.29052734375
-233.45947265625
-236.2060546875
-244.44580078125
-252.685546875
-242.61474609375
-231.62841796875
-239.8681640625
-246.27685546875
-241.69921875
-249.0234375
-251.77001953125
-235.29052734375
-231.62841796875
-240.78369140625
-236.2060546875
-225.2197265625
-209.65576171875
-227.96630859375
-242.61474609375
-242.61474609375
-249.0234375
-238.95263671875
-240.78369140625
-241.69921875
-244.44580078125
-236.2060546875
-222.47314453125
-234.375
-229.79736328125
-231.62841796875
-223.388671875
-228.8818359375
-243.5302734375
-228.8818359375
-220.64208984375
-230.712890625
-235.29052734375
-232.5439453125
-229.79736328125
-244.44580078125
-238.95263671875
-230.712890625
-229.79736328125
-227.05078125
-229.79736328125
-230.712890625
-228.8818359375
-236.2060546875
-233.45947265625
-233.45947265625
-223.388671875
-234.375
-242.61474609375
-241.69921875
-235.29052734375
-228.8818359375
-231.62841796875
-238.037109375
-228.8818359375
-229.79736328125
-237.12158203125
-227.05078125
-229.79736328125
-231.62841796875
-233.45947265625
-238.95263671875
-242.61474609375
-243.5302734375
-236.2060546875
-230.712890625
-227.05078125
-228.8818359375
-232.5439453125
-232.5439453125
-241.69921875
-237.12158203125
-248.10791015625
-247.1923828125
-249.0234375
-256.34765625
-248.10791015625
-243.5302734375
-252.685546875
-249.93896484375
-243.5302734375
-247.1923828125
-257.26318359375
-251.77001953125
-248.10791015625
-252.685546875
-255.43212890625
-255.43212890625
-260.009765625
-255.43212890625
-253.60107421875
-261.8408203125
-250.8544921875
-254.5166015625
-260.92529296875
-247.1923828125
-256.34765625
-258.1787109375
-248.10791015625
-234.375
-249.0234375
-254.5166015625
-261.8408203125
-250.8544921875
-240.78369140625
-230.712890625
-226.13525390625
-213.31787109375
-194.091796875
-194.091796875
-197.75390625
-182.18994140625
-183.10546875
-186.767578125
-192.2607421875
-192.2607421875
-198.66943359375
-193.17626953125
-163.87939453125
-134.58251953125
-137.3291015625
-138.24462890625
-137.3291015625
-131.8359375
-132.75146484375
-140.9912109375
-137.3291015625
-137.3291015625
-139.16015625
-131.8359375
-129.08935546875
-143.73779296875
-162.04833984375
-176.69677734375
-194.091796875
-210.5712890625
-214.2333984375
-222.47314453125
-228.8818359375
-230.712890625
-230.712890625
-238.95263671875
-249.0234375
-260.009765625
-265.5029296875
-269.1650390625
-267.333984375
-268.24951171875
-265.5029296875
-260.92529296875
-266.41845703125
-270.08056640625
-265.5029296875
-269.1650390625
-271.91162109375
-263.671875
-271.91162109375
-278.3203125
-257.26318359375
-272.8271484375
-272.8271484375
-261.8408203125
-257.26318359375
-264.58740234375
-263.671875
-270.99609375
-273.74267578125
-267.333984375
-255.43212890625
-264.58740234375
-265.5029296875
-261.8408203125
-270.99609375
-297.54638671875
-299.37744140625
-307.6171875
-315.85693359375
-313.1103515625
-287.4755859375
-237.12158203125
-188.5986328125
-94.29931640625
41.19873046875
175.78125
342.4072265625
509.94873046875
668.3349609375
812.07275390625
933.837890625
1013.48876953125
1018.06640625
856.93359375
586.85302734375
332.33642578125
103.45458984375
2.74658203125
-73.2421875
-114.44091796875
-143.73779296875
-170.2880859375
-210.5712890625
-251.77001953125
-269.1650390625
-244.44580078125
-216.064453125
-206.9091796875
-211.48681640625
-219.7265625
-237.12158203125
-228.8818359375
-238.037109375
-240.78369140625
-260.009765625
-275.57373046875
-272.8271484375
-263.671875
-246.27685546875
-225.2197265625
-213.31787109375
-231.62841796875
-224.30419921875
-230.712890625
-224.30419921875
-221.5576171875
-235.29052734375
-238.037109375
-248.10791015625
-247.1923828125
-241.69921875
-232.5439453125
-232.5439453125
-236.2060546875
-218.81103515625
-229.79736328125
-238.037109375
-232.5439453125
-217.8955078125
-221.5576171875
-208.740234375
-201.416015625
-191.34521484375
-187.68310546875
-191.34521484375
-194.091796875
-193.17626953125
-206.9091796875
-214.2333984375
-212.40234375
-188.5986328125
-193.17626953125
-186.767578125
-173.9501953125
-159.3017578125
-162.9638671875
-165.71044921875
-151.06201171875
-152.89306640625
-151.9775390625
-163.87939453125
-160.21728515625
-137.3291015625
-136.41357421875
-133.6669921875
-135.498046875
-134.58251953125
-119.0185546875
-114.44091796875
-105.28564453125
-104.3701171875
-106.201171875
-92.46826171875
-89.7216796875
-78.7353515625
-67.7490234375
-62.255859375
-65.91796875
-60.4248046875
-49.4384765625
-41.19873046875
-29.296875
-23.8037109375
-23.8037109375
-10.07080078125
-2.74658203125
-4.57763671875
11.90185546875
19.22607421875
20.1416015625
32.04345703125
19.22607421875
29.296875
29.296875
29.296875
40.283203125
51.26953125
44.86083984375
50.35400390625
59.50927734375
40.283203125
50.35400390625
52.18505859375
53.1005859375
59.50927734375
61.34033203125
50.35400390625
49.4384765625
49.4384765625
50.35400390625
48.52294921875
43.02978515625
29.296875
11.90185546875
4.57763671875
-14.6484375
-3.662109375
-21.05712890625
-40.283203125
-47.607421875
-58.59375
-86.0595703125
-86.97509765625
-101.62353515625
-119.93408203125
-128.173828125
-122.6806640625
-140.9912109375
-164.794921875
-173.03466796875
-179.443359375
-179.443359375
-181.2744140625
-176.69677734375
-195.9228515625
-201.416015625
-188.5986328125
-186.767578125
-197.75390625
-212.40234375
-205.078125
-207.82470703125
-222.47314453125
-216.064453125
-215.14892578125
-219.7265625
-215.14892578125
-209.65576171875
-203.2470703125
-210.5712890625
-216.97998046875
-201.416015625
-198.66943359375
-197.75390625
-205.078125
-211.48681640625
-208.740234375
-218.81103515625
-211.48681640625
-205.99365234375
-215.14892578125
-209.65576171875
-206.9091796875
-202.33154296875
-204.16259765625
-193.17626953125
-190.4296875
-201.416015625
-197.75390625
-198.66943359375
-200.50048828125
-202.33154296875
-196.83837890625
-196.83837890625
-190.4296875
-195.9228515625
-193.17626953125
-192.2607421875
-191.34521484375
-205.99365234375
-208.740234375
-195.00732421875
-194.091796875
-193.17626953125
-186.767578125
-193.17626953125
-198.66943359375
-196.83837890625
-196.83837890625
-192.2607421875
-191.34521484375
-194.091796875
-198.66943359375
-201.416015625
-194.091796875
-191.34521484375
-197.75390625
-191.34521484375
-186.767578125
-192.2607421875
-191.34521484375
-196.83837890625
-203.2470703125
-199.5849609375
-206.9091796875
-201.416015625
-198.66943359375
-206.9091796875
-199.5849609375
-201.416015625
-216.064453125
-216.064453125
-214.2333984375
-214.2333984375
-209.65576171875
-209.65576171875
-216.97998046875
-212.40234375
-212.40234375
-223.388671875
-212.40234375
-221.5576171875
-218.81103515625
-220.64208984375
-219.7265625
-211.48681640625
-208.740234375
-212.40234375
-212.40234375
-204.16259765625
-194.091796875
-204.16259765625
-195.9228515625
-211.48681640625
-216.97998046875
-228.8818359375
-220.64208984375
-205.99365234375
-214.2333984375
-216.97998046875
-225.2197265625
-223.388671875
-212.40234375
-215.14892578125
-208.740234375
-214.2333984375
-211.48681640625
-217.8955078125
-214.2333984375
-216.97998046875
-221.5576171875
-225.2197265625
-226.13525390625
-225.2197265625
-217.8955078125
-217.8955078125
-225.2197265625
-204.16259765625
-187.68310546875
-173.9501953125
-156.55517578125
-138.24462890625
-156.55517578125
-151.9775390625
-148.3154296875
-148.3154296875
-153.80859375
-162.9638671875
-157.470703125
-141.90673828125
-119.0185546875
-105.28564453125
-104.3701171875
-113.525390625
-94.29931640625
-86.0595703125
-82.3974609375
-92.46826171875
-93.3837890625
-98.876953125
-103.45458984375
-77.81982421875
-91.552734375
-105.28564453125
-113.525390625
-122.6806640625
-130.92041015625
-141.90673828125
-161.1328125
-162.04833984375
-173.03466796875
-185.85205078125
-195.00732421875
-199.5849609375
-189.51416015625
-204.16259765625
-211.48681640625
-211.48681640625
-221.5576171875
-219.7265625
-217.8955078125
-221.5576171875
-223.388671875
-238.037109375
-235.29052734375
-242.61474609375
-249.93896484375
-244.44580078125
-264.58740234375
-259.09423828125
-233.45947265625
-240.78369140625
-247.1923828125
-222.47314453125
-215.14892578125
-213.31787109375
-215.14892578125
-223.388671875
-224.30419921875
-222.47314453125
-225.2197265625
-231.62841796875
-219.7265625
-217.8955078125
-239.8681640625
-257.26318359375
-251.77001953125
-262.75634765625
-277.40478515625
-270.99609375
-252.685546875
-216.97998046875
-151.9775390625
-55.84716796875
73.2421875
190.4296875
355.224609375
534.66796875
705.87158203125
851.4404296875
980.52978515625
1070.25146484375
1095.88623046875
934.75341796875
649.10888671875
407.40966796875
151.9775390625
5.4931640625
-64.0869140625
-100.7080078125
-131.8359375
-173.9501953125
-208.740234375
-220.64208984375
-209.65576171875
-178.52783203125
-156.55517578125
-173.9501953125
-168.45703125
-167.54150390625
-168.45703125
-170.2880859375
-187.68310546875
-180.35888671875
-185.85205078125
-196.83837890625
-194.091796875
-197.75390625
-202.33154296875
-207.82470703125
-211.48681640625
-207.82470703125
-196.83837890625
-186.767578125
-196.83837890625
-207.82470703125
-206.9091796875
-202.33154296875
-214.2333984375
-208.740234375
-189.51416015625
-201.416015625
-195.00732421875
-195.00732421875
-190.4296875
-191.34521484375
-185.85205078125
-183.10546875
-191.34521484375
-190.4296875
-172.119140625
-175.78125
-170.2880859375
-171.20361328125
-169.37255859375
-160.21728515625
-173.9501953125
-169.37255859375
-162.9638671875
-155.6396484375
-168.45703125
-162.04833984375
-151.9775390625
-158.38623046875
-149.23095703125
-135.498046875
-146.484375
-155.6396484375
-144.6533203125
-128.173828125
-136.41357421875
-118.10302734375
-106.201171875
-127.25830078125
-111.6943359375
-112.60986328125
-94.29931640625
-94.29931640625
-90.63720703125
-78.7353515625
-83.31298828125
-73.2421875
-67.7490234375
-64.0869140625
-43.9453125
-27.4658203125
-24.71923828125
-21.97265625
-26.55029296875
-23.8037109375
-15.56396484375
-2.74658203125
9.1552734375
17.39501953125
27.4658203125
35.70556640625
34.7900390625
46.69189453125
45.7763671875
41.19873046875
42.1142578125
49.4384765625
55.84716796875
59.50927734375
70.49560546875
64.0869140625
72.32666015625
70.49560546875
76.904296875
78.7353515625
99.79248046875
87.890625
85.14404296875
83.31298828125
93.3837890625
75.0732421875
69.580078125
82.3974609375
89.7216796875
74.15771484375
58.59375
55.84716796875
37.53662109375
13.73291015625
21.97265625
31.1279296875
30.21240234375
4.57763671875
-15.56396484375
-30.21240234375
-45.7763671875
-50.35400390625
-63.17138671875
-81.48193359375
-85.14404296875
-95.21484375
-106.201171875
-129.08935546875
-132.75146484375
-136.41357421875
-160.21728515625
-167.54150390625
-171.20361328125
-177.6123046875
-187.68310546875
-195.00732421875
-181.2744140625
-185.85205078125
-199.5849609375
-205.078125
-205.99365234375
-211.48681640625
-203.2470703125
-204.16259765625
-205.99365234375
-208.740234375
-213.31787109375
-225.2197265625
-229.79736328125
-219.7265625
-205.99365234375
-196.83837890625
-195.9228515625
-205.078125
-209.65576171875
-215.14892578125
-209.65576171875
-206.9091796875
-212.40234375
-210.5712890625
-206.9091796875
-216.064453125
-207.82470703125
-210.5712890625
-205.078125
-200.50048828125
-210.5712890625
-206.9091796875
-203.2470703125
-210.5712890625
-205.99365234375
-211.48681640625
-216.064453125
-207.82470703125
-202.33154296875
-216.97998046875
-203.2470703125
-197.75390625
-208.740234375
-209.65576171875
-210.5712890625
-226.13525390625
-229.79736328125
-218.81103515625
-215.14892578125
-209.65576171875
-205.99365234375
-197.75390625
-190.4296875
-192.2607421875
-202.33154296875
-201.416015625
-206.9091796875
-216.97998046875
-216.97998046875
-213.31787109375
-216.064453125
-214.2333984375
-202.33154296875
-199.5849609375
-205.078125
-207.82470703125
-223.388671875
-223.388671875
-225.2197265625
-220.64208984375
-221.5576171875
-221.5576171875
-223.388671875
-223.388671875
-223.388671875
-224.30419921875
-221.5576171875
-219.7265625
-229.79736328125
-238.95263671875
-242.61474609375
-242.61474609375
-231.62841796875
-227.96630859375
-233.45947265625
-226.13525390625
-230.712890625
-243.5302734375
-242.61474609375
-231.62841796875
-218.81103515625
-211.48681640625
-211.48681640625
-224.30419921875
-239.8681640625
-229.79736328125
-219.7265625
-212.40234375
-224.30419921875
-239.8681640625
-232.5439453125
-235.29052734375
-240.78369140625
-240.78369140625
-231.62841796875
-243.5302734375
-241.69921875
-247.1923828125
-242.61474609375
-227.96630859375
-224.30419921875
-234.375
-241.69921875
-238.037109375
-226.13525390625
-223.388671875
-216.064453125
-210.5712890625
-189.51416015625
-199.5849609375
-197.75390625
-195.00732421875
-199.5849609375
-197.75390625
-205.078125
-188.5986328125
-174.86572265625
-169.37255859375
-153.80859375
-135.498046875
-121.76513671875
-119.93408203125
-111.6943359375
-103.45458984375
-101.62353515625
-127.25830078125
-136.41357421875
-131.8359375
-122.6806640625
-108.0322265625
-111.6943359375
-119.0185546875
-133.6669921875
-150.146484375
-162.9638671875
-174.86572265625
-196.83837890625
-192.2607421875
-195.00732421875
-239.8681640625
-232.5439453125
-226.13525390625
-229.79736328125
-247.1923828125
-241.69921875
-232.5439453125
-225.2197265625
-233.45947265625
-239.8681640625
-244.44580078125
-256.34765625
-265.5029296875
-261.8408203125
-256.34765625
-260.92529296875
-263.671875
-251.77001953125
-270.99609375
-271.91162109375
-274.658203125
-256.34765625
-255.43212890625
-267.333984375
-259.09423828125
-248.10791015625
-255.43212890625
-254.5166015625
-263.671875
-262.75634765625
-260.009765625
-245.361328125
-257.26318359375
-269.1650390625
-274.658203125
-290.22216796875
-292.96875
-299.37744140625
-302.1240234375
-275.57373046875
-216.064453125
-147.39990234375
-78.7353515625
50.35400390625
198.66943359375
361.63330078125
536.4990234375
681.15234375
831.298828125
954.89501953125
1027.2216796875
1040.95458984375
891.7236328125
624.3896484375
358.88671875
129.08935546875
14.6484375
-36.62109375
-85.14404296875
-106.201171875
-136.41357421875
-186.767578125
-243.5302734375
-286.56005859375
-281.982421875
-248.10791015625
-230.712890625
-229.79736328125
-210.5712890625
-208.740234375
-203.2470703125
-209.65576171875
-238.037109375
-242.61474609375
-247.1923828125
-245.361328125
-227.96630859375
-238.037109375
-243.5302734375
-255.43212890625
-247.1923828125
-244.44580078125
-255.43212890625
-261.8408203125
-260.009765625
-264.58740234375
-249.93896484375
-253.60107421875
-260.92529296875
-256.34765625
-256.34765625
-250.8544921875
-260.92529296875
-267.333984375
-250.8544921875
-240.78369140625
-246.27685546875
-240.78369140625
-233.45947265625
-227.05078125
-231.62841796875
-231.62841796875
-223.388671875
-213.31787109375
-217.8955078125
-226.13525390625
-219.7265625
-219.7265625
-206.9091796875
-203.2470703125
-205.99365234375
-203.2470703125
-201.416015625
-202.33154296875
-202.33154296875
-199.5849609375
-187.68310546875
-174.86572265625
-168.45703125
-179.443359375
-166.6259765625
-170.2880859375
-170.2880859375
-165.71044921875
-175.78125
-168.45703125
-153.80859375
-139.16015625
-129.08935546875
-140.07568359375
-138.24462890625
-127.25830078125
-115.3564453125
-108.94775390625
-117.1875
-115.3564453125
-104.3701171875
-107.11669921875
-103.45458984375
-84.228515625
-72.32666015625
-62.255859375
-54.931640625
-53.1005859375
-60.4248046875
-40.283203125
-21.05712890625
-26.55029296875
-26.55029296875
-21.97265625
-23.8037109375
-33.87451171875
-13.73291015625
-10.07080078125
-6.40869140625
0.91552734375
2.74658203125
9.1552734375
10.986328125
21.05712890625
17.39501953125
11.90185546875
16.4794921875
0
-7.32421875
8.23974609375
2.74658203125
-0.91552734375
-10.07080078125
-27.4658203125
-24.71923828125
-22.88818359375
-32.958984375
-43.02978515625
-49.4384765625
-57.67822265625
-72.32666015625
-83.31298828125
-94.29931640625
-111.6943359375
-127.25830078125
-151.9775390625
-150.146484375
-162.04833984375
-178.52783203125
-189.51416015625
-190.4296875
-197.75390625
-205.078125
-219.7265625
-216.064453125
-226.13525390625
-219.7265625
-224.30419921875
-221.5576171875
-228.8818359375
-238.95263671875
-263.671875
-271.91162109375
-262.75634765625
-266.41845703125
-254.5166015625
-250.8544921875
-271.91162109375
-276.4892578125
-271.91162109375
-268.24951171875
-267.333984375
-264.58740234375
-266.41845703125
-266.41845703125
-267.333984375
-267.333984375
-263.671875
-277.40478515625
-271.91162109375
-270.08056640625
-273.74267578125
-275.57373046875
-277.40478515625
-270.08056640625
-260.92529296875
-254.5166015625
-244.44580078125
-252.685546875
-265.5029296875
-254.5166015625
-265.5029296875
-269.1650390625
-260.92529296875
-267.333984375
-260.009765625
-260.009765625
-271.91162109375
-271.91162109375
-269.1650390625
-272.8271484375
-268.24951171875
-260.92529296875
-273.74267578125
-274.658203125
-278.3203125
-276.4892578125
-269.1650390625
-268.24951171875
-280.1513671875
-289.306640625
-285.64453125
-273.74267578125
-274.658203125
-258.1787109375
-270.08056640625
-267.333984375
-258.1787109375
-279.23583984375
-285.64453125
-277.40478515625
-290.22216796875
-289.306640625
-281.982421875
-282.89794921875
-292.05322265625
-294.7998046875
-289.306640625
-281.06689453125
-277.40478515625
-286.56005859375
-291.1376953125
-293.88427734375
-304.87060546875
-315.85693359375
-320.4345703125
-319.51904296875
-305.7861328125
-294.7998046875
-292.05322265625
-295.71533203125
-283.8134765625
-289.306640625
-293.88427734375
-298.4619140625
-307.6171875
-305.7861328125
-304.87060546875
-290.22216796875
-287.4755859375
-291.1376953125
-293.88427734375
-281.06689453125
-272.8271484375
-259.09423828125
-270.99609375
-263.671875
-250.8544921875
-251.77001953125
-259.09423828125
-269.1650390625
-274.658203125
-267.333984375
-239.8681640625
-245.361328125
-261.8408203125
-232.5439453125
-221.5576171875
-210.5712890625
-217.8955078125
-213.31787109375
-214.2333984375
-196.83837890625
-192.2607421875
-179.443359375
-189.51416015625
-193.17626953125
-205.99365234375
-218.81103515625
-227.96630859375
-230.712890625
-245.361328125
-253.60107421875
-277.40478515625
-291.1376953125
-307.6171875
-313.1103515625
-307.6171875
-314.94140625
-314.02587890625
-309.4482421875
-307.6171875
-310.36376953125
-342.4072265625
-333.251953125
-312.19482421875
-332.33642578125
-346.0693359375
-344.23828125
-336.9140625
-337.82958984375
-337.82958984375
-338.7451171875
-341.49169921875
-348.81591796875
-336.9140625
-334.16748046875
-328.67431640625
-331.4208984375
-327.7587890625
-327.7587890625
-330.50537109375
-336.9140625
-352.47802734375
-348.81591796875
-325.927734375
-333.251953125
-349.7314453125
-337.82958984375
-346.98486328125
-357.97119140625
-377.197265625
-387.26806640625
-364.3798828125
-333.251953125
-292.96875
-213.31787109375
-92.46826171875
36.62109375
179.443359375
364.3798828125
520.93505859375
678.40576171875
816.650390625
918.27392578125
961.3037109375
887.14599609375
656.43310546875
393.6767578125
150.146484375
-22.88818359375
-92.46826171875
-146.484375
-179.443359375
-188.5986328125
-221.5576171875
-266.41845703125
-317.68798828125
-346.0693359375
-326.84326171875
-303.03955078125
-285.64453125
-287.4755859375
-299.37744140625
-305.7861328125
-312.19482421875
-298.4619140625
-295.71533203125
-302.1240234375
-313.1103515625
-312.19482421875
-315.85693359375
-312.19482421875
-289.306640625
-292.96875
-304.87060546875
-304.87060546875
-308.53271484375
-314.02587890625
-316.7724609375
-305.7861328125
-312.19482421875
-313.1103515625
-312.19482421875
-315.85693359375
-304.87060546875
-310.36376953125
-311.279296875
-312.19482421875
-299.37744140625
-286.56005859375
-288.39111328125
-291.1376953125
-283.8134765625
-281.982421875
-280.1513671875
-285.64453125
-295.71533203125
-292.96875
-293.88427734375
-302.1240234375
-288.39111328125
-270.08056640625
-264.58740234375
-260.009765625
-249.93896484375
-247.1923828125
-243.5302734375
-238.037109375
-240.78369140625
-249.0234375
-235.29052734375
-227.05078125
-234.375
-222.47314453125
-217.8955078125
-219.7265625
-216.064453125
-203.2470703125
-203.2470703125
-206.9091796875
-201.416015625
-195.9228515625
-195.9228515625
-180.35888671875
-189.51416015625
-190.4296875
-184.9365234375
-165.71044921875
-147.39990234375
-148.3154296875
-152.89306640625
-140.9912109375
-112.60986328125
-108.94775390625
-112.60986328125
-108.0322265625
-102.5390625
-93.3837890625
-86.0595703125
-75.98876953125
-81.48193359375
-81.48193359375
-75.98876953125
-67.7490234375
-51.26953125
-37.53662109375
-37.53662109375
-46.69189453125
-54.01611328125
-67.7490234375
-69.580078125
-59.50927734375
-50.35400390625
-44.86083984375
-26.55029296875
-20.1416015625
-14.6484375
-21.05712890625
-22.88818359375
-23.8037109375
-24.71923828125
-36.62109375
-43.02978515625
-50.35400390625
-63.17138671875
-70.49560546875
-75.0732421875
-91.552734375
-105.28564453125
-117.1875
-128.173828125
-147.39990234375
-149.23095703125
-150.146484375
-163.87939453125
-187.68310546875
-203.2470703125
-204.16259765625
-216.064453125
-219.7265625
-222.47314453125
-234.375
-241.69921875
-257.26318359375
-262.75634765625
-272.8271484375
-271.91162109375
-257.26318359375
-262.75634765625
-271.91162109375
-265.5029296875
-270.99609375
-275.57373046875
-274.658203125
-287.4755859375
-279.23583984375
-284.72900390625
-279.23583984375
-292.05322265625
-285.64453125
-280.1513671875
-281.982421875
-281.982421875
-271.91162109375
-271.91162109375
-270.08056640625
-270.08056640625
-268.24951171875
-270.08056640625
-269.1650390625
-273.74267578125
-288.39111328125
-274.658203125
-273.74267578125
-274.658203125
-278.3203125
-277.40478515625
-281.982421875
-276.4892578125
-281.06689453125
-281.982421875
-273.74267578125
-265.5029296875
-271.91162109375
-273.74267578125
-267.333984375
-275.57373046875
-276.4892578125
-272.8271484375
-271.91162109375
-270.08056640625
-262.75634765625
-276.4892578125
-290.22216796875
-271.91162109375
-256.34765625
-255.43212890625
-257.26318359375
-259.09423828125
-254.5166015625
-263.671875
-288.39111328125
-284.72900390625
-268.24951171875
-259.09423828125
-260.92529296875
-267.333984375
-269.1650390625
-279.23583984375
-279.23583984375
-286.56005859375
-285.64453125
-273.74267578125
-268.24951171875
-277.40478515625
-281.982421875
-288.39111328125
-277.40478515625
-270.99609375
-289.306640625
-293.88427734375
-291.1376953125
-289.306640625
-278.3203125
-279.23583984375
-274.658203125
-287.4755859375
-280.1513671875
-270.08056640625
-273.74267578125
-292.05322265625
-298.4619140625
-282.89794921875
-283.8134765625
-293.88427734375
-292.05322265625
-289.306640625
-288.39111328125
-292.05322265625
-296.630859375
-296.630859375
-281.06689453125
-288.39111328125
-295.71533203125
-285.64453125
-270.99609375
-259.09423828125
-248.10791015625
-237.12158203125
-234.375
-225.2197265625
-220.64208984375
-216.064453125
-218.81103515625
-227.05078125
-220.64208984375
-231.62841796875
-207.82470703125
-199.5849609375
-190.4296875
-176.69677734375
-176.69677734375
-170.2880859375
-155.6396484375
-153.80859375
-166.6259765625
-154.72412109375
-173.03466796875
-180.35888671875
-173.03466796875
-184.9365234375
-195.00732421875
-205.078125
-198.66943359375
-195.9228515625
-222.47314453125
-235.29052734375
-229.79736328125
-240.78369140625
-268.24951171875
-275.57373046875
-270.99609375
-277.40478515625
-295.71533203125
-300.29296875
-301.20849609375
-303.03955078125
-294.7998046875
-286.56005859375
-290.22216796875
-294.7998046875
-304.87060546875
-312.19482421875
-299.37744140625
-300.29296875
-307.6171875
-303.03955078125
-309.4482421875
-308.53271484375
-297.54638671875
-305.7861328125
-298.4619140625
-303.03955078125
-311.279296875
-309.4482421875
-303.955078125
-316.7724609375
-312.19482421875
-312.19482421875
-315.85693359375
-311.279296875
-317.68798828125
-321.35009765625
-322.265625
-329.58984375
-331.4208984375
-346.98486328125
-347.900390625
-325.01220703125
-282.89794921875
-237.12158203125
-161.1328125
-34.7900390625
94.29931640625
256.34765625
429.38232421875
574.951171875
722.35107421875
864.2578125
975.03662109375
1008.9111328125
886.23046875
617.98095703125
365.29541015625
129.08935546875
-23.8037109375
-91.552734375
-159.3017578125
-187.68310546875
-199.5849609375
-233.45947265625
-281.982421875
-287.4755859375
-272.8271484375
-256.34765625
-246.27685546875
-255.43212890625
-262.75634765625
-266.41845703125
-267.333984375
-258.1787109375
-264.58740234375
-260.92529296875
-264.58740234375
-273.74267578125
-283.8134765625
-271.91162109375
-278.3203125
-270.08056640625
-278.3203125
-281.06689453125
-284.72900390625
-292.96875
-293.88427734375
-278.3203125
-275.57373046875
-288.39111328125
-281.06689453125
-282.89794921875
-281.06689453125
-270.99609375
-251.77001953125
-248.10791015625
-251.77001953125
-263.671875
-263.671875
-259.09423828125
-252.685546875
-257.26318359375
-249.93896484375
-249.93896484375
-239.8681640625
-241.69921875
-239.8681640625
-236.2060546875
-238.037109375
-227.96630859375
-226.13525390625
-232.5439453125
-238.95263671875
-233.45947265625
-240.78369140625
-234.375
-230.712890625
-227.96630859375
-212.40234375
-194.091796875
-195.00732421875
-196.83837890625
-184.9365234375
-193.17626953125
-184.02099609375
-176.69677734375
-172.119140625
-186.767578125
-174.86572265625
-166.6259765625
-151.9775390625
-144.6533203125
-143.73779296875
-142.822265625
-133.6669921875
-127.25830078125
-111.6943359375
-103.45458984375
-103.45458984375
-99.79248046875
-89.7216796875
-73.2421875
-60.4248046875
-56.7626953125
-61.34033203125
-50.35400390625
-42.1142578125
-36.62109375
-22.88818359375
-20.1416015625
-19.22607421875
-21.05712890625
-19.22607421875
-18.310546875
-0.91552734375
7.32421875
10.986328125
-2.74658203125
0
12.8173828125
14.6484375
11.90185546875
10.986328125
26.55029296875
24.71923828125
23.8037109375
19.22607421875
3.662109375
1.8310546875
7.32421875
-3.662109375
-0.91552734375
-8.23974609375
-22.88818359375
-27.4658203125
-45.7763671875
-55.84716796875
-71.4111328125
-78.7353515625
-88.80615234375
-101.62353515625
-110.77880859375
-119.0185546875
-127.25830078125
-146.484375
-164.794921875
-169.37255859375
-172.119140625
-188.5986328125
-216.97998046875
-208.740234375
-228.8818359375
-237.12158203125
-234.375
-237.12158203125
-244.44580078125
-246.27685546875
-249.93896484375
-254.5166015625
-260.92529296875
-268.24951171875
-270.99609375
-280.1513671875
-265.5029296875
-256.34765625
-278.3203125
-277.40478515625
-266.41845703125
-268.24951171875
-274.658203125
-257.26318359375
-270.08056640625
-282.89794921875
-275.57373046875
-261.8408203125
-279.23583984375
-284.72900390625
-273.74267578125
-265.5029296875
-261.8408203125
-263.671875
-280.1513671875
-278.3203125
-270.08056640625
-263.671875
-268.24951171875
-272.8271484375
-265.5029296875
-276.4892578125
-276.4892578125
-278.3203125
-276.4892578125
-266.41845703125
-255.43212890625
-264.58740234375
-264.58740234375
-268.24951171875
-273.74267578125
-271.91162109375
-275.57373046875
-269.1650390625
-254.5166015625
-272.8271484375
-272.8271484375
-272.8271484375
-271.91162109375
-275.57373046875
-287.4755859375
-290.22216796875
-283.8134765625
-266.41845703125
-267.333984375
-271.91162109375
-274.658203125
-272.8271484375
-260.92529296875
-269.1650390625
-279.23583984375
-287.4755859375
-281.06689453125
-280.1513671875
-275.57373046875
-274.658203125
-278.3203125
-287.4755859375
-277.40478515625
-276.4892578125
-273.74267578125
-281.982421875
-296.630859375
-300.29296875
-297.54638671875
-292.05322265625
-285.64453125
-287.4755859375
-285.64453125
-288.39111328125
-284.72900390625
-293.88427734375
-298.4619140625
-292.05322265625
-297.54638671875
-294.7998046875
-284.72900390625
-290.22216796875
-283.8134765625
-287.4755859375
-288.39111328125
-280.1513671875
-280.1513671875
-285.64453125
-278.3203125
-287.4755859375
-302.1240234375
-304.87060546875
-304.87060546875
-302.1240234375
-295.71533203125
-294.7998046875
-302.1240234375
-290.22216796875
-293.88427734375
-301.20849609375
-292.05322265625
-306.70166015625
-308.53271484375
-299.37744140625
-292.05322265625
-312.19482421875
-303.955078125
-299.37744140625
-294.7998046875
-292.05322265625
-302.1240234375
-298.4619140625
-295.71533203125
-294.7998046875
-292.05322265625
-297.54638671875
-288.39111328125
-273.74267578125
-266.41845703125
-248.10791015625
-230.712890625
-219.7265625
-227.96630859375
-232.5439453125
-235.29052734375
-237.12158203125
-233.45947265625
-234.375
-234.375
-225.2197265625
-207.82470703125
-190.4296875
-179.443359375
-177.6123046875
-179.443359375
-174.86572265625
-171.20361328125
-176.69677734375
-174.86572265625
-173.9501953125
-181.2744140625
-174.86572265625
-177.6123046875
-185.85205078125
-200.50048828125
-205.078125
-209.65576171875
-223.388671875
-231.62841796875
-235.29052734375
-250.8544921875
-267.333984375
-265.5029296875
-267.333984375
-272.8271484375
-284.72900390625
-293.88427734375
-302.1240234375
-300.29296875
-293.88427734375
-298.4619140625
-294.7998046875
-303.955078125
-314.94140625
-305.7861328125
-310.36376953125
-304.87060546875
-306.70166015625
-314.94140625
-306.70166015625
-305.7861328125
-301.20849609375
-294.7998046875
-298.4619140625
-292.05322265625
-293.88427734375
-308.53271484375
-311.279296875
-313.1103515625
-304.87060546875
-300.29296875
-311.279296875
-328.67431640625
-326.84326171875
-325.01220703125
-322.265625
-329.58984375
-337.82958984375
-346.0693359375
-346.0693359375
-329.58984375
-292.96875
-243.5302734375
-167.54150390625
-32.04345703125
99.79248046875
243.5302734375
421.142578125
595.0927734375
754.39453125
880.7373046875
971.37451171875
1017.15087890625
910.94970703125
637.20703125
380.859375
122.6806640625
-52.18505859375
-122.6806640625
-163.87939453125
-213.31787109375
-237.12158203125
-265.5029296875
-287.4755859375
-293.88427734375
-268.24951171875
-236.2060546875
-227.96630859375
-248.10791015625
-255.43212890625
